,Elapsed Time,EMG
0,00:00:00,-1.197725057601929
1,00:00:00.004,1.1480641961097708
2,00:00:00.008,0.933330178260803
3,00:00:00.012,0.105660542845726
4,00:00:00.016,-0.488066613674163
5,00:00:00.02,-0.5841235816478728
6,00:00:00.024,-0.368967026472091
7,00:00:00.028,-0.0487708840519189
8,00:00:00.032,0.16820141673088101
9,00:00:00.036,0.24334949254989607
10,00:00:00.04,0.180428475141524
11,00:00:00.044,0.0760270990431309
12,00:00:00.048,-0.03945623803883795
13,00:00:00.052,-0.0805808641016484
14,00:00:00.056,-0.0794973932206631
15,00:00:00.06,-0.011721439659595496
16,00:00:00.064,0.014734236523509024
17,00:00:00.068,0.0126335984095931
18,00:00:00.072,0.0166444815695286
19,00:00:00.076,0.0031404376495629306
20,00:00:00.08,-0.007974773645400932
21,00:00:00.084,0.007922228309325879
22,00:00:00.088,0.02495378581807021
23,00:00:00.092,-0.01579631457570941
24,00:00:00.096,-0.02747644740156836
25,00:00:00.1,0.0058229048736393495
26,00:00:00.104,0.0012205782113596819
27,00:00:00.108,0.011796899605542421
28,00:00:00.112,-0.009348960709758096
29,00:00:00.116,0.009129258571192619
30,00:00:00.12,0.003473151562502617
31,00:00:00.124,-0.001961937930900602
32,00:00:00.128,-0.004117229575058447
33,00:00:00.132,-0.013683757861144865
34,00:00:00.136,0.012849127175286409
35,00:00:00.14,-0.005410777404904367
36,00:00:00.144,0.006981190759688609
37,00:00:00.148,0.00913614872843032
38,00:00:00.152,0.00408255262300372
39,00:00:00.156,-0.025122869294136835
40,00:00:00.16,0.00537029094994065
41,00:00:00.164,0.003216658835299315
42,00:00:00.168,-0.004814649466425189
43,00:00:00.172,0.0041781069012358715
44,00:00:00.176,0.0088567454367876
45,00:00:00.18,-0.004122709971852601
46,00:00:00.184,-0.004247813019901523
47,00:00:00.188,0.0031958668259903806
48,00:00:00.192,0.0099779237061739
49,00:00:00.196,-0.015213291480904481
50,00:00:00.2,-0.01119183888658876
51,00:00:00.204,0.012480608886107811
52,00:00:00.208,0.0018240995705128306
53,00:00:00.212,0.013436041830573224
54,00:00:00.216,-0.012341140303760802
55,00:00:00.22,-0.008726449683308601
56,00:00:00.224,0.02135456027463075
57,00:00:00.228,-0.005580923418165176
58,00:00:00.232,-0.01860125642269849
59,00:00:00.236,-0.00581452739425003
60,00:00:00.24,0.011018798919394609
61,00:00:00.244,0.01738471910357475
62,00:00:00.248,0.004913293392746707
63,00:00:00.252,-0.006340011779684575
64,00:00:00.256,-0.020263446553144653
65,00:00:00.26,0.0028612269088626
66,00:00:00.264,0.004361703759059249
67,00:00:00.268,-0.01343113015900595
68,00:00:00.272,0.023331741802394362
69,00:00:00.276,0.00706514983903616
70,00:00:00.28,-0.0022192166943568762
71,00:00:00.284,-0.01206447606091388
72,00:00:00.288,-0.00986665487289428
73,00:00:00.292,0.009721524547785531
74,00:00:00.296,-0.006349974020849922
75,00:00:00.3,0.0003204123495379519
76,00:00:00.304,0.00672692072112115
77,00:00:00.308,0.0007133091567084198
78,00:00:00.312,0.01714360527694226
79,00:00:00.316,-0.017021726904204115
80,00:00:00.32,-0.004496353212743991
81,00:00:00.324,-0.00813139928504826
82,00:00:00.328,0.0092615180183202
83,00:00:00.332,0.007761489832773798
84,00:00:00.336,-0.00070204376243055
85,00:00:00.34,-0.001188394278869967
86,00:00:00.344,-0.01704574923496691
87,00:00:00.348,0.023822833842132185
88,00:00:00.352,-0.005751187884015968
89,00:00:00.356,-0.010716210352256898
90,00:00:00.36,-0.0029287206562003077
91,00:00:00.364,0.014403940411284559
92,00:00:00.368,0.00443798443302513
93,00:00:00.372,0.0003633622545748923
94,00:00:00.376,-0.020682991947978693
95,00:00:00.38,-0.0061721776146441715
96,00:00:00.384,-0.0018346458673477199
97,00:00:00.388,0.03497008047997957
98,00:00:00.392,0.0002534573432058109
99,00:00:00.396,-0.00223756022751331
100,00:00:00.4,-0.02311380160972478
101,00:00:00.404,0.00011127872858196009
102,00:00:00.408,0.00987778243143112
103,00:00:00.412,-0.00191343203186989
104,00:00:00.416,-0.002375273033976562
105,00:00:00.42,-0.004006146918982265
106,00:00:00.424,0.018280074466019845
107,00:00:00.428,-0.010753548704087738
108,00:00:00.432,-0.002471229527145581
109,00:00:00.436,-0.030623346567153896
110,00:00:00.44,0.03479062183760103
111,00:00:00.444,0.027511591091752
112,00:00:00.448,0.0018546942737884809
113,00:00:00.452,-0.028071910957805767
114,00:00:00.456,-0.02321559726260603
115,00:00:00.46,-0.0063269464590121095
116,00:00:00.464,0.01381659589242191
117,00:00:00.468,0.015107541577890519
118,00:00:00.472,0.0036055950622539963
119,00:00:00.476,0.005735082988394419
120,00:00:00.48,-0.01187679206486791
121,00:00:00.484,0.00953201449010521
122,00:00:00.488,-0.0023305307840928496
123,00:00:00.492,0.01121352624613792
124,00:00:00.496,-0.0508985184133053
125,00:00:00.5,-0.0304302086587995
126,00:00:00.504,0.08408325538039205
127,00:00:00.508,0.01469027018174527
128,00:00:00.512,-0.01525675272569061
129,00:00:00.516,-0.011344586731866009
130,00:00:00.52,-0.01962577225640417
131,00:00:00.524,3.3523072488599905e-05
132,00:00:00.528,0.00236255745403469
133,00:00:00.532,0.0012944815680384597
134,00:00:00.536,-0.0032407103572040796
135,00:00:00.54,0.01357953366823495
136,00:00:00.544,-0.0194835865404457
137,00:00:00.548,0.02370752859860657
138,00:00:00.552,0.01246768515557055
139,00:00:00.556,-0.0019458637107163618
140,00:00:00.56,-0.02243961137719451
141,00:00:00.564,-0.01706591318361469
142,00:00:00.568,0.013585849432274708
143,00:00:00.572,0.01289860578253862
144,00:00:00.576,-0.0006958551239222301
145,00:00:00.58,-0.001925589400343594
146,00:00:00.584,-0.008889821183402093
147,00:00:00.588,0.005927275866270039
148,00:00:00.592,-0.00818873965181411
149,00:00:00.596,0.007122864713892352
150,00:00:00.6,0.004344001878052952
151,00:00:00.604,0.00312219467014075
152,00:00:00.608,0.000894721521490283
153,00:00:00.612,-0.00353247346356511
154,00:00:00.616,-0.007012878370005637
155,00:00:00.62,0.0007329680374823583
156,00:00:00.624,-0.007146159303374621
157,00:00:00.628,0.00805079378187657
158,00:00:00.632,-0.006214174063643446
159,00:00:00.636,0.002043379703536631
160,00:00:00.64,0.01041642110794779
161,00:00:00.644,0.024105805787257843
162,00:00:00.648,-0.01928399247117341
163,00:00:00.652,-0.01997175719588991
164,00:00:00.656,-0.006585376919247209
165,00:00:00.66,0.00918296573217958
166,00:00:00.664,-0.007057537965010853
167,00:00:00.668,0.034608292859047596
168,00:00:00.672,-0.0014678852603537984
169,00:00:00.676,-0.023660469334572505
170,00:00:00.68,-0.00945108244195584
171,00:00:00.684,0.01643640839029101
172,00:00:00.688,0.00784616032615303
173,00:00:00.692,-0.006024904898367821
174,00:00:00.696,-0.010611523175612089
175,00:00:00.7,-0.00043787492904811057
176,00:00:00.704,0.00874833669513464
177,00:00:00.708,0.00498966476880013
178,00:00:00.712,0.00761764449998736
179,00:00:00.716,-0.019895719131454808
180,00:00:00.72,-0.01674397787428463
181,00:00:00.724,0.028406481491401837
182,00:00:00.728,0.0018796906806528499
183,00:00:00.732,-0.01120664115296676
184,00:00:00.736,0.008392512390855695
185,00:00:00.74,0.0065006537479348515
186,00:00:00.744,-0.011157348024426032
187,00:00:00.748,-0.0018757714133244034
188,00:00:00.752,-0.006296776700764891
189,00:00:00.756,-0.004499023489188401
190,00:00:00.76,0.008610404329374429
191,00:00:00.764,0.01916812127456072
192,00:00:00.768,-0.00834660790860653
193,00:00:00.772,0.0005959956906736003
194,00:00:00.776,-0.015209579840302499
195,00:00:00.78,-0.006019456544891001
196,00:00:00.784,0.015172200277447699
197,00:00:00.788,0.0011252244003117093
198,00:00:00.792,0.00901794619858265
199,00:00:00.796,-0.010375943034887309
200,00:00:00.8,-0.005768140777945581
201,00:00:00.804,0.0058995457366108894
202,00:00:00.808,-0.001128223957493899
203,00:00:00.812,0.0002825795672833902
204,00:00:00.816,-0.004422304453328249
205,00:00:00.82,0.003291757835540924
206,00:00:00.824,0.006954305456019941
207,00:00:00.828,-0.005693846615031362
208,00:00:00.832,-0.02338943397626284
209,00:00:00.836,0.0174026325112209
210,00:00:00.84,0.03183935175184163
211,00:00:00.844,-0.0134443310089409
212,00:00:00.848,-0.013438051799312213
213,00:00:00.852,-0.005053428933024398
214,00:00:00.856,-0.0023891972377896305
215,00:00:00.86,0.014351222547702491
216,00:00:00.864,-0.02028161054477092
217,00:00:00.868,0.003471706411801255
218,00:00:00.872,0.0186453526839613
219,00:00:00.876,-0.00879359664395454
220,00:00:00.88,0.0007765346672385896
221,00:00:00.884,0.009084705496206881
222,00:00:00.888,0.007843159488402349
223,00:00:00.892,-0.015506892465054977
224,00:00:00.896,-0.0018396403174847278
225,00:00:00.9,-0.02008613431826234
226,00:00:00.904,0.0051239379681646815
227,00:00:00.908,0.014880277798511095
228,00:00:00.912,0.007645318284630778
229,00:00:00.916,0.011514721903949969
230,00:00:00.92,-0.010662839049473408
231,00:00:00.924,-0.014117439975962053
232,00:00:00.928,-0.0033523701131343902
233,00:00:00.932,0.00719924259465188
234,00:00:00.936,0.00297615979798138
235,00:00:00.94,-0.01000292599201207
236,00:00:00.944,0.007088165963068599
237,00:00:00.948,0.00526235648430887
238,00:00:00.952,0.010263708187267179
239,00:00:00.956,-0.02124456642195585
240,00:00:00.96,0.0051124673336744395
241,00:00:00.964,0.01127091830130662
242,00:00:00.968,0.0040002122987061696
243,00:00:00.972,-0.00784268381539728
244,00:00:00.976,-0.011135283624753361
245,00:00:00.98,-0.015022273641079671
246,00:00:00.984,0.0059076544130221
247,00:00:00.988,0.01963437977246937
248,00:00:00.992,0.012823266442865142
249,00:00:00.996,-0.001218896824866541
250,00:00:01,-0.019832812016829852
251,00:00:01.004,-0.0039473772048950195
252,00:00:01.008,0.00919347128365188
253,00:00:01.012,-0.00586163706611842
254,00:00:01.016,-0.0024312003515660806
255,00:00:01.02,0.0010742748272605188
256,00:00:01.024,0.017487546778284006
257,00:00:01.028,0.007803057669661941
258,00:00:01.032,-0.015063873317558313
259,00:00:01.036,-0.025459490250796028
260,00:00:01.04,0.010532688640523705
261,00:00:01.044,0.0016816621646285126
262,00:00:01.048,0.02423069009091707
263,00:00:01.052,0.008311766083352271
264,00:00:01.056,-0.01729421224445108
265,00:00:01.06,-0.015390011190902437
266,00:00:01.064,-0.00466296589002013
267,00:00:01.068,0.0020915449131280097
268,00:00:01.072,0.00933538703247905
269,00:00:01.076,0.00534533895552158
270,00:00:01.08,0.0022334549576044
271,00:00:01.084,0.005910553503781557
272,00:00:01.088,-0.00565951992757618
273,00:00:01.092,-0.0027532200329005705
274,00:00:01.096,-0.013719087583012879
275,00:00:01.1,-0.0033284524688497203
276,00:00:01.104,0.014964876812882699
277,00:00:01.108,0.0077304375590756605
278,00:00:01.112,0.010308697645086799
279,00:00:01.116,-0.0204139326233417
280,00:00:01.12,-0.0006781328702345586
281,00:00:01.124,-0.0003343843854963801
282,00:00:01.128,-0.01053877291269602
283,00:00:01.132,0.0019436175934970405
284,00:00:01.136,0.010764440899947618
285,00:00:01.14,0.016495513496920428
286,00:00:01.144,-0.0101130879484117
287,00:00:01.148,-0.0014146084431558895
288,00:00:01.152,-0.0018431745047564649
289,00:00:01.156,-0.01333094993606208
290,00:00:01.16,0.00952501245774329
291,00:00:01.164,0.0137469274923205
292,00:00:01.168,-0.016178095596842513
293,00:00:01.172,-0.009810025338083502
294,00:00:01.176,0.017127886106209238
295,00:00:01.18,-0.0007557733915746301
296,00:00:01.184,0.0008003864859347232
297,00:00:01.188,0.005270136520266529
298,00:00:01.192,-0.02051071892492471
299,00:00:01.196,-0.0032518031075596705
300,00:00:01.2,0.02060308447107673
301,00:00:01.204,0.0044648570474237195
302,00:00:01.208,0.0004167690640315396
303,00:00:01.212,-0.013654304551892012
304,00:00:01.216,-0.0030471953796222797
305,00:00:01.22,0.004114145151106646
306,00:00:01.224,0.0033011208288371598
307,00:00:01.228,0.0027499461421030026
308,00:00:01.232,-0.005129772471264005
309,00:00:01.236,-0.005228317575529192
310,00:00:01.24,0.004606817681633398
311,00:00:01.244,-0.003991851815953851
312,00:00:01.248,-0.0013949946733191607
313,00:00:01.252,0.021242345683276688
314,00:00:01.256,-0.0012393984361551667
315,00:00:01.26,-0.013167557481210679
316,00:00:01.264,-0.001657756278291345
317,00:00:01.268,0.00048287719255313977
318,00:00:01.272,0.00013007607776671995
319,00:00:01.276,-0.00018609157996251193
320,00:00:01.28,-0.00625198351917788
321,00:00:01.284,2.9078917577860137e-05
322,00:00:01.288,0.005184306006412951
323,00:00:01.292,0.01192599255591631
324,00:00:01.296,-0.0029552394844358752
325,00:00:01.3,0.0009433189406990996
326,00:00:01.304,-0.002658110897755248
327,00:00:01.308,-0.008989194117020816
328,00:00:01.312,-0.00201161171571584
329,00:00:01.316,-0.00014733456191606668
330,00:00:01.32,0.013325915089808408
331,00:00:01.324,-0.0122619858011603
332,00:00:01.328,-0.0017683213627606173
333,00:00:01.332,0.008650061514344989
334,00:00:01.336,0.0075507970759645104
335,00:00:01.34,-0.004385042586363861
336,00:00:01.344,0.004869557917118069
337,00:00:01.348,-0.012468172702938322
338,00:00:01.352,-0.00779705354943872
339,00:00:01.356,0.007228259812109171
340,00:00:01.36,-0.0019877903396263775
341,00:00:01.364,0.013444664655253291
342,00:00:01.368,-0.01608681009383875
343,00:00:01.372,0.0062034763395786285
344,00:00:01.376,0.009525647226837464
345,00:00:01.38,0.006184126366861159
346,00:00:01.384,-0.01243495708331466
347,00:00:01.388,-0.009467370808124568
348,00:00:01.392,0.009169755736365913
349,00:00:01.396,-0.00546048767864704
350,00:00:01.4,0.00351987243629992
351,00:00:01.404,-0.01375122927129267
352,00:00:01.408,0.011763716116547591
353,00:00:01.412,0.015532646561041499
354,00:00:01.416,-0.0031480407342314807
355,00:00:01.42,-0.00743482389952988
356,00:00:01.424,-0.0029786899685859706
357,00:00:01.428,0.0010075366008095669
358,00:00:01.432,0.0104502938920632
359,00:00:01.436,-0.01916500041261314
360,00:00:01.44,-0.00750540220178666
361,00:00:01.444,0.015513173770159459
362,00:00:01.448,0.00016796402633191022
363,00:00:01.452,0.01824196730740369
364,00:00:01.456,-0.02662001247517764
365,00:00:01.46,-0.00908204168081281
366,00:00:01.464,0.025993859046138802
367,00:00:01.468,0.00937814963981512
368,00:00:01.472,-0.00735641666688024
369,00:00:01.476,-0.00873104343190789
370,00:00:01.48,-0.0232543136226013
371,00:00:01.484,0.01335031492635608
372,00:00:01.488,0.008267302851891145
373,00:00:01.492,0.01889226620551199
374,00:00:01.496,-0.027368991635739758
375,00:00:01.5,-0.0031161229126155394
376,00:00:01.504,0.020354149834020067
377,00:00:01.508,0.0006966481450944896
378,00:00:01.512,-0.0016827036160975703
379,00:00:01.516,-0.004999923286959531
380,00:00:01.52,-0.00927780242636795
381,00:00:01.524,-0.00912838708609343
382,00:00:01.528,0.015456421766430091
383,00:00:01.532,0.01488731976132845
384,00:00:01.536,-0.008044573245570055
385,00:00:01.54,-0.011919941054657109
386,00:00:01.544,0.01246743416413662
387,00:00:01.548,-0.00020238012075424108
388,00:00:01.552,-0.0233411022927612
389,00:00:01.556,-0.004977712291292861
390,00:00:01.56,0.008159338496625422
391,00:00:01.564,0.01802396506536754
392,00:00:01.568,0.01691969949752093
393,00:00:01.572,0.0022742680739611396
394,00:00:01.576,-0.03423341806046661
395,00:00:01.58,0.0009021433070302014
396,00:00:01.584,0.01670710882171988
397,00:00:01.588,0.0034003499895334287
398,00:00:01.592,-0.01859190221875905
399,00:00:01.596,-0.00855918147135526
400,00:00:01.6,0.01301872357726095
401,00:00:01.604,0.01083061774261295
402,00:00:01.608,-0.0018896075052907703
403,00:00:01.612,-0.008353330660611393
404,00:00:01.616,0.01181134628131991
405,00:00:01.62,-0.0152198406867683
406,00:00:01.624,0.005131809797603635
407,00:00:01.628,0.015672822664782877
408,00:00:01.632,-0.02609976264648144
409,00:00:01.636,0.0004947474226355596
410,00:00:01.64,0.021231073886156096
411,00:00:01.644,0.0034868596121668785
412,00:00:01.648,-0.02190933842211957
413,00:00:01.652,-0.0015416558017022977
414,00:00:01.656,0.01844490459188819
415,00:00:01.66,-0.00811674603028229
416,00:00:01.664,-0.015706600737758012
417,00:00:01.668,0.00986570212990046
418,00:00:01.672,0.015447983867488841
419,00:00:01.676,-0.003974929801188409
420,00:00:01.68,0.0001786128850653733
421,00:00:01.684,-0.0022829624358564602
422,00:00:01.688,-0.0101497215218842
423,00:00:01.692,0.0006835038075223569
424,00:00:01.696,0.007904997619334603
425,00:00:01.7,0.00314120389521122
426,00:00:01.704,-0.0062535637989641
427,00:00:01.708,-0.004196889087324957
428,00:00:01.712,-0.006041195942088937
429,00:00:01.716,0.0170334812719375
430,00:00:01.72,-0.004185393292573282
431,00:00:01.724,-0.00467976683285087
432,00:00:01.728,0.003942653536796569
433,00:00:01.732,-0.0012772395857609873
434,00:00:01.736,0.007769483345327904
435,00:00:01.74,0.0012106990507163534
436,00:00:01.744,-0.00919670957955532
437,00:00:01.748,-0.00029053981415927974
438,00:00:01.752,-0.01279348332900554
439,00:00:01.756,0.008489304280374203
440,00:00:01.76,-0.01618583744857464
441,00:00:01.764,0.04087509773671626
442,00:00:01.768,0.011849880102090543
443,00:00:01.772,-0.052337584085762515
444,00:00:01.776,-0.003584994119592003
445,00:00:01.78,0.04104599542915824
446,00:00:01.784,0.006654181750491259
447,00:00:01.788,-0.020516691263765062
448,00:00:01.792,-0.01339063979685307
449,00:00:01.796,-0.008522458840161569
450,00:00:01.8,0.006882258819814521
451,00:00:01.804,0.022018408926669487
452,00:00:01.808,0.015067050117068001
453,00:00:01.812,-0.01771318470127877
454,00:00:01.816,-0.020726914051920176
455,00:00:01.82,-0.007170691613282546
456,00:00:01.824,0.022173039615154218
457,00:00:01.828,-0.007153559912694612
458,00:00:01.832,0.014279692375566788
459,00:00:01.836,0.0046730339527130006
460,00:00:01.84,-0.01071444968692956
461,00:00:01.844,-0.018439164385199543
462,00:00:01.848,0.02317885751836003
463,00:00:01.852,0.02262296655680985
464,00:00:01.856,-0.028048394713550813
465,00:00:01.86,-0.01628330047242345
466,00:00:01.864,-0.012713753385469349
467,00:00:01.868,0.006007507094182091
468,00:00:01.872,0.022522924467921212
469,00:00:01.876,0.01688885205658152
470,00:00:01.88,-0.0005126895121065937
471,00:00:01.884,0.00128216785378755
472,00:00:01.888,-0.02146893099416047
473,00:00:01.892,-0.030281396349892
474,00:00:01.896,0.022175020712893404
475,00:00:01.9,0.01572732022032147
476,00:00:01.904,0.009947612881660458
477,00:00:01.908,0.008596827741712349
478,00:00:01.912,-0.020386929390951998
479,00:00:01.916,-0.0228206552565098
480,00:00:01.92,0.006598131731152528
481,00:00:01.924,0.00525027397088706
482,00:00:01.928,0.01249197893776003
483,00:00:01.932,0.0054042923729866734
484,00:00:01.936,-0.01700136647559699
485,00:00:01.94,0.00166784110479057
486,00:00:01.944,0.014479276200290766
487,00:00:01.948,-0.0019571810262277696
488,00:00:01.952,-0.012602606671862304
489,00:00:01.956,-0.01110086613334715
490,00:00:01.96,0.02817102381959559
491,00:00:01.964,0.002122784266248321
492,00:00:01.968,-0.00266843475401402
493,00:00:01.972,-0.02116007311269645
494,00:00:01.976,-0.015568776521831772
495,00:00:01.98,0.017168580554425723
496,00:00:01.984,0.020652136998251067
497,00:00:01.988,0.00543918926268811
498,00:00:01.992,-0.01141171297058464
499,00:00:01.996,-0.004964768188074229
500,00:00:02,-0.012524885358288888
501,00:00:02.004,-0.01992975315079093
502,00:00:02.008,0.02552937949076299
503,00:00:02.012,0.02173254266381268
504,00:00:02.016,-0.0019169082515873006
505,00:00:02.02,-0.010974798351526219
506,00:00:02.024,-0.0032317230798071255
507,00:00:02.028,-0.0011471413163235394
508,00:00:02.032,0.00564654136542234
509,00:00:02.036,-0.0019347846973687406
510,00:00:02.04,-0.023138057440519402
511,00:00:02.044,0.012631213525310192
512,00:00:02.048,0.01848872704431413
513,00:00:02.052,0.00298619898967445
514,00:00:02.056,-0.0170811371790478
515,00:00:02.06,-0.011079581221565559
516,00:00:02.064,0.019045248453039662
517,00:00:02.068,0.0020688376389443822
518,00:00:02.072,0.0021804971620440414
519,00:00:02.076,-0.01619558455422523
520,00:00:02.08,-0.00694341305643326
521,00:00:02.084,0.012888064607977867
522,00:00:02.088,0.015850026626139848
523,00:00:02.092,-0.002873218501918017
524,00:00:02.096,-0.02407938777469101
525,00:00:02.1,0.004036379861645397
526,00:00:02.104,0.0046905308263376294
527,00:00:02.108,-0.0038337375735864
528,00:00:02.112,0.018897975096479062
529,00:00:02.116,0.013621728736325125
530,00:00:02.12,-0.01467222406063225
531,00:00:02.124,-0.03362411470152439
532,00:00:02.128,0.0036813499173149406
533,00:00:02.132,0.01675560115836556
534,00:00:02.136,0.00731658664881252
535,00:00:02.14,0.0059655755758285505
536,00:00:02.144,-0.01353959878906607
537,00:00:02.148,-0.001990878867218277
538,00:00:02.152,0.014184286352247041
539,00:00:02.156,0.015114979702048028
540,00:00:02.16,-0.01569560694042595
541,00:00:02.164,-0.019567925482988358
542,00:00:02.168,-0.011595027288421988
543,00:00:02.172,0.0125479670241475
544,00:00:02.176,0.0026781306660268434
545,00:00:02.18,0.0007888656109571804
546,00:00:02.184,0.00387667992617936
547,00:00:02.188,0.025613222736865268
548,00:00:02.192,-0.002152372151613239
549,00:00:02.196,-0.0009106477809837088
550,00:00:02.2,-0.03649266995489602
551,00:00:02.204,0.0007485824171453697
552,00:00:02.208,0.0060425717383622984
553,00:00:02.212,0.007474794285371932
554,00:00:02.216,0.00749753008130939
555,00:00:02.22,-7.029389962530559e-06
556,00:00:02.224,0.0036843246780335894
557,00:00:02.228,-0.014543158235028393
558,00:00:02.232,-0.006431952293496577
559,00:00:02.236,0.01234233332797887
560,00:00:02.24,-0.0017211925005540163
561,00:00:02.244,0.014216201379895172
562,00:00:02.248,0.005430524470284592
563,00:00:02.252,-0.020107095828279888
564,00:00:02.256,-0.010778245050460098
565,00:00:02.26,0.0028014593990519604
566,00:00:02.264,0.01121780113317072
567,00:00:02.268,0.005805847235023981
568,00:00:02.272,-0.01761153829284012
569,00:00:02.276,0.003155445039737967
570,00:00:02.28,0.02535959926899518
571,00:00:02.284,-0.014076828956603999
572,00:00:02.288,-0.00017728842794894391
573,00:00:02.292,-0.00275273853912948
574,00:00:02.296,-0.01343847415409986
575,00:00:02.3,0.00831850001122803
576,00:00:02.304,0.00644737749826163
577,00:00:02.308,0.01056714449077844
578,00:00:02.312,-0.017238948203157658
579,00:00:02.316,0.0010692076757550682
580,00:00:02.32,0.008147294167429212
581,00:00:02.324,-0.01053921063430607
582,00:00:02.328,0.008028192445635761
583,00:00:02.332,-0.0015015277313068496
584,00:00:02.336,-0.00019593379693105643
585,00:00:02.34,-0.01280004857107997
586,00:00:02.344,0.009273338946513835
587,00:00:02.348,0.015629685731255456
588,00:00:02.352,-0.007507883885409685
589,00:00:02.356,-0.00823915319051593
590,00:00:02.36,0.010034825536422438
591,00:00:02.364,0.002888084854930641
592,00:00:02.368,-0.00764515995979311
593,00:00:02.372,-0.02242185513023286
594,00:00:02.376,0.0043785492307506476
595,00:00:02.38,0.004463248420506719
596,00:00:02.384,0.013602029954199676
597,00:00:02.388,0.017717340029776103
598,00:00:02.392,-0.00037471725954674184
599,00:00:02.396,-0.015040945727378132
600,00:00:02.4,-0.011820679064840082
601,00:00:02.404,0.000862554763443764
602,00:00:02.408,0.00559137482196093
603,00:00:02.412,-0.001555226510390642
604,00:00:02.416,-0.011252380878431716
605,00:00:02.42,0.01936466782353815
606,00:00:02.424,0.01484643726143986
607,00:00:02.428,-0.013853722135536421
608,00:00:02.432,-0.02040641917847097
609,00:00:02.436,0.0031605737167410474
610,00:00:02.44,-0.008176160510629419
611,00:00:02.444,0.01725864154286683
612,00:00:02.448,0.0036768442369066096
613,00:00:02.452,0.018750086426734893
614,00:00:02.456,0.0026247421046718916
615,00:00:02.46,-0.01402239559683954
616,00:00:02.464,-0.02767408918589357
617,00:00:02.468,-0.004291400502552276
618,00:00:02.472,0.01425570831634104
619,00:00:02.476,0.02560144662857055
620,00:00:02.48,-0.012967524118721529
621,00:00:02.484,-0.01217694161459804
622,00:00:02.488,0.01086727157235146
623,00:00:02.492,3.3555552363391354e-05
624,00:00:02.496,-0.002857245272025463
625,00:00:02.5,0.0021161074982956104
626,00:00:02.504,0.00196496373973786
627,00:00:02.508,-0.01871867850422857
628,00:00:02.512,0.005736843682825548
629,00:00:02.516,0.010121890110895
630,00:00:02.52,0.001489943984779528
631,00:00:02.524,0.0017421646043658196
632,00:00:02.528,0.00591304525732995
633,00:00:02.532,-0.0016424078494310388
634,00:00:02.536,-0.00893635977990925
635,00:00:02.54,-0.019186158780939922
636,00:00:02.544,0.008306787582114308
637,00:00:02.548,0.02897024690173564
638,00:00:02.552,-0.01338346791453661
639,00:00:02.556,-0.011547987582162019
640,00:00:02.56,-0.006492640823125842
641,00:00:02.564,0.006137520598713309
642,00:00:02.568,0.015181077411398269
643,00:00:02.572,0.005854491610080001
644,00:00:02.576,6.81164092384282e-05
645,00:00:02.58,-0.00787621992640197
646,00:00:02.584,-0.02613201318308716
647,00:00:02.588,-0.00030018319375812964
648,00:00:02.592,0.02058523707091809
649,00:00:02.596,0.008779523253906558
650,00:00:02.6,0.00195856229402124
651,00:00:02.604,-0.008466529528959661
652,00:00:02.608,-0.00018503679893911058
653,00:00:02.612,-0.00931849237531424
654,00:00:02.616,0.0034313085488975013
655,00:00:02.62,0.0023278604494407803
656,00:00:02.624,-0.004666593849833586
657,00:00:02.628,0.00667165103368461
658,00:00:02.632,0.002872817916795609
659,00:00:02.636,0.01039684959687293
660,00:00:02.64,-0.005144732072949419
661,00:00:02.644,-0.03039371361956
662,00:00:02.648,0.01724717696197326
663,00:00:02.652,0.00288203451782465
664,00:00:02.656,0.0029286423232406295
665,00:00:02.66,0.0078091740142554105
666,00:00:02.664,0.0064346813596785095
667,00:00:02.668,-0.01797209848882631
668,00:00:02.672,-0.007652437052456659
669,00:00:02.676,-0.003477384452708071
670,00:00:02.68,0.0024405792355537406
671,00:00:02.684,0.011934433685382833
672,00:00:02.688,0.01201090408721938
673,00:00:02.692,-0.0053889816044829855
674,00:00:02.696,-0.0033858742099255354
675,00:00:02.7,-0.00994178070686758
676,00:00:02.704,0.0008310012053698301
677,00:00:02.708,0.0035427701441221875
678,00:00:02.712,0.0004692535148933599
679,00:00:02.716,0.006774442619644105
680,00:00:02.72,-0.007158531749155372
681,00:00:02.724,-0.00648212467785924
682,00:00:02.728,0.013448453857563436
683,00:00:02.732,0.00185654545202852
684,00:00:02.736,-0.010565005504759025
685,00:00:02.74,-0.0012298045912757505
686,00:00:02.744,0.004166404847637757
687,00:00:02.748,0.004364305175840879
688,00:00:02.752,-0.004532185441348701
689,00:00:02.756,-0.0035210174974054705
690,00:00:02.76,0.00192527158651501
691,00:00:02.764,-0.01029842183925211
692,00:00:02.768,0.01264046248979869
693,00:00:02.772,0.011541948362719271
694,00:00:02.776,-0.00587419411749579
695,00:00:02.78,-0.003361938026500868
696,00:00:02.784,-0.0115347730461508
697,00:00:02.788,0.005509061040356759
698,00:00:02.792,-0.002540162706281989
699,00:00:02.796,0.01343170669861138
700,00:00:02.8,-0.0014185251202434301
701,00:00:02.804,-0.0075234086543787305
702,00:00:02.808,0.008424602245213462
703,00:00:02.812,-0.0070534466067329014
704,00:00:02.816,-0.012830803403630828
705,00:00:02.82,-0.0036334011238068403
706,00:00:02.824,0.015788032207638022
707,00:00:02.828,0.01123952367925085
708,00:00:02.832,0.0010945815593004279
709,00:00:02.836,-0.007702801609411838
710,00:00:02.84,-0.0048517507966607835
711,00:00:02.844,-0.006753877270966771
712,00:00:02.848,0.001384842675179289
713,00:00:02.852,0.00834244478028267
714,00:00:02.856,-0.00878960313275457
715,00:00:02.86,0.00389159703627229
716,00:00:02.864,0.007671619299799212
717,00:00:02.868,0.01302582400967363
718,00:00:02.872,-0.008154444571118795
719,00:00:02.876,-0.020673707593232327
720,00:00:02.88,-0.0036169979139231145
721,00:00:02.884,-0.008564814459532489
722,00:00:02.888,0.032137298025190844
723,00:00:02.892,0.0150717217475177
724,00:00:02.896,-0.01793610467575491
725,00:00:02.9,-0.009164859366137531
726,00:00:02.904,-0.009314634837210178
727,00:00:02.908,0.0025388743379153363
728,00:00:02.912,0.011319725454086441
729,00:00:02.916,0.01035411900375038
730,00:00:02.92,-0.01303234836086629
731,00:00:02.924,0.00012125854846089992
732,00:00:02.928,-0.00027463270816952033
733,00:00:02.932,0.00010832305997613909
734,00:00:02.936,0.00046290783211588643
735,00:00:02.94,0.006745201302692291
736,00:00:02.944,-0.0097484021098353
737,00:00:02.948,-0.005058719776570811
738,00:00:02.952,0.01280897157266736
739,00:00:02.956,-0.0020217616111040107
740,00:00:02.96,0.0007294839015230489
741,00:00:02.964,-0.011078828829340602
742,00:00:02.968,0.005906506441533595
743,00:00:02.972,0.01258289348334072
744,00:00:02.976,-0.0021714818431064526
745,00:00:02.98,-0.01531535154208543
746,00:00:02.984,0.0066044609993696195
747,00:00:02.988,0.005167682887986309
748,00:00:02.992,-0.013275948353111739
749,00:00:02.996,-0.00461846101097763
750,00:00:03,0.01608896267134697
751,00:00:03.004,0.013788409414701164
752,00:00:03.008,-0.01155691512394697
753,00:00:03.012,-0.015113813802599898
754,00:00:03.016,0.0010720784775912762
755,00:00:03.02,0.008795286936219778
756,00:00:03.024,0.00988941243849695
757,00:00:03.028,0.0006600849483220385
758,00:00:03.032,-0.005969892401481047
759,00:00:03.036,-0.02139519085176289
760,00:00:03.04,0.005823512154165659
761,00:00:03.044,0.01336372853256762
762,00:00:03.048,0.004845758667215708
763,00:00:03.052,-0.0031616535852663167
764,00:00:03.056,0.004667207242164301
765,00:00:03.06,-0.009569996269419786
766,00:00:03.064,-0.010553228203207251
767,00:00:03.068,0.010455743642523881
768,00:00:03.072,0.005766607820987699
769,00:00:03.076,-0.004063132852024863
770,00:00:03.08,0.0030815718928352
771,00:00:03.084,-0.0017511181358713635
772,00:00:03.088,-0.00904952574637718
773,00:00:03.092,0.004240601643687118
774,00:00:03.096,0.009047327417647464
775,00:00:03.1,-0.006506802397780117
776,00:00:03.104,-0.006800056493375449
777,00:00:03.108,-0.0016518202610314005
778,00:00:03.112,0.01738858688622716
779,00:00:03.116,0.00721203745342791
780,00:00:03.12,-0.00934684392996133
781,00:00:03.124,-0.01860601734369989
782,00:00:03.128,0.0032134554348886004
783,00:00:03.132,0.01598145393654707
784,00:00:03.136,-0.005191480566281824
785,00:00:03.14,-0.01849798765033487
786,00:00:03.144,0.01488848845474423
787,00:00:03.148,0.01688476552226347
788,00:00:03.152,-0.008700464852154251
789,00:00:03.156,-0.0099255722889211
790,00:00:03.16,0.0007163495756685699
791,00:00:03.164,0.0003382540307939099
792,00:00:03.168,0.00313193444162604
793,00:00:03.172,-0.0006431662477552804
794,00:00:03.176,-0.000688136438839131
795,00:00:03.18,-0.006122111371951172
796,00:00:03.184,0.006493262335425249
797,00:00:03.188,0.01166797243058686
798,00:00:03.192,0.005166067625395947
799,00:00:03.196,-0.02785458602011209
800,00:00:03.2,-0.00432725565042347
801,00:00:03.204,0.01173146395012736
802,00:00:03.208,0.00744995474815369
803,00:00:03.212,0.00016304050222970006
804,00:00:03.216,0.0025890746619552417
805,00:00:03.22,0.0009843776933848901
806,00:00:03.224,-0.0077571329311467655
807,00:00:03.228,-0.00531945924740284
808,00:00:03.232,0.0017441287054680318
809,00:00:03.236,0.0009435131214559113
810,00:00:03.24,-0.002344536336750025
811,00:00:03.244,0.005903760669752959
812,00:00:03.248,0.006541041657328609
813,00:00:03.252,-0.0015093061374500405
814,00:00:03.256,0.002243897091830151
815,00:00:03.26,-0.011116813053376941
816,00:00:03.264,-0.01026465417817236
817,00:00:03.268,0.007630524209162106
818,00:00:03.272,0.017238784115761477
819,00:00:03.276,0.0022357621928676998
820,00:00:03.28,-0.01777255814522509
821,00:00:03.284,-0.007281694095581762
822,00:00:03.288,0.008993675000965592
823,00:00:03.292,-0.0010484696831554192
824,00:00:03.296,0.00284007156733424
825,00:00:03.3,0.011592955794185372
826,00:00:03.304,-0.01462520891800523
827,00:00:03.308,0.01332370331510902
828,00:00:03.312,-0.0034994403831660804
829,00:00:03.316,-0.015616641961969428
830,00:00:03.32,0.00133748422376812
831,00:00:03.324,0.012479168828576801
832,00:00:03.328,0.005113290389999751
833,00:00:03.332,-0.01771012472454457
834,00:00:03.336,-0.00289435801096261
835,00:00:03.34,0.016592366155236998
836,00:00:03.344,0.00403027515858412
837,00:00:03.348,-0.009781888347788481
838,00:00:03.352,0.002509827842004594
839,00:00:03.356,0.0033680166234262314
840,00:00:03.36,-0.010059548541903489
841,00:00:03.364,-0.0069509784225374495
842,00:00:03.368,0.010745519000920474
843,00:00:03.372,0.005740984444855711
844,00:00:03.376,-0.005917875314480625
845,00:00:03.38,0.00530924403574323
846,00:00:03.384,-0.0021332523901946873
847,00:00:03.388,-0.0050041348440573105
848,00:00:03.392,0.008990884991362691
849,00:00:03.396,-0.005871538742212575
850,00:00:03.4,-0.005235902732238171
851,00:00:03.404,-0.004671983799198639
852,00:00:03.408,0.010901528952672379
853,00:00:03.412,-0.0014490997418761201
854,00:00:03.416,0.00512401037849485
855,00:00:03.42,0.007779472274705768
856,00:00:03.424,-0.00645015179179609
857,00:00:03.428,-0.02956787170842288
858,00:00:03.432,0.02315031364560127
859,00:00:03.436,0.002397309755906465
860,00:00:03.44,-0.006042727758540422
861,00:00:03.444,0.00313824671320618
862,00:00:03.448,0.01430930104106665
863,00:00:03.452,-0.006421988480724391
864,00:00:03.456,-0.00927309633698314
865,00:00:03.46,-0.004687234031734986
866,00:00:03.464,0.002644450287334613
867,00:00:03.468,-0.0006633509183302496
868,00:00:03.472,0.00793053302913904
869,00:00:03.476,0.0014709374809171987
870,00:00:03.48,-0.01038475846871733
871,00:00:03.484,0.007220638915896421
872,00:00:03.488,0.0070387034211307695
873,00:00:03.492,-0.005124190123751761
874,00:00:03.496,-0.00813984032720327
875,00:00:03.5,-0.00890674325637519
876,00:00:03.504,0.010493099631275985
877,00:00:03.508,0.007294786963029768
878,00:00:03.512,0.002174110915802886
879,00:00:03.516,0.0004010715056210687
880,00:00:03.52,-0.0071598193608224375
881,00:00:03.524,-0.00013383771874941972
882,00:00:03.528,0.00671288755256683
883,00:00:03.532,-0.01033981773070991
884,00:00:03.536,-0.003644722106400881
885,00:00:03.54,0.00024171429686247956
886,00:00:03.544,-0.0017663217149674931
887,00:00:03.548,0.015204268041998158
888,00:00:03.552,0.016384580172598348
889,00:00:03.556,-0.02076414087787269
890,00:00:03.56,-0.002459192881360654
891,00:00:03.564,0.0025079450570047006
892,00:00:03.568,-0.012889219913631698
893,00:00:03.572,0.007152792066335681
894,00:00:03.576,0.0012372522614896198
895,00:00:03.58,0.003854540584143249
896,00:00:03.584,0.00875920103862882
897,00:00:03.588,-0.0015854228695388903
898,00:00:03.592,-0.010299779461547592
899,00:00:03.596,-0.009756247382028956
900,00:00:03.6,0.01112188218394295
901,00:00:03.604,-0.0065390840754844266
902,00:00:03.608,0.00758679141290486
903,00:00:03.612,0.01266189431771636
904,00:00:03.616,-0.015375461662188169
905,00:00:03.62,0.00802782422397286
906,00:00:03.624,-0.0023754582507535802
907,00:00:03.628,-0.004288194380933424
908,00:00:03.632,-0.002330228089704172
909,00:00:03.636,0.006436285329982631
910,00:00:03.64,-0.006324418354779479
911,00:00:03.644,0.0009173832368105685
912,00:00:03.648,0.00018822029232977953
913,00:00:03.652,0.0032788137905299594
914,00:00:03.656,-0.00245865457691252
915,00:00:03.66,0.005557540818699638
916,00:00:03.664,-0.002304755151271819
917,00:00:03.668,-0.013160795264411725
918,00:00:03.672,0.011019476689398289
919,00:00:03.676,0.015215535182505853
920,00:00:03.68,-0.00950103159993887
921,00:00:03.684,-0.01014537853188812
922,00:00:03.688,0.00301975256297737
923,00:00:03.692,-0.0032483398681506497
924,00:00:03.696,0.003930911145289429
925,00:00:03.7,0.0032030714210122893
926,00:00:03.704,0.0005335450696293273
927,00:00:03.708,-0.0054545744787901605
928,00:00:03.712,-0.00186409300658852
929,00:00:03.716,0.00829922361299395
930,00:00:03.72,-0.00881414720788598
931,00:00:03.724,0.0032835141755640507
932,00:00:03.728,-0.0035136656661052318
933,00:00:03.732,0.026508647017180927
934,00:00:03.736,0.00015222723595798883
935,00:00:03.74,-0.02263211738318208
936,00:00:03.744,-0.01713265711441636
937,00:00:03.748,0.00114171206951141
938,00:00:03.752,0.00993770069908351
939,00:00:03.756,0.014055824896786345
940,00:00:03.76,-0.00296811212319881
941,00:00:03.764,-0.00358457071706652
942,00:00:03.768,0.00781324692070484
943,00:00:03.772,-0.0002486427547410096
944,00:00:03.776,-0.006934614852070811
945,00:00:03.78,-0.0009341276017949005
946,00:00:03.784,-0.00489524949807673
947,00:00:03.788,-0.001245441439095882
948,00:00:03.792,0.010798661853186786
949,00:00:03.796,-0.004202831769362094
950,00:00:03.8,-0.0267519745975733
951,00:00:03.804,0.02798036858439444
952,00:00:03.808,0.016768839210271894
953,00:00:03.812,0.0018767938017845154
954,00:00:03.816,-0.003700290340930221
955,00:00:03.82,-0.01613063435070217
956,00:00:03.824,-0.02073908364400267
957,00:00:03.828,-0.011763497255742581
958,00:00:03.832,0.026876023039221764
959,00:00:03.836,0.01694839820265766
960,00:00:03.84,0.00365320360288024
961,00:00:03.844,-0.015684670768678192
962,00:00:03.848,0.002001930726692084
963,00:00:03.852,-0.00582463551836554
964,00:00:03.856,0.006916606798768042
965,00:00:03.86,0.0036180731840431777
966,00:00:03.864,-0.0039213690906763085
967,00:00:03.868,-0.00644162541721016
968,00:00:03.872,0.010477929376065731
969,00:00:03.876,-0.009657454327680165
970,00:00:03.88,0.002062960382318122
971,00:00:03.884,-0.010456291260197762
972,00:00:03.888,0.0032097733346745415
973,00:00:03.892,0.01211273577064275
974,00:00:03.896,0.01044688117690389
975,00:00:03.9,-0.009476059232838448
976,00:00:03.904,-0.004687444306910041
977,00:00:03.908,-0.002176062786020334
978,00:00:03.912,-0.00876582902856172
979,00:00:03.916,0.00023837020853535121
980,00:00:03.92,0.015547663264442187
981,00:00:03.924,0.00615452002966776
982,00:00:03.928,-0.0022330961655825385
983,00:00:03.932,0.00037571619031950875
984,00:00:03.936,-0.00895552529254928
985,00:00:03.94,-0.013291018636664395
986,00:00:03.944,0.0002358341589570089
987,00:00:03.948,0.007526753703132269
988,00:00:03.952,0.01614215327936111
989,00:00:03.956,0.0024555180643801616
990,00:00:03.96,-0.010539220471400768
991,00:00:03.964,-0.010320325847715143
992,00:00:03.968,-0.006084992317482829
993,00:00:03.972,0.016655728162731975
994,00:00:03.976,0.0033492795773781853
995,00:00:03.98,-0.00645998958498239
996,00:00:03.984,0.0006594592123292369
997,00:00:03.988,0.007448781863786278
998,00:00:03.992,-0.00805836450308562
999,00:00:03.996,-0.003949771271436479
1000,00:00:04,0.00626513594761491
1001,00:00:04.004,-0.007935740897664821
1002,00:00:04.008,-0.0007629811298102106
1003,00:00:04.012,0.010172132402658459
1004,00:00:04.016,-0.0013986867852509013
1005,00:00:04.02,0.0016816254938021283
1006,00:00:04.024,-0.01082909200340509
1007,00:00:04.028,0.011726506520062682
1008,00:00:04.032,-0.006429164204746491
1009,00:00:04.036,0.010508546460187061
1010,00:00:04.04,-0.00792643113527447
1011,00:00:04.044,0.00142583553679287
1012,00:00:04.048,-0.00869989255443215
1013,00:00:04.052,-0.001047491163262755
1014,00:00:04.056,0.0015065917395986643
1015,00:00:04.06,9.62298654485546e-05
1016,00:00:04.064,0.01435454725287855
1017,00:00:04.068,0.0035581606643972927
1018,00:00:04.072,-0.00266633671708405
1019,00:00:04.076,-0.007023520069196822
1020,00:00:04.08,-0.023112752940505802
1021,00:00:04.084,0.008704141480848198
1022,00:00:04.088,0.017889840673888123
1023,00:00:04.092,0.01175793737638741
1024,00:00:04.096,-0.013540841871872551
1025,00:00:04.1,-0.013707454781979319
1026,00:00:04.104,0.007856741780415179
1027,00:00:04.108,-0.00816732455859892
1028,00:00:04.112,0.02005508425645532
1029,00:00:04.116,-0.01687978726113219
1030,00:00:04.12,-5.902338307351221e-05
1031,00:00:04.124,0.01244716951623559
1032,00:00:04.128,0.007681358874833672
1033,00:00:04.132,-0.0029382214415818505
1034,00:00:04.136,-0.010419119731523098
1035,00:00:04.14,-0.01778708864003418
1036,00:00:04.144,0.0043536923767533145
1037,00:00:04.148,0.01938220113515853
1038,00:00:04.152,0.00460804137401282
1039,00:00:04.156,-0.0163584936526604
1040,00:00:04.16,-0.00041842856444413215
1041,00:00:04.164,0.011642968485830343
1042,00:00:04.168,0.007062163203954702
1043,00:00:04.172,-0.00930260965833438
1044,00:00:04.176,-0.00213958887616172
1045,00:00:04.18,-0.0019387628417462115
1046,00:00:04.184,-0.00823937414679677
1047,00:00:04.188,-0.0013011533301323635
1048,00:00:04.192,0.009198883315548339
1049,00:00:04.196,0.00674475426785648
1050,00:00:04.2,-0.00513533898629248
1051,00:00:04.204,-0.0051937844837084395
1052,00:00:04.208,0.01118844340089709
1053,00:00:04.212,0.004744361212942749
1054,00:00:04.216,-0.003897089627571404
1055,00:00:04.22,-0.013510008808225393
1056,00:00:04.224,-0.012030015932396049
1057,00:00:04.228,0.01317257736809552
1058,00:00:04.232,0.01417239487636835
1059,00:00:04.236,-0.0049399413401260885
1060,00:00:04.24,-0.00149701349437237
1061,00:00:04.244,-0.0032957058865577
1062,00:00:04.248,0.006881071429233998
1063,00:00:04.252,-0.0031892713159322695
1064,00:00:04.256,-0.004981671983841811
1065,00:00:04.26,-0.010967151029035452
1066,00:00:04.264,-0.0021609438008454145
1067,00:00:04.268,0.02474946295842533
1068,00:00:04.272,0.009387484926264735
1069,00:00:04.276,-0.012070117692928765
1070,00:00:04.28,-0.01821302087046209
1071,00:00:04.284,-0.0006118728779255997
1072,00:00:04.288,0.009156150903436357
1073,00:00:04.292,0.011372718028724181
1074,00:00:04.296,-0.004102979932213203
1075,00:00:04.3,-0.00965124322101474
1076,00:00:04.304,0.007934713896247558
1077,00:00:04.308,0.0023359070764854607
1078,00:00:04.312,0.005993161874357604
1079,00:00:04.316,-0.028137938585132367
1080,00:00:04.32,0.00475942553021014
1081,00:00:04.324,0.0119846545276232
1082,00:00:04.328,0.01166005036793649
1083,00:00:04.332,0.0030130734667182003
1084,00:00:04.336,-0.01900748244952415
1085,00:00:04.34,0.004576474893838136
1086,00:00:04.344,-0.01706911600194867
1087,00:00:04.348,0.011914361813978744
1088,00:00:04.352,0.0058806507149711225
1089,00:00:04.356,0.013508040923625233
1090,00:00:04.36,-0.0048036272492026945
1091,00:00:04.364,-0.010928479314316064
1092,00:00:04.368,-0.00997106730937958
1093,00:00:04.372,0.006620615255087621
1094,00:00:04.376,0.013628969682031313
1095,00:00:04.38,0.0031337273539975194
1096,00:00:04.384,-0.014265080215409398
1097,00:00:04.388,-0.006518108886666599
1098,00:00:04.392,-0.0009516198188066422
1099,00:00:04.396,0.00678456597961486
1100,00:00:04.4,-2.6122434064749372e-05
1101,00:00:04.404,0.004170737025560789
1102,00:00:04.408,-0.0005052039632573793
1103,00:00:04.412,0.02773374342359609
1104,00:00:04.416,-0.01579692843370139
1105,00:00:04.42,-0.028336402727290988
1106,00:00:04.424,0.007347389298956845
1107,00:00:04.428,0.0034848498762585214
1108,00:00:04.432,-0.0015759940724819899
1109,00:00:04.436,-0.002242135611595593
1110,00:00:04.44,0.016675281105563038
1111,00:00:04.444,0.0013068284606561104
1112,00:00:04.448,-0.00882440351415425
1113,00:00:04.452,0.005314571841154242
1114,00:00:04.456,-0.007246774679515505
1115,00:00:04.46,-0.00679985200986267
1116,00:00:04.464,0.010965901892632251
1117,00:00:04.468,-0.006671883340459366
1118,00:00:04.472,0.005361667281249545
1119,00:00:04.476,-0.0004659153055399717
1120,00:00:04.48,-0.005039088660851119
1121,00:00:04.484,0.0080644938716432
1122,00:00:04.488,0.0060475924983620696
1123,00:00:04.492,-0.004270864184945819
1124,00:00:04.496,-0.008761693723499771
1125,00:00:04.5,-0.0043356728274375304
1126,00:00:04.504,0.0051937255775556
1127,00:00:04.508,-0.0063509471947327195
1128,00:00:04.512,0.00632306258194148
1129,00:00:04.516,0.006450338521972291
1130,00:00:04.52,-0.0040860341978259315
1131,00:00:04.524,0.006291560450335961
1132,00:00:04.528,0.0017939996905624793
1133,00:00:04.532,-0.001580449257744438
1134,00:00:04.536,-0.005232285941019658
1135,00:00:04.54,-0.011383281322196126
1136,00:00:04.544,-0.01515354868024588
1137,00:00:04.548,0.02547909633722151
1138,00:00:04.552,0.022064381279051304
1139,00:00:04.556,-0.018315592780709274
1140,00:00:04.56,-0.01055697724223139
1141,00:00:04.564,0.007335467729717502
1142,00:00:04.568,0.011005981097696342
1143,00:00:04.572,-0.01757195545360449
1144,00:00:04.576,-0.003468093171250073
1145,00:00:04.58,0.00592019490431998
1146,00:00:04.584,-0.002911235205829131
1147,00:00:04.588,0.00556680222507566
1148,00:00:04.592,0.00524752005003393
1149,00:00:04.596,0.0036660355108324473
1150,00:00:04.6,0.006735283626767334
1151,00:00:04.604,-0.018643621471710496
1152,00:00:04.608,-0.004825615753361496
1153,00:00:04.612,0.006406419095583262
1154,00:00:04.616,0.00030886410968377406
1155,00:00:04.62,-0.01041154586710036
1156,00:00:04.624,0.01696473953779789
1157,00:00:04.628,0.005581451812759039
1158,00:00:04.632,-0.005165901151485809
1159,00:00:04.636,-0.004140971112065011
1160,00:00:04.64,-0.009289321140386157
1161,00:00:04.644,0.008730965899303549
1162,00:00:04.648,-0.0007788858783896982
1163,00:00:04.652,-0.009868625609669834
1164,00:00:04.656,0.005880618635274001
1165,00:00:04.66,0.01393213355913762
1166,00:00:04.664,-0.0002902694614022111
1167,00:00:04.668,-0.005823393352329721
1168,00:00:04.672,-0.005418860367171867
1169,00:00:04.676,-0.0003604558878578185
1170,00:00:04.68,-0.0077308893669396726
1171,00:00:04.684,0.00418844190426171
1172,00:00:04.688,0.021173971472308036
1173,00:00:04.692,-0.013934428920038041
1174,00:00:04.696,-0.01342719933018088
1175,00:00:04.7,0.01417584985028948
1176,00:00:04.704,0.01101578818634149
1177,00:00:04.708,-0.014291057479567791
1178,00:00:04.712,-0.0055658970959484595
1179,00:00:04.716,0.0029903983886470113
1180,00:00:04.72,0.0016684647998772562
1181,00:00:04.724,-0.0024873432703316108
1182,00:00:04.728,0.005283613492792938
1183,00:00:04.732,0.008012656622668153
1184,00:00:04.736,-0.0058629992126952865
1185,00:00:04.74,-0.005699450091924515
1186,00:00:04.744,-0.0015300031518563706
1187,00:00:04.748,0.007947897829581047
1188,00:00:04.752,0.0029562582494691
1189,00:00:04.756,-0.011105149111244828
1190,00:00:04.76,-0.009317620657384399
1191,00:00:04.764,0.013012546580284778
1192,00:00:04.768,0.00567658245563506
1193,00:00:04.772,0.008818554691970421
1194,00:00:04.776,-0.012119376333430451
1195,00:00:04.78,-0.0030508157797157717
1196,00:00:04.784,-0.0026848469497053927
1197,00:00:04.788,0.004005863796919582
1198,00:00:04.792,-0.002171149331843478
1199,00:00:04.796,-0.003145412134472279
1200,00:00:04.8,0.0010436361189931499
1201,00:00:04.804,0.00778044536127709
1202,00:00:04.808,0.005612733541056508
1203,00:00:04.812,0.002549515686837359
1204,00:00:04.816,-0.034452993422746686
1205,00:00:04.82,0.011129289865493771
1206,00:00:04.824,0.01693145098397508
1207,00:00:04.828,0.0034976479364559098
1208,00:00:04.832,0.00998305669054393
1209,00:00:04.836,-0.0094986013136804
1210,00:00:04.84,-0.014502806065138433
1211,00:00:04.844,-0.00901407725177704
1212,00:00:04.848,0.0036515683168545305
1213,00:00:04.852,0.016060840804129832
1214,00:00:04.856,0.0002725044032558799
1215,00:00:04.86,-0.02082675858400765
1216,00:00:04.864,0.012513859895989332
1217,00:00:04.868,0.012271353858523078
1218,00:00:04.872,0.00443917629308998
1219,00:00:04.876,-0.01342887070495636
1220,00:00:04.88,-0.01527519908268004
1221,00:00:04.884,0.005679848953150206
1222,00:00:04.888,0.0286763808690012
1223,00:00:04.892,-0.0034197148634120796
1224,00:00:04.896,-0.02222838578745724
1225,00:00:04.9,-0.01131717185489833
1226,00:00:04.904,0.007154478080337867
1227,00:00:04.908,0.01440537488088011
1228,00:00:04.912,0.00417558383196592
1229,00:00:04.916,-0.004662825768548373
1230,00:00:04.92,-0.00898838450666517
1231,00:00:04.924,0.006076857447624211
1232,00:00:04.928,-0.002180881332606079
1233,00:00:04.932,-0.007547985005658137
1234,00:00:04.936,0.01110007567331197
1235,00:00:04.94,0.009223136934451759
1236,00:00:04.944,-0.0009426579345017708
1237,00:00:04.948,-0.0216935920761898
1238,00:00:04.952,0.0004180538962827991
1239,00:00:04.956,0.013949846394098131
1240,00:00:04.96,0.00680346530862153
1241,00:00:04.964,-0.006496935005998202
1242,00:00:04.968,-0.01290316577069462
1243,00:00:04.972,0.00355201982893053
1244,00:00:04.976,0.010530999395996329
1245,00:00:04.98,-0.00043818447738890043
1246,00:00:04.984,-0.00128462046268396
1247,00:00:04.988,-0.01273424411192537
1248,00:00:04.992,0.01191569003276526
1249,00:00:04.996,0.003322972799651321
1250,00:00:05,-0.00625199126079678
1251,00:00:05.004,0.00245231646113098
1252,00:00:05.008,-0.005264479026664054
1253,00:00:05.012,-0.00609929370693863
1254,00:00:05.016,0.01032323646359146
1255,00:00:05.02,0.005104017676785589
1256,00:00:05.024,-0.0001825673971325081
1257,00:00:05.028,-0.005045563913881779
1258,00:00:05.032,0.003014058456756179
1259,00:00:05.036,-0.00818169821286574
1260,00:00:05.04,0.00282650860026479
1261,00:00:05.044,0.0010478855256224077
1262,00:00:05.048,0.00467253848910332
1263,00:00:05.052,-0.0015245111426338614
1264,00:00:05.056,-0.011280903941951696
1265,00:00:05.06,-0.004327251896029335
1266,00:00:05.064,0.008029187098145488
1267,00:00:05.068,0.02616983512416479
1268,00:00:05.072,-0.0004462581127882004
1269,00:00:05.076,-0.01735181163530793
1270,00:00:05.08,-0.01530241407454014
1271,00:00:05.084,-0.0031823029275983607
1272,00:00:05.088,0.003995605744421483
1273,00:00:05.092,0.01681205700151622
1274,00:00:05.096,0.00792173645459116
1275,00:00:05.1,-0.00704043149016798
1276,00:00:05.104,-0.012231885106302801
1277,00:00:05.108,-0.00810430583078416
1278,00:00:05.112,0.01390629692468792
1279,00:00:05.116,0.00155587715562433
1280,00:00:05.12,0.00813246090547181
1281,00:00:05.124,-0.0012442149454727795
1282,00:00:05.128,-0.003610244952142242
1283,00:00:05.132,-0.0010211261687800301
1284,00:00:05.136,-0.01201724458951503
1285,00:00:05.14,0.0015888100024312804
1286,00:00:05.144,-0.0019210092141292987
1287,00:00:05.148,0.0025524744851281914
1288,00:00:05.152,0.009516372778307405
1289,00:00:05.156,0.0006252090679481607
1290,00:00:05.16,-0.0015416463138535562
1291,00:00:05.164,0.0007246977183967902
1292,00:00:05.168,-0.0047432049905182785
1293,00:00:05.172,0.006342751206830149
1294,00:00:05.176,0.0038164453580975507
1295,00:00:05.18,-0.01597422407940026
1296,00:00:05.184,-0.0092538259923458
1297,00:00:05.188,0.01054075045976788
1298,00:00:05.192,0.0256337614264339
1299,00:00:05.196,-0.0073310618754476396
1300,00:00:05.2,-0.01332293194718659
1301,00:00:05.204,-0.011725754244253041
1302,00:00:05.208,0.0017863206558104178
1303,00:00:05.212,0.011644822079688307
1304,00:00:05.216,0.0048397290520370015
1305,00:00:05.22,-0.0002887260634452096
1306,00:00:05.224,-0.0027047974290326207
1307,00:00:05.228,-0.00898266327567399
1308,00:00:05.232,-0.0018269152496941388
1309,00:00:05.236,0.02317825611680745
1310,00:00:05.24,-0.003572155255824323
1311,00:00:05.244,-0.02119225589558487
1312,00:00:05.248,0.00022721849381923155
1313,00:00:05.252,0.010816322173923282
1314,00:00:05.256,0.0014747667446499638
1315,00:00:05.26,-0.005628927086945626
1316,00:00:05.264,0.00041407239041291416
1317,00:00:05.268,0.0088692982099019
1318,00:00:05.272,0.0065793571993708585
1319,00:00:05.276,-0.0142476970795542
1320,00:00:05.28,-0.011583929881453552
1321,00:00:05.284,0.00026543822605162816
1322,00:00:05.288,0.024394957115873733
1323,00:00:05.292,-0.005448895710287612
1324,00:00:05.296,-0.01076732575893406
1325,00:00:05.3,-0.003346300305565815
1326,00:00:05.304,0.0034250034950673606
1327,00:00:05.308,0.01377477613277734
1328,00:00:05.312,0.00410139001905918
1329,00:00:05.316,-0.011772636091336611
1330,00:00:05.32,-0.008887282339856029
1331,00:00:05.324,-0.0034298925893381203
1332,00:00:05.328,0.0161974806105718
1333,00:00:05.332,-0.0032716109417378803
1334,00:00:05.336,-0.004834762541577218
1335,00:00:05.34,-0.0032073693000711488
1336,00:00:05.344,0.01217236297088675
1337,00:00:05.348,0.0005038515082560458
1338,00:00:05.352,-0.00457770773209632
1339,00:00:05.356,-0.004510006983764466
1340,00:00:05.36,-0.02069777296856044
1341,00:00:05.364,0.005852503352798509
1342,00:00:05.368,0.03680418874137102
1343,00:00:05.372,0.007493974859244189
1344,00:00:05.376,-0.016069159086328
1345,00:00:05.38,-0.01454031374305487
1346,00:00:05.384,-0.009550072718411691
1347,00:00:05.388,-0.0021905859466642193
1348,00:00:05.392,0.0038410772685892923
1349,00:00:05.396,0.008420733152888668
1350,00:00:05.4,0.015945446008117876
1351,00:00:05.404,0.0017652364913374214
1352,00:00:05.408,-0.0072145905578509025
1353,00:00:05.412,-0.00873779156245292
1354,00:00:05.416,-0.011556575562281075
1355,00:00:05.42,0.0073010761989280495
1356,00:00:05.424,0.007519869250245391
1357,00:00:05.428,-0.005935085006058212
1358,00:00:05.432,-0.008394054020754951
1359,00:00:05.436,0.015265492023900153
1360,00:00:05.44,0.00995903951115907
1361,00:00:05.444,-0.0031231283355737044
1362,00:00:05.448,-0.00961436983197927
1363,00:00:05.452,-0.004008153453469279
1364,00:00:05.456,0.005742253735661509
1365,00:00:05.46,-0.00872464990243316
1366,00:00:05.464,0.0008190582739189276
1367,00:00:05.468,0.006161215715110298
1368,00:00:05.472,-0.008925265865400399
1369,00:00:05.476,0.02405412402004005
1370,00:00:05.48,-0.00638015707954763
1371,00:00:05.484,-0.019499264657497413
1372,00:00:05.488,0.01048690127208829
1373,00:00:05.492,-0.0026592696085572303
1374,00:00:05.496,-0.0038904633838683397
1375,00:00:05.5,0.00355008849874139
1376,00:00:05.504,0.010975742072332676
1377,00:00:05.508,-0.001280186377698553
1378,00:00:05.512,-0.0070925828185864044
1379,00:00:05.516,-0.004050200572237379
1380,00:00:05.52,0.00024386495351790905
1381,00:00:05.524,0.006729747634381051
1382,00:00:05.528,0.0027978336729574944
1383,00:00:05.532,0.0002877968363463818
1384,00:00:05.536,-0.007633096422068775
1385,00:00:05.54,-0.014862698153592644
1386,00:00:05.544,0.008379973936825985
1387,00:00:05.548,0.01777126570232212
1388,00:00:05.552,0.006192858214490121
1389,00:00:05.556,-0.0115314875729382
1390,00:00:05.56,-0.011846590597997423
1391,00:00:05.564,-0.002598341088741971
1392,00:00:05.568,0.01288561589899473
1393,00:00:05.572,0.0026718471199274098
1394,00:00:05.576,0.0041009549750015105
1395,00:00:05.58,-0.00892979954369366
1396,00:00:05.584,-0.008844826021231714
1397,00:00:05.588,-0.0029655587859451805
1398,00:00:05.592,0.00891592958942056
1399,00:00:05.596,0.00760170543799177
1400,00:00:05.6,0.00214594567660243
1401,00:00:05.604,-0.0001625014410819872
1402,00:00:05.608,-0.00573875638656318
1403,00:00:05.612,0.001676808460615579
1404,00:00:05.616,-0.0050874216249212605
1405,00:00:05.62,-0.02005398599430921
1406,00:00:05.624,0.007723179995082329
1407,00:00:05.628,0.02572028536815205
1408,00:00:05.632,0.0047577153891325
1409,00:00:05.636,-0.0061083458931534525
1410,00:00:05.64,-0.002167410682886839
1411,00:00:05.644,-0.00945992721244693
1412,00:00:05.648,-0.00418543594423681
1413,00:00:05.652,0.001730875577777619
1414,00:00:05.656,-0.004165347432717681
1415,00:00:05.66,0.0028568989037012233
1416,00:00:05.664,0.00505028245970607
1417,00:00:05.668,0.003671900718472901
1418,00:00:05.672,0.0010038127365987674
1419,00:00:05.676,-0.005282864549371903
1420,00:00:05.68,0.006144056183984507
1421,00:00:05.684,0.0018594635184854208
1422,00:00:05.688,-0.013848606671672314
1423,00:00:05.692,0.004847555654123431
1424,00:00:05.696,-0.0075096394866704915
1425,00:00:05.7,0.00819995289202779
1426,00:00:05.704,0.01133504672907292
1427,00:00:05.708,-0.008776975795626647
1428,00:00:05.712,0.0017618848942220302
1429,00:00:05.716,0.0005784244276583208
1430,00:00:05.72,0.0020344430813565876
1431,00:00:05.724,-0.015121464268304411
1432,00:00:05.728,0.002862875815480951
1433,00:00:05.732,0.00409376109018922
1434,00:00:05.736,0.00969531934242696
1435,00:00:05.74,0.0020207877969369405
1436,00:00:05.744,-0.0337247732095421
1437,00:00:05.748,0.011047279345802965
1438,00:00:05.752,0.0331529611721635
1439,00:00:05.756,0.004303686437197029
1440,00:00:05.76,-0.01840246655046944
1441,00:00:05.764,-0.014909158460795862
1442,00:00:05.768,-0.0038720142329111726
1443,00:00:05.772,0.00871408078819508
1444,00:00:05.776,0.0032843484077602707
1445,00:00:05.78,0.00621804280672222
1446,00:00:05.784,-0.0067417434183880765
1447,00:00:05.788,0.0010696342214941996
1448,00:00:05.792,0.014889079844579099
1449,00:00:05.796,-0.010777604999020689
1450,00:00:05.8,-0.006259006488107843
1451,00:00:05.804,-0.00637127662776038
1452,00:00:05.808,-0.0036134568508714516
1453,00:00:05.812,0.02161244535818698
1454,00:00:05.816,-0.0009778521489352005
1455,00:00:05.82,-0.01681172149255872
1456,00:00:05.824,-0.0007193274213932442
1457,00:00:05.828,0.021727510960772592
1458,00:00:05.832,0.00582083268091083
1459,00:00:05.836,-0.022291547153145082
1460,00:00:05.84,0.0022281744750216707
1461,00:00:05.844,-0.004580705077387388
1462,00:00:05.848,0.0015172749990597402
1463,00:00:05.852,0.0079203164204955
1464,00:00:05.856,-0.0029027740238234496
1465,00:00:05.86,-6.116589065640818e-05
1466,00:00:05.864,0.0008394723990932202
1467,00:00:05.868,-0.005633533990476283
1468,00:00:05.872,0.010082129389047614
1469,00:00:05.876,0.00470769847743214
1470,00:00:05.88,-0.011368561768904328
1471,00:00:05.884,-0.01087270886637267
1472,00:00:05.888,0.0072500626556575316
1473,00:00:05.892,0.01083060260862112
1474,00:00:05.896,0.01635252707637846
1475,00:00:05.9,-0.01463500721729361
1476,00:00:05.904,-0.023515606997534598
1477,00:00:05.908,-0.00569445267319679
1478,00:00:05.912,0.02842079335823654
1479,00:00:05.916,0.004489629995077851
1480,00:00:05.92,-0.0009161136113107187
1481,00:00:05.924,-0.014143221545964469
1482,00:00:05.928,-0.004679645120631903
1483,00:00:05.932,0.00685190130025148
1484,00:00:05.936,0.00963293621316553
1485,00:00:05.94,-0.00506572797894478
1486,00:00:05.944,-0.0076105360640213015
1487,00:00:05.948,-0.010003367759054575
1488,00:00:05.952,0.011127609293907879
1489,00:00:05.956,0.02762694950797597
1490,00:00:05.96,-0.01432001852663235
1491,00:00:05.964,-0.01829754246864463
1492,00:00:05.968,0.00281761286896654
1493,00:00:05.972,0.003871444263495511
1494,00:00:05.976,0.0006886487826704901
1495,00:00:05.98,0.0071974200400291045
1496,00:00:05.984,-0.0025490561965853
1497,00:00:05.988,-0.00806964811636135
1498,00:00:05.992,0.004084756830707189
1499,00:00:05.996,0.005757052800618105
1500,00:00:06,-0.00793622212950141
1501,00:00:06.004,-0.003919062786735591
1502,00:00:06.008,0.010555698361713436
1503,00:00:06.012,-0.003036757407244298
1504,00:00:06.016,0.00552928331308066
1505,00:00:06.02,-0.007518002486904153
1506,00:00:06.024,0.008014384467969649
1507,00:00:06.028,-0.012753550137858838
1508,00:00:06.032,0.002323145570699127
1509,00:00:06.036,0.0022962983930483304
1510,00:00:06.04,0.0018454412929713795
1511,00:00:06.044,-0.009406658122316
1512,00:00:06.048,0.016187382396310592
1513,00:00:06.052,0.0038818337488919405
1514,00:00:06.056,-0.00870751799084247
1515,00:00:06.06,-0.002778490947093816
1516,00:00:06.064,-0.0032787877134979205
1517,00:00:06.068,-0.0026958019006997408
1518,00:00:06.072,0.00156514722038992
1519,00:00:06.076,0.0121988884638995
1520,00:00:06.08,-0.0024056530091911593
1521,00:00:06.084,-0.007133828708902005
1522,00:00:06.088,-0.0008434019982815205
1523,00:00:06.092,0.00377116585150361
1524,00:00:06.096,-0.002214151900261637
1525,00:00:06.1,0.0012530186795629509
1526,00:00:06.104,0.009706442186143244
1527,00:00:06.108,-0.015790895093232428
1528,00:00:06.112,-0.005359826216590605
1529,00:00:06.116,0.015155215747654462
1530,00:00:06.12,0.0023725819773972104
1531,00:00:06.124,-0.00025770417414605964
1532,00:00:06.128,0.0014388277777470648
1533,00:00:06.132,-0.00502044381573797
1534,00:00:06.136,-0.0030690252315252993
1535,00:00:06.14,-0.01041072490625083
1536,00:00:06.144,-0.00525999173987657
1537,00:00:06.148,0.02119001187384129
1538,00:00:06.152,0.0017602762673050232
1539,00:00:06.156,-0.0008024183334782689
1540,00:00:06.16,0.0020079337991773995
1541,00:00:06.164,-0.008276762207969999
1542,00:00:06.168,0.0013216792140156
1543,00:00:06.172,0.005097634159028569
1544,00:00:06.176,-0.0028843164909631014
1545,00:00:06.18,-0.013172947219572961
1546,00:00:06.184,-0.0033260919735766934
1547,00:00:06.188,0.00829319073818624
1548,00:00:06.192,0.01733800838701426
1549,00:00:06.196,-0.00346061564050615
1550,00:00:06.2,-0.0009579975157976096
1551,00:00:06.204,-0.00594832585193217
1552,00:00:06.208,-0.015410902095027322
1553,00:00:06.212,0.0040034083649516106
1554,00:00:06.216,0.01337406272068616
1555,00:00:06.22,0.0004439968615770301
1556,00:00:06.224,0.00634842761792243
1557,00:00:06.228,-0.00901312800124288
1558,00:00:06.232,-0.0004318963765399472
1559,00:00:06.236,-0.006360784871503671
1560,00:00:06.24,0.00893878238275647
1561,00:00:06.244,-0.0002624167827889349
1562,00:00:06.248,-0.005314677022397514
1563,00:00:06.252,-0.00257158768363297
1564,00:00:06.256,0.0010626980802044294
1565,00:00:06.26,0.0007134978659450999
1566,00:00:06.264,0.00026777072343976043
1567,00:00:06.268,0.00663185655139386
1568,00:00:06.272,0.00728247829829343
1569,00:00:06.276,-0.005484625988174176
1570,00:00:06.28,-0.015342115890234709
1571,00:00:06.284,0.008408967405557643
1572,00:00:06.288,0.002867385046556598
1573,00:00:06.292,0.00193753349594772
1574,00:00:06.296,0.0010601598623907133
1575,00:00:06.3,-0.00856375833973288
1576,00:00:06.304,-0.0017498824745416797
1577,00:00:06.308,0.00030785292619839484
1578,00:00:06.312,0.00531640299595893
1579,00:00:06.316,0.00177847861777991
1580,00:00:06.32,0.004701553421909921
1581,00:00:06.324,0.0021711711306124904
1582,00:00:06.328,-0.0118234739638865
1583,00:00:06.332,-0.004015684535261246
1584,00:00:06.336,0.00217562448233367
1585,00:00:06.34,0.010618628468364477
1586,00:00:06.344,-0.01082613691687584
1587,00:00:06.348,0.00824057927820831
1588,00:00:06.352,0.013704639866773508
1589,00:00:06.356,-0.023959077312611078
1590,00:00:06.36,0.00413120677694678
1591,00:00:06.364,0.004105924803297972
1592,00:00:06.368,-0.0031431803945451992
1593,00:00:06.372,-0.00346177909523249
1594,00:00:06.376,0.00136661343276501
1595,00:00:06.38,0.024857218842953402
1596,00:00:06.384,-0.01201618288177997
1597,00:00:06.388,-0.02320326073095198
1598,00:00:06.392,0.004250018304446717
1599,00:00:06.396,0.0034777323708112843
1600,00:00:06.4,0.011784205504227428
1601,00:00:06.404,0.00543225719593465
1602,00:00:06.408,-0.010490881657460698
1603,00:00:06.412,0.008404660271480681
1604,00:00:06.416,-0.004354695905931302
1605,00:00:06.42,-0.01256573107093573
1606,00:00:06.424,-0.003534235642291608
1607,00:00:06.428,0.0134656349546276
1608,00:00:06.432,-7.561745587736021e-05
1609,00:00:06.436,0.011297668097540728
1610,00:00:06.44,-0.009308578446507456
1611,00:00:06.444,-0.006419601792003961
1612,00:00:06.448,-0.00376200722530484
1613,00:00:06.452,0.007801044790539892
1614,00:00:06.456,-0.0037223410326987505
1615,00:00:06.46,0.0008184745674952839
1616,00:00:06.464,-0.0014746922533959098
1617,00:00:06.468,0.022668737859930784
1618,00:00:06.472,-0.01406801497796551
1619,00:00:06.476,-0.01578338793478906
1620,00:00:06.48,0.0032076542265713284
1621,00:00:06.484,0.011268848960753534
1622,00:00:06.488,0.0025266122538596288
1623,00:00:06.492,-0.01721847988665104
1624,00:00:06.496,0.02036558510735631
1625,00:00:06.5,-0.00288131192792207
1626,00:00:06.504,-0.01154908491298556
1627,00:00:06.508,0.004003421869128949
1628,00:00:06.512,-0.0024498183047398842
1629,00:00:06.516,0.00178488518577069
1630,00:00:06.52,-0.0017090402252506378
1631,00:00:06.524,0.0032225050963461403
1632,00:00:06.528,0.007316248782444745
1633,00:00:06.532,0.0033275883179157933
1634,00:00:06.536,-0.00598806352354587
1635,00:00:06.54,-0.008942880551330742
1636,00:00:06.544,-0.003573812078684565
1637,00:00:06.548,-0.0042763096280396
1638,00:00:06.552,0.01444744982291013
1639,00:00:06.556,0.008866302785463631
1640,00:00:06.56,-0.015474331798031921
1641,00:00:06.564,0.001204036583658312
1642,00:00:06.568,0.0069407271221280115
1643,00:00:06.572,0.009103415613935802
1644,00:00:06.576,0.002616476675029839
1645,00:00:06.58,-0.02689260977786036
1646,00:00:06.584,-0.012181161670014228
1647,00:00:06.588,0.01919974735938014
1648,00:00:06.592,0.01339222351089117
1649,00:00:06.596,0.0047629717591917125
1650,00:00:06.6,-0.01696450286544856
1651,00:00:06.604,0.0038678174023516533
1652,00:00:06.608,0.0016912209102883918
1653,00:00:06.612,-0.0051056201336905395
1654,00:00:06.616,-9.841751307240396e-06
1655,00:00:06.62,0.003969921817770225
1656,00:00:06.624,-0.0002190084196627409
1657,00:00:06.628,-0.0029441911028698065
1658,00:00:06.632,-0.0025199768133461497
1659,00:00:06.636,0.00371809722855688
1660,00:00:06.64,0.009982576360926029
1661,00:00:06.644,-0.0025141764199361196
1662,00:00:06.648,-0.005764313042163852
1663,00:00:06.652,-0.0019316303078085201
1664,00:00:06.656,-0.004924937034957111
1665,00:00:06.66,-0.0003308290615677829
1666,00:00:06.664,0.005564895007410092
1667,00:00:06.668,0.0063335300656035595
1668,00:00:06.672,0.0010381122119724807
1669,00:00:06.676,-0.0072165608871728095
1670,00:00:06.68,-0.002092629438266157
1671,00:00:06.684,0.0027557439170777893
1672,00:00:06.688,-0.008738878183066848
1673,00:00:06.692,0.003321899130241941
1674,00:00:06.696,0.02117990888655186
1675,00:00:06.7,-0.00314641423756257
1676,00:00:06.704,-0.01887044531758872
1677,00:00:06.708,-0.00011828661081381619
1678,00:00:06.712,0.004352793795987969
1679,00:00:06.716,-0.0031407902715727696
1680,00:00:06.72,0.00247228797525167
1681,00:00:06.724,0.012194482173072172
1682,00:00:06.728,-0.0012869860511273098
1683,00:00:06.732,-0.012368982657790191
1684,00:00:06.736,-0.0033714107703417514
1685,00:00:06.74,0.002883367240428921
1686,00:00:06.744,0.00675873577711173
1687,00:00:06.748,-0.002854054677300156
1688,00:00:06.752,0.011390777537599211
1689,00:00:06.756,-0.0017902684630826107
1690,00:00:06.76,-0.007011871784925438
1691,00:00:06.764,-0.00800470705144107
1692,00:00:06.768,-0.01053472131025046
1693,00:00:06.772,0.01697397977113724
1694,00:00:06.776,0.007316640869248662
1695,00:00:06.78,-0.01308488647919149
1696,00:00:06.784,0.00967790046706795
1697,00:00:06.788,-0.002405312086921193
1698,00:00:06.792,0.005486571695655581
1699,00:00:06.796,0.004206340876407924
1700,00:00:06.8,-0.02332726912572984
1701,00:00:06.804,0.0072008459828794
1702,00:00:06.808,-0.004066436202265324
1703,00:00:06.812,0.007344772340729831
1704,00:00:06.816,0.010482682089786977
1705,00:00:06.82,-0.0024121185415424437
1706,00:00:06.824,-0.0055108306696638396
1707,00:00:06.828,-0.007913967565400524
1708,00:00:06.832,0.00312581210164353
1709,00:00:06.836,0.0066055663628503646
1710,00:00:06.84,0.00023141762358136085
1711,00:00:06.844,9.899446740745804e-05
1712,00:00:06.848,0.0003818485420197205
1713,00:00:06.852,-0.010467805434018382
1714,00:00:06.856,0.00488663953728974
1715,00:00:06.86,-0.005713298683986059
1716,00:00:06.864,-0.006110367598012059
1717,00:00:06.868,0.02811749512329693
1718,00:00:06.872,0.0014625374460593213
1719,00:00:06.876,-0.007152053178288039
1720,00:00:06.88,-0.00906949990894646
1721,00:00:06.884,-0.003811992006376389
1722,00:00:06.888,-0.011423491989262406
1723,00:00:06.892,0.008603196649346511
1724,00:00:06.896,0.00573729291500058
1725,00:00:06.9,0.008228565566241752
1726,00:00:06.904,-6.231639417824287e-06
1727,00:00:06.908,-0.005584467609878631
1728,00:00:06.912,-0.0015932897222228392
1729,00:00:06.916,0.01423640770372004
1730,00:00:06.92,-0.022091127000749118
1731,00:00:06.924,-0.013861214276403199
1732,00:00:06.928,0.015339700505137402
1733,00:00:06.932,0.0191094931215047
1734,00:00:06.936,-0.00327258603647351
1735,00:00:06.94,-0.005237911027506923
1736,00:00:06.944,0.006154402857646339
1737,00:00:06.948,-0.01188411680050195
1738,00:00:06.952,-0.01028495328500863
1739,00:00:06.956,0.01047709403792396
1740,00:00:06.96,-0.0008418175275437558
1741,00:00:06.964,-0.002594028366729631
1742,00:00:06.968,0.00578888109885156
1743,00:00:06.972,0.002142577082850032
1744,00:00:06.976,0.00841438560746613
1745,00:00:06.98,-0.01297584734857082
1746,00:00:06.984,0.008655718178488309
1747,00:00:06.988,-0.014342723414301902
1748,00:00:06.992,-0.00468787783756852
1749,00:00:06.996,0.012840169016271857
1750,00:00:07,0.00596745219081641
1751,00:00:07.004,-0.013204464368754977
1752,00:00:07.008,0.012065057409927249
1753,00:00:07.012,0.0021934506949037305
1754,00:00:07.016,-0.012239459028933199
1755,00:00:07.02,0.00697720481548458
1756,00:00:07.024,-0.00455355865415186
1757,00:00:07.028,-0.0009067821083590397
1758,00:00:07.032,-0.00300606293603777
1759,00:00:07.036,0.013864424196071876
1760,00:00:07.04,-0.011840705294162028
1761,00:00:07.044,0.0019478802569210514
1762,00:00:07.048,-0.0023978275712579593
1763,00:00:07.052,0.01985022542066877
1764,00:00:07.056,-0.01411272119730711
1765,00:00:07.06,0.0008997950935736301
1766,00:00:07.064,-0.00821139593608677
1767,00:00:07.068,-0.00307274353690445
1768,00:00:07.072,0.001012948690913621
1769,00:00:07.076,0.013645523926243202
1770,00:00:07.08,0.00192925450392068
1771,00:00:07.084,-0.0013010443071834752
1772,00:00:07.088,-0.0060538072139024665
1773,00:00:07.092,-0.00406433013267815
1774,00:00:07.096,-0.00259913294576108
1775,00:00:07.1,0.005899275478441277
1776,00:00:07.104,0.00410926807671785
1777,00:00:07.108,-0.008097829064354311
1778,00:00:07.112,0.005711500300094481
1779,00:00:07.116,0.0062187314033508405
1780,00:00:07.12,-0.008809680119156843
1781,00:00:07.124,-0.00320624024607241
1782,00:00:07.128,0.001316906651481987
1783,00:00:07.132,0.01542127865832301
1784,00:00:07.136,-0.013700814452022352
1785,00:00:07.14,-0.00519605202134699
1786,00:00:07.144,0.0036496333777904497
1787,00:00:07.148,0.01052249420899898
1788,00:00:07.152,0.0021920165236224455
1789,00:00:07.156,-0.017577565042301988
1790,00:00:07.16,-0.007381029077805579
1791,00:00:07.164,0.011357019655406503
1792,00:00:07.168,0.008285439049359411
1793,00:00:07.172,-0.0011785911046899846
1794,00:00:07.176,0.01294170250184833
1795,00:00:07.18,-0.009923588397214187
1796,00:00:07.184,-0.004660883452743291
1797,00:00:07.188,-0.010049822565633804
1798,00:00:07.192,0.0013631363381136903
1799,00:00:07.196,0.0002797248889692173
1800,00:00:07.2,0.00949476729147136
1801,00:00:07.204,-0.0015097994146344722
1802,00:00:07.208,0.0022929571714485125
1803,00:00:07.212,0.00449096062220634
1804,00:00:07.216,-0.016137499944306855
1805,00:00:07.22,-0.010273529682308389
1806,00:00:07.224,0.02434422029182312
1807,00:00:07.228,0.00990306213498115
1808,00:00:07.232,-0.0034797384869307488
1809,00:00:07.236,-0.009118040208704811
1810,00:00:07.24,-0.007725526345893749
1811,00:00:07.244,-0.00720974348951131
1812,00:00:07.248,0.0010873763094423295
1813,00:00:07.252,0.00858630798757076
1814,00:00:07.256,0.0068099875934422
1815,00:00:07.26,0.00616293627535925
1816,00:00:07.264,-0.01410112529993057
1817,00:00:07.268,0.007553651870694047
1818,00:00:07.272,-0.00237344019114971
1819,00:00:07.276,-0.0015578570310026494
1820,00:00:07.28,-0.0014315126463770793
1821,00:00:07.284,-0.01952104922384023
1822,00:00:07.288,0.005334703950211381
1823,00:00:07.292,0.03351156134158373
1824,00:00:07.296,0.01052150665782392
1825,00:00:07.3,-0.02304538385942579
1826,00:00:07.304,-0.01200518169207497
1827,00:00:07.308,-0.0011606521438807301
1828,00:00:07.312,0.00446794764138758
1829,00:00:07.316,-0.007523588370531799
1830,00:00:07.32,0.008169125987478765
1831,00:00:07.324,0.0031024729833006902
1832,00:00:07.328,-0.006862669644760901
1833,00:00:07.332,0.01874771481379867
1834,00:00:07.336,-0.00157620455138385
1835,00:00:07.34,-0.0082478667536634
1836,00:00:07.344,-0.006722335238009689
1837,00:00:07.348,0.0018703687237575698
1838,00:00:07.352,-0.004564011702314019
1839,00:00:07.356,0.0017145638121292004
1840,00:00:07.36,0.00803934926807414
1841,00:00:07.364,-0.00918947387253867
1842,00:00:07.368,0.00775192468427121
1843,00:00:07.372,0.007731880526989657
1844,00:00:07.376,-0.0004609386669471899
1845,00:00:07.38,-0.014136498793959621
1846,00:00:07.384,-0.00854877138044685
1847,00:00:07.388,0.00714634638279677
1848,00:00:07.392,0.01523171889130022
1849,00:00:07.396,-0.0013193169143050905
1850,00:00:07.4,0.005022170022130016
1851,00:00:07.404,-0.015745662502013147
1852,00:00:07.408,-0.01548018783796579
1853,00:00:07.412,0.009696992128738206
1854,00:00:07.416,0.02293842053040863
1855,00:00:07.42,-0.001669552759267384
1856,00:00:07.424,-0.0152840055525303
1857,00:00:07.428,0.002968772194435587
1858,00:00:07.432,0.009146408177912239
1859,00:00:07.436,-0.00885025504976511
1860,00:00:07.44,-0.02026014914736152
1861,00:00:07.444,0.01062599167926237
1862,00:00:07.448,0.013587842578999698
1863,00:00:07.452,-0.00019713357323780743
1864,00:00:07.456,0.0042343889945186675
1865,00:00:07.46,-0.008715926436707377
1866,00:00:07.464,-0.0006108599191065904
1867,00:00:07.468,0.0056860214099287995
1868,00:00:07.472,0.00124345382209867
1869,00:00:07.476,-0.00933137082029134
1870,00:00:07.48,0.005958480061963202
1871,00:00:07.484,-0.0015208042459562456
1872,00:00:07.488,-0.004948188783600932
1873,00:00:07.492,0.0006318448577076201
1874,00:00:07.496,0.00220587686635554
1875,00:00:07.5,-0.014847076963633351
1876,00:00:07.504,0.018565031816251562
1877,00:00:07.508,0.006818797672167419
1878,00:00:07.512,0.0031556216999888394
1879,00:00:07.516,0.00208317418582737
1880,00:00:07.52,-0.01733619219157846
1881,00:00:07.524,-0.0128675913438201
1882,00:00:07.528,0.0005587269552051986
1883,00:00:07.532,0.017232335056178286
1884,00:00:07.536,0.01402961777057499
1885,00:00:07.54,-0.01539894542656839
1886,00:00:07.544,-0.006608939729630951
1887,00:00:07.548,-0.0013773507671430737
1888,00:00:07.552,0.01206095004454253
1889,00:00:07.556,0.00956856179982424
1890,00:00:07.56,-0.02773027867078789
1891,00:00:07.564,0.01614795660134405
1892,00:00:07.568,0.0007907177787274092
1893,00:00:07.572,-0.00541149009950459
1894,00:00:07.576,0.001669368240982321
1895,00:00:07.58,-0.0026518133090576114
1896,00:00:07.584,0.005837150645675141
1897,00:00:07.588,0.0022533922456204813
1898,00:00:07.592,-0.01050543246674351
1899,00:00:07.596,-0.004146887920796871
1900,00:00:07.6,0.009773015044629569
1901,00:00:07.604,0.004609615803929044
1902,00:00:07.608,-0.0021156941074878103
1903,00:00:07.612,-0.00047927911509759854
1904,00:00:07.616,0.007310513785341752
1905,00:00:07.62,-0.009238432117854242
1906,00:00:07.624,-0.009651190019212672
1907,00:00:07.628,-0.0031984271481633186
1908,00:00:07.632,-0.0011189507786184497
1909,00:00:07.636,0.02009739167988296
1910,00:00:07.64,0.017087202169932442
1911,00:00:07.644,-0.012846989440731697
1912,00:00:07.648,-0.010777627678180586
1913,00:00:07.652,-0.010525743520702279
1914,00:00:07.656,0.006744944665115327
1915,00:00:07.66,-0.0025995897594839304
1916,00:00:07.664,-0.00380648870486766
1917,00:00:07.668,0.01403314783237877
1918,00:00:07.672,0.0016972650773823305
1919,00:00:07.676,0.001979724329430614
1920,00:00:07.68,-0.00834720383863896
1921,00:00:07.684,-0.0005066848825663306
1922,00:00:07.688,0.0032067083520814694
1923,00:00:07.692,0.015240393069689214
1924,00:00:07.696,-0.03003106897813272
1925,00:00:07.7,-0.014356958214193537
1926,00:00:07.704,0.01664671066100711
1927,00:00:07.708,0.028809761162847333
1928,00:00:07.712,0.010696253390051431
1929,00:00:07.716,-0.01623566949274386
1930,00:00:07.72,-0.01807695184834302
1931,00:00:07.724,-0.012929526623338463
1932,00:00:07.728,0.001000285352347415
1933,00:00:07.732,0.00970463105477393
1934,00:00:07.736,0.008224633522331711
1935,00:00:07.74,0.01391336065717042
1936,00:00:07.744,0.00213159970007838
1937,00:00:07.748,-0.01195014128461481
1938,00:00:07.752,-0.0165254359599203
1939,00:00:07.756,0.00460094748996199
1940,00:00:07.76,0.005320550058968367
1941,00:00:07.764,0.003522749640978877
1942,00:00:07.768,-0.003034624183783308
1943,00:00:07.772,0.005383356648962945
1944,00:00:07.776,0.0020658556604757914
1945,00:00:07.78,-0.006445811595767741
1946,00:00:07.784,-0.002017776248976611
1947,00:00:07.788,0.004494564607739449
1948,00:00:07.792,-0.0027714383322745596
1949,00:00:07.796,-0.0022303457371890614
1950,00:00:07.8,-0.0019091449794359488
1951,00:00:07.804,-0.0025631953030824696
1952,00:00:07.808,0.011416092514991778
1953,00:00:07.812,0.01029918761923909
1954,00:00:07.816,-0.009986462711822238
1955,00:00:07.82,-0.013548946473747492
1956,00:00:07.824,0.0034218886867165583
1957,00:00:07.828,0.008263162832008676
1958,00:00:07.832,0.0013376229908317197
1959,00:00:07.836,-0.0017900982638821001
1960,00:00:07.84,-0.00011561042629183033
1961,00:00:07.844,0.0009428924822714275
1962,00:00:07.848,-0.0160386784700677
1963,00:00:07.852,0.004994927672669292
1964,00:00:07.856,0.019766575715038946
1965,00:00:07.86,0.00201046495931223
1966,00:00:07.864,-0.020040016854181882
1967,00:00:07.868,0.0011924082646146295
1968,00:00:07.872,0.0030338731594383795
1969,00:00:07.876,-0.0036233221981092365
1970,00:00:07.88,0.01339571294374764
1971,00:00:07.884,0.0010416419245302703
1972,00:00:07.888,-0.0112424143590033
1973,00:00:07.892,0.0046930965036153785
1974,00:00:07.896,-0.00591775984503329
1975,00:00:07.9,-0.00686568859964609
1976,00:00:07.904,0.010291199432686011
1977,00:00:07.908,0.0035679270513355307
1978,00:00:07.912,0.0045194050762802414
1979,00:00:07.916,-0.004963745253917297
1980,00:00:07.92,-0.0004487106052693001
1981,00:00:07.924,-0.0053168849553912895
1982,00:00:07.928,0.006214196793735018
1983,00:00:07.932,-0.00623668697517134
1984,00:00:07.936,-0.00756367575377223
1985,00:00:07.94,0.007782953209243686
1986,00:00:07.944,0.009644650388509021
1987,00:00:07.948,0.00862777011934668
1988,00:00:07.952,-0.01998975384049119
1989,00:00:07.956,-0.00672454212326557
1990,00:00:07.96,0.018144125584512942
1991,00:00:07.964,-0.006665213266387589
1992,00:00:07.968,-0.00403270797687583
1993,00:00:07.972,0.00041547905129845817
1994,00:00:07.976,0.0069014283944852615
1995,00:00:07.98,0.004866616160143174
1996,00:00:07.984,-0.00811342324595898
1997,00:00:07.988,-0.005707056727260362
1998,00:00:07.992,0.01237927190959453
1999,00:00:07.996,-0.0126358934212476
2000,00:00:08,-0.008488935418426952
2001,00:00:08.004,0.016321461182087698
2002,00:00:08.008,0.00018662278307601387
2003,00:00:08.012,0.008934841491282028
2004,00:00:08.016,0.004861620254814631
2005,00:00:08.02,-0.01472808537073434
2006,00:00:08.024,-0.01347457803785798
2007,00:00:08.028,-0.004075240416568707
2008,00:00:08.032,0.00845711817964912
2009,00:00:08.036,0.018301374278962612
2010,00:00:08.04,-0.000259844586253161
2011,00:00:08.044,-0.004252076498232786
2012,00:00:08.048,-0.017858845647424463
2013,00:00:08.052,0.0039244518848136
2014,00:00:08.056,0.02933509834110739
2015,00:00:08.06,-0.02074931003153324
2016,00:00:08.064,-0.018457137804944086
2017,00:00:08.068,0.01869289804017171
2018,00:00:08.072,-0.0017837067134678598
2019,00:00:08.076,0.008330471813678741
2020,00:00:08.08,4.17840201407697e-05
2021,00:00:08.084,-0.0066598118282854505
2022,00:00:08.088,-0.0090416889579501
2023,00:00:08.092,0.0030596270225942204
2024,00:00:08.096,0.011476433370262388
2025,00:00:08.1,-0.00285497878212482
2026,00:00:08.104,-0.004718645694083535
2027,00:00:08.108,-0.004133784153964373
2028,00:00:08.112,-0.0014461829268839221
2029,00:00:08.116,0.009638199320761494
2030,00:00:08.12,0.00526285532396286
2031,00:00:08.124,-0.00548252323642373
2032,00:00:08.128,-0.0090401191264391
2033,00:00:08.132,0.00895906356163322
2034,00:00:08.136,-0.0011177994310855787
2035,00:00:08.14,0.00599492201581597
2036,00:00:08.144,-0.00652186607476324
2037,00:00:08.148,-0.00984882703050971
2038,00:00:08.152,0.004978571203537281
2039,00:00:08.156,0.012066225986927751
2040,00:00:08.16,-0.007906617189291868
2041,00:00:08.164,-0.006241805385798209
2042,00:00:08.168,-0.00811989116482437
2043,00:00:08.172,0.01614890014752745
2044,00:00:08.176,0.010979258455336071
2045,00:00:08.18,-0.002405459061265
2046,00:00:08.184,-0.0010650925396475984
2047,00:00:08.188,-0.01412085758056491
2048,00:00:08.192,-0.011609287117607898
2049,00:00:08.196,0.01624103070935234
2050,00:00:08.2,-0.004001546996732944
2051,00:00:08.204,0.004485346085857599
2052,00:00:08.208,0.0058847449254244505
2053,00:00:08.212,-0.0035521450336091294
2054,00:00:08.216,0.00460382527671754
2055,00:00:08.22,-0.01115013053640724
2056,00:00:08.224,-0.0016609005397185694
2057,00:00:08.228,0.0025219182498403842
2058,00:00:08.232,0.005121703783515834
2059,00:00:08.236,0.00601514196023346
2060,00:00:08.24,-0.017753316555172198
2061,00:00:08.244,0.00812542974017561
2062,00:00:08.248,0.003555235918611281
2063,00:00:08.252,-0.005759519699495335
2064,00:00:08.256,0.0028043575584888597
2065,00:00:08.26,0.015988251194357872
2066,00:00:08.264,-0.006450326880440119
2067,00:00:08.268,-0.0168735128827393
2068,00:00:08.272,-0.004315590718761084
2069,00:00:08.276,0.008857682521920653
2070,00:00:08.28,0.005436177656520153
2071,00:00:08.284,-0.00010594888590276979
2072,00:00:08.288,0.003496926103252914
2073,00:00:08.292,-0.0040851415833458304
2074,00:00:08.296,-0.0031526312814093935
2075,00:00:08.3,0.010043548594694583
2076,00:00:08.304,-0.01464127050712705
2077,00:00:08.308,0.0014765191008336784
2078,00:00:08.312,0.00920327322091907
2079,00:00:08.316,0.0033540499862283503
2080,00:00:08.32,-0.009072558488696831
2081,00:00:08.324,-0.00114880455657839
2082,00:00:08.328,-0.0029130672337487396
2083,00:00:08.332,-0.003088537545409058
2084,00:00:08.336,0.013864971464499831
2085,00:00:08.34,0.004976198426447811
2086,00:00:08.344,-0.019451867789030068
2087,00:00:08.348,0.01413950836285949
2088,00:00:08.352,0.004583901260048151
2089,00:00:08.356,-0.0013907957181800161
2090,00:00:08.36,-0.010121388884726908
2091,00:00:08.364,-0.00814320903737098
2092,00:00:08.368,0.00026909593725577214
2093,00:00:08.372,0.0057372422888874895
2094,00:00:08.376,0.01244508032687008
2095,00:00:08.38,0.012056965380907062
2096,00:00:08.384,-0.022831050751847264
2097,00:00:08.388,-0.00809681322425604
2098,00:00:08.392,-0.012407653732225288
2099,00:00:08.396,0.021939721482340198
2100,00:00:08.4,0.02087321598082781
2101,00:00:08.404,-0.0042179454176220835
2102,00:00:08.408,-0.013753186212852618
2103,00:00:08.412,-0.011111964471638168
2104,00:00:08.416,0.00689874123781916
2105,00:00:08.42,0.00155800185166299
2106,00:00:08.424,0.0002082251012325417
2107,00:00:08.428,0.0044181030534673465
2108,00:00:08.432,-0.005553333321586262
2109,00:00:08.436,0.0032787254313007
2110,00:00:08.44,-0.00038414367008954113
2111,00:00:08.444,-0.01590407779440289
2112,00:00:08.448,0.00048726960085332003
2113,00:00:08.452,0.037860831245779984
2114,00:00:08.456,0.0019896905869245703
2115,00:00:08.46,-0.0258163106627762
2116,00:00:08.464,-0.012456457712687555
2117,00:00:08.468,0.001997397746890784
2118,00:00:08.472,-0.003807032713666559
2119,00:00:08.476,0.017464253469370312
2120,00:00:08.48,0.01070028776302934
2121,00:00:08.484,-0.009337229494121854
2122,00:00:08.488,-0.003910129191353914
2123,00:00:08.492,-0.005497484235093
2124,00:00:08.496,0.0038319970481097694
2125,00:00:08.5,0.003690043929964311
2126,00:00:08.504,-0.00536139449104667
2127,00:00:08.508,0.01085305749438703
2128,00:00:08.512,0.0033518273849040296
2129,00:00:08.516,-0.009500897955149412
2130,00:00:08.52,-0.0102097416529432
2131,00:00:08.524,-0.014676180668175252
2132,00:00:08.528,0.014078768203034959
2133,00:00:08.532,0.017995132831856633
2134,00:00:08.536,0.015322722494602228
2135,00:00:08.54,-0.01786874979734416
2136,00:00:08.544,-0.01108161988668144
2137,00:00:08.548,0.005299913405906409
2138,00:00:08.552,-0.003414666280150411
2139,00:00:08.556,0.005987295415252449
2140,00:00:08.56,-0.013204509828938176
2141,00:00:08.564,0.004222123872750679
2142,00:00:08.568,0.0028145409305580463
2143,00:00:08.572,0.00347513612359762
2144,00:00:08.576,0.0049012282397597985
2145,00:00:08.58,0.005285432562232021
2146,00:00:08.584,-0.006230792787391687
2147,00:00:08.588,-0.014968892588513001
2148,00:00:08.592,0.005061518633738157
2149,00:00:08.596,0.00953269063029436
2150,00:00:08.6,0.0034642583973436567
2151,00:00:08.604,-0.0024537759600207192
2152,00:00:08.608,-0.012917589046992362
2153,00:00:08.612,-0.0038794537540525202
2154,00:00:08.616,0.02177179022692145
2155,00:00:08.62,0.00044262642040848905
2156,00:00:08.624,-0.02392050344496962
2157,00:00:08.628,0.009247705340385402
2158,00:00:08.632,0.014811642817221582
2159,00:00:08.636,0.004912057425826791
2160,00:00:08.64,-0.015135514549911038
2161,00:00:08.644,-0.013072754023596641
2162,00:00:08.648,0.0009154150029644405
2163,00:00:08.652,0.007235547294840219
2164,00:00:08.656,0.002823889294631957
2165,00:00:08.66,0.011502040957566344
2166,00:00:08.664,-0.005160356289707121
2167,00:00:08.668,-0.007664421806111937
2168,00:00:08.672,0.008659653598442679
2169,00:00:08.676,0.00762032833881676
2170,00:00:08.68,-0.01603611628524955
2171,00:00:08.684,-0.012113256845623248
2172,00:00:08.688,0.005392935941927131
2173,00:00:08.692,0.01357879722490907
2174,00:00:08.696,0.008440079633146521
2175,00:00:08.7,-0.01020900788716972
2176,00:00:08.704,-0.007860430632717923
2177,00:00:08.708,0.005441549234092232
2178,00:00:08.712,0.0040696597716305405
2179,00:00:08.716,0.0038870166172273513
2180,00:00:08.72,-0.01292256312444806
2181,00:00:08.724,-0.006252489169128241
2182,00:00:08.728,0.013498487998731433
2183,00:00:08.732,0.005709425196982931
2184,00:00:08.736,-0.01012937072664499
2185,00:00:08.74,0.0008783990051597391
2186,00:00:08.744,-0.005915688117966051
2187,00:00:08.748,0.002496423549018801
2188,00:00:08.752,0.01180289033800364
2189,00:00:08.756,0.004455864662304521
2190,00:00:08.76,-0.003651399601949377
2191,00:00:08.764,-0.010931494878605008
2192,00:00:08.768,-0.0033557895803824
2193,00:00:08.772,0.00358839565888047
2194,00:00:08.776,0.0033828972373157688
2195,00:00:08.78,-0.007093123829690754
2196,00:00:08.784,0.0011715255677700004
2197,00:00:08.788,0.011410815059207349
2198,00:00:08.792,0.0048418496735394044
2199,00:00:08.796,0.0011313217692077195
2200,00:00:08.8,-0.008205145131796598
2201,00:00:08.804,-0.0207567187026143
2202,00:00:08.808,0.0019026929512620003
2203,00:00:08.812,0.02310320874676108
2204,00:00:08.816,-0.01908322330564256
2205,00:00:08.82,0.01183940144255758
2206,00:00:08.824,0.019103468745015537
2207,00:00:08.828,-0.0131025945302099
2208,00:00:08.832,-0.0025043337664101303
2209,00:00:08.836,-0.01120077364612371
2210,00:00:08.84,0.00626532337628305
2211,00:00:08.844,-0.0020591091597452725
2212,00:00:08.848,-0.00550939398817719
2213,00:00:08.852,0.011338868178427221
2214,00:00:08.856,-0.002275026403367511
2215,00:00:08.86,-0.0025984046515077287
2216,00:00:08.864,0.00431345752440392
2217,00:00:08.868,0.002045068191364408
2218,00:00:08.872,-0.0054888757877051796
2219,00:00:08.876,-0.0009138828609138651
2220,00:00:08.88,0.003042146097868681
2221,00:00:08.884,-0.011179781009559556
2222,00:00:08.888,0.01301973208319396
2223,00:00:08.892,0.00409379485063255
2224,00:00:08.896,-0.0019083688966929895
2225,00:00:08.9,-0.0018654461018741096
2226,00:00:08.904,-0.005045000929385431
2227,00:00:08.908,-0.0027033223886974113
2228,00:00:08.912,0.0004702551523223502
2229,00:00:08.916,0.004316220933105802
2230,00:00:08.92,-0.0017787616816349289
2231,00:00:08.924,-0.002566119364928462
2232,00:00:08.928,0.0075622727163136005
2233,00:00:08.932,0.003726166905835271
2234,00:00:08.936,-0.001841690449509763
2235,00:00:08.94,-0.01683505804976452
2236,00:00:08.944,0.01026666752295569
2237,00:00:08.948,0.004437923780642454
2238,00:00:08.952,8.529098704457023e-05
2239,00:00:08.956,0.00225090887397528
2240,00:00:08.96,-0.01003209012560547
2241,00:00:08.964,0.003847890766337511
2242,00:00:08.968,-0.0030277693294920023
2243,00:00:08.972,0.0013986119884066327
2244,00:00:08.976,0.002394289011135699
2245,00:00:08.98,0.005680104950442909
2246,00:00:08.984,-0.005812099901959311
2247,00:00:08.988,-0.00822311569936574
2248,00:00:08.992,0.004216853471007201
2249,00:00:08.996,0.012260079151019461
2250,00:00:09,0.0054508519715454964
2251,00:00:09.004,-0.015335802163463084
2252,00:00:09.008,-0.003354662214405833
2253,00:00:09.012,-0.015415684320032583
2254,00:00:09.016,0.028309001587331267
2255,00:00:09.02,0.0006680331425741202
2256,00:00:09.024,-0.004268985067028549
2257,00:00:09.028,-0.00862847664393485
2258,00:00:09.032,0.0035892138257622693
2259,00:00:09.036,-0.0009420592396054387
2260,00:00:09.04,0.0039526254404336205
2261,00:00:09.044,-0.0007543020765297124
2262,00:00:09.048,-0.0038073931355029293
2263,00:00:09.052,0.0071858615847304515
2264,00:00:09.056,-0.00428815535269677
2265,00:00:09.06,-0.004140583594562486
2266,00:00:09.064,-0.008990281494334344
2267,00:00:09.068,0.00981831597164276
2268,00:00:09.072,0.01116129127331078
2269,00:00:09.076,-0.005861181300133471
2270,00:00:09.08,0.009515847428701821
2271,00:00:09.084,-0.00586396572180092
2272,00:00:09.088,-0.01276004104875028
2273,00:00:09.092,-0.0050442721985746175
2274,00:00:09.096,0.007327345199882989
2275,00:00:09.1,0.00886062998324633
2276,00:00:09.104,-0.003839258337393411
2277,00:00:09.108,-0.01155891898088157
2278,00:00:09.112,0.01219548168592155
2279,00:00:09.116,0.00888697290793061
2280,00:00:09.12,-0.00241713784635067
2281,00:00:09.124,-0.0019517133332556114
2282,00:00:09.128,-0.008728876011446122
2283,00:00:09.132,-0.009043937796377579
2284,00:00:09.136,0.0087970340391621
2285,00:00:09.14,0.00942195858806372
2286,00:00:09.144,-0.009056614362634715
2287,00:00:09.148,-0.007072889071423566
2288,00:00:09.152,0.004254430532455441
2289,00:00:09.156,0.01756611303426325
2290,00:00:09.16,-0.001104300201404793
2291,00:00:09.164,-0.009597060852684082
2292,00:00:09.168,-0.00444048352073879
2293,00:00:09.172,-0.0029004213865846595
2294,00:00:09.176,0.00940396077930928
2295,00:00:09.18,-0.00666660279966891
2296,00:00:09.184,-0.0035996774095110626
2297,00:00:09.188,0.010569078003754838
2298,00:00:09.192,0.00729448534548283
2299,00:00:09.196,-0.014765779837034643
2300,00:00:09.2,0.00035090900200884686
2301,00:00:09.204,-0.0009825231391005248
2302,00:00:09.208,0.009736585139762615
2303,00:00:09.212,-0.007163797039538619
2304,00:00:09.216,-0.00436104356776923
2305,00:00:09.22,0.014084494207054331
2306,00:00:09.224,-0.01152024837210774
2307,00:00:09.228,-0.0021888403571210745
2308,00:00:09.232,0.009646737074945127
2309,00:00:09.236,0.008771583903580904
2310,00:00:09.24,-0.010374096105806524
2311,00:00:09.244,-0.006735824281349773
2312,00:00:09.248,-0.009855617448920384
2313,00:00:09.252,0.009930730913765728
2314,00:00:09.256,0.02213500649668278
2315,00:00:09.26,-0.006758633768185968
2316,00:00:09.264,-0.02478649513795968
2317,00:00:09.268,0.0005206306232139483
2318,00:00:09.272,0.011529752344358707
2319,00:00:09.276,0.016609313490334912
2320,00:00:09.28,-0.00429943240305875
2321,00:00:09.284,-0.022141832625493397
2322,00:00:09.288,0.0072534412611276085
2323,00:00:09.292,0.0002685307990759507
2324,00:00:09.296,0.009872087446638034
2325,00:00:09.3,-0.000742525793611999
2326,00:00:09.304,-0.0017662647878751202
2327,00:00:09.308,-0.0007888190175435669
2328,00:00:09.312,-0.012698357095359821
2329,00:00:09.316,-0.003009056206792594
2330,00:00:09.32,0.01683929702267048
2331,00:00:09.324,0.005294378934195265
2332,00:00:09.328,-0.0042454351205378806
2333,00:00:09.332,-0.006951245944946999
2334,00:00:09.336,0.003808529028901878
2335,00:00:09.34,0.002054650918580587
2336,00:00:09.344,0.004769031947944349
2337,00:00:09.348,-0.012953656201716502
2338,00:00:09.352,-0.013453808773192575
2339,00:00:09.356,0.016366307856515022
2340,00:00:09.36,0.00810042978264392
2341,00:00:09.364,-0.00784094631671906
2342,00:00:09.368,0.006430231005651879
2343,00:00:09.372,-0.0034922895138151944
2344,00:00:09.376,-0.005440637818537646
2345,00:00:09.38,0.01173014543019235
2346,00:00:09.384,-0.008970603113994
2347,00:00:09.388,-0.00018548010848463015
2348,00:00:09.392,-0.007175925420597179
2349,00:00:09.396,0.0061398122343234735
2350,00:00:09.4,0.008147386834025388
2351,00:00:09.404,0.0018663201481103901
2352,00:00:09.408,-0.0054338134359568305
2353,00:00:09.412,-0.00692583213094622
2354,00:00:09.416,0.00866319006308914
2355,00:00:09.42,-0.007208337076008319
2356,00:00:09.424,-0.00843964237719775
2357,00:00:09.428,0.00575469667091966
2358,00:00:09.432,0.01017213857267052
2359,00:00:09.436,0.01081066543702037
2360,00:00:09.44,-0.0075825838139280686
2361,00:00:09.444,-0.007483950816094879
2362,00:00:09.448,-0.01500316965393717
2363,00:00:09.452,0.006831642240285881
2364,00:00:09.456,0.01601146359462291
2365,00:00:09.46,-0.0029928872827440405
2366,00:00:09.464,-0.0033899630070663984
2367,00:00:09.468,-0.00433377106674015
2368,00:00:09.472,0.00537083460949358
2369,00:00:09.476,0.002194672124460338
2370,00:00:09.48,-0.008340895641595139
2371,00:00:09.484,-0.016354534775018602
2372,00:00:09.488,0.024387158919125768
2373,00:00:09.492,0.017214779276400808
2374,00:00:09.496,-0.019275582628324628
2375,00:00:09.5,-0.008439276600256559
2376,00:00:09.504,0.0014875961933285007
2377,00:00:09.508,0.0012416807585395864
2378,00:00:09.512,0.001965954725164922
2379,00:00:09.516,-0.0022119538916740536
2380,00:00:09.52,0.007154290331527588
2381,00:00:09.524,-0.0006543051567859937
2382,00:00:09.528,-0.01027920562773943
2383,00:00:09.532,0.017174990964122113
2384,00:00:09.536,0.002840506029315291
2385,00:00:09.54,-0.0088615199783817
2386,00:00:09.544,-0.01897042361088097
2387,00:00:09.548,0.01063549192622304
2388,00:00:09.552,0.009977675508707762
2389,00:00:09.556,-0.01075062388554215
2390,00:00:09.56,0.00155810755677522
2391,00:00:09.564,0.0003374910447746498
2392,00:00:09.568,0.008853827137500058
2393,00:00:09.572,0.0035430861171334995
2394,00:00:09.576,-0.013141879011527607
2395,00:00:09.58,0.008726041647605601
2396,00:00:09.584,9.390172272105006e-05
2397,00:00:09.588,-0.001719081774353981
2398,00:00:09.592,-0.00551506725605578
2399,00:00:09.596,-0.01335799740627411
2400,00:00:09.6,0.00634703470859677
2401,00:00:09.604,0.0169087237445638
2402,00:00:09.608,0.004917144717182962
2403,00:00:09.612,-0.012269048194866631
2404,00:00:09.616,0.001039676659274849
2405,00:00:09.62,0.007665425073355441
2406,00:00:09.624,-0.01929391082376242
2407,00:00:09.628,0.00898707867600025
2408,00:00:09.632,-0.002468231250531973
2409,00:00:09.636,0.014180596397636663
2410,00:00:09.64,-0.014955937163904299
2411,00:00:09.644,0.00032966327853500886
2412,00:00:09.648,0.00020157848484814888
2413,00:00:09.652,0.01114566810429096
2414,00:00:09.656,0.003929017111659049
2415,00:00:09.66,-0.004062320571392774
2416,00:00:09.664,-0.01724227354861796
2417,00:00:09.668,-0.0013211516197770795
2418,00:00:09.672,0.010823975550010802
2419,00:00:09.676,0.011648939485894511
2420,00:00:09.68,-0.011443300696555534
2421,00:00:09.684,-0.0009639096679166018
2422,00:00:09.688,-0.00226999120786787
2423,00:00:09.692,0.00947141938377172
2424,00:00:09.696,0.0015011260984465493
2425,00:00:09.7,-0.009791289623535704
2426,00:00:09.704,0.0035705695336218984
2427,00:00:09.708,0.00036537286359811087
2428,00:00:09.712,-0.013686562306247652
2429,00:00:09.716,0.018966034520417438
2430,00:00:09.72,-0.0025516042951494503
2431,00:00:09.724,-0.005247934721410269
2432,00:00:09.728,-0.0018629727419465897
2433,00:00:09.732,0.003431308636209004
2434,00:00:09.736,0.010841235925909137
2435,00:00:09.74,-0.01186435553245246
2436,00:00:09.744,-0.003975969390012326
2437,00:00:09.748,-0.0010955553152598415
2438,00:00:09.752,0.004746925405925146
2439,00:00:09.756,0.00811692548450084
2440,00:00:09.76,-0.00282869659713469
2441,00:00:09.764,-0.00650657922960818
2442,00:00:09.768,0.00383507856167853
2443,00:00:09.772,-0.006276227533817281
2444,00:00:09.776,0.0002712497953325597
2445,00:00:09.78,0.01182104391045868
2446,00:00:09.784,-0.0066105541773140465
2447,00:00:09.788,-0.003137462073937058
2448,00:00:09.792,0.0025073225842788807
2449,00:00:09.796,0.010412895120680322
2450,00:00:09.8,-0.005630422383546831
2451,00:00:09.804,-0.011730439029634
2452,00:00:09.808,-0.009992800652980822
2453,00:00:09.812,0.02026846585795283
2454,00:00:09.816,0.001666757569182663
2455,00:00:09.82,0.0034012899850495177
2456,00:00:09.824,-0.01006460597272962
2457,00:00:09.828,-0.007487764814868571
2458,00:00:09.832,0.00979233370162547
2459,00:00:09.836,0.017223471775651013
2460,00:00:09.84,-0.018425019457936287
2461,00:00:09.844,-0.013072816247586166
2462,00:00:09.848,0.011040400015190239
2463,00:00:09.852,0.007174375001341099
2464,00:00:09.856,-0.005137452208145989
2465,00:00:09.86,0.001153155229985721
2466,00:00:09.864,0.0014534541405737409
2467,00:00:09.868,4.046922549605196e-05
2468,00:00:09.872,0.00728784338571131
2469,00:00:09.876,-0.0152974610682577
2470,00:00:09.88,0.0007495433092117297
2471,00:00:09.884,0.006346058449707925
2472,00:00:09.888,-0.0075376182794570906
2473,00:00:09.892,-0.003769447532249615
2474,00:00:09.896,0.01933119189925488
2475,00:00:09.9,0.00244300405029208
2476,00:00:09.904,-0.005571344750933372
2477,00:00:09.908,-0.004441501805558801
2478,00:00:09.912,-0.003622328629717231
2479,00:00:09.916,-0.003920605187886388
2480,00:00:09.92,-0.010328304953873161
2481,00:00:09.924,0.021179110117373084
2482,00:00:09.928,-0.00038255617255345117
2483,00:00:09.932,0.00038691716326866516
2484,00:00:09.936,0.0007465494491043527
2485,00:00:09.94,-0.00019581825472414992
2486,00:00:09.944,-0.009726102929562329
2487,00:00:09.948,-0.004498604801483461
2488,00:00:09.952,0.002219615242211151
2489,00:00:09.956,0.011475149192847298
2490,00:00:09.96,0.0026479738298803594
2491,00:00:09.964,0.0011488863965496408
2492,00:00:09.968,-0.02289821242447944
2493,00:00:09.972,0.00551051710499451
2494,00:00:09.976,0.012495966162532552
2495,00:00:09.98,0.009834398748353124
2496,00:00:09.984,-0.014225277351215503
2497,00:00:09.988,0.0033154725097119804
2498,00:00:09.992,-0.00455071916803718
2499,00:00:09.996,-0.00917146913707257
2500,00:00:10,0.01066825189627707
2501,00:00:10.004,0.0056865065889724065
2502,00:00:10.008,-0.004198405018541959
2503,00:00:10.012,-0.005366786150261759
2504,00:00:10.016,0.010162711667362571
2505,00:00:10.02,-0.004468783619813618
2506,00:00:10.024,-0.00245679263025522
2507,00:00:10.028,-0.00682554463855922
2508,00:00:10.032,0.006466485036071388
2509,00:00:10.036,0.0078770280815661
2510,00:00:10.04,0.0012840966228395696
2511,00:00:10.044,0.002384089224506168
2512,00:00:10.048,-0.02745794504880904
2513,00:00:10.052,0.00990829744841904
2514,00:00:10.056,0.012366455048322683
2515,00:00:10.06,0.0018905299148173037
2516,00:00:10.064,-0.003383918548934161
2517,00:00:10.068,-0.01449695543851704
2518,00:00:10.072,0.011676024529151612
2519,00:00:10.076,-2.2202773834571754e-05
2520,00:00:10.08,-0.0054624783224426245
2521,00:00:10.084,0.004047898808494201
2522,00:00:10.088,0.012645970797166218
2523,00:00:10.092,0.0017227639909833678
2524,00:00:10.096,-0.02002728707157073
2525,00:00:10.1,-0.0016225944273173796
2526,00:00:10.104,0.0062598474323749586
2527,00:00:10.108,-0.008389014983549709
2528,00:00:10.112,0.001715229591354719
2529,00:00:10.116,0.02615163684822623
2530,00:00:10.12,-0.004721343750134102
2531,00:00:10.124,-0.020101895090192563
2532,00:00:10.128,0.002285766699060331
2533,00:00:10.132,0.00550678349100054
2534,00:00:10.136,0.00026647746562956983
2535,00:00:10.14,0.0010663825087249216
2536,00:00:10.144,0.007777095423080027
2537,00:00:10.148,-0.013535259407944982
2538,00:00:10.152,-0.014264871482737359
2539,00:00:10.156,0.01203254424035549
2540,00:00:10.16,0.008168920176103711
2541,00:00:10.164,0.010102091589942571
2542,00:00:10.168,-0.00174119207076728
2543,00:00:10.172,-0.011137962806969891
2544,00:00:10.176,-0.002400552271865308
2545,00:00:10.18,-0.0016266279853880401
2546,00:00:10.184,-0.005320400159689603
2547,00:00:10.188,0.006216445239260791
2548,00:00:10.192,0.01327302074059844
2549,00:00:10.196,-0.0068916882155463
2550,00:00:10.2,0.0022898880415596072
2551,00:00:10.204,0.00619256740901619
2552,00:00:10.208,-0.015279034618288244
2553,00:00:10.212,-0.006791197694838039
2554,00:00:10.216,0.002167190890759231
2555,00:00:10.22,0.0104041637678165
2556,00:00:10.224,0.0015639062039554202
2557,00:00:10.228,0.007389023376163098
2558,00:00:10.232,-0.015177743858657776
2559,00:00:10.236,0.00497334101237356
2560,00:00:10.24,0.00427723256871105
2561,00:00:10.244,-0.009095474611967799
2562,00:00:10.248,-0.0019368935609236299
2563,00:00:10.252,0.01132461777888239
2564,00:00:10.256,0.00040272151818499327
2565,00:00:10.26,-0.012047272117342795
2566,00:00:10.264,0.00030282622901723136
2567,00:00:10.268,0.01748111515189524
2568,00:00:10.272,-0.01574441092088819
2569,00:00:10.276,-0.0003505063432385257
2570,00:00:10.28,0.014932766207493842
2571,00:00:10.284,6.5380736486994614e-06
2572,00:00:10.288,-0.01946323993615806
2573,00:00:10.292,0.002986404928378761
2574,00:00:10.296,0.00471495231613517
2575,00:00:10.3,0.005534328520297999
2576,00:00:10.304,-0.004902505417703653
2577,00:00:10.308,-0.00033315969631076206
2578,00:00:10.312,0.012056334970111483
2579,00:00:10.316,-0.00208851555362343
2580,00:00:10.32,-0.01987106399610638
2581,00:00:10.324,0.0016809593071229717
2582,00:00:10.328,0.009834646945819262
2583,00:00:10.332,0.0038521564820257455
2584,00:00:10.336,0.0020124302245676526
2585,00:00:10.34,-0.0017262618057429695
2586,00:00:10.344,-0.00759926438331604
2587,00:00:10.348,-0.00716798007488251
2588,00:00:10.352,0.00807656859979033
2589,00:00:10.356,0.007420992478728288
2590,00:00:10.36,0.012324217881541697
2591,00:00:10.364,-0.01437217614147812
2592,00:00:10.368,-0.01418303092941642
2593,00:00:10.372,0.004007999814348292
2594,00:00:10.376,0.01108494331128895
2595,00:00:10.38,-0.006335046957246962
2596,00:00:10.384,-0.005555539217311894
2597,00:00:10.388,0.006357608566759175
2598,00:00:10.392,0.014762759092263877
2599,00:00:10.396,-0.0015883025189395979
2600,00:00:10.4,-0.012282626703381552
2601,00:00:10.404,-0.003217438701540231
2602,00:00:10.408,-0.005837361240992321
2603,00:00:10.412,0.005325141130015259
2604,00:00:10.416,0.01038019347470254
2605,00:00:10.42,-0.0051434226334095105
2606,00:00:10.424,-0.00396078312769532
2607,00:00:10.428,0.008780496078543405
2608,00:00:10.432,0.00328330707270653
2609,00:00:10.436,-0.00979228888172657
2610,00:00:10.44,-0.002107613370753829
2611,00:00:10.444,-0.001475398312322792
2612,00:00:10.448,-0.009310433058999479
2613,00:00:10.452,0.02480189641937609
2614,00:00:10.456,0.0027258479967713287
2615,00:00:10.46,-0.01812582154525449
2616,00:00:10.464,-0.00491103110834952
2617,00:00:10.468,0.007660572649911031
2618,00:00:10.472,-0.00018326658755541975
2619,00:00:10.476,0.0110448393970728
2620,00:00:10.48,-0.0015343423001468078
2621,00:00:10.484,-0.0059552909842750515
2622,00:00:10.488,-0.013161481649149211
2623,00:00:10.492,0.004187112175713996
2624,00:00:10.496,0.00552629539743066
2625,00:00:10.5,0.010700639570131931
2626,00:00:10.504,0.0022197017678990986
2627,00:00:10.508,-0.021767726284451738
2628,00:00:10.512,0.006710723973810672
2629,00:00:10.516,0.006422478902095469
2630,00:00:10.52,0.008381185354664932
2631,00:00:10.524,-0.009377303300425424
2632,00:00:10.528,-0.005593877926003186
2633,00:00:10.532,0.0011456710053607802
2634,00:00:10.536,-0.0020186470355838485
2635,00:00:10.54,0.0009917683200910696
2636,00:00:10.544,0.01153403474017978
2637,00:00:10.548,-0.00276427937205881
2638,00:00:10.552,-0.0071817207499407275
2639,00:00:10.556,-0.0007256965618580601
2640,00:00:10.56,0.003907424863427881
2641,00:00:10.564,0.00200948363635689
2642,00:00:10.568,-0.008929883595556019
2643,00:00:10.572,0.006069278810173271
2644,00:00:10.576,0.002951840986497689
2645,00:00:10.58,-0.004080363665707406
2646,00:00:10.584,-0.0016427755253971604
2647,00:00:10.588,0.0015089747321326147
2648,00:00:10.592,0.01498995628207922
2649,00:00:10.596,-0.0018828436732292089
2650,00:00:10.6,-0.011386071942979449
2651,00:00:10.604,-0.008325340226292607
2652,00:00:10.608,-0.009908880572766057
2653,00:00:10.612,0.007133006409276282
2654,00:00:10.616,0.01746759703382849
2655,00:00:10.62,0.00975891211419366
2656,00:00:10.624,-0.00114394654519857
2657,00:00:10.628,-0.02211947122123097
2658,00:00:10.632,-0.02541221491992469
2659,00:00:10.636,0.03424788279517091
2660,00:00:10.64,0.00223886733874681
2661,00:00:10.644,0.0013418514281511099
2662,00:00:10.648,0.0017832026351242598
2663,00:00:10.652,0.010877976252231775
2664,00:00:10.656,-0.00308036268688738
2665,00:00:10.66,-0.027201929595321393
2666,00:00:10.664,-0.01063367864117026
2667,00:00:10.668,0.00786929298192262
2668,00:00:10.672,0.008598784130299467
2669,00:00:10.676,0.017063929233700037
2670,00:00:10.68,0.00591624970547855
2671,00:00:10.684,-0.01154170581139624
2672,00:00:10.688,-0.01816766988486052
2673,00:00:10.692,0.011334264301694954
2674,00:00:10.696,0.005352658685296771
2675,00:00:10.7,0.0043789193732664
2676,00:00:10.704,-0.01038577873259783
2677,00:00:10.708,-0.0017342196661047655
2678,00:00:10.712,0.005842732673045246
2679,00:00:10.716,-0.0018437016406096535
2680,00:00:10.72,-0.00829966948367657
2681,00:00:10.724,0.00780089455656708
2682,00:00:10.728,0.008295765146613121
2683,00:00:10.732,-0.00570156576577574
2684,00:00:10.736,-0.005230983020737759
2685,00:00:10.74,0.0031738746256451075
2686,00:00:10.744,-0.00394828617572784
2687,00:00:10.748,0.005558187811402604
2688,00:00:10.752,-0.0010041312780231194
2689,00:00:10.756,0.00288093532435596
2690,00:00:10.76,0.0022406511707231446
2691,00:00:10.764,-0.00015812623314559113
2692,00:00:10.768,-0.01451900048414243
2693,00:00:10.772,-0.015620923833921527
2694,00:00:10.776,0.031688331393524956
2695,00:00:10.78,0.0013857728918083016
2696,00:00:10.784,-0.0035616739187389708
2697,00:00:10.788,0.002472723281243815
2698,00:00:10.792,-0.010145523177925485
2699,00:00:10.796,0.00905849738046528
2700,00:00:10.8,-0.01432525622658432
2701,00:00:10.804,-0.00032119086245074435
2702,00:00:10.808,0.007164689595811071
2703,00:00:10.812,0.0007904152153059801
2704,00:00:10.816,0.00251298700459302
2705,00:00:10.82,0.009340049233287573
2706,00:00:10.824,-0.012806411366909739
2707,00:00:10.828,-0.006284521543420851
2708,00:00:10.832,-0.00514297909103334
2709,00:00:10.836,0.01677487586857751
2710,00:00:10.84,0.01569357421249152
2711,00:00:10.844,-0.02477918984368441
2712,00:00:10.848,-0.0015100266318768198
2713,00:00:10.852,0.01317536283750087
2714,00:00:10.856,-0.006215739005710924
2715,00:00:10.86,0.00452277145814151
2716,00:00:10.864,-0.024825805332511712
2717,00:00:10.868,0.011022442835383152
2718,00:00:10.872,0.018689144169911753
2719,00:00:10.876,0.00626462511718273
2720,00:00:10.88,-0.011771272344049068
2721,00:00:10.884,-0.01002394140232354
2722,00:00:10.888,0.00358786387369037
2723,00:00:10.892,-0.00498173059895634
2724,00:00:10.896,0.001803647377528249
2725,00:00:10.9,0.008693991621839817
2726,00:00:10.904,0.005964879106613808
2727,00:00:10.908,-0.012105697765946437
2728,00:00:10.912,0.0019184414995834197
2729,00:00:10.916,0.0006872366939205642
2730,00:00:10.92,0.002147391787730161
2731,00:00:10.924,7.767230272368985e-07
2732,00:00:10.928,-0.00159256544429813
2733,00:00:10.932,-0.00997704430483281
2734,00:00:10.936,-0.0032554662320763202
2735,00:00:10.94,0.022915589215699604
2736,00:00:10.944,0.0058995010331273
2737,00:00:10.948,-0.008520939387381079
2738,00:00:10.952,-0.01411267113871872
2739,00:00:10.956,-0.0074645556596806256
2740,00:00:10.96,0.009485522983595732
2741,00:00:10.964,0.004575914994347834
2742,00:00:10.968,0.0045270198024809395
2743,00:00:10.972,-0.007356179296039046
2744,00:00:10.976,0.012137637240812179
2745,00:00:10.98,0.008138264951412563
2746,00:00:10.984,-0.014112216886132956
2747,00:00:10.988,-0.025127575732767582
2748,00:00:10.992,0.002123468788340688
2749,00:00:10.996,0.03228835947811595
2750,00:00:11,-0.00539289251901209
2751,00:00:11.004,-0.00742287353932625
2752,00:00:11.008,-0.007273478142451497
2753,00:00:11.012,0.004831477584957613
2754,00:00:11.016,0.01819514937233175
2755,00:00:11.02,-0.009553783340379592
2756,00:00:11.024,-0.0151308935601264
2757,00:00:11.028,0.00642971834167839
2758,00:00:11.032,0.006257893284782771
2759,00:00:11.036,-0.00337715412024409
2760,00:00:11.04,-0.013495908846380156
2761,00:00:11.044,0.01791305816732347
2762,00:00:11.048,0.004112849128432569
2763,00:00:11.052,-0.009772950608748944
2764,00:00:11.056,0.002729654777795079
2765,00:00:11.06,-0.008762133584241378
2766,00:00:11.064,0.012427298584952978
2767,00:00:11.068,-0.008953589946031574
2768,00:00:11.072,0.0013745220203418272
2769,00:00:11.076,0.003198438673280178
2770,00:00:11.08,0.00368112797150388
2771,00:00:11.084,-0.006474838242866107
2772,00:00:11.088,0.0030365127604454803
2773,00:00:11.092,0.003998092026449745
2774,00:00:11.096,-0.007105399738065959
2775,00:00:11.1,0.0020680041052400905
2776,00:00:11.104,-0.00278244772925973
2777,00:00:11.108,-0.01351861516013742
2778,00:00:11.112,0.01319942204281688
2779,00:00:11.116,0.016274129506200552
2780,00:00:11.12,-0.0032615519594401095
2781,00:00:11.124,-0.0017129306215792903
2782,00:00:11.128,-0.01141561716212891
2783,00:00:11.132,-0.00209022010676563
2784,00:00:11.136,0.0013022825587540858
2785,00:00:11.14,0.0019624103442765703
2786,00:00:11.144,-0.010965669411234563
2787,00:00:11.148,0.0063545370940118985
2788,00:00:11.152,0.024198100087232888
2789,00:00:11.156,-0.014566197991371162
2790,00:00:11.16,0.0025874866660160435
2791,00:00:11.164,0.00455764471553265
2792,00:00:11.168,-0.01208912007859908
2793,00:00:11.172,-0.01053283782675862
2794,00:00:11.176,-0.00231182319112123
2795,00:00:11.18,0.014983438886702071
2796,00:00:11.184,-0.0007604451384395309
2797,00:00:11.188,0.011939732008613646
2798,00:00:11.192,-0.0077812293311581016
2799,00:00:11.196,-0.005209233146160841
2800,00:00:11.2,0.0006483707111328901
2801,00:00:11.204,0.005337612819857894
2802,00:00:11.208,-0.009918134892359369
2803,00:00:11.212,0.004258747794665431
2804,00:00:11.216,0.006172303517814726
2805,00:00:11.22,-0.0015878132544457895
2806,00:00:11.224,-0.007906507002189755
2807,00:00:11.228,-0.006926796399056911
2808,00:00:11.232,0.01492437603883446
2809,00:00:11.236,0.0020631488259823527
2810,00:00:11.24,-0.006882228073664006
2811,00:00:11.244,0.007146835792809723
2812,00:00:11.248,-0.014551430009305484
2813,00:00:11.252,0.013646774867083879
2814,00:00:11.256,0.00935833039693534
2815,00:00:11.26,-0.02036738069728017
2816,00:00:11.264,-0.00899851648136973
2817,00:00:11.268,0.003847351530566813
2818,00:00:11.272,0.01143722957931459
2819,00:00:11.276,0.01613471866585315
2820,00:00:11.28,-0.002501415416190868
2821,00:00:11.284,-0.013943578116595749
2822,00:00:11.288,-0.01076071802526711
2823,00:00:11.292,0.005784384440630674
2824,00:00:11.296,0.00448077451437711
2825,00:00:11.3,0.008547524368623272
2826,00:00:11.304,-0.005558808101341132
2827,00:00:11.308,-0.009854637668468056
2828,00:00:11.312,-0.003850164197501729
2829,00:00:11.316,0.00894005631562323
2830,00:00:11.32,0.01427370961755515
2831,00:00:11.324,-0.0013970085419714399
2832,00:00:11.328,-0.002966671207104806
2833,00:00:11.332,-0.012194854672998178
2834,00:00:11.336,-0.01210965553764254
2835,00:00:11.34,0.01627546921372413
2836,00:00:11.344,0.009126851800829169
2837,00:00:11.348,-0.0066951019689441005
2838,00:00:11.352,-0.00789161224383861
2839,00:00:11.356,0.00531541323289275
2840,00:00:11.36,0.00860347913112491
2841,00:00:11.364,-0.007838526478735734
2842,00:00:11.368,-0.01840087887831028
2843,00:00:11.372,0.024291985901072573
2844,00:00:11.376,-0.0004198872484266706
2845,00:00:11.38,0.0033072682563215494
2846,00:00:11.384,-0.0021587014198303197
2847,00:00:11.388,-0.016116256592795218
2848,00:00:11.392,0.0005915758665651144
2849,00:00:11.396,0.01216367562301457
2850,00:00:11.4,-0.0071813092072261515
2851,00:00:11.404,0.0049118505557999
2852,00:00:11.408,0.0015905911568552204
2853,00:00:11.412,-0.006781743148167152
2854,00:00:11.416,0.010801232216181234
2855,00:00:11.42,-7.480569183826002e-05
2856,00:00:11.424,-0.0048047448508441466
2857,00:00:11.428,-0.01281457860022784
2858,00:00:11.432,-0.0022746132017346056
2859,00:00:11.436,0.019344387575984032
2860,00:00:11.44,-0.0008679090533406115
2861,00:00:11.444,0.006093026138842101
2862,00:00:11.448,-0.009925046237185601
2863,00:00:11.452,-0.016096815466880847
2864,00:00:11.456,0.01302246772684156
2865,00:00:11.46,0.0166172564495355
2866,00:00:11.464,-0.007461086381226778
2867,00:00:11.468,-0.02320083882659678
2868,00:00:11.472,0.0024137982836691624
2869,00:00:11.476,0.01681578310672191
2870,00:00:11.48,0.008677323028678073
2871,00:00:11.484,-0.008252728730440131
2872,00:00:11.488,-0.013819788699038361
2873,00:00:11.492,0.0122243446239736
2874,00:00:11.496,0.0076052141375839676
2875,00:00:11.5,-0.01666257187025619
2876,00:00:11.504,0.01098885224200785
2877,00:00:11.508,-0.006809868616983295
2878,00:00:11.512,-0.00878751662094146
2879,00:00:11.516,0.003258490658481607
2880,00:00:11.52,0.011932506866287447
2881,00:00:11.524,0.004158948780968801
2882,00:00:11.528,0.004779229289852079
2883,00:00:11.532,-0.00556899188086391
2884,00:00:11.536,-0.006072285003028801
2885,00:00:11.54,-0.00936864165123551
2886,00:00:11.544,-0.006766226550098512
2887,00:00:11.548,0.009756156068760931
2888,00:00:11.552,0.007233584590721882
2889,00:00:11.556,-0.0009846686152741382
2890,00:00:11.56,0.0014880055241519594
2891,00:00:11.564,0.0009336014045402403
2892,00:00:11.568,0.0016003886703401795
2893,00:00:11.572,0.0007768921204842636
2894,00:00:11.576,-0.0008216459536924898
2895,00:00:11.58,-0.0061362135456875105
2896,00:00:11.584,-0.0065074028680101
2897,00:00:11.588,-0.0027733314782381
2898,00:00:11.592,0.00161133916117251
2899,00:00:11.596,0.01035224995575846
2900,00:00:11.6,0.006545790296513591
2901,00:00:11.604,-0.00610807188786566
2902,00:00:11.608,0.0061537260189652105
2903,00:00:11.612,-0.00352318241493776
2904,00:00:11.616,-0.00550984829897061
2905,00:00:11.62,0.002897617872804399
2906,00:00:11.624,-0.01239294023253023
2907,00:00:11.628,0.002794420823192922
2908,00:00:11.632,0.008708391455002119
2909,00:00:11.636,0.008840548864100118
2910,00:00:11.64,-0.006566357333213089
2911,00:00:11.644,-0.01290816813707351
2912,00:00:11.648,-0.002349391928873951
2913,00:00:11.652,0.016811247449368273
2914,00:00:11.656,0.010845927521586439
2915,00:00:11.66,-0.013036034204560579
2916,00:00:11.664,0.004148380889091641
2917,00:00:11.668,-0.02556950435973706
2918,00:00:11.672,0.009310428984463218
2919,00:00:11.676,0.01092982187401503
2920,00:00:11.68,0.00544570968486369
2921,00:00:11.684,0.0016764380270615242
2922,00:00:11.688,-0.009648796287365261
2923,00:00:11.692,-0.0013484722585417322
2924,00:00:11.696,0.00107296952046454
2925,00:00:11.7,0.00106266315560788
2926,00:00:11.704,0.00456759566441179
2927,00:00:11.708,-0.0019627551082521616
2928,00:00:11.712,-0.0034397302079014437
2929,00:00:11.716,-0.00414857431314885
2930,00:00:11.72,-0.0105272156069986
2931,00:00:11.724,0.01685644336976115
2932,00:00:11.728,0.01168464659713211
2933,00:00:11.732,-0.006498692819150172
2934,00:00:11.736,-0.009878219338133931
2935,00:00:11.74,0.00488491286523641
2936,00:00:11.744,-0.0012572663836181094
2937,00:00:11.748,-0.0059910225681960695
2938,00:00:11.752,0.003469676477834579
2939,00:00:11.756,0.008211344014853251
2940,00:00:11.76,-0.00031972222495824034
2941,00:00:11.764,-0.01227473875042051
2942,00:00:11.768,-0.001980419096071269
2943,00:00:11.772,0.01099197997245938
2944,00:00:11.776,0.01037393849401269
2945,00:00:11.78,-0.007231279982079281
2946,00:00:11.784,-0.01260306325275451
2947,00:00:11.788,0.00039931002538651423
2948,00:00:11.792,0.0003997567109763605
2949,00:00:11.796,0.009856513701379289
2950,00:00:11.8,0.008971106261014938
2951,00:00:11.804,-0.0119716945046093
2952,00:00:11.808,-0.008476764283841478
2953,00:00:11.812,-0.002047705929726362
2954,00:00:11.816,0.021627219859510678
2955,00:00:11.82,0.0015008059563115196
2956,00:00:11.824,-0.01233508251607418
2957,00:00:11.828,-0.01291541941463948
2958,00:00:11.832,0.0008164413738995899
2959,00:00:11.836,0.00938340078573673
2960,00:00:11.84,0.011311732567264695
2961,00:00:11.844,-0.00422646896913647
2962,00:00:11.848,-0.009802147338632494
2963,00:00:11.852,0.01607852091547099
2964,00:00:11.856,-0.014005497796460986
2965,00:00:11.86,-0.005217412603087718
2966,00:00:11.864,0.004069677903316919
2967,00:00:11.868,0.0027941904263570974
2968,00:00:11.872,0.004293192556360737
2969,00:00:11.876,0.00544338603504002
2970,00:00:11.88,-0.0013338872231543112
2971,00:00:11.884,-0.013918214885052264
2972,00:00:11.888,-0.00575323589146137
2973,00:00:11.892,0.00793743587564678
2974,00:00:11.896,0.007837589830160141
2975,00:00:11.9,0.00291818240657449
2976,00:00:11.904,0.006813707586843523
2977,00:00:11.908,-0.01331540616229177
2978,00:00:11.912,-0.007436657557263971
2979,00:00:11.916,-0.008595617953687882
2980,00:00:11.92,0.007607346866279849
2981,00:00:11.924,0.0211214436567389
2982,00:00:11.928,-0.001401694491505626
2983,00:00:11.932,-0.00770308868959546
2984,00:00:11.936,-0.0018243847298435843
2985,00:00:11.94,0.00034500996116549405
2986,00:00:11.944,0.00029999297112227007
2987,00:00:11.948,-0.01081295369658619
2988,00:00:11.952,-0.005585298582445837
2989,00:00:11.956,0.010739322286099199
2990,00:00:11.96,0.003027506987564271
2991,00:00:11.964,0.010460835008416356
2992,00:00:11.968,-0.004070663824677469
2993,00:00:11.972,-0.0017409038555342693
2994,00:00:11.976,-0.0048886957811191695
2995,00:00:11.98,-0.009294370072893802
2996,00:00:11.984,0.014048625016584987
2997,00:00:11.988,-0.013746556403930271
2998,00:00:11.992,0.00783926341682673
2999,00:00:11.996,0.01830395869910714
3000,00:00:12,-0.012383876375679389
3001,00:00:12.004,-0.0075437513878569
3002,00:00:12.008,-0.00426402554148808
3003,00:00:12.012,0.00966588710434734
3004,00:00:12.016,-0.009831320377998054
3005,00:00:12.02,0.009534822078421717
3006,00:00:12.024,9.557468183629424e-05
3007,00:00:12.028,-0.00764853425789624
3008,00:00:12.032,0.013669574633240693
3009,00:00:12.036,-0.0006087205838412101
3010,00:00:12.04,-0.005435293016489596
3011,00:00:12.044,-0.006612827477511016
3012,00:00:12.048,0.00249177555087954
3013,00:00:12.052,-0.003495322540402409
3014,00:00:12.056,0.0087018251651898
3015,00:00:12.06,0.00840083695948124
3016,00:00:12.064,-0.01641212427057326
3017,00:00:12.068,-0.01068543270230294
3018,00:00:12.072,0.01584269781596961
3019,00:00:12.076,0.013275291537865991
3020,00:00:12.08,-0.0040338053368032005
3021,00:00:12.084,-0.01060692267492409
3022,00:00:12.088,-0.010148381930775968
3023,00:00:12.092,0.01044971495866776
3024,00:00:12.096,-0.007111638784408568
3025,00:00:12.1,0.005309805914293975
3026,00:00:12.104,0.012729516485706012
3027,00:00:12.108,-0.0030995823908597613
3028,00:00:12.112,-0.01017268234863877
3029,00:00:12.116,0.00451088044792412
3030,00:00:12.12,0.005192476877709858
3031,00:00:12.124,-0.005223189946264028
3032,00:00:12.128,-0.00709042767994106
3033,00:00:12.132,0.004792146501131359
3034,00:00:12.136,-0.004728904634248464
3035,00:00:12.14,0.0015365468570962514
3036,00:00:12.144,0.00823720428161323
3037,00:00:12.148,-0.0027427391614765007
3038,00:00:12.152,0.0038691623922204677
3039,00:00:12.156,-0.0015379036776721495
3040,00:00:12.16,0.001023347256705167
3041,00:00:12.164,-0.0062131978338584295
3042,00:00:12.168,-0.008021562127396471
3043,00:00:12.172,0.00224261148832738
3044,00:00:12.176,0.02267466369085013
3045,00:00:12.18,-0.027491155313327874
3046,00:00:12.184,0.01267693564295772
3047,00:00:12.188,0.006863687885925219
3048,00:00:12.192,-0.00679951393976808
3049,00:00:12.196,0.001499925274401901
3050,00:00:12.2,0.004766343219671399
3051,00:00:12.204,-0.0075263343751430485
3052,00:00:12.208,-0.015899182879365984
3053,00:00:12.212,0.00973531347699464
3054,00:00:12.216,0.013647197280079132
3055,00:00:12.22,0.011030084919184491
3056,00:00:12.224,-0.015663907397538424
3057,00:00:12.228,-0.020171184325590702
3058,00:00:12.232,0.013046336331171918
3059,00:00:12.236,0.01695405249483885
3060,00:00:12.24,-0.0030200665351003465
3061,00:00:12.244,-0.0017143106961157182
3062,00:00:12.248,-0.01961417146958406
3063,00:00:12.252,0.001975658815354111
3064,00:00:12.256,0.008091670933936259
3065,00:00:12.26,0.01026970613747837
3066,00:00:12.264,-0.00219274531264091
3067,00:00:12.268,-0.013183557093725547
3068,00:00:12.272,0.0047611467307433885
3069,00:00:12.276,0.012283963995287221
3070,00:00:12.28,-0.004012102552223953
3071,00:00:12.284,-0.008775228634476658
3072,00:00:12.288,-0.001601188443601121
3073,00:00:12.292,-0.00017768512043403315
3074,00:00:12.296,0.00662620272487402
3075,00:00:12.3,-0.0007274267263710395
3076,00:00:12.304,0.0009081745520233813
3077,00:00:12.308,0.006332288437988606
3078,00:00:12.312,-0.01090114540420472
3079,00:00:12.316,-0.006201050942763679
3080,00:00:12.32,0.003907299134880301
3081,00:00:12.324,0.01421292708255351
3082,00:00:12.328,-0.006408558692783118
3083,00:00:12.332,-0.002218160545453431
3084,00:00:12.336,-0.0008162492304109002
3085,00:00:12.34,0.007982174400240141
3086,00:00:12.344,-0.01832595211453738
3087,00:00:12.348,0.009686578414402909
3088,00:00:12.352,-0.0002501457929611206
3089,00:00:12.356,-0.00468213669955731
3090,00:00:12.36,0.01124109048396349
3091,00:00:12.364,0.007344847777858382
3092,00:00:12.368,-0.015516423387453
3093,00:00:12.372,-0.00268689426593483
3094,00:00:12.376,0.0003556357623892897
