,Elapsed Time,EMG
0,00:00:00,0.7970994710922199
1,00:00:00.004,-0.7502207756042603
2,00:00:00.008,-0.636370003223419
3,00:00:00.012,-0.07445048540830601
4,00:00:00.016,0.3151332139968871
5,00:00:00.02,0.40011358261108787
6,00:00:00.024,0.25019702315330594
7,00:00:00.028,0.03195532411336899
8,00:00:00.032,-0.11132952570915292
9,00:00:00.036,-0.15627947449684199
10,00:00:00.04,-0.11679263412952398
11,00:00:00.044,-0.0427207127213477
12,00:00:00.048,0.007524045184254605
13,00:00:00.052,0.04197241365909518
14,00:00:00.056,0.037465088069438796
15,00:00:00.06,0.0296337492763996
16,00:00:00.064,0.009018622338771811
17,00:00:00.068,-0.001939188688993499
18,00:00:00.072,-0.0251629687845708
19,00:00:00.076,-0.011605315841734399
20,00:00:00.08,-0.00711749074980617
21,00:00:00.084,-0.00225918798241765
22,00:00:00.088,0.01932043675333263
23,00:00:00.092,0.01063509518280626
24,00:00:00.096,-0.0021749925799668113
25,00:00:00.1,-0.01693135686218739
26,00:00:00.104,-0.01244436134584248
27,00:00:00.108,0.00881806563120337
28,00:00:00.112,0.01349090319126845
29,00:00:00.116,0.0018104970222338993
30,00:00:00.12,-0.00222154959919862
31,00:00:00.124,0.0015094952541403394
32,00:00:00.128,-0.0035551257897168402
33,00:00:00.132,-0.0016602054820396032
34,00:00:00.136,0.0004690879723057203
35,00:00:00.14,0.0010381760075688405
36,00:00:00.144,-0.01202291506342591
37,00:00:00.148,-0.00934788770973682
38,00:00:00.152,0.01620068796910345
39,00:00:00.156,0.013873158139176618
40,00:00:00.16,0.019833676982671022
41,00:00:00.164,-0.02291167643852529
42,00:00:00.168,-0.02284545358270406
43,00:00:00.172,-0.0012851771316491132
44,00:00:00.176,0.0064504736801609406
45,00:00:00.18,0.01110086787957695
46,00:00:00.184,0.006633963435888289
47,00:00:00.188,0.004587240517139438
48,00:00:00.192,-0.01366751966997982
49,00:00:00.196,-0.0036553638055920605
50,00:00:00.2,0.01832490973174572
51,00:00:00.204,-0.010620395187288521
52,00:00:00.208,-0.015050077345222249
53,00:00:00.212,0.0014756926975678679
54,00:00:00.216,0.00756428085151128
55,00:00:00.22,0.006551002850756049
56,00:00:00.224,-0.003603636432671923
57,00:00:00.228,0.013262201566249129
58,00:00:00.232,-0.00980988913215697
59,00:00:00.236,-0.012914672261103991
60,00:00:00.24,0.010767890373244878
61,00:00:00.244,0.009435787294933112
62,00:00:00.248,-0.0030897716060280796
63,00:00:00.252,-0.019809269462712102
64,00:00:00.256,0.006366761721437797
65,00:00:00.26,0.006426182138966395
66,00:00:00.264,0.002950686030089855
67,00:00:00.268,-0.006504492281237614
68,00:00:00.272,0.008265001699328419
69,00:00:00.276,-0.00284007983282208
70,00:00:00.28,-0.00991165172308687
71,00:00:00.284,-0.0015214352461043771
72,00:00:00.288,0.003524985397234559
73,00:00:00.292,0.0379296907340177
74,00:00:00.296,-0.0013348331267479798
75,00:00:00.3,-0.040573279402451576
76,00:00:00.304,-0.02237717295065526
77,00:00:00.308,0.004168944666162129
78,00:00:00.312,0.018183216452598572
79,00:00:00.316,0.02155358984600753
80,00:00:00.32,0.00856614904478192
81,00:00:00.324,-0.01054770941846072
82,00:00:00.328,-0.0021550748497247713
83,00:00:00.332,0.002270243363454936
84,00:00:00.336,-0.00698874599765986
85,00:00:00.34,-0.01671852241270247
86,00:00:00.344,-0.00893535488285124
87,00:00:00.348,0.00257001770660281
88,00:00:00.352,0.01163624296896161
89,00:00:00.356,0.041297469753772
90,00:00:00.36,0.01653084415011108
91,00:00:00.364,-0.0272058113478124
92,00:00:00.368,-0.053318218619096934
93,00:00:00.372,-0.01632492663338779
94,00:00:00.376,0.018463549204170742
95,00:00:00.38,0.035979171923827394
96,00:00:00.384,0.013183558185119203
97,00:00:00.388,0.0001690897624939706
98,00:00:00.392,-0.006517796078696851
99,00:00:00.396,-0.014312207931652662
100,00:00:00.4,-0.00023436883930116892
101,00:00:00.404,-0.006227250385563826
102,00:00:00.408,-0.001906589139252901
103,00:00:00.412,0.0009619563934393179
104,00:00:00.416,0.0006404062587534974
105,00:00:00.42,0.00509564497042447
106,00:00:00.424,0.022716818581102458
107,00:00:00.428,0.002234079642221337
108,00:00:00.432,-0.01675428697490136
109,00:00:00.436,-0.021330545423552432
110,00:00:00.44,-0.005775789730250837
111,00:00:00.444,0.007824445492587977
112,00:00:00.448,0.008030105644138535
113,00:00:00.452,0.01070638967212289
114,00:00:00.456,0.02025124058127403
115,00:00:00.46,0.0021070544607937397
116,00:00:00.464,-0.03604157082736492
117,00:00:00.468,-0.009302281512646001
118,00:00:00.472,0.0027166713844053525
119,00:00:00.476,0.006674478296190485
120,00:00:00.48,0.012363283080048856
121,00:00:00.484,0.00392781384289265
122,00:00:00.488,-0.0036328189598862064
123,00:00:00.492,0.00034632778260857474
124,00:00:00.496,-0.009836456825723873
125,00:00:00.5,-0.003388691460713741
126,00:00:00.504,0.02022774086799468
127,00:00:00.508,0.0004937853082083171
128,00:00:00.512,-0.012690514471614732
129,00:00:00.516,-0.002328293776372451
130,00:00:00.52,-0.01065844285767525
131,00:00:00.524,-0.0005539320700336183
132,00:00:00.528,0.00589056196622551
133,00:00:00.532,0.00920498138293624
134,00:00:00.536,0.023506838886532905
135,00:00:00.54,0.0026671627128962397
136,00:00:00.544,-0.018949806166347106
137,00:00:00.548,-0.01824533846229315
138,00:00:00.552,-0.026314260903745883
139,00:00:00.556,0.01434242189861834
140,00:00:00.56,0.024548017652705312
141,00:00:00.564,0.007757377665257076
142,00:00:00.568,0.00819873006548733
143,00:00:00.572,-0.011311157490126785
144,00:00:00.576,-0.0022203603293746697
145,00:00:00.58,-0.005307069106493145
146,00:00:00.584,-0.00840834365226328
147,00:00:00.588,-0.007696962798945611
148,00:00:00.592,0.008314541744766757
149,00:00:00.596,0.019100097357295422
150,00:00:00.6,0.00436528585851193
151,00:00:00.604,-0.004186826758086689
152,00:00:00.608,-0.0027663790388032803
153,00:00:00.612,-0.021964299376122688
154,00:00:00.616,-0.014686331851407892
155,00:00:00.62,0.01498426473699507
156,00:00:00.624,0.02846662234514951
157,00:00:00.628,0.005507943162228916
158,00:00:00.632,-0.00880676065571606
159,00:00:00.636,-0.01826279077795335
160,00:00:00.64,-0.008173432084731758
161,00:00:00.644,-0.009404343785718078
162,00:00:00.648,0.02209986187517641
163,00:00:00.652,0.03161453246138992
164,00:00:00.656,-0.0071355716791003995
165,00:00:00.66,-0.016949437558651023
166,00:00:00.664,-0.02258418081328272
167,00:00:00.668,-0.008184030884876852
168,00:00:00.672,0.006281451263930649
169,00:00:00.676,0.01665283250622451
170,00:00:00.68,0.019112880130705872
171,00:00:00.684,0.008244977565482271
172,00:00:00.688,-0.010261721792630851
173,00:00:00.692,-0.023443716985639206
174,00:00:00.696,-0.00442989834118634
175,00:00:00.7,0.008382996311411258
176,00:00:00.704,-0.0020403208909556296
177,00:00:00.708,-0.007543431594967847
178,00:00:00.712,0.01620623108465222
179,00:00:00.716,0.01325314107816667
180,00:00:00.72,-0.0041827891982393365
181,00:00:00.724,-0.01100060273893177
182,00:00:00.728,0.0017090820474550197
183,00:00:00.732,-0.010317256907001143
184,00:00:00.736,0.005025939841289079
185,00:00:00.74,-0.005280931407469321
186,00:00:00.744,0.00899221329018474
187,00:00:00.748,0.004376110548037106
188,00:00:00.752,0.008366241148905832
189,00:00:00.756,-0.010176366427913308
190,00:00:00.76,-0.009104739874601364
191,00:00:00.764,-0.012619604705832902
192,00:00:00.768,0.006764334917534143
193,00:00:00.772,0.03131475811824204
194,00:00:00.776,0.00979889440350233
195,00:00:00.78,-0.024421285372227458
196,00:00:00.784,-0.0257786952424795
197,00:00:00.788,-0.00220689899288118
198,00:00:00.792,0.01633237628266215
199,00:00:00.796,0.01433798298239704
200,00:00:00.8,0.011335805756971237
201,00:00:00.804,-0.002572252429672518
202,00:00:00.808,-0.01707916194573045
203,00:00:00.812,-0.017038441949352993
204,00:00:00.816,-0.0048748613626230595
205,00:00:00.82,0.02497705275891347
206,00:00:00.824,0.024149399716407012
207,00:00:00.828,-0.010560202528722584
208,00:00:00.832,-0.018939375877380333
209,00:00:00.836,-0.01619391271378844
210,00:00:00.84,0.004798468115041036
211,00:00:00.844,0.01792340446263551
212,00:00:00.848,0.0010934071615338811
213,00:00:00.852,0.01247963914647699
214,00:00:00.856,-0.006649847375228999
215,00:00:00.86,-0.01735317765269425
216,00:00:00.864,-0.0053748597856611
217,00:00:00.868,-0.0004258960252627803
218,00:00:00.872,0.01085523283109069
219,00:00:00.876,0.0065693273209035405
220,00:00:00.88,6.543232302647095e-05
221,00:00:00.884,0.0028117283945903165
222,00:00:00.888,0.00727391929831356
223,00:00:00.892,-0.009774618782103069
224,00:00:00.896,-0.01047008903697133
225,00:00:00.9,-0.010577650042250749
226,00:00:00.904,0.0035410270793363495
227,00:00:00.908,0.009451199090108279
228,00:00:00.912,0.01216764887794853
229,00:00:00.916,0.0013016810407862124
230,00:00:00.92,-0.00036045291926711993
231,00:00:00.924,-0.00939031294547021
232,00:00:00.928,-0.008776050526648763
233,00:00:00.932,-0.005286874074954537
234,00:00:00.936,0.01671612705104056
235,00:00:00.94,0.021742071607150158
236,00:00:00.944,-0.0162173392018303
237,00:00:00.948,-0.0345788490958512
238,00:00:00.952,0.0008335360325873002
239,00:00:00.956,0.022856998490169648
240,00:00:00.96,0.018288820516318076
241,00:00:00.964,-0.003580964577849957
242,00:00:00.968,-0.01079016923904419
243,00:00:00.972,-0.0021312999306246656
244,00:00:00.976,0.001994141348404804
245,00:00:00.98,0.00211485032923519
246,00:00:00.984,-0.00581482972484082
247,00:00:00.988,0.0005652373074553881
248,00:00:00.992,-0.005422366106358823
249,00:00:00.996,0.0017055846401490327
250,00:00:01,-0.001917726302053773
251,00:00:01.004,0.013522669964004311
252,00:00:01.008,0.010446770815178748
253,00:00:01.012,-0.0052318461239337895
254,00:00:01.016,-0.027427517008618424
255,00:00:01.02,0.00343822858121712
256,00:00:01.024,0.00849783513695002
257,00:00:01.028,0.0006818892434239396
258,00:00:01.032,0.0003505886998027611
259,00:00:01.036,0.030567910755053183
260,00:00:01.04,-0.011268317350186408
261,00:00:01.044,-0.02937826514244078
262,00:00:01.048,0.0010531647712923597
263,00:00:01.052,0.006059741774151915
264,00:00:01.056,0.007652150001376871
265,00:00:01.06,-0.0053239921107888204
266,00:00:01.064,-0.005866095947567369
267,00:00:01.068,0.0175094292499125
268,00:00:01.072,0.008284494397230441
269,00:00:01.076,-0.01501594134606421
270,00:00:01.08,-0.006634953431785101
271,00:00:01.084,-0.00044041313230991407
272,00:00:01.088,0.0026296010983060053
273,00:00:01.092,0.00505924492608756
274,00:00:01.096,-0.010556971305049949
275,00:00:01.1,0.010612425627186901
276,00:00:01.104,0.01573348906822503
277,00:00:01.108,0.0016804049373604362
278,00:00:01.112,-0.030372308799996955
279,00:00:01.116,-0.01910811290144921
280,00:00:01.12,0.01396556268446147
281,00:00:01.124,0.014904890209436437
282,00:00:01.128,0.01669160556048158
283,00:00:01.132,0.02018277253955602
284,00:00:01.136,-0.01278936141170561
285,00:00:01.14,-0.03566627623513339
286,00:00:01.144,-0.017227491072844714
287,00:00:01.148,0.0011300996411591812
288,00:00:01.152,0.018200529390014698
289,00:00:01.156,0.018114433158189062
290,00:00:01.16,0.012964144581928811
291,00:00:01.164,0.0010574554034974422
292,00:00:01.168,-0.001631171173357866
293,00:00:01.172,-0.0182883453089744
294,00:00:01.176,-0.020806760760024228
295,00:00:01.18,-0.006201232637977228
296,00:00:01.184,0.007372721331194049
297,00:00:01.188,0.0147275475319475
298,00:00:01.192,0.02485551964491607
299,00:00:01.196,0.013767991913482523
300,00:00:01.2,-0.021554138511419244
301,00:00:01.204,-0.033318443573079906
302,00:00:01.208,-0.008596912492066622
303,00:00:01.212,0.008471520690363832
304,00:00:01.216,0.0224099522456527
305,00:00:01.22,0.025886757997795967
306,00:00:01.224,-0.003321099618915467
307,00:00:01.228,-0.03183453809469944
308,00:00:01.232,-0.0148039401974529
309,00:00:01.236,0.0015429343693540419
310,00:00:01.24,0.01840961258858443
311,00:00:01.244,0.01917408360168338
312,00:00:01.248,0.00022306363098322912
313,00:00:01.252,-0.00820170936640352
314,00:00:01.256,-0.008784355377429161
315,00:00:01.26,-0.019768822821788504
316,00:00:01.264,-0.005852817383129148
317,00:00:01.268,0.01032471016515046
318,00:00:01.272,0.02176909241825347
319,00:00:01.276,0.01322059152880685
320,00:00:01.28,-0.006239620095584533
321,00:00:01.284,-0.00692680012434721
322,00:00:01.288,-0.005597928189672535
323,00:00:01.292,-0.005332112865289675
324,00:00:01.296,-0.005210257571889091
325,00:00:01.3,-0.002244193572551005
326,00:00:01.304,0.001564263453474264
327,00:00:01.308,-0.00018858467228709784
328,00:00:01.312,0.022647950099781208
329,00:00:01.316,0.010894702129007786
330,00:00:01.32,-0.02182533976156266
331,00:00:01.324,-0.01173886773176492
332,00:00:01.328,-0.0011396664194762594
333,00:00:01.332,0.004925910849124191
334,00:00:01.336,0.007954028726089746
335,00:00:01.34,-0.002504317875718698
336,00:00:01.344,-0.0012446869077393818
337,00:00:01.348,0.007637709706614261
338,00:00:01.352,0.00870328361634165
339,00:00:01.356,-0.01764118578284979
340,00:00:01.36,-0.0024343699042219673
341,00:00:01.364,0.002172092325054101
342,00:00:01.368,-0.001864774269051848
343,00:00:01.372,0.0009010521462187119
344,00:00:01.376,0.009376097586937252
345,00:00:01.38,0.007498190250771591
346,00:00:01.384,-0.019640953862108342
347,00:00:01.388,-0.0011577492114156398
348,00:00:01.392,0.005222654202952979
349,00:00:01.396,0.00892982957884669
350,00:00:01.4,0.0041259344434365595
351,00:00:01.404,-0.012059543805662544
352,00:00:01.408,-0.009396222332725294
353,00:00:01.412,-0.003286790684796862
354,00:00:01.416,0.02342758793383833
355,00:00:01.42,0.010914508951827839
356,00:00:01.424,-0.015898448880761862
357,00:00:01.428,-0.013147200690582402
358,00:00:01.432,-0.002573036705143743
359,00:00:01.436,0.011294258176349102
360,00:00:01.44,-0.007304432831006122
361,00:00:01.444,0.00962117803283035
362,00:00:01.448,0.02365505346097052
363,00:00:01.452,-0.015907590044662377
364,00:00:01.456,-0.019919783109799048
365,00:00:01.46,-0.008793935412541032
366,00:00:01.464,-0.001038689166307449
367,00:00:01.468,0.017183824907988296
368,00:00:01.472,0.03285463154315949
369,00:00:01.476,0.0007073577726259906
370,00:00:01.48,-0.03510125447064634
371,00:00:01.484,-0.010320217988919467
372,00:00:01.488,-0.010082468550535848
373,00:00:01.492,0.006085238885134457
374,00:00:01.496,0.02343036676757041
375,00:00:01.5,0.026105429045855992
376,00:00:01.504,-0.00849984388332814
377,00:00:01.508,-0.025126516149612164
378,00:00:01.512,-0.006018856074661022
379,00:00:01.516,-0.005200453393626956
380,00:00:01.52,0.00264993240125477
381,00:00:01.524,0.005302392644807701
382,00:00:01.528,0.00685587187763304
383,00:00:01.532,0.00496009550988674
384,00:00:01.536,-0.0007427327800542094
385,00:00:01.54,0.008539702917914845
386,00:00:01.544,-0.01344942883588373
387,00:00:01.548,-0.005072520390967842
388,00:00:01.552,0.014932711375877258
389,00:00:01.556,-0.0111571189481765
390,00:00:01.56,0.0014153247466310902
391,00:00:01.564,-0.0036397480871528413
392,00:00:01.568,-0.012455374700948593
393,00:00:01.572,0.006600272376090289
394,00:00:01.576,0.0085164827760309
395,00:00:01.58,0.004325652727857228
396,00:00:01.584,0.008282680530101068
397,00:00:01.588,0.00856644450686872
398,00:00:01.592,-0.014126373047474775
399,00:00:01.596,-0.022196613368578286
400,00:00:01.6,-0.0034587197587825336
401,00:00:01.604,0.00708504603244364
402,00:00:01.608,0.021982087288051868
403,00:00:01.612,0.01143768581096083
404,00:00:01.616,-0.015209885779768229
405,00:00:01.62,-0.004818219759727077
406,00:00:01.624,-0.00278671970590949
407,00:00:01.628,-0.006089561968110458
408,00:00:01.632,-0.00080528645776213
409,00:00:01.636,-0.004434531932929534
410,00:00:01.64,0.012911092489957811
411,00:00:01.644,0.018180026439949898
412,00:00:01.648,-0.012736885691992939
413,00:00:01.652,-0.00322062952909618
414,00:00:01.656,0.0065525532700121385
415,00:00:01.66,-0.00961212231777608
416,00:00:01.664,-0.024297450319863835
417,00:00:01.668,0.01499936764594168
418,00:00:01.672,0.01934863533824682
419,00:00:01.676,0.008792919688858092
420,00:00:01.68,-0.008916396320273632
421,00:00:01.684,-0.0171433968935162
422,00:00:01.688,-0.0019075873715337388
423,00:00:01.692,-0.003301011514849956
424,00:00:01.696,0.013572948788350907
425,00:00:01.7,0.013889599489630193
426,00:00:01.704,-0.003030288149602711
427,00:00:01.708,0.0041751645039767036
428,00:00:01.712,-0.014150028582662318
429,00:00:01.716,-0.022192599601112327
430,00:00:01.72,-0.0074289234762545675
431,00:00:01.724,0.030641546472907073
432,00:00:01.728,0.017356006341287897
433,00:00:01.732,-0.009243098320439463
434,00:00:01.736,-0.009339902549982071
435,00:00:01.74,-0.000865988840814682
436,00:00:01.744,-0.01069564989302307
437,00:00:01.748,0.0005804128595627797
438,00:00:01.752,0.0193645324325189
439,00:00:01.756,-0.002869934774935239
440,00:00:01.76,-0.01062061206903309
441,00:00:01.764,0.0006815327797085099
442,00:00:01.768,0.009934113593772059
443,00:00:01.772,0.0028585547115653797
444,00:00:01.776,-0.01466083200648429
445,00:00:01.78,0.0014480025274679056
446,00:00:01.784,0.005987349781207751
447,00:00:01.788,-0.0001743114553391929
448,00:00:01.792,-0.01039673085324467
449,00:00:01.796,0.004276300809578975
450,00:00:01.8,0.010377058293670458
451,00:00:01.804,0.01149575947783888
452,00:00:01.808,-0.024061943986453102
453,00:00:01.812,-0.011010274058207852
454,00:00:01.816,0.006558260138262991
455,00:00:01.82,0.01337167515885087
456,00:00:01.824,0.014016737695783339
457,00:00:01.828,0.00858956191223115
458,00:00:01.832,-0.01937987422570584
459,00:00:01.836,-0.02555350656621158
460,00:00:01.84,-0.0013961177901364848
461,00:00:01.844,0.01960649644024671
462,00:00:01.848,0.008684827364049859
463,00:00:01.852,-0.005669582402333621
464,00:00:01.856,-0.00170548644382507
465,00:00:01.86,0.004934866214171046
466,00:00:01.864,-0.008936276950407778
467,00:00:01.868,0.003154841950163239
468,00:00:01.872,0.02285532723180949
469,00:00:01.876,-0.012302890419960022
470,00:00:01.88,-0.0242107682861388
471,00:00:01.884,-0.005314877751516172
472,00:00:01.888,0.004461959382751956
473,00:00:01.892,0.02028732071630657
474,00:00:01.896,0.01783753222844103
475,00:00:01.9,0.0075160579290241055
476,00:00:01.904,-0.025004580151289743
477,00:00:01.908,-0.03301907703280446
478,00:00:01.912,0.0006309924647212002
479,00:00:01.916,0.027021823771065066
480,00:00:01.92,0.01504014898091554
481,00:00:01.924,-0.003739654028322553
482,00:00:01.928,-0.010149593115784228
483,00:00:01.932,-0.0036171930551063213
484,00:00:01.936,-0.004001516666903628
485,00:00:01.94,0.0013952995650470291
486,00:00:01.944,0.017037451034411788
487,00:00:01.948,0.000614034535828976
488,00:00:01.952,-0.011896648444235328
489,00:00:01.956,-0.01235290634213015
490,00:00:01.96,-0.0010040531778941
491,00:00:01.964,0.0030023190774954873
492,00:00:01.968,0.0206581368111074
493,00:00:01.972,0.01894540607463572
494,00:00:01.976,-0.021668197034159693
495,00:00:01.98,-0.03237330401316281
496,00:00:01.984,0.01060759054962545
497,00:00:01.988,0.01623725600074977
498,00:00:01.992,0.0078527593286708
499,00:00:01.996,0.013273210963234298
500,00:00:02,-0.01955783751327545
501,00:00:02.004,-0.02728992933407431
502,00:00:02.008,0.001926906057633464
503,00:00:02.012,0.01432502675743308
504,00:00:02.016,0.017395922448486045
505,00:00:02.02,0.00604821689194069
506,00:00:02.024,-0.00661990593653172
507,00:00:02.028,-0.004671645583584908
508,00:00:02.032,-0.021920408587902812
509,00:00:02.036,0.00962090119719506
510,00:00:02.04,0.022008275147527477
511,00:00:02.044,-0.00578047736780718
512,00:00:02.048,-0.01912737684324384
513,00:00:02.052,-0.00427763361949474
514,00:00:02.056,0.00451484438963235
515,00:00:02.06,0.017452281084842928
516,00:00:02.064,0.018302386859431863
517,00:00:02.068,-0.009238988728611728
518,00:00:02.072,-0.0229670889675617
519,00:00:02.076,-0.01800704165361821
520,00:00:02.08,0.004079015634488311
521,00:00:02.084,0.01646365562919527
522,00:00:02.088,0.0213736305013299
523,00:00:02.092,-0.007963263618876226
524,00:00:02.096,-0.001817261130781842
525,00:00:02.1,0.002666215703357012
526,00:00:02.104,-0.008539922942873089
527,00:00:02.108,-0.01447390473913401
528,00:00:02.112,-0.00536677334457635
529,00:00:02.116,0.01070727189653553
530,00:00:02.12,0.013313630362972619
531,00:00:02.124,0.0052578302511392455
532,00:00:02.128,-0.002590463496744632
533,00:00:02.132,-0.00390713242813945
534,00:00:02.136,-0.019553504127543433
535,00:00:02.14,0.01424228306859729
536,00:00:02.144,0.006425144965760411
537,00:00:02.148,-0.01332449051551525
538,00:00:02.152,-0.0004996489733457505
539,00:00:02.156,0.01629033630888444
540,00:00:02.16,0.0022598073119297693
541,00:00:02.164,-0.005328677769284699
542,00:00:02.168,-0.00849265353463124
543,00:00:02.172,-0.00795898525393568
544,00:00:02.176,0.01147779822349549
545,00:00:02.18,0.00731714325957
546,00:00:02.184,-0.007108796504326161
547,00:00:02.188,-0.01178215979598462
548,00:00:02.192,-0.0006004766328260285
549,00:00:02.196,0.016020248178392642
550,00:00:02.2,0.01318432408152148
551,00:00:02.204,-0.005569074826780706
552,00:00:02.208,-0.014773291070014238
553,00:00:02.212,-0.00557076779659838
554,00:00:02.216,-0.0027501650620251903
555,00:00:02.22,0.01248288224451245
556,00:00:02.224,0.005388074419897749
557,00:00:02.228,-0.005069046281278131
558,00:00:02.232,-0.0018747178837656992
559,00:00:02.236,0.0039164659101516
560,00:00:02.24,-0.001503552950453017
561,00:00:02.244,-0.006940960651263595
562,00:00:02.248,0.0063931177137419625
563,00:00:02.252,-0.000722130251233469
564,00:00:02.256,-0.0060321781784296
565,00:00:02.26,0.001117287436500196
566,00:00:02.264,-0.004614488570950945
567,00:00:02.268,0.010850314283743513
568,00:00:02.272,0.0074838013024418545
569,00:00:02.276,-0.00010873912833631039
570,00:00:02.28,0.009621521341614432
571,00:00:02.284,-0.01925558084622024
572,00:00:02.288,-0.018794553063344203
573,00:00:02.292,-0.005870331689948211
574,00:00:02.296,0.02078793570399286
575,00:00:02.3,0.022541756043210643
576,00:00:02.304,-0.00460970541462302
577,00:00:02.308,-0.0090118998195976
578,00:00:02.312,-0.00960009882692251
579,00:00:02.316,-0.007566159358248113
580,00:00:02.32,0.0019659203826449807
581,00:00:02.324,0.01163741713389754
582,00:00:02.328,0.009333966765552761
583,00:00:02.332,-0.01223412714898586
584,00:00:02.336,0.01641393580939621
585,00:00:02.34,-0.006575027713552122
586,00:00:02.344,-0.01506096334196629
587,00:00:02.348,0.00401603040518239
588,00:00:02.352,-0.010780300712212929
589,00:00:02.356,0.007345462101511662
590,00:00:02.36,0.0026629137573763754
591,00:00:02.364,0.005795738892629739
592,00:00:02.368,0.02036172850057482
593,00:00:02.372,-0.009364930447191
594,00:00:02.376,-0.027591496065724617
595,00:00:02.38,-0.00749520456884056
596,00:00:02.384,0.019228403107263148
597,00:00:02.388,0.003775494740693829
598,00:00:02.392,0.007451865778421048
599,00:00:02.396,0.005660739494487645
600,00:00:02.4,-0.0017072209884645417
601,00:00:02.404,-0.02104413474444301
602,00:00:02.408,-0.003301963770354627
603,00:00:02.412,0.0029287130455486476
604,00:00:02.416,0.0062186055438360165
605,00:00:02.42,0.01168317743577063
606,00:00:02.424,0.0006743102567270407
607,00:00:02.428,-0.00735350465402007
608,00:00:02.432,0.004472378554055472
609,00:00:02.436,-0.011518544284626838
610,00:00:02.44,-0.014840583200566516
611,00:00:02.444,-0.004717003408586612
612,00:00:02.448,0.024675632565049448
613,00:00:02.452,0.04083493817597633
614,00:00:02.456,-0.007129076984710989
615,00:00:02.46,-0.040823115035891526
616,00:00:02.464,-0.02933536656200883
617,00:00:02.468,0.008293321938253944
618,00:00:02.472,0.031711462419480134
619,00:00:02.476,0.00719617283903062
620,00:00:02.48,0.006126632506493479
621,00:00:02.484,-0.0018931555969174908
622,00:00:02.488,-0.022010210537700935
623,00:00:02.492,-0.004540213471045719
624,00:00:02.496,0.006116321252193301
625,00:00:02.5,0.00599414497264661
626,00:00:02.504,-0.00379226170480251
627,00:00:02.508,0.003181772306561471
628,00:00:02.512,0.01115937856957316
629,00:00:02.516,0.0028632422909140604
630,00:00:02.52,-0.024153900332748918
631,00:00:02.524,-0.01322516286745668
632,00:00:02.528,0.01609101344365626
633,00:00:02.532,0.01313329557888209
634,00:00:02.536,0.006704924453515558
635,00:00:02.54,0.0038773699197918194
636,00:00:02.544,-0.01285575004294515
637,00:00:02.548,-0.021655018907040358
638,00:00:02.552,0.008455542963929481
639,00:00:02.556,0.0030433906067628413
640,00:00:02.56,0.0003192265867255537
641,00:00:02.564,0.01697081350721419
642,00:00:02.568,0.0022303422738332275
643,00:00:02.572,-0.004005380673334
644,00:00:02.576,-0.01153048709966242
645,00:00:02.58,0.004026241716928779
646,00:00:02.584,-0.0030045635066926497
647,00:00:02.588,-0.01583715202286839
648,00:00:02.592,0.00682257453445345
649,00:00:02.596,0.0112019800581038
650,00:00:02.6,0.0004601608961820611
651,00:00:02.604,0.0022651066537946497
652,00:00:02.608,0.01373457349836827
653,00:00:02.612,0.0020891538588330197
654,00:00:02.616,-0.015153453685343267
655,00:00:02.62,-0.028591384645551422
656,00:00:02.624,-0.0017700564931146733
657,00:00:02.628,0.01821963977999985
658,00:00:02.632,0.02020545979030433
659,00:00:02.636,0.0019089396810159096
660,00:00:02.64,-0.008436106203589588
661,00:00:02.644,-0.0032343905768357183
662,00:00:02.648,-0.013012648443691441
663,00:00:02.652,0.005662372801452879
664,00:00:02.656,0.01961498335003856
665,00:00:02.66,-0.01944517507217825
666,00:00:02.664,-0.001313274580752471
667,00:00:02.668,0.0103616255801171
668,00:00:02.672,0.00584587338380515
669,00:00:02.676,-0.01803091996862351
670,00:00:02.68,-0.006208531558513649
671,00:00:02.684,0.011246507638134057
672,00:00:02.688,0.002987931889947507
673,00:00:02.692,0.00368112837895751
674,00:00:02.696,0.007502976688556374
675,00:00:02.7,-0.0009327596053481293
676,00:00:02.704,-0.007015387353021653
677,00:00:02.708,-0.00934222480282188
678,00:00:02.712,0.002445346821332353
679,00:00:02.716,-0.010136020369827749
680,00:00:02.72,0.001560160715598617
681,00:00:02.724,0.00424993201158941
682,00:00:02.728,0.007958124857395889
683,00:00:02.732,0.01518093049526214
684,00:00:02.736,0.009180355875287202
685,00:00:02.74,-0.022169924399349804
686,00:00:02.744,-0.01205095718614757
687,00:00:02.748,-0.00150240631774068
688,00:00:02.752,0.006789586739614609
689,00:00:02.756,0.01639240584336219
690,00:00:02.76,0.0007266959291882843
691,00:00:02.764,-0.01488933851942418
692,00:00:02.768,-0.019905648194253448
693,00:00:02.772,0.0037403927417471988
694,00:00:02.776,0.018047575373202573
695,00:00:02.78,0.012313664425164461
696,00:00:02.784,0.001682864603935744
697,00:00:02.788,0.0006239891517907381
698,00:00:02.792,-0.01739669451490045
699,00:00:02.796,-0.01010414878328448
700,00:00:02.8,0.0033072095829993517
701,00:00:02.804,0.013765891722869125
702,00:00:02.808,0.008188610569050073
703,00:00:02.812,-0.01088943873764947
704,00:00:02.816,-0.004218470188789071
705,00:00:02.82,0.0014788552944082732
706,00:00:02.824,-0.005027157829317732
707,00:00:02.828,0.0037939092726446736
708,00:00:02.832,-0.0020148204639553998
709,00:00:02.836,0.001363337272778149
710,00:00:02.84,0.016361348214559222
711,00:00:02.844,-0.00013345188926905003
712,00:00:02.848,-0.01454495755024254
713,00:00:02.852,-0.0023953210329637005
714,00:00:02.856,-0.01151345972903073
715,00:00:02.86,0.00682860927190631
716,00:00:02.864,0.02070365194231272
717,00:00:02.868,-0.007921671494841579
718,00:00:02.872,-0.0018321672687307
719,00:00:02.876,-0.0008479489479214005
720,00:00:02.88,-0.0031354201491922105
721,00:00:02.884,-0.0010997085482813379
722,00:00:02.888,0.00932726683095098
723,00:00:02.892,0.00010771512461360197
724,00:00:02.896,-0.007026866544038059
725,00:00:02.9,-0.0009220087085850524
726,00:00:02.904,-0.010848396370420229
727,00:00:02.908,0.000949194945860654
728,00:00:02.912,0.005522394902072842
729,00:00:02.916,0.013651703717187047
730,00:00:02.92,0.00958532773074694
731,00:00:02.924,-0.01169192465022207
732,00:00:02.928,-0.008815773529931901
733,00:00:02.932,0.0008749922271817918
734,00:00:02.936,-0.008987578155938529
735,00:00:02.94,0.0057568287011236004
736,00:00:02.944,0.01358470914419741
737,00:00:02.948,0.0017734252614900496
738,00:00:02.952,-0.011548024718649689
739,00:00:02.956,-0.004595348727889359
740,00:00:02.96,0.00107575266156345
741,00:00:02.964,-0.0006777287562726953
742,00:00:02.968,0.002858624793589109
743,00:00:02.972,0.008550655649742103
744,00:00:02.976,0.013653988251462579
745,00:00:02.98,-0.0062115672044456
746,00:00:02.984,-0.027405955828726312
747,00:00:02.988,0.00014788185944781033
748,00:00:02.992,0.0026050751621369272
749,00:00:02.996,0.013499201741069559
750,00:00:03,0.00997201283462346
751,00:00:03.004,-0.00864451425150036
752,00:00:03.008,-0.00509661354590207
753,00:00:03.012,0.00527904357295483
754,00:00:03.016,0.00589616131037474
755,00:00:03.02,-0.01502513932064171
756,00:00:03.024,-0.00985008641146124
757,00:00:03.028,0.01556602423079312
758,00:00:03.032,0.00635773548856378
759,00:00:03.036,-0.008920030551962554
760,00:00:03.04,-0.004050105409987735
761,00:00:03.044,0.01728471182286739
762,00:00:03.048,0.00391206471249461
763,00:00:03.052,-0.01958831213414669
764,00:00:03.056,-0.00421129504684359
765,00:00:03.06,0.009553952142596252
766,00:00:03.064,-0.005121492198668423
767,00:00:03.068,0.004409624030813573
768,00:00:03.072,-0.002565634727943687
769,00:00:03.076,0.004191231884760785
770,00:00:03.08,0.0029048562282696397
771,00:00:03.084,0.006021724730089773
772,00:00:03.088,-0.0039284797385335
773,00:00:03.092,-0.007037933915853499
774,00:00:03.096,-0.01323082688031718
775,00:00:03.1,-0.0055516583379358
776,00:00:03.104,0.01838580297771837
777,00:00:03.108,0.015627204906195402
778,00:00:03.112,-0.004453616216778752
779,00:00:03.116,-0.002030094299698246
780,00:00:03.12,-0.00690733199007809
781,00:00:03.124,-0.00764931598678232
782,00:00:03.128,-0.006024747330229732
783,00:00:03.132,0.0007616501534357702
784,00:00:03.136,0.02211134578101335
785,00:00:03.14,0.0069707590155303496
786,00:00:03.144,-0.00844996579689904
787,00:00:03.148,-0.01502278458792716
788,00:00:03.152,-0.006439667893573639
789,00:00:03.156,0.0048724805819801926
790,00:00:03.16,-0.0033309371501673035
791,00:00:03.164,0.01643067691475153
792,00:00:03.168,0.009163534035906199
793,00:00:03.172,-0.0022844392806291598
794,00:00:03.176,-0.01241362071596086
795,00:00:03.18,-0.01621424034237862
796,00:00:03.184,0.00741376471705734
797,00:00:03.188,0.01695535727776587
798,00:00:03.192,0.0037973283324390598
799,00:00:03.196,-0.02381689939647913
800,00:00:03.2,0.008404516614973549
801,00:00:03.204,0.018228506727609818
802,00:00:03.208,-0.005578588054049756
803,00:00:03.212,-0.01245432021096349
804,00:00:03.216,-0.00830814271466806
805,00:00:03.22,-0.00914854265283793
806,00:00:03.224,0.010385403176769609
807,00:00:03.228,0.031186654232442445
808,00:00:03.232,0.015857159160077572
809,00:00:03.236,-0.02808145014569162
810,00:00:03.24,-0.018026103265583508
811,00:00:03.244,-0.00596488965675239
812,00:00:03.248,-0.0072299244930036435
813,00:00:03.252,0.01275488804094494
814,00:00:03.256,0.01224018319044263
815,00:00:03.26,0.007088338024914292
816,00:00:03.264,0.00913523870985959
817,00:00:03.268,-0.0009754446800798204
818,00:00:03.272,-0.02319196658208966
819,00:00:03.276,-0.006282889633439491
820,00:00:03.28,-0.009485408962063964
821,00:00:03.284,0.007336475886404512
822,00:00:03.288,0.022332922395435204
823,00:00:03.292,0.02564000454731288
824,00:00:03.296,-0.01898624375462532
825,00:00:03.3,-0.01978790306020526
826,00:00:03.304,-0.011277477489784365
827,00:00:03.308,-0.0007359829032793679
828,00:00:03.312,0.01665928843431175
829,00:00:03.316,0.004352701362222431
830,00:00:03.32,-9.98241594061249e-05
831,00:00:03.324,0.0007590267341583998
832,00:00:03.328,0.0008748823311179902
833,00:00:03.332,-0.00025713321520015424
834,00:00:03.336,-0.00775835849344731
835,00:00:03.34,-0.008606665767729279
836,00:00:03.344,0.006721886573359381
837,00:00:03.348,0.009053663350641731
838,00:00:03.352,0.0004526296397671097
839,00:00:03.356,-0.00727915856987238
840,00:00:03.36,-0.00746965350117535
841,00:00:03.364,0.0034951522247865852
842,00:00:03.368,0.02138918649870905
843,00:00:03.372,-0.0007223283173516427
844,00:00:03.376,-0.020549318360281187
845,00:00:03.38,-0.0037294352077878986
846,00:00:03.384,0.003992783342255282
847,00:00:03.388,0.0011399054201319796
848,00:00:03.392,0.0009963538905140013
849,00:00:03.396,0.020162914996035397
850,00:00:03.4,0.0024686388205737006
851,00:00:03.404,-0.01691907783970238
852,00:00:03.408,-0.01940702903084459
853,00:00:03.412,-0.003088110359385614
854,00:00:03.416,0.01377890422008932
855,00:00:03.42,0.010576456086710092
856,00:00:03.424,0.00680514075793325
857,00:00:03.428,0.00564786233007908
858,00:00:03.432,-0.00695821130648255
859,00:00:03.436,-0.01864763954654336
860,00:00:03.44,-0.00940450967755168
861,00:00:03.444,0.01304426742717624
862,00:00:03.448,0.00545714795589447
863,00:00:03.452,0.01131163793615997
864,00:00:03.456,0.0079583163606003
865,00:00:03.46,-0.014434305950999258
866,00:00:03.464,-0.021562137175351374
867,00:00:03.468,-0.0003908158978447329
868,00:00:03.472,0.01203989749774336
869,00:00:03.476,0.006260344584006811
870,00:00:03.48,0.007712735357927155
871,00:00:03.484,0.0054373565362766385
872,00:00:03.488,-0.0018302097159903492
873,00:00:03.492,-0.01893195300363005
874,00:00:03.496,-0.0031095568556338514
875,00:00:03.5,0.0055931757378857565
876,00:00:03.504,-0.005691064172424376
877,00:00:03.508,0.00923765261541121
878,00:00:03.512,0.009280516183935099
879,00:00:03.516,-0.007344603422097861
880,00:00:03.52,-0.0034022594045382045
881,00:00:03.524,0.002224142110208053
882,00:00:03.528,-0.004449742846190921
883,00:00:03.532,0.0037758743274025654
884,00:00:03.536,0.011890885885804892
885,00:00:03.54,0.0032494463084731325
886,00:00:03.544,-0.0200070943683386
887,00:00:03.548,-0.002872261859010905
888,00:00:03.552,-0.0054220887832343604
889,00:00:03.556,0.005086409859359268
890,00:00:03.56,0.01041357847861945
891,00:00:03.564,0.014326148200780148
892,00:00:03.568,-0.007973754894919697
893,00:00:03.572,-0.01240729657001793
894,00:00:03.576,0.0011847674613818574
895,00:00:03.58,-0.0036048081965418515
896,00:00:03.584,0.00045788433635607015
897,00:00:03.588,-0.0023166564642451756
898,00:00:03.592,0.01841983129270375
899,00:00:03.596,0.011694126587826762
900,00:00:03.6,-0.018071471480652676
901,00:00:03.604,-0.016852976288646432
902,00:00:03.608,0.00548664212692529
903,00:00:03.612,0.0016892888088477825
904,00:00:03.616,0.005381911571021191
905,00:00:03.62,0.0061220339266583376
906,00:00:03.624,-0.0071516024181619234
907,00:00:03.628,0.0008973751100711472
908,00:00:03.632,0.006636648642597713
909,00:00:03.636,-0.000687487947288901
910,00:00:03.64,-0.003684542200062429
911,00:00:03.644,0.0008692007977515398
912,00:00:03.648,-0.009451473611989062
913,00:00:03.652,0.0053072823211550695
914,00:00:03.656,0.008686482178745798
915,00:00:03.66,-0.01402166031766683
916,00:00:03.664,-0.0019592908211052483
917,00:00:03.668,0.01960615813732147
918,00:00:03.672,-0.0015576800215057983
919,00:00:03.676,-0.0244572730734944
920,00:00:03.68,0.0036576603888533966
921,00:00:03.684,0.013448587153106931
922,00:00:03.688,0.0039559385040774915
923,00:00:03.692,0.016401500441134
924,00:00:03.696,-0.011391108564566866
925,00:00:03.7,-0.019004696747288136
926,00:00:03.704,-0.016015775705454875
927,00:00:03.708,0.013956904876977209
928,00:00:03.712,0.017731695435941233
929,00:00:03.716,0.002662836239323949
930,00:00:03.72,0.006583766662515706
931,00:00:03.724,-0.004291444667615
932,00:00:03.728,-0.01909209547011414
933,00:00:03.732,-0.01187301380559802
934,00:00:03.736,0.00246661365963518
935,00:00:03.74,0.012546827434562148
936,00:00:03.744,0.01230624492745847
937,00:00:03.748,0.00144134706351906
938,00:00:03.752,-0.006069123395718634
939,00:00:03.756,-0.0008825511904433404
940,00:00:03.76,-0.0077287557651288755
941,00:00:03.764,-0.00046257826033979915
942,00:00:03.768,0.007168472977355119
943,00:00:03.772,0.0054532018257305
944,00:00:03.776,-0.005528252338990569
945,00:00:03.78,0.0050599395763129005
946,00:00:03.784,-0.01764613552950318
947,00:00:03.788,-0.0006904684705659699
948,00:00:03.792,0.015015312237665059
949,00:00:03.796,-0.00735371257178486
950,00:00:03.8,-0.007722412701696152
951,00:00:03.804,0.01579225552268326
952,00:00:03.808,0.01600716181565073
953,00:00:03.812,-0.0034467228688299604
954,00:00:03.816,-0.023168628569692408
955,00:00:03.82,-0.014059029090276454
956,00:00:03.824,0.013220075750723481
957,00:00:03.828,0.0062385417404584535
958,00:00:03.832,0.0012387642636895188
959,00:00:03.836,0.0011668613369693057
960,00:00:03.84,0.01570379070471973
961,00:00:03.844,-0.0030462572467513387
962,00:00:03.848,-0.02403418114408852
963,00:00:03.852,-0.00657796126324683
964,00:00:03.856,0.005582348268944774
965,00:00:03.86,0.007221657782793039
966,00:00:03.864,0.019135537091642597
967,00:00:03.868,-0.0020820440258830703
968,00:00:03.872,-0.00968362158164382
969,00:00:03.876,-0.01858598669059575
970,00:00:03.88,0.0025999979407060913
971,00:00:03.884,0.01979986042715612
972,00:00:03.888,0.0017442229800508362
973,00:00:03.892,-0.005578905373113233
974,00:00:03.896,-0.01609669323079287
975,00:00:03.9,0.003045392004423778
976,00:00:03.904,0.01883530779741705
977,00:00:03.908,-0.00587201242160518
978,00:00:03.912,0.0013750381767749804
979,00:00:03.916,-0.0031686100410297504
980,00:00:03.92,-0.0015673756133764913
981,00:00:03.924,-0.005904487334191799
982,00:00:03.928,-0.007716707019426388
983,00:00:03.932,0.0087892641313374
984,00:00:03.936,0.01534821279346943
985,00:00:03.94,-0.004539552610367539
986,00:00:03.944,-0.0151432438287884
987,00:00:03.948,0.011026798980310549
988,00:00:03.952,0.005465039284899827
989,00:00:03.956,-0.00168333062902093
990,00:00:03.96,-0.007043235877063122
991,00:00:03.964,-0.006427165964851152
992,00:00:03.968,-0.00015420958516187895
993,00:00:03.972,0.008308113727252929
994,00:00:03.976,0.00489778583869338
995,00:00:03.98,0.00583540974184871
996,00:00:03.984,-0.013380121905356649
997,00:00:03.988,-0.002204663585871456
998,00:00:03.992,-0.002936930308351295
999,00:00:03.996,0.001337430614512413
1000,00:00:04,-0.0001174507196992691
1001,00:00:04.004,0.007743173759081398
1002,00:00:04.008,0.011283255480520898
1003,00:00:04.012,-0.00594717591593508
1004,00:00:04.016,-0.012359008891507981
1005,00:00:04.02,-0.0024023053701966984
1006,00:00:04.024,0.003399561450351031
1007,00:00:04.028,0.004576900799293075
1008,00:00:04.032,0.009089161176234492
1009,00:00:04.036,-0.0013656485825777097
1010,00:00:04.04,-0.00810106098651886
1011,00:00:04.044,-0.013797247549518941
1012,00:00:04.048,0.011377939459634945
1013,00:00:04.052,0.015574185876175758
1014,00:00:04.056,-0.009161308989860121
1015,00:00:04.06,-0.00974576687440276
1016,00:00:04.064,-0.011084420373663311
1017,00:00:04.068,0.01093470794148743
1018,00:00:04.072,0.01356103888247162
1019,00:00:04.076,0.010628311079926785
1020,00:00:04.08,-0.00979643105529249
1021,00:00:04.084,-0.01594076328910886
1022,00:00:04.088,-0.008079765102593223
1023,00:00:04.092,-0.002483082935214041
1024,00:00:04.096,0.02767309022601689
1025,00:00:04.1,0.019671850139275193
1026,00:00:04.104,-0.021930001639702858
1027,00:00:04.108,-0.017657529388088754
1028,00:00:04.112,-0.013092121807858348
1029,00:00:04.116,0.012939375432324596
1030,00:00:04.12,0.0168560547754169
1031,00:00:04.124,0.006929218769073488
1032,00:00:04.128,0.0012241415679454786
1033,00:00:04.132,-0.011224305955693131
1034,00:00:04.136,-0.01374121801927686
1035,00:00:04.14,-0.00950508378446102
1036,00:00:04.144,0.013500911532901231
1037,00:00:04.148,0.017205853684572506
1038,00:00:04.152,0.004750893916934734
1039,00:00:04.156,-0.014294058666564512
1040,00:00:04.16,-0.005587468680460007
1041,00:00:04.164,-0.0002733782166615111
1042,00:00:04.168,0.004148427862674003
1043,00:00:04.172,0.0002841760287992691
1044,00:00:04.176,0.0017665694467723283
1045,00:00:04.18,0.00014979520346970017
1046,00:00:04.184,-0.007422280090395358
1047,00:00:04.188,-0.0037559383199550263
1048,00:00:04.192,0.02039164816960692
1049,00:00:04.196,-0.00280659063719213
1050,00:00:04.2,-0.0099792187102139
1051,00:00:04.204,-0.009201317094266408
1052,00:00:04.208,0.00295359501615167
1053,00:00:04.212,0.021785758668556858
1054,00:00:04.216,8.806190453468973e-05
1055,00:00:04.22,-0.007360747258644544
1056,00:00:04.224,-0.008961691637523469
1057,00:00:04.228,-0.02005470660515132
1058,00:00:04.232,0.002867095288820562
1059,00:00:04.236,0.01600889791734516
1060,00:00:04.24,0.01507622981444002
1061,00:00:04.244,0.01043282210594044
1062,00:00:04.248,-0.010854422027477991
1063,00:00:04.252,-0.013078965363092722
1064,00:00:04.256,-0.004773118882440041
1065,00:00:04.26,0.0002931237522716397
1066,00:00:04.264,0.0005873061782040133
1067,00:00:04.268,-0.0034250476164743296
1068,00:00:04.272,0.013518137348000895
1069,00:00:04.276,-0.0008686381916049829
1070,00:00:04.28,0.0037784229498356893
1071,00:00:04.284,-0.006617447827011361
1072,00:00:04.288,0.0019354321993887503
1073,00:00:04.292,-0.0056861367775127205
1074,00:00:04.296,0.01232507219538093
1075,00:00:04.3,-0.00756214663852005
1076,00:00:04.304,-0.007606067854794675
1077,00:00:04.308,-0.0037146724644117053
1078,00:00:04.312,0.003011289867572486
1079,00:00:04.316,0.008054438978433609
1080,00:00:04.32,0.01735070720314975
1081,00:00:04.324,-0.015887964982539467
1082,00:00:04.328,-0.00877680734265596
1083,00:00:04.332,-0.003186006913892931
1084,00:00:04.336,0.013604684500023742
1085,00:00:04.34,-0.00425195647403598
1086,00:00:04.344,-0.008118584402836852
1087,00:00:04.348,0.008492850407492375
1088,00:00:04.352,0.00854901154525578
1089,00:00:04.356,-0.001846883795224134
1090,00:00:04.36,-0.01596594881266356
1091,00:00:04.364,-0.0029744610656052797
1092,00:00:04.368,0.02074217016343031
1093,00:00:04.372,0.01288370089605451
1094,00:00:04.376,-0.02033977606333789
1095,00:00:04.38,-0.015559249557554722
1096,00:00:04.384,-0.0015910599904600598
1097,00:00:04.388,0.003634934575529769
1098,00:00:04.392,0.011259249877184631
1099,00:00:04.396,0.02132412604987626
1100,00:00:04.4,0.005238938378170129
1101,00:00:04.404,-0.02021201973548155
1102,00:00:04.408,-0.02339429873973131
1103,00:00:04.412,-0.01147915772162378
1104,00:00:04.416,0.02382667688652873
1105,00:00:04.42,0.02316879318095743
1106,00:00:04.424,0.0018255922477692403
1107,00:00:04.428,-0.02500522951595481
1108,00:00:04.432,-0.00015244097448885007
1109,00:00:04.436,0.004679731209762389
1110,00:00:04.44,-0.016166128218173946
1111,00:00:04.444,0.01748581184074282
1112,00:00:04.448,0.015303798485547308
1113,00:00:04.452,-0.0037432506142067714
1114,00:00:04.456,-0.011740488291252408
1115,00:00:04.46,-0.00333157123532147
1116,00:00:04.464,-0.010902794660069048
1117,00:00:04.468,1.8855294911193036e-05
1118,00:00:04.472,0.0149069163016975
1119,00:00:04.476,0.01618110807612538
1120,00:00:04.48,0.0009130553953582456
1121,00:00:04.484,-0.014194770890753718
1122,00:00:04.488,-0.017984577163588242
1123,00:00:04.492,-0.0038090015295892893
1124,00:00:04.496,0.005791489966213711
1125,00:00:04.5,0.023282188456505516
1126,00:00:04.504,-0.0009516977079329077
1127,00:00:04.508,-0.004508930258452891
1128,00:00:04.512,0.009971042512916028
1129,00:00:04.516,-0.00621804362162948
1130,00:00:04.52,-0.01789794210344552
1131,00:00:04.524,-0.012662710360018533
1132,00:00:04.528,0.0029234817120595796
1133,00:00:04.532,0.011973614688031372
1134,00:00:04.536,0.01574282813817266
1135,00:00:04.54,-0.0003808767651207721
1136,00:00:04.544,-0.008336754282936454
1137,00:00:04.548,0.002668772707693274
1138,00:00:04.552,0.01637439662590623
1139,00:00:04.556,-0.008983630454167718
1140,00:00:04.56,-0.01838907133787873
1141,00:00:04.564,-0.004510043188929562
1142,00:00:04.568,-0.007388544036075469
1143,00:00:04.572,0.004875860526226459
1144,00:00:04.576,0.02041267231106763
1145,00:00:04.58,0.019342599902302013
1146,00:00:04.584,-0.001489605987444518
1147,00:00:04.588,-0.03580127214081592
1148,00:00:04.592,-0.008326423820108168
1149,00:00:04.596,0.011957413749769328
1150,00:00:04.6,0.012012799037620422
1151,00:00:04.604,0.0007833726704120597
1152,00:00:04.608,-0.007992176222614939
1153,00:00:04.612,0.00038969522574916807
1154,00:00:04.616,0.02492811530828475
1155,00:00:04.62,-0.01205772138200704
1156,00:00:04.624,-0.013207836716901511
1157,00:00:04.628,0.0021516334090847557
1158,00:00:04.632,-0.004741395998280499
1159,00:00:04.636,-0.007891211193054911
1160,00:00:04.64,0.00014261886826716418
1161,00:00:04.644,0.008757094125030564
1162,00:00:04.648,0.02873150678351522
1163,00:00:04.652,-0.0017916654760483704
1164,00:00:04.656,-0.02276905637700112
1165,00:00:04.66,-0.009557938436046218
1166,00:00:04.664,0.00471735422615893
1167,00:00:04.668,-0.00484327413141728
1168,00:00:04.672,0.005971357204543892
1169,00:00:04.676,0.005343814729712898
1170,00:00:04.68,0.01006798748858273
1171,00:00:04.684,0.0036363686085678602
1172,00:00:04.688,-0.0035478939535096192
1173,00:00:04.692,-0.01301832194440068
1174,00:00:04.696,-0.026915846297924848
1175,00:00:04.7,0.015406541584525256
1176,00:00:04.704,0.040276339379488504
1177,00:00:04.708,-0.01711397012695669
1178,00:00:04.712,-0.012682147789746499
1179,00:00:04.716,0.0038905965629964998
1180,00:00:04.72,-0.01642791740596294
1181,00:00:04.724,-0.00074300961568951
1182,00:00:04.728,0.01684264070354402
1183,00:00:04.732,0.014199548866599791
1184,00:00:04.736,0.02040543069597329
1185,00:00:04.74,-0.01882088743150233
1186,00:00:04.744,-0.03610590223979664
1187,00:00:04.748,-0.00859264726750553
1188,00:00:04.752,0.01072718133218587
1189,00:00:04.756,0.007875405019149177
1190,00:00:04.76,0.021391130285337543
1191,00:00:04.764,0.01185240014456216
1192,00:00:04.768,0.0062362279277294805
1193,00:00:04.772,-0.02449178555980322
1194,00:00:04.776,-0.021985175320878625
1195,00:00:04.78,-0.0028343010053504328
1196,00:00:04.784,0.014701670967042432
1197,00:00:04.788,0.002675998141057779
1198,00:00:04.792,0.001915106724482028
1199,00:00:04.796,-0.0015840016421861908
1200,00:00:04.8,0.009992245351895692
1201,00:00:04.804,0.005849516019225119
1202,00:00:04.808,-0.0016856838483363303
1203,00:00:04.812,-0.02073004690464586
1204,00:00:04.816,-0.0008092884672805699
1205,00:00:04.82,0.005372429186536464
1206,00:00:04.824,0.0027246858226135312
1207,00:00:04.828,-0.0001413232021150177
1208,00:00:04.832,-0.0009976017754524894
1209,00:00:04.836,0.0058686030097305705
1210,00:00:04.84,0.00923766067717224
1211,00:00:04.844,-0.009254525197320621
1212,00:00:04.848,-0.004262380738509819
1213,00:00:04.852,-0.005988853343296794
1214,00:00:04.856,-0.004571558209136128
1215,00:00:04.86,0.01200409280136228
1216,00:00:04.864,0.014353850099723793
1217,00:00:04.868,-0.007949645456392318
1218,00:00:04.872,-0.0036653429269790285
1219,00:00:04.876,-0.01227712631225586
1220,00:00:04.88,-0.001598514849320101
1221,00:00:04.884,-0.00531723024323583
1222,00:00:04.888,0.016141354106366627
1223,00:00:04.892,0.0224651885218918
1224,00:00:04.896,-0.00634327623993158
1225,00:00:04.9,-0.02028198190964756
1226,00:00:04.904,-0.006107276829425241
1227,00:00:04.908,0.004468804690986871
1228,00:00:04.912,-0.0008593158563599008
1229,00:00:04.916,0.006583389244042371
1230,00:00:04.92,0.013141500065103182
1231,00:00:04.924,-0.009300607038312593
1232,00:00:04.928,-0.0068541836226359
1233,00:00:04.932,-0.008252618717961013
1234,00:00:04.936,0.013696804817300286
1235,00:00:04.94,0.0017537059466121649
1236,00:00:04.944,-0.002279553795233367
1237,00:00:04.948,0.0018284825782757211
1238,00:00:04.952,-0.004942210973240434
1239,00:00:04.956,0.0011004224652424403
1240,00:00:04.96,-0.0035187947796657794
1241,00:00:04.964,-0.002963483973871914
1242,00:00:04.968,0.00607384811155498
1243,00:00:04.972,0.0004711337969638381
1244,00:00:04.976,-0.012077051447704431
1245,00:00:04.98,0.008597276297223285
1246,00:00:04.984,0.03111966722644868
1247,00:00:04.988,0.0031111615826375735
1248,00:00:04.992,-0.026019464246928675
1249,00:00:04.996,-0.02958371513523161
1250,00:00:05,-0.003961522830650211
1251,00:00:05.004,0.01314907241612675
1252,00:00:05.008,0.020736890248372213
1253,00:00:05.012,0.00660083850380033
1254,00:00:05.016,0.00274447328411042
1255,00:00:05.02,-0.010723690618760879
1256,00:00:05.024,-0.00590495450887829
1257,00:00:05.028,0.011009023995939095
1258,00:00:05.032,-0.01061380794271826
1259,00:00:05.036,-0.01616478641517459
1260,00:00:05.04,0.016585762496106368
1261,00:00:05.044,0.012476324103772642
1262,00:00:05.048,-0.0037866448983550098
1263,00:00:05.052,-0.013553524855524302
1264,00:00:05.056,-0.002831934194546197
1265,00:00:05.06,0.006252935825614264
1266,00:00:05.064,0.005842325830599295
1267,00:00:05.068,1.9742641597981126e-05
1268,00:00:05.072,0.004924486507661641
1269,00:00:05.076,-0.009034768881974745
1270,00:00:05.08,-0.00549691985361278
1271,00:00:05.084,0.009230761381331852
1272,00:00:05.088,0.004708530381321898
1273,00:00:05.092,-8.85609770193696e-05
1274,00:00:05.096,-0.002982935169711709
1275,00:00:05.1,-0.02423629211261869
1276,00:00:05.104,0.004977831151336459
1277,00:00:05.108,0.013072497618850303
1278,00:00:05.112,0.00526622880715877
1279,00:00:05.116,0.00210000458173454
1280,00:00:05.12,0.00417533522704616
1281,00:00:05.124,-0.0012190298875793773
1282,00:00:05.128,0.0073687796248123
1283,00:00:05.132,-0.010806917562149463
1284,00:00:05.136,-0.022681719157844785
1285,00:00:05.14,0.00012685594265348862
1286,00:00:05.144,-0.00267963227815926
1287,00:00:05.148,0.015317429555580011
1288,00:00:05.152,0.016563879093155272
1289,00:00:05.156,0.01190770813263953
1290,00:00:05.16,-0.0041564999846741574
1291,00:00:05.164,-0.01742658927105371
1292,00:00:05.168,-0.012602112255990507
1293,00:00:05.172,-0.00476562883704901
1294,00:00:05.176,0.010739470599219201
1295,00:00:05.18,0.00867983396165073
1296,00:00:05.184,-0.0019936591852456305
1297,00:00:05.188,-0.011039663164410735
1298,00:00:05.192,0.01134493120480329
1299,00:00:05.196,0.003504669643007221
1300,00:00:05.2,-0.011712433537468321
1301,00:00:05.204,0.013096378534100953
1302,00:00:05.208,0.012282596144359552
1303,00:00:05.212,-0.02104157069697982
1304,00:00:05.216,-0.010342546273022894
1305,00:00:05.22,-0.00153084110934287
1306,00:00:05.224,0.004059178289026024
1307,00:00:05.228,0.005812628674902949
1308,00:00:05.232,0.01704922597855329
1309,00:00:05.236,0.01098934025503695
1310,00:00:05.24,-0.02355901501141491
1311,00:00:05.244,-0.02271111286245291
1312,00:00:05.248,0.01982901163864876
1313,00:00:05.252,0.01689889444969595
1314,00:00:05.256,-0.01034565689042211
1315,00:00:05.26,-0.019280048320069913
1316,00:00:05.264,0.00677884253673256
1317,00:00:05.268,0.01416599121876061
1318,00:00:05.272,-0.00134234762663254
1319,00:00:05.276,-0.010618631727993492
1320,00:00:05.28,-0.002860099368263043
1321,00:00:05.284,0.01701027690432967
1322,00:00:05.288,0.00914619723334908
1323,00:00:05.292,-0.01550962938927114
1324,00:00:05.296,-0.016247022547759067
1325,00:00:05.3,0.00227730014012195
1326,00:00:05.304,0.00879393261857331
1327,00:00:05.308,0.00730070634745062
1328,00:00:05.312,-0.00147209852002561
1329,00:00:05.316,0.0088010928593576
1330,00:00:05.32,0.00868753925897182
1331,00:00:05.324,-0.027512546861544265
1332,00:00:05.328,-0.00923091801814736
1333,00:00:05.332,0.014568617800250679
1334,00:00:05.336,-0.0007366044301306827
1335,00:00:05.34,-0.0008041971595957849
1336,00:00:05.344,0.006096618060837495
1337,00:00:05.348,0.009398907190188769
1338,00:00:05.352,-0.01119024981744587
1339,00:00:05.356,-0.010447330540046089
1340,00:00:05.36,-0.006693622854072604
1341,00:00:05.364,0.01421922654844821
1342,00:00:05.368,0.022299263742752352
1343,00:00:05.372,0.003172604832798241
1344,00:00:05.376,-0.02464038459584114
1345,00:00:05.38,-0.01168014190625399
1346,00:00:05.384,0.002320735162356865
1347,00:00:05.388,-0.005885973874683257
1348,00:00:05.392,0.01929015666246415
1349,00:00:05.396,0.0080412901006639
1350,00:00:05.4,-0.0011340351775288608
1351,00:00:05.404,-0.00541638489812612
1352,00:00:05.408,-0.003178780287271363
1353,00:00:05.412,-0.006784895085729656
1354,00:00:05.416,-0.00175327877514065
1355,00:00:05.42,0.0009036035044118788
1356,00:00:05.424,0.012644591173739173
1357,00:00:05.428,0.01337957987561822
1358,00:00:05.432,-0.017777655564714202
1359,00:00:05.436,-0.01184351462870836
1360,00:00:05.44,-0.005547472756006761
1361,00:00:05.444,0.00930847832933068
1362,00:00:05.448,0.0078283715993166
1363,00:00:05.452,0.00648927234578878
1364,00:00:05.456,0.0027366719441488433
1365,00:00:05.46,-0.013901260099373805
1366,00:00:05.464,-0.00040809504571370195
1367,00:00:05.468,0.01982663432136176
1368,00:00:05.472,-0.01138846739195287
1369,00:00:05.476,-0.01474189572036269
1370,00:00:05.48,-0.00403411826118827
1371,00:00:05.484,0.003214808064512908
1372,00:00:05.488,0.0060559498379006965
1373,00:00:05.492,0.00942031783051788
1374,00:00:05.496,0.025719841942191138
1375,00:00:05.5,-0.014321001712232832
1376,00:00:05.504,-0.041071207728236865
1377,00:00:05.508,0.006797080888645727
1378,00:00:05.512,0.03138396097347136
1379,00:00:05.516,0.0007602231926284711
1380,00:00:05.52,-0.0164577795658261
1381,00:00:05.524,-0.007299620250705634
1382,00:00:05.528,-0.00686065439367667
1383,00:00:05.532,0.015474593266844748
1384,00:00:05.536,0.00757711357437074
1385,00:00:05.54,0.00129522429779171
1386,00:00:05.544,0.00378484872635454
1387,00:00:05.548,-0.005272188223898411
1388,00:00:05.552,-0.011527389986440552
1389,00:00:05.556,-0.002808425750117748
1390,00:00:05.56,0.0025515340967103796
1391,00:00:05.564,-1.9578728824897265e-06
1392,00:00:05.568,0.0132991410791874
1393,00:00:05.572,-0.0015249612333718661
1394,00:00:05.576,-0.007197612256277356
1395,00:00:05.58,0.0005469181342050398
1396,00:00:05.584,-0.0030981279560364783
1397,00:00:05.588,0.0017460723320255004
1398,00:00:05.592,0.008582671405747533
1399,00:00:05.596,-0.00681332731619478
1400,00:00:05.6,-0.009307648520916709
1401,00:00:05.604,0.0020442308159545094
1402,00:00:05.608,0.010717334458604452
1403,00:00:05.612,0.01595436723437163
1404,00:00:05.616,-0.004990862042177464
1405,00:00:05.62,-0.02941551897674802
1406,00:00:05.624,-0.0026263933978043514
1407,00:00:05.628,0.015806119423359608
1408,00:00:05.632,0.0044768505031243
1409,00:00:05.636,-0.0015164260876190357
1410,00:00:05.64,0.0034373274538666
1411,00:00:05.644,-0.0011992374202236598
1412,00:00:05.648,0.006042880187123956
1413,00:00:05.652,-0.015736349334474653
1414,00:00:05.656,-0.0011635327246040097
1415,00:00:05.66,0.010727918474003673
1416,00:00:05.664,0.006857952801510689
1417,00:00:05.668,-0.010776292998343701
1418,00:00:05.672,-0.00332423672080045
1419,00:00:05.676,-0.009993590647354712
1420,00:00:05.68,0.0033019870006683006
1421,00:00:05.684,0.019836281193420287
1422,00:00:05.688,0.012638880987651646
1423,00:00:05.692,-0.01297253055963663
1424,00:00:05.696,-0.01193150458857413
1425,00:00:05.7,-0.014028503326699134
1426,00:00:05.704,-0.001968925105757079
1427,00:00:05.708,0.01417690608650447
1428,00:00:05.712,0.027412490220740382
1429,00:00:05.716,-0.0007891983259469288
1430,00:00:05.72,-0.02829799544997518
1431,00:00:05.724,-0.0057934348005801405
1432,00:00:05.728,0.013190826182835706
1433,00:00:05.732,0.01150116603821516
1434,00:00:05.736,-0.02230026037432252
1435,00:00:05.74,0.00026754674036056064
1436,00:00:05.744,0.001139400526881221
1437,00:00:05.748,0.016090559161966663
1438,00:00:05.752,0.004946224973537021
1439,00:00:05.756,0.0021105407504364883
1440,00:00:05.76,-0.01725616422481835
1441,00:00:05.764,-0.018801277852617166
1442,00:00:05.768,0.008800222130957998
1443,00:00:05.772,0.0160408467054367
1444,00:00:05.776,0.004211298190057275
1445,00:00:05.78,0.01542915171012283
1446,00:00:05.784,-0.014577849535271529
1447,00:00:05.788,-0.017655750038102293
1448,00:00:05.792,-0.008177734911441796
1449,00:00:05.796,0.00440464215353132
1450,00:00:05.8,0.01634069858118892
1451,00:00:05.804,0.00883145368425176
1452,00:00:05.808,0.0008205783087760206
1453,00:00:05.812,-0.01275806687772277
1454,00:00:05.816,-0.010431881994009018
1455,00:00:05.82,-0.00461920874658972
1456,00:00:05.824,0.020418651401996602
1457,00:00:05.828,0.00856246612966061
1458,00:00:05.832,-0.011929144384339471
1459,00:00:05.836,-0.0007876174058765203
1460,00:00:05.84,-0.004692469286965215
1461,00:00:05.844,-0.00616808049380779
1462,00:00:05.848,0.0031897721346467803
1463,00:00:05.852,0.00394743448123336
1464,00:00:05.856,0.0042301232460886205
1465,00:00:05.86,-0.0036004628636874254
1466,00:00:05.864,0.01863914937712253
1467,00:00:05.868,0.01023759972304106
1468,00:00:05.872,-0.029187523294240268
1469,00:00:05.876,-0.00753885763697325
1470,00:00:05.88,-0.010099779930897052
1471,00:00:05.884,0.00014773767907172008
1472,00:00:05.888,0.008545866701751947
1473,00:00:05.892,0.01239923946559429
1474,00:00:05.896,0.01318020862527188
1475,00:00:05.9,0.006677145021967592
1476,00:00:05.904,-0.00409713346743956
1477,00:00:05.908,-0.01201043603941796
1478,00:00:05.912,-0.01771875005215406
1479,00:00:05.916,-0.009956242982298129
1480,00:00:05.92,0.007533450203482053
1481,00:00:05.924,0.01941065280698243
1482,00:00:05.928,0.005898277333471929
1483,00:00:05.932,0.006370837159920479
1484,00:00:05.936,-0.00852706935256719
1485,00:00:05.94,-0.01676258561201394
1486,00:00:05.944,-0.01027169264853001
1487,00:00:05.948,0.00854910910129547
1488,00:00:05.952,0.022361563751474002
1489,00:00:05.956,-0.0006793460343033097
1490,00:00:05.96,-0.0013225494185462594
1491,00:00:05.964,-0.0016933032893575784
1492,00:00:05.968,-0.016963516245596146
1493,00:00:05.972,-0.009741060144733645
1494,00:00:05.976,0.0018357494263909757
1495,00:00:05.98,0.014878667308948941
1496,00:00:05.984,0.00510206283070147
1497,00:00:05.988,0.021055057877674668
1498,00:00:05.992,0.00154072209261358
1499,00:00:05.996,-0.02736273454502225
1500,00:00:06,-0.022327092709019822
1501,00:00:06.004,0.003094565436185799
1502,00:00:06.008,0.01339335227385163
1503,00:00:06.012,0.009944661986082789
1504,00:00:06.016,0.011443171883001898
1505,00:00:06.02,0.0027415191289037614
1506,00:00:06.024,-0.00113957969006152
1507,00:00:06.028,-0.026724664727225914
1508,00:00:06.032,-0.0125657623866573
1509,00:00:06.036,0.007698345201788477
1510,00:00:06.04,0.02230386715382341
1511,00:00:06.044,0.008589356206357479
1512,00:00:06.048,-0.00127592874923721
1513,00:00:06.052,-0.01860188459977508
1514,00:00:06.056,-0.007060994015773755
1515,00:00:06.06,0.0052129111281828955
1516,00:00:06.064,0.00929609511513263
1517,00:00:06.068,0.00221415481064469
1518,00:00:06.072,-0.005501585372257978
1519,00:00:06.076,0.009921799181029204
1520,00:00:06.08,0.003979693166911599
1521,00:00:06.084,-0.016793847782537393
1522,00:00:06.088,-0.01248471124563367
1523,00:00:06.092,-0.0032144897850230293
1524,00:00:06.096,0.02142741065472363
1525,00:00:06.1,0.01111839292570949
1526,00:00:06.104,-0.0030305301770567903
1527,00:00:06.108,-0.0011933494824916038
1528,00:00:06.112,-0.0013638645177707102
1529,00:00:06.116,-0.0210373662412167
1530,00:00:06.12,-0.01205463288351894
1531,00:00:06.124,0.006916329846717423
1532,00:00:06.128,0.02216432429850102
1533,00:00:06.132,0.01769796392181892
1534,00:00:06.136,0.0024294597096741113
1535,00:00:06.14,-0.01741519710049033
1536,00:00:06.144,-0.008460965502308678
1537,00:00:06.148,-0.006443711929023271
1538,00:00:06.152,-0.00948646361939609
1539,00:00:06.156,0.008866759249940513
1540,00:00:06.16,0.015100748743861924
1541,00:00:06.164,-0.00027557060820981383
1542,00:00:06.168,-0.0035836880560964277
1543,00:00:06.172,-0.00448853825218975
1544,00:00:06.176,0.0014293320709839494
1545,00:00:06.18,0.008427028544247159
1546,00:00:06.184,-0.00501698907464743
1547,00:00:06.188,0.004972783208359031
1548,00:00:06.192,-0.0053048266563564496
1549,00:00:06.196,-0.01052989292657003
1550,00:00:06.2,-0.0030959212454035835
1551,00:00:06.204,-0.004208071215543899
1552,00:00:06.208,0.01029956457205116
1553,00:00:06.212,0.01950903492979707
1554,00:00:06.216,-0.0005742913344874992
1555,00:00:06.22,-0.003585564903914932
1556,00:00:06.224,-0.0006816548411734441
1557,00:00:06.228,-0.01649278914555903
1558,00:00:06.232,-0.006197231821715831
1559,00:00:06.236,0.0010143603431060906
1560,00:00:06.24,0.006904266774654389
1561,00:00:06.244,0.011673030967358496
1562,00:00:06.248,0.004501411429373544
1563,00:00:06.252,-0.011161511007230732
1564,00:00:06.256,-0.0042475108057260505
1565,00:00:06.26,0.0096899438649416
1566,00:00:06.264,-0.0024119245063047878
1567,00:00:06.268,0.002344098407775164
1568,00:00:06.272,-0.005448577343486239
1569,00:00:06.276,-0.010338210791815034
1570,00:00:06.28,0.011767893040087083
1571,00:00:06.284,-0.007092955016560151
1572,00:00:06.288,0.012471391353756158
1573,00:00:06.292,0.00351189379580319
1574,00:00:06.296,-0.00419328222051264
1575,00:00:06.3,-0.00851709279231727
1576,00:00:06.304,-0.01692075980827212
1577,00:00:06.308,0.006343739980366077
1578,00:00:06.312,0.01313759972981642
1579,00:00:06.316,0.015563920955173682
1580,00:00:06.32,0.01695193047635258
1581,00:00:06.324,-0.0280885044485331
1582,00:00:06.328,-0.02641580837371295
1583,00:00:06.332,0.006761614000424737
1584,00:00:06.336,0.015459326561540409
1585,00:00:06.34,-0.0019082705257460492
1586,00:00:06.344,0.003372491264599381
1587,00:00:06.348,0.0008706421358510798
1588,00:00:06.352,0.00449789059348405
1589,00:00:06.356,0.008424195344559852
1590,00:00:06.36,-0.009472957579419019
1591,00:00:06.364,-0.019060560036450618
1592,00:00:06.368,0.0010089831193909032
1593,00:00:06.372,0.005817360186483709
1594,00:00:06.376,0.006770480220438913
1595,00:00:06.38,0.008529444457963109
1596,00:00:06.384,-0.0009581298218108753
1597,00:00:06.388,-0.004837457439862193
1598,00:00:06.392,-0.006513676722534001
1599,00:00:06.396,0.00614881492219866
1600,00:00:06.4,-0.0019004344940185504
1601,00:00:06.404,-0.00722252205014229
1602,00:00:06.408,0.0006017588311806304
1603,00:00:06.412,-0.0043679179798346065
1604,00:00:06.416,0.011528667935635884
1605,00:00:06.42,0.012324142502620768
1606,00:00:06.424,0.004666062828619035
1607,00:00:06.428,-0.013923728431109322
1608,00:00:06.432,-0.020687266907771118
1609,00:00:06.436,-0.00639998633414506
1610,00:00:06.44,0.01348289905581625
1611,00:00:06.444,0.029204209800809657
1612,00:00:06.448,0.0036447342718019995
1613,00:00:06.452,-0.020399266621097936
1614,00:00:06.456,-0.01912035141140223
1615,00:00:06.46,0.0015627605316694852
1616,00:00:06.464,0.007445137598551811
1617,00:00:06.468,0.018779994861688458
1618,00:00:06.472,0.0015119074960239214
1619,00:00:06.476,-0.01341747492551804
1620,00:00:06.48,0.0042027406889246725
1621,00:00:06.484,-0.00533303874544799
1622,00:00:06.488,-0.01690749824047092
1623,00:00:06.492,0.003077875080634839
1624,00:00:06.496,0.02856693067587907
1625,00:00:06.5,0.00710824923589826
1626,00:00:06.504,-0.01473700115457181
1627,00:00:06.508,-0.019256679275713368
1628,00:00:06.512,-0.002199701579229443
1629,00:00:06.516,0.014342420749017037
1630,00:00:06.52,0.0057732441928237685
1631,00:00:06.524,-0.001320502866292375
1632,00:00:06.528,0.00440109241753816
1633,00:00:06.532,-0.0025303832226199956
1634,00:00:06.536,-0.00677941332105547
1635,00:00:06.54,0.0006183227524161295
1636,00:00:06.544,-0.0012612959835678408
1637,00:00:06.548,-0.006617952312808481
1638,00:00:06.552,0.0067496143747121096
1639,00:00:06.556,0.010415958124212905
1640,00:00:06.56,0.0018168106907978702
1641,00:00:06.564,-0.013461352558806549
1642,00:00:06.568,-0.00290147494524717
1643,00:00:06.572,0.00021750503219664398
1644,00:00:06.576,0.00539639114867896
1645,00:00:06.58,0.00600415375083685
1646,00:00:06.584,0.004987915890524169
1647,00:00:06.588,-0.01117789163254201
1648,00:00:06.592,-0.011489881784655155
1649,00:00:06.596,0.004315139871323484
1650,00:00:06.6,0.01021926902467385
1651,00:00:06.604,0.00961886649020015
1652,00:00:06.608,-0.004608031893440055
1653,00:00:06.612,-0.0072725367499515406
1654,00:00:06.616,-0.002305294445250185
1655,00:00:06.62,-0.006578727508895101
1656,00:00:06.624,0.0022927303798496697
1657,00:00:06.628,0.01389114267658446
1658,00:00:06.632,-0.0096729873912409
1659,00:00:06.636,-0.005374353640945648
1660,00:00:06.64,0.01529807085171347
1661,00:00:06.644,0.01107937149936333
1662,00:00:06.648,-0.014639541972428598
1663,00:00:06.652,-0.010730733862146732
1664,00:00:06.656,-0.01327275834046304
1665,00:00:06.66,0.010799056617543101
1666,00:00:06.664,0.02349166199564937
1667,00:00:06.668,0.004728087573312222
1668,00:00:06.672,-0.013005336513742803
1669,00:00:06.676,-0.01216206140816212
1670,00:00:06.68,-0.014884077943861481
1671,00:00:06.684,0.003946526718209497
1672,00:00:06.688,0.01316333655267954
1673,00:00:06.692,0.02418112789746378
1674,00:00:06.696,0.009578523051459346
1675,00:00:06.7,-0.019287576084025242
1676,00:00:06.704,-0.0212812200188637
1677,00:00:06.708,-0.01206145039759576
1678,00:00:06.712,0.00021193451539147689
1679,00:00:06.716,0.01476459507830442
1680,00:00:06.72,0.0273699108511209
1681,00:00:06.724,0.003640116774477069
1682,00:00:06.728,-0.016898154048249132
1683,00:00:06.732,-0.011468407697975629
1684,00:00:06.736,-0.003503865911625325
1685,00:00:06.74,0.004395482013933359
1686,00:00:06.744,0.004557313921395686
1687,00:00:06.748,0.00208402588032185
1688,00:00:06.752,0.00600324547849595
1689,00:00:06.756,0.007294154158444145
1690,00:00:06.76,-0.028297348762862377
1691,00:00:06.764,-0.01300538564100861
1692,00:00:06.768,0.009636414237320432
1693,00:00:06.772,0.020590839092619682
1694,00:00:06.776,0.024207583395764287
1695,00:00:06.78,-0.01022144570015374
1696,00:00:06.784,-0.01954387431032959
1697,00:00:06.788,-0.004978295561159026
1698,00:00:06.792,-0.004069246933795519
1699,00:00:06.796,0.0014180450234562098
1700,00:00:06.8,0.000774611355154776
1701,00:00:06.804,0.00890125846490264
1702,00:00:06.808,0.008073103032074869
1703,00:00:06.812,-0.007741070003248749
1704,00:00:06.816,-0.0051809751894325035
1705,00:00:06.82,0.0046377431135624664
1706,00:00:06.824,0.007770622381940484
1707,00:00:06.828,0.00018956139683723233
1708,00:00:06.832,-0.00546097429469228
1709,00:00:06.836,-0.003990239463746545
1710,00:00:06.84,-0.003142122819554065
1711,00:00:06.844,-0.00338498941709986
1712,00:00:06.848,-0.009777037019375712
1713,00:00:06.852,0.013335025636479259
1714,00:00:06.856,0.009875335439573972
1715,00:00:06.86,-0.0011569810340006374
1716,00:00:06.864,0.003617779846535999
1717,00:00:06.868,-0.007321134442463525
1718,00:00:06.872,0.0072712897672317905
1719,00:00:06.876,-0.00807833694852888
1720,00:00:06.88,-0.019538285210728652
1721,00:00:06.884,0.010570760234259069
1722,00:00:06.888,0.01922342646867037
1723,00:00:06.892,0.0015327598230214811
1724,00:00:06.896,-0.017270374344661832
1725,00:00:06.9,0.00866212928667665
1726,00:00:06.904,-0.0015989891398930968
1727,00:00:06.908,-0.00803465594071895
1728,00:00:06.912,-0.00030982209136709354
1729,00:00:06.916,-0.000682951387716457
1730,00:00:06.92,0.0034744908916763987
1731,00:00:06.924,0.0029632322548422962
1732,00:00:06.928,0.005404371739132325
1733,00:00:06.932,0.01672428184247109
1734,00:00:06.936,0.0012559106398839478
1735,00:00:06.94,-0.03061888972297308
1736,00:00:06.944,-0.017370342509821078
1737,00:00:06.948,0.009213619981892402
1738,00:00:06.952,0.003909178311005239
1739,00:00:06.956,0.01261539291590455
1740,00:00:06.96,0.011531644267961386
1741,00:00:06.964,0.016762415063567463
1742,00:00:06.968,-0.014910786165273783
1743,00:00:06.972,-0.027069202158600134
1744,00:00:06.976,-0.00393417570739985
1745,00:00:06.98,0.007165041461121289
1746,00:00:06.984,0.0047819595201872315
1747,00:00:06.988,0.011615565796091683
1748,00:00:06.992,0.004503954027313736
1749,00:00:06.996,-0.001066288226866165
1750,00:00:07,-0.010323825554223726
1751,00:00:07.004,-0.00888575116186985
1752,00:00:07.008,-0.0006146444357000231
1753,00:00:07.012,0.0030176905274856883
1754,00:00:07.016,0.010023466849816032
1755,00:00:07.02,0.0032085604034364197
1756,00:00:07.024,0.00300809904001653
1757,00:00:07.028,-0.0006054343248251869
1758,00:00:07.032,-0.02012029569596056
1759,00:00:07.036,0.00127173913642764
1760,00:00:07.04,0.028413573978468797
1761,00:00:07.044,-0.00754618807695806
1762,00:00:07.048,-0.020553396665491122
1763,00:00:07.052,-0.010290120146237309
1764,00:00:07.056,0.005054983834270381
1765,00:00:07.06,0.01629446720471605
1766,00:00:07.064,0.0021161521435715275
1767,00:00:07.068,0.004543390488834121
1768,00:00:07.072,0.015417180722579362
1769,00:00:07.076,-0.0063383004744537175
1770,00:00:07.08,-0.0194201935082674
1771,00:00:07.084,-0.016641694179270423
1772,00:00:07.088,-0.0032346342923119725
1773,00:00:07.092,0.01173990196548402
1774,00:00:07.096,0.015390037093311562
1775,00:00:07.1,0.007487194729037582
1776,00:00:07.104,0.0007548502180725397
1777,00:00:07.108,-0.01212661503814162
1778,00:00:07.112,-0.0016408601950388332
1779,00:00:07.116,0.008199303061701357
1780,00:00:07.12,-0.010528024053201083
1781,00:00:07.124,-0.01352036651223898
1782,00:00:07.128,0.00662996631581336
1783,00:00:07.132,0.00010425091022625392
1784,00:00:07.136,0.022401412017643448
1785,00:00:07.14,0.00907147582620384
1786,00:00:07.144,-0.01516498369164765
1787,00:00:07.148,-0.011575539596378779
1788,00:00:07.152,-0.0061630341224372205
1789,00:00:07.156,-0.002289113996084777
1790,00:00:07.16,0.00790486834011972
1791,00:00:07.164,0.02126198261976241
1792,00:00:07.168,0.0031049640383571386
1793,00:00:07.172,-0.020085966738406576
1794,00:00:07.176,-0.008433785405941327
1795,00:00:07.18,0.006893298821523782
1796,00:00:07.184,-0.005153523758053776
1797,00:00:07.188,-0.004372850409708921
1798,00:00:07.192,0.02364476351067424
1799,00:00:07.196,-0.00034686864819377986
1800,00:00:07.2,-0.013789506396278739
1801,00:00:07.204,-0.004379509249702089
1802,00:00:07.208,0.013041389349382374
1803,00:00:07.212,-0.0008731114212423598
1804,00:00:07.216,-0.012888354831375189
1805,00:00:07.22,0.015049366047605869
1806,00:00:07.224,0.0002696772571653197
1807,00:00:07.228,-0.01014955493155867
1808,00:00:07.232,-0.011966172605752948
1809,00:00:07.236,0.004865832648647487
1810,00:00:07.24,0.009498884784989056
1811,00:00:07.244,0.008696674718521532
1812,00:00:07.248,-0.002600868348963564
1813,00:00:07.252,0.0041285740444436635
1814,00:00:07.256,-0.004032579996419376
1815,00:00:07.26,-0.00866557424888015
1816,00:00:07.264,-0.0025989650166593496
1817,00:00:07.268,-0.0034413817338645528
1818,00:00:07.272,-0.0002087323664454726
1819,00:00:07.276,0.01124561717733744
1820,00:00:07.28,0.008614785270765429
1821,00:00:07.284,-0.009003031009342521
1822,00:00:07.288,0.0015032942174002476
1823,00:00:07.292,1.135724596680078e-05
1824,00:00:07.296,-0.01507577579468489
1825,00:00:07.3,0.00052062096074224
1826,00:00:07.304,0.014113259501755241
1827,00:00:07.308,0.00577437062747777
1828,00:00:07.312,0.00690915738232435
1829,00:00:07.316,-0.01249338686466217
1830,00:00:07.32,-0.008671785821206871
1831,00:00:07.324,-0.00463793193921447
1832,00:00:07.328,-0.002138094772817572
1833,00:00:07.332,0.00732551980763674
1834,00:00:07.336,0.010229134819383031
1835,00:00:07.34,0.00432328577153385
1836,00:00:07.344,-0.0018949708319269043
1837,00:00:07.348,-0.0027293805032968495
1838,00:00:07.352,-0.010443886741995782
1839,00:00:07.356,-0.00596358743496239
1840,00:00:07.36,0.007209354429505771
1841,00:00:07.364,0.00756004825234414
1842,00:00:07.368,0.013447447447106242
1843,00:00:07.372,-0.0027857068926096
1844,00:00:07.376,-0.008901353692635899
1845,00:00:07.38,-0.022258525423239906
1846,00:00:07.384,-0.012392486445605751
1847,00:00:07.388,0.025619017891585792
1848,00:00:07.392,0.019618529127910744
1849,00:00:07.396,-0.003384704235941169
1850,00:00:07.4,-0.01516180206090212
1851,00:00:07.404,-0.002467767422785983
1852,00:00:07.408,0.003107658616499973
1853,00:00:07.412,0.007796430727466942
1854,00:00:07.416,-6.673482857877372e-05
1855,00:00:07.42,0.0027909203199669797
1856,00:00:07.424,-0.007151181343942881
1857,00:00:07.428,-0.01256445772014558
1858,00:00:07.432,5.387235432870174e-06
1859,00:00:07.436,0.013037633150815969
1860,00:00:07.44,-0.002950761234387759
1861,00:00:07.444,0.004814340281882318
1862,00:00:07.448,-0.0014883422700222588
1863,00:00:07.452,0.00896806595847011
1864,00:00:07.456,0.00035747996298596263
1865,00:00:07.46,-0.01550770993344486
1866,00:00:07.464,-0.00652933935634792
1867,00:00:07.468,0.0018313194159418392
1868,00:00:07.472,0.00774754327721894
1869,00:00:07.476,-0.009251639945432549
1870,00:00:07.48,0.004360617633210495
1871,00:00:07.484,0.0255653066560626
1872,00:00:07.488,0.01531966822221875
1873,00:00:07.492,-0.027681141713401296
1874,00:00:07.496,-0.036427431157790145
1875,00:00:07.5,-0.002560091845225543
1876,00:00:07.504,0.02779240580275658
1877,00:00:07.508,0.0284846394788473
1878,00:00:07.512,0.005802248604595651
1879,00:00:07.516,-0.02887319994624709
1880,00:00:07.52,-0.028368840692564838
1881,00:00:07.524,0.006235589542484375
1882,00:00:07.528,0.027136226999573368
1883,00:00:07.532,0.002872638695407658
1884,00:00:07.536,-0.002267733798362312
1885,00:00:07.54,-0.0019793153696809804
1886,00:00:07.544,-0.009506509755738083
1887,00:00:07.548,-0.0055255705956369595
1888,00:00:07.552,0.011167664779350162
1889,00:00:07.556,0.007193050609203053
1890,00:00:07.56,-0.00683006120380015
1891,00:00:07.564,0.00921205815393478
1892,00:00:07.568,-0.010060151689685878
1893,00:00:07.572,-0.016879962167877204
1894,00:00:07.576,0.00451376312412322
1895,00:00:07.58,0.0187960498733446
1896,00:00:07.584,-0.00037650106241926085
1897,00:00:07.588,-0.00264986464753747
1898,00:00:07.592,-0.0030768091091886154
1899,00:00:07.596,0.00411141617223621
1900,00:00:07.6,-0.00038983442937023894
1901,00:00:07.604,-0.01873248629271987
1902,00:00:07.608,-0.002894747944083063
1903,00:00:07.612,0.02357366401702165
1904,00:00:07.616,0.0016499285120517002
1905,00:00:07.62,-0.008699493715539571
1906,00:00:07.624,0.00627046718727797
1907,00:00:07.628,0.0062959714850876515
1908,00:00:07.632,-0.013979437528178122
1909,00:00:07.636,-0.015497400891035799
1910,00:00:07.64,0.004330189796746708
1911,00:00:07.644,0.021494142827577892
1912,00:00:07.648,0.01331356947775926
1913,00:00:07.652,-0.017266234266571652
1914,00:00:07.656,-0.01873177732340989
1915,00:00:07.66,0.007244672393426301
1916,00:00:07.664,-0.005362882933695798
1917,00:00:07.668,0.008955859811976549
1918,00:00:07.672,0.02390287769958378
1919,00:00:07.676,-0.00797061785124242
1920,00:00:07.68,-0.023576422128826404
1921,00:00:07.684,-0.0015599422622472104
1922,00:00:07.688,0.03914638352580369
1923,00:00:07.692,0.0033893794752657405
1924,00:00:07.696,-0.04666623054072258
1925,00:00:07.7,-0.023255330976098762
1926,00:00:07.704,0.01712823589332401
1927,00:00:07.708,0.02435064711607994
1928,00:00:07.712,0.01666124601615593
1929,00:00:07.716,-0.004634666096535511
1930,00:00:07.72,-0.013003709493204951
1931,00:00:07.724,-0.0020434160251170392
1932,00:00:07.728,0.0035651107900775978
1933,00:00:07.732,0.018108203192241518
1934,00:00:07.736,-0.01710286992602051
1935,00:00:07.74,-0.01550758164376019
1936,00:00:07.744,-0.00940028438344598
1937,00:00:07.748,0.02052481612190603
1938,00:00:07.752,0.01418634736910463
1939,00:00:07.756,-0.0036772800376638805
1940,00:00:07.76,-0.010136121767573072
1941,00:00:07.764,-0.011820114916190469
1942,00:00:07.768,-0.001985899929422882
1943,00:00:07.772,0.01648287160787732
1944,00:00:07.776,0.010825214674696368
1945,00:00:07.78,0.00842527276836336
1946,00:00:07.784,0.00632736401166768
1947,00:00:07.788,-0.037772601004689946
1948,00:00:07.792,-0.02366244117729363
1949,00:00:07.796,0.0021067692432552598
1950,00:00:07.8,0.017508654738776386
1951,00:00:07.804,0.03089858684688806
1952,00:00:07.808,0.031658071093261256
1953,00:00:07.812,-0.0201538922265172
1954,00:00:07.816,-0.04865885525941856
1955,00:00:07.82,-0.012790696171578015
1956,00:00:07.824,0.03310192204662598
1957,00:00:07.828,0.020656516542658168
1958,00:00:07.832,-0.01810290431603785
1959,00:00:07.836,-0.014329740079119772
1960,00:00:07.84,0.0033376248320564645
1961,00:00:07.844,0.010117243044078381
1962,00:00:07.848,0.00990012171678245
1963,00:00:07.852,-0.004234892025124277
1964,00:00:07.856,-0.017356221214868114
1965,00:00:07.86,-0.0026566063752397912
1966,00:00:07.864,0.01983167696744204
1967,00:00:07.868,0.009659880459366837
1968,00:00:07.872,-0.01653160527348518
1969,00:00:07.876,-0.00880262674763799
1970,00:00:07.88,0.009060126380063597
1971,00:00:07.884,-0.00019353895913809364
1972,00:00:07.888,-0.001036090950947255
1973,00:00:07.892,0.00025493605789961315
1974,00:00:07.896,0.0052375509403646
1975,00:00:07.9,-0.000905057910131292
1976,00:00:07.904,-0.007012897636741397
1977,00:00:07.908,-0.000330642898916266
1978,00:00:07.912,0.01084113097749651
1979,00:00:07.916,-0.003309902094770226
1980,00:00:07.92,-0.0074002523906529
1981,00:00:07.924,-0.008839555724989626
1982,00:00:07.928,0.003960089525207883
1983,00:00:07.932,0.033568453509360614
1984,00:00:07.936,0.0015555850695818788
1985,00:00:07.94,-0.02946755546145138
1986,00:00:07.944,-0.025027736090123702
1987,00:00:07.948,-0.00019693106878549901
1988,00:00:07.952,0.01205199863761664
1989,00:00:07.956,0.02802958537358788
1990,00:00:07.96,0.019678029231727092
1991,00:00:07.964,0.0064429045887663995
1992,00:00:07.968,-0.031761566642671865
1993,00:00:07.972,-0.03408406348899004
1994,00:00:07.976,-0.0026423170929774694
1995,00:00:07.98,0.012981086503714327
1996,00:00:07.984,0.015197964152321265
1997,00:00:07.988,0.024174274411052417
1998,00:00:07.992,0.000895233941264451
1999,00:00:07.996,-0.011750104014936376
2000,00:00:08,-0.0171071623917669
2001,00:00:08.004,-0.00758075248450041
2002,00:00:08.008,-0.0037111840210855
2003,00:00:08.012,0.015279883751645691
2004,00:00:08.016,0.024076743982732293
2005,00:00:08.02,-0.007714269624557346
2006,00:00:08.024,-0.01864087174180897
2007,00:00:08.028,-0.01337663573212921
2008,00:00:08.032,0.003952802624553437
2009,00:00:08.036,0.019164253724739
2010,00:00:08.04,0.011509296484291588
2011,00:00:08.044,-0.008942369953729221
2012,00:00:08.048,-0.01051033125258979
2013,00:00:08.052,-0.008956510573625566
2014,00:00:08.056,-0.0012737734359688992
2015,00:00:08.06,0.01929529570043091
2016,00:00:08.064,0.023791803279891572
2017,00:00:08.068,-0.02398408215958624
2018,00:00:08.072,-0.034091757319401915
2019,00:00:08.076,0.00702123623341322
2020,00:00:08.08,0.01375735178589824
2021,00:00:08.084,0.01871750154532494
2022,00:00:08.088,0.0022278681863099298
2023,00:00:08.092,-0.00761565321590752
2024,00:00:08.096,-0.0006420368445105903
2025,00:00:08.1,-0.006692323775496337
2026,00:00:08.104,-0.00632350868545473
2027,00:00:08.108,-0.010505637910682711
2028,00:00:08.112,0.024414874147623777
2029,00:00:08.116,0.04038456617854532
2030,00:00:08.12,-0.03190416982397439
2031,00:00:08.124,-0.04451741976663462
2032,00:00:08.128,-0.018575543304905302
2033,00:00:08.132,0.02403943217359484
2034,00:00:08.136,0.03206557728117333
2035,00:00:08.14,0.01688688050489873
2036,00:00:08.144,0.0050916571931338625
2037,00:00:08.148,-0.01327888970263302
2038,00:00:08.152,-0.013057140517048541
2039,00:00:08.156,-0.015059530967846537
2040,00:00:08.16,-0.009556703269481659
2041,00:00:08.164,0.005920010444242509
2042,00:00:08.168,0.013436773791909211
2043,00:00:08.172,0.000747031997889274
2044,00:00:08.176,0.0034308452159166306
2045,00:00:08.18,0.011234212506678887
2046,00:00:08.184,-0.005249432288110252
2047,00:00:08.188,-0.003948503435822221
2048,00:00:08.192,-0.00461190333589912
2049,00:00:08.196,-0.00983717816416173
2050,00:00:08.2,-0.0036756078770849836
2051,00:00:08.204,0.019954962655901902
2052,00:00:08.208,0.0031915852450765626
2053,00:00:08.212,-0.008962135063484311
2054,00:00:08.216,-0.0102144214688451
2055,00:00:08.22,0.012058944092132156
2056,00:00:08.224,0.0049449536018073515
2057,00:00:08.228,-0.012665465823374685
2058,00:00:08.232,-0.0035131796030327704
2059,00:00:08.236,0.01426033524330706
2060,00:00:08.24,0.0022866211947985
2061,00:00:08.244,0.0022477266284113323
2062,00:00:08.248,-0.010820339521160354
2063,00:00:08.252,-0.018089707940816848
2064,00:00:08.256,0.0009377258247695881
2065,00:00:08.26,0.024400171358138316
2066,00:00:08.264,0.008539678994566199
2067,00:00:08.268,-0.007725234027020629
2068,00:00:08.272,-0.008432838105363764
2069,00:00:08.276,-0.007879923301516097
2070,00:00:08.28,0.008827481651678681
2071,00:00:08.284,0.01040813501458615
2072,00:00:08.288,-0.004145043960306792
2073,00:00:08.292,-0.005185172834899281
2074,00:00:08.296,-0.01261190790683031
2075,00:00:08.3,-0.0001401905901730013
2076,00:00:08.304,0.004899541905615477
2077,00:00:08.308,0.013563804212026291
2078,00:00:08.312,0.009932277724146841
2079,00:00:08.316,-0.01323901582509279
2080,00:00:08.32,-0.010534813161939379
2081,00:00:08.324,0.0004861717352469012
2082,00:00:08.328,0.010807895916514102
2083,00:00:08.332,-0.0018623610667418676
2084,00:00:08.336,-0.001195248216390601
2085,00:00:08.34,-0.001004658755846321
2086,00:00:08.344,0.005566195759456603
2087,00:00:08.348,-0.004044079221785071
2088,00:00:08.352,-0.00463384599424898
2089,00:00:08.356,-0.00585923145990818
2090,00:00:08.36,-0.00528889926499688
2091,00:00:08.364,0.00931919435970485
2092,00:00:08.368,0.03108344273641709
2093,00:00:08.372,-0.012905547395348549
2094,00:00:08.376,-0.013423146563582122
2095,00:00:08.38,-0.01799692108761517
2096,00:00:08.384,-0.0034995705882465665
2097,00:00:08.388,0.02547769434750078
2098,00:00:08.392,0.017258980718906938
2099,00:00:08.396,-0.00986382178962231
2100,00:00:08.4,-0.01291473396122456
2101,00:00:08.404,-0.00021401370759122594
2102,00:00:08.408,-0.0032489758450537903
2103,00:00:08.412,-0.004688248678576205
2104,00:00:08.416,0.00829260051250458
2105,00:00:08.42,0.00857686426024884
2106,00:00:08.424,-0.005096393273561263
2107,00:00:08.428,-0.01082723913714289
2108,00:00:08.432,0.01566048944368959
2109,00:00:08.436,0.00538769352715463
2110,00:00:08.44,-0.009001470403745758
2111,00:00:08.444,-0.01883397286292166
2112,00:00:08.448,-0.00531681423308328
2113,00:00:08.452,0.020196201667204164
2114,00:00:08.456,0.021004857961088433
2115,00:00:08.46,0.00414915359579027
2116,00:00:08.464,-0.02198802586644885
2117,00:00:08.468,-0.01607284179772246
2118,00:00:08.472,-0.0002488883910700601
2119,00:00:08.476,0.009266454260796319
2120,00:00:08.48,0.001456001398764783
2121,00:00:08.484,0.006519405986182401
2122,00:00:08.488,0.00550121511332691
2123,00:00:08.492,-0.0049712265608832205
2124,00:00:08.496,-0.007102658855728805
2125,00:00:08.5,-0.0019472261192277091
2126,00:00:08.504,0.004478797207411848
2127,00:00:08.508,0.005782149681181182
2128,00:00:08.512,0.009234177006874237
2129,00:00:08.516,-0.010807015671161935
2130,00:00:08.52,-0.01652797975111755
2131,00:00:08.524,-0.00333627220845756
2132,00:00:08.528,0.022238310892134922
2133,00:00:08.532,0.01112754596397281
2134,00:00:08.536,-0.02275017183274034
2135,00:00:08.54,-0.003589266445487742
2136,00:00:08.544,0.00711450749076902
2137,00:00:08.548,0.01437273377086972
2138,00:00:08.552,-0.0021570089738815997
2139,00:00:08.556,-0.014471691451035423
2140,00:00:08.56,-0.015362032921984788
2141,00:00:08.564,0.008212140353862194
2142,00:00:08.568,0.015394068381283432
2143,00:00:08.572,0.018748581875115668
2144,00:00:08.576,0.0018940789741463955
2145,00:00:08.58,-0.02799061569385228
2146,00:00:08.584,-0.01496930699795488
2147,00:00:08.588,-0.0008549600024707663
2148,00:00:08.592,0.01197168766520915
2149,00:00:08.596,0.009767518320586536
2150,00:00:08.6,0.00756378669757395
2151,00:00:08.604,0.011135217238916077
2152,00:00:08.608,-0.00996485422365367
2153,00:00:08.612,-0.02175816753879188
2154,00:00:08.616,-0.006044879701221357
2155,00:00:08.62,0.0018221453283331379
2156,00:00:08.624,0.030290266906376942
2157,00:00:08.628,0.017385984770953655
2158,00:00:08.632,-0.03455934324301784
2159,00:00:08.636,-0.02538179070688784
2160,00:00:08.64,0.0005160175496712305
2161,00:00:08.644,0.02262637764215467
2162,00:00:08.648,0.0300884344615042
2163,00:00:08.652,-0.0032790334662422494
2164,00:00:08.656,-0.01958801271393895
2165,00:00:08.66,-0.01974911289289597
2166,00:00:08.664,0.007777244609314954
2167,00:00:08.668,0.00834892457351088
2168,00:00:08.672,0.00028364319587126385
2169,00:00:08.676,0.006344568304484703
2170,00:00:08.68,0.005527512461412693
2171,00:00:08.684,-0.007467605231795458
2172,00:00:08.688,-0.012247085804119703
2173,00:00:08.692,-0.0036920910060871436
2174,00:00:08.696,0.008422827406320724
2175,00:00:08.7,-0.00115219270810485
2176,00:00:08.704,0.0036842558147327535
2177,00:00:08.708,0.010518098642933182
2178,00:00:08.712,0.00029428605921565966
2179,00:00:08.716,-0.01365906046703457
2180,00:00:08.72,0.010360173881053909
2181,00:00:08.724,0.00785998231003759
2182,00:00:08.728,-0.01993435947224496
2183,00:00:08.732,-0.01841986039653421
2184,00:00:08.736,-0.00038215829408727597
2185,00:00:08.74,0.01858595432713625
2186,00:00:08.744,0.02283620729576801
2187,00:00:08.748,0.027127431647386402
2188,00:00:08.752,-0.019641925740870637
2189,00:00:08.756,-0.04571587126702075
2190,00:00:08.76,-0.01226430526003245
2191,00:00:08.764,0.0006960909231565932
2192,00:00:08.768,0.021967325563309697
2193,00:00:08.772,0.04221530654467643
2194,00:00:08.776,0.0025069805560633505
2195,00:00:08.78,-0.02853467245586217
2196,00:00:08.784,-0.014247308718040589
2197,00:00:08.788,-0.0030603224877268098
2198,00:00:08.792,0.005618068855255843
2199,00:00:08.796,0.005602723453193901
2200,00:00:08.8,0.002686669220565815
2201,00:00:08.804,-0.01662310981191694
2202,00:00:08.808,0.014463760046055523
2203,00:00:08.812,0.022168268798850442
2204,00:00:08.816,-0.0070448238402605005
2205,00:00:08.82,-0.02307179896160964
2206,00:00:08.824,-0.0146927977912128
2207,00:00:08.828,0.016420050989836447
2208,00:00:08.832,0.008282844384666527
2209,00:00:08.836,0.005251338850939648
2210,00:00:08.84,-0.004246404638251988
2211,00:00:08.844,-0.0015968499355949431
2212,00:00:08.848,0.00341659504920245
2213,00:00:08.852,-0.004453365691006179
2214,00:00:08.856,-0.00987781793810427
2215,00:00:08.86,-0.0029206332401372466
2216,00:00:08.864,0.018654723200597804
2217,00:00:08.868,0.02191858575679364
2218,00:00:08.872,-0.01535394322127104
2219,00:00:08.876,-0.02155122789554299
2220,00:00:08.88,-0.01777948252856735
2221,00:00:08.884,-0.00332333520054817
2222,00:00:08.888,0.03808291163295511
2223,00:00:08.892,0.03776795885642064
2224,00:00:08.896,-0.03247577801812439
2225,00:00:08.9,-0.039423540933057714
2226,00:00:08.904,0.0015190406411420586
2227,00:00:08.908,0.020428289426490668
2228,00:00:08.912,2.2656560759059e-05
2229,00:00:08.916,0.01239313441328704
2230,00:00:08.92,0.01621883176267145
2231,00:00:08.924,-0.0005783285014331306
2232,00:00:08.928,-0.03381703887134799
2233,00:00:08.932,-0.005252669943729417
2234,00:00:08.936,0.009496161947026849
2235,00:00:08.94,-0.007636366470251235
2236,00:00:08.944,-0.00165234040468932
2237,00:00:08.948,0.012574419612064949
2238,00:00:08.952,0.019499395042657852
2239,00:00:08.956,-0.002186236204579469
2240,00:00:08.96,-0.007502094544179273
2241,00:00:08.964,-0.006042494322173299
2242,00:00:08.968,-0.00906579848378895
2243,00:00:08.972,-0.00264451059047133
2244,00:00:08.976,0.00754024786874652
2245,00:00:08.98,0.014018264439073353
2246,00:00:08.984,0.00149736274033785
2247,00:00:08.988,-0.02688232739455994
2248,00:00:08.992,-0.00633230211678892
2249,00:00:08.996,0.004729393869638449
2250,00:00:09,0.01672566751949489
2251,00:00:09.004,0.02828704286366701
2252,00:00:09.008,-0.011919129057787354
2253,00:00:09.012,-0.01630675687920305
2254,00:00:09.016,-0.01227752864360809
2255,00:00:09.02,0.00013658008538186116
2256,00:00:09.024,0.005475468056829413
2257,00:00:09.028,0.0014294452494141327
2258,00:00:09.032,0.0028701285482384304
2259,00:00:09.036,0.01581578655168414
2260,00:00:09.04,-0.003628440550528476
2261,00:00:09.044,-0.01582227880135178
2262,00:00:09.048,-0.0033516022631374653
2263,00:00:09.052,-0.0054794093302916805
2264,00:00:09.056,-0.000347011125995777
2265,00:00:09.06,0.01299370382912457
2266,00:00:09.064,0.0400156320538371
2267,00:00:09.068,0.0024401620030403094
2268,00:00:09.072,-0.03980729938484735
2269,00:00:09.076,-0.046057617291808135
2270,00:00:09.08,-0.0015541058965027393
2271,00:00:09.084,0.03357045445591215
2272,00:00:09.088,0.024226172419730588
2273,00:00:09.092,0.01755345216952269
2274,00:00:09.096,-0.0008735205046832594
2275,00:00:09.1,-0.021659848047420393
2276,00:00:09.104,-0.01976000331342218
2277,00:00:09.108,-0.009805762267205868
2278,00:00:09.112,0.00985401123762131
2279,00:00:09.116,0.015257286955602462
2280,00:00:09.12,0.005957784203928895
2281,00:00:09.124,0.0014077649684622897
2282,00:00:09.128,0.00047524570254608696
2283,00:00:09.132,-0.01557303220033646
2284,00:00:09.136,-0.009624476952012625
2285,00:00:09.14,0.01122971437871456
2286,00:00:09.144,0.03263313230127097
2287,00:00:09.148,-0.02366627100855116
2288,00:00:09.152,-0.03002643585205075
2289,00:00:09.156,0.01444005337543789
2290,00:00:09.16,0.01639944268390537
2291,00:00:09.164,-0.01338044204749167
2292,00:00:09.168,0.0074584067333489665
2293,00:00:09.172,0.015563517168629946
2294,00:00:09.176,-0.011091681197285649
2295,00:00:09.18,-0.010574626794550564
2296,00:00:09.184,0.009962878772057591
2297,00:00:09.188,-0.004056362318806349
2298,00:00:09.192,-0.006486832280643277
2299,00:00:09.196,-0.004931935312924911
2300,00:00:09.2,0.0015105846687219968
2301,00:00:09.204,0.0159395500086248
2302,00:00:09.208,0.012333108577877318
2303,00:00:09.212,0.0018887864425778398
2304,00:00:09.216,-0.01902781659737229
2305,00:00:09.22,-0.01829799963161349
2306,00:00:09.224,-0.0025825397024163968
2307,00:00:09.228,0.0174256507307291
2308,00:00:09.232,0.0037302508717402755
2309,00:00:09.236,-0.0033066776813939196
2310,00:00:09.24,0.01486135297454889
2311,00:00:09.244,0.003943711053580048
2312,00:00:09.248,-0.01406851108185947
2313,00:00:09.252,-0.017790455603972088
2314,00:00:09.256,-0.001098814711440359
2315,00:00:09.26,0.016912544611841412
2316,00:00:09.264,0.007993701379746209
2317,00:00:09.268,-0.004989003529772161
2318,00:00:09.272,-0.0032612699724268177
2319,00:00:09.276,-0.001767277368344369
2320,00:00:09.28,-0.01087285450194032
2321,00:00:09.284,0.01645229232963175
2322,00:00:09.288,0.013333102036995118
2323,00:00:09.292,-0.01956789940595627
2324,00:00:09.296,-0.00674344925209875
2325,00:00:09.3,-0.0006441639852710101
2326,00:00:09.304,0.004412964219227439
2327,00:00:09.308,0.00545049738138915
2328,00:00:09.312,0.007572559436084701
2329,00:00:09.316,0.0007075289031490701
2330,00:00:09.32,-0.00881414872128516
2331,00:00:09.324,-0.007923286582808943
2332,00:00:09.328,-0.00043980893678963054
2333,00:00:09.332,0.0025508234393782896
2334,00:00:09.336,0.01137518417090177
2335,00:00:09.34,0.01307468209415672
2336,00:00:09.344,-0.01287255901843309
2337,00:00:09.348,-0.00244452292099595
2338,00:00:09.352,-0.01823375117965042
2339,00:00:09.356,-0.0031257278751581894
2340,00:00:09.36,0.01035607373341918
2341,00:00:09.364,0.010949550196528442
2342,00:00:09.368,0.021992694120854108
2343,00:00:09.372,-0.003966432763263581
2344,00:00:09.376,-0.03727542434353377
2345,00:00:09.38,-0.00554041378200054
2346,00:00:09.384,0.005637719790684052
2347,00:00:09.388,0.01179107069037855
2348,00:00:09.392,0.010191151406615941
2349,00:00:09.396,0.01467852271161978
2350,00:00:09.4,-0.00512843848264311
2351,00:00:09.404,-0.022815333679318442
2352,00:00:09.408,-0.006388445268385112
2353,00:00:09.412,0.012610422389116142
2354,00:00:09.416,0.003814720723312342
2355,00:00:09.42,-0.00287541816942393
2356,00:00:09.424,0.0019438043236732518
2357,00:00:09.428,0.00437448429875076
2358,00:00:09.432,-0.009826246881857511
2359,00:00:09.436,-0.007603331468999381
2360,00:00:09.44,-0.0005373142194002845
2361,00:00:09.444,0.010865931631997228
2362,00:00:09.448,0.012364774360321455
2363,00:00:09.452,0.010047581294202244
2364,00:00:09.456,-0.016452736395876823
2365,00:00:09.46,-0.02320553502067924
2366,00:00:09.464,0.009759539971128101
2367,00:00:09.468,0.002867505478207022
2368,00:00:09.472,-0.0011064902646467098
2369,00:00:09.476,0.00937145634088666
2370,00:00:09.48,0.0035108516749460246
2371,00:00:09.484,-0.0009330617031082502
2372,00:00:09.488,0.0032523511335966716
2373,00:00:09.492,-0.006712649250403049
2374,00:00:09.496,-0.01055376906879246
2375,00:00:09.5,0.010018850909546025
2376,00:00:09.504,-0.005159992200788117
2377,00:00:09.508,-0.011486685136333111
2378,00:00:09.512,0.01388522970955819
2379,00:00:09.516,0.019332416355609876
2380,00:00:09.52,-0.01088760548736899
2381,00:00:09.524,-0.01024309010244906
2382,00:00:09.528,-8.589937351643996e-05
2383,00:00:09.532,-0.0027538830763660354
2384,00:00:09.536,0.004542491398751729
2385,00:00:09.54,0.0011280260514467968
2386,00:00:09.544,-0.00819909083656968
2387,00:00:09.548,-0.00042523867523414126
2388,00:00:09.552,0.0062112465966492805
2389,00:00:09.556,0.011094008805230258
2390,00:00:09.56,0.01618362637236714
2391,00:00:09.564,-0.0114273231010884
2392,00:00:09.568,-0.01629103068262337
2393,00:00:09.572,-0.01980395545251666
2394,00:00:09.576,0.0032753573905210994
2395,00:00:09.58,0.01741141267120838
2396,00:00:09.584,0.01005541160702705
2397,00:00:09.588,0.012381953652948148
2398,00:00:09.592,-0.00902561633847654
2399,00:00:09.596,-0.014960124506615154
2400,00:00:09.6,-0.007732740603387361
2401,00:00:09.604,-0.0073577322145865695
2402,00:00:09.608,0.0073356288485229
2403,00:00:09.612,0.014118285733275112
2404,00:00:09.616,0.014821999706327919
2405,00:00:09.62,0.004839673929382116
2406,00:00:09.624,-0.013531972304917922
2407,00:00:09.628,-0.014439567807130523
2408,00:00:09.632,-0.006971522234380249
2409,00:00:09.636,-0.0072142103745136445
2410,00:00:09.64,0.00307676053489558
2411,00:00:09.644,0.01396028557792306
2412,00:00:09.648,0.03065745579078802
2413,00:00:09.652,0.013458939152769689
2414,00:00:09.656,-0.03913510660640895
2415,00:00:09.66,-0.03506038151681421
2416,00:00:09.664,0.0005274491850286696
2417,00:00:09.668,0.01665473706088962
2418,00:00:09.672,0.02124362555332482
2419,00:00:09.676,0.01579457335174084
2420,00:00:09.68,0.0041134178172796895
2421,00:00:09.684,-0.014538680406985801
2422,00:00:09.688,-0.01741716376272965
2423,00:00:09.692,-0.0036098762648180105
2424,00:00:09.696,-0.003839312063064419
2425,00:00:09.7,0.0016012280248105595
2426,00:00:09.704,0.01604747038800266
2427,00:00:09.708,0.012863301206380129
2428,00:00:09.712,-0.007675793109228838
2429,00:00:09.716,-0.022917608963325665
2430,00:00:09.72,-0.00202195066958665
2431,00:00:09.724,0.026216316502541293
2432,00:00:09.728,0.023898232728242867
2433,00:00:09.732,-0.02488120645284653
2434,00:00:09.736,-0.03683897899463776
2435,00:00:09.74,0.00636962335556745
2436,00:00:09.744,0.004311741682613496
2437,00:00:09.748,0.01721991109661758
2438,00:00:09.752,0.022636249690549434
2439,00:00:09.756,-0.0014945035218261282
2440,00:00:09.76,-0.017316220910288373
2441,00:00:09.764,-0.013122367672622209
2442,00:00:09.768,-0.00536448135972024
2443,00:00:09.772,-0.00017209455836564503
2444,00:00:09.776,0.009843574021942919
2445,00:00:09.78,0.009707947261631478
2446,00:00:09.784,0.00855504255741835
2447,00:00:09.788,0.013596156379207969
2448,00:00:09.792,-0.01897061895579099
2449,00:00:09.796,-0.0273483721539378
2450,00:00:09.8,-0.005341469834093002
2451,00:00:09.804,0.016567337268497788
2452,00:00:09.808,0.010343439411371927
2453,00:00:09.812,0.010853635496459898
2454,00:00:09.816,0.0002422128527541648
2455,00:00:09.82,-0.01150662219151851
2456,00:00:09.824,-0.00858280505053699
2457,00:00:09.828,0.00029628071933985494
2458,00:00:09.832,-0.002999449090566483
2459,00:00:09.836,0.0047161669936031094
2460,00:00:09.84,0.004092248389497389
2461,00:00:09.844,0.0056135884951799995
2462,00:00:09.848,0.001819549477659166
2463,00:00:09.852,0.0021963799663353694
2464,00:00:09.856,-0.0053776401327923
2465,00:00:09.86,-0.003997406223788861
2466,00:00:09.864,0.005270910711260514
2467,00:00:09.868,-0.017474330030381676
2468,00:00:09.872,-0.008481998665956789
2469,00:00:09.876,0.015308481393731223
2470,00:00:09.88,0.013931129593402139
2471,00:00:09.884,0.00223323050886392
2472,00:00:09.888,0.004465946520213041
2473,00:00:09.892,0.0014646539057139268
2474,00:00:09.896,-0.0302215819247067
2475,00:00:09.9,-0.0053569932933896815
2476,00:00:09.904,-0.0004207963356748206
2477,00:00:09.908,0.01630173483863473
2478,00:00:09.912,0.01734924409538507
2479,00:00:09.916,0.005889966880204158
2480,00:00:09.92,-0.011229630850721152
2481,00:00:09.924,-0.014119538012892011
2482,00:00:09.928,0.0023872882593423198
2483,00:00:09.932,-0.0015004158485680797
2484,00:00:09.936,-0.006660383442067541
2485,00:00:09.94,0.005302208130160575
2486,00:00:09.944,-0.0032696886046323886
2487,00:00:09.948,0.02003867994062601
2488,00:00:09.952,0.01265508413780481
2489,00:00:09.956,-0.01216509856749327
2490,00:00:09.96,-0.03004148264881225
2491,00:00:09.964,-0.00903460034169256
2492,00:00:09.968,0.02148709287575913
2493,00:00:09.972,0.034598544472828494
2494,00:00:09.976,-0.015407665516249839
2495,00:00:09.98,-0.02953910874202843
2496,00:00:09.984,0.01909684878773987
2497,00:00:09.988,0.008410323411226269
2498,00:00:09.992,-0.022422089241445068
2499,00:00:09.996,-0.005223400468821641
2500,00:00:10,0.007677844725549218
2501,00:00:10.004,0.03368136682547626
2502,00:00:10.008,-0.002328701724763958
2503,00:00:10.012,-0.020668868324719352
2504,00:00:10.016,-0.02516109379939736
2505,00:00:10.02,-0.0031232465989887697
2506,00:00:10.024,0.02822975463641341
2507,00:00:10.028,0.015475987107493
2508,00:00:10.032,-0.0028165087569504994
2509,00:00:10.036,-0.011773413687478746
2510,00:00:10.04,-0.00846169795840978
2511,00:00:10.044,-0.0019662129925563897
2512,00:00:10.048,-0.0035113969352096397
2513,00:00:10.052,0.007964414573507383
2514,00:00:10.056,0.00782684865407646
2515,00:00:10.06,0.005102525581605734
2516,00:00:10.064,0.0006548916571773584
2517,00:00:10.068,-0.00505678285844624
2518,00:00:10.072,-0.002375343392486682
2519,00:00:10.076,-0.006090522088925353
2520,00:00:10.08,-0.01006800867617132
2521,00:00:10.084,-0.00437116483226418
2522,00:00:10.088,0.0030607808730565007
2523,00:00:10.092,0.03215418895706537
2524,00:00:10.096,0.01869294862262905
2525,00:00:10.1,-0.03249056905042378
2526,00:00:10.104,-0.024331750813871615
2527,00:00:10.108,0.0017096375813707705
2528,00:00:10.112,0.010053560628875854
2529,00:00:10.116,0.015139803232159457
2530,00:00:10.12,0.02118906518444414
2531,00:00:10.124,-0.007976215798407791
2532,00:00:10.128,-0.03446313284803186
2533,00:00:10.132,-0.0018782555125653744
2534,00:00:10.136,-0.0012993046548217398
2535,00:00:10.14,-0.0022835868876427403
2536,00:00:10.144,0.025693221017718322
2537,00:00:10.148,0.027005527867004296
2538,00:00:10.152,0.010532464191783227
2539,00:00:10.156,-0.03266899846494195
2540,00:00:10.16,-0.0478128562681377
2541,00:00:10.164,0.006354414392262702
2542,00:00:10.168,0.020158654311671822
2543,00:00:10.172,0.00893528014421464
2544,00:00:10.176,0.00282194023020565
2545,00:00:10.18,0.0291691231541335
2546,00:00:10.184,0.00699479412287474
2547,00:00:10.188,-0.03006066102534525
2548,00:00:10.192,-0.03540128655731672
2549,00:00:10.196,-0.0030638471362181073
2550,00:00:10.2,0.01787763251923025
2551,00:00:10.204,0.016446647990960607
2552,00:00:10.208,0.015481534413993357
2553,00:00:10.212,0.005433821643237022
2554,00:00:10.216,-0.01102023950079456
2555,00:00:10.22,-0.030937193310819528
2556,00:00:10.224,-0.0014218350406736188
2557,00:00:10.228,0.02189541887491942
2558,00:00:10.232,0.020562276011332873
2559,00:00:10.236,-0.01600347552448511
2560,00:00:10.24,-0.01389384688809514
2561,00:00:10.244,-0.00446158926933999
2562,00:00:10.248,-0.007082144264131779
2563,00:00:10.252,0.0015527491923421595
2564,00:00:10.256,0.022866183426231125
2565,00:00:10.26,0.030722176656126948
2566,00:00:10.264,-0.012324199822614897
2567,00:00:10.268,-0.02055016848316886
2568,00:00:10.272,-0.027430021204054387
2569,00:00:10.276,0.0011855012271553326
2570,00:00:10.28,0.011507042683660991
2571,00:00:10.284,0.0171617039013654
2572,00:00:10.288,0.03095471160486347
2573,00:00:10.292,-0.02992976224049923
2574,00:00:10.296,-0.02130019487231044
2575,00:00:10.3,-0.0018349229358136602
2576,00:00:10.304,0.001750025316141544
2577,00:00:10.308,0.0025424443883821386
2578,00:00:10.312,0.03449056716635828
2579,00:00:10.316,0.011532525008078666
2580,00:00:10.32,-0.02776330418419095
2581,00:00:10.324,-0.028625066042877748
2582,00:00:10.328,-0.007171178338467147
2583,00:00:10.332,0.01894166192505513
2584,00:00:10.336,0.04572095442563298
2585,00:00:10.34,-0.007422734168358152
2586,00:00:10.344,-0.03175337566062815
2587,00:00:10.348,-0.02432005759328602
2588,00:00:10.352,0.009292098635341967
2589,00:00:10.356,0.004670281719882041
2590,00:00:10.36,0.02119622775353487
2591,00:00:10.364,0.02660756220575418
2592,00:00:10.368,-0.00909062486607581
2593,00:00:10.372,-0.02674747002311054
2594,00:00:10.376,-0.015867155016167093
2595,00:00:10.38,-0.00423456286080182
2596,00:00:10.384,0.017424850026145577
2597,00:00:10.388,0.030447604367509457
2598,00:00:10.392,-0.014539393829181799
2599,00:00:10.396,-0.023925934452563483
2600,00:00:10.4,-0.004853970895055677
2601,00:00:10.404,0.01666225143708289
2602,00:00:10.408,-0.0007203444838523869
2603,00:00:10.412,0.0045528348127845675
2604,00:00:10.416,0.01395021332427859
2605,00:00:10.42,-0.0012495426344685217
2606,00:00:10.424,-0.01629256620071824
2607,00:00:10.428,-0.00622607627883553
2608,00:00:10.432,-0.0042427342850714905
2609,00:00:10.436,0.00472334679216147
2610,00:00:10.44,0.00438447354827076
2611,00:00:10.444,0.001933469902724031
2612,00:00:10.448,-0.004011889337562031
2613,00:00:10.452,0.02839368488639602
2614,00:00:10.456,0.004212596337310974
2615,00:00:10.46,-0.03460500668734311
2616,00:00:10.464,-0.02061052049975842
2617,00:00:10.468,0.004467483959160739
2618,00:00:10.472,0.01532871508970856
2619,00:00:10.476,0.00329830963164568
2620,00:00:10.48,0.017946059881069277
2621,00:00:10.484,0.01718200067989525
2622,00:00:10.488,-0.01182549967779778
2623,00:00:10.492,-0.01942788746964652
2624,00:00:10.496,-0.015238336403854197
2625,00:00:10.5,-0.011098969262093271
2626,00:00:10.504,0.010368729930632987
2627,00:00:10.508,0.021937473298748993
2628,00:00:10.512,0.00047992845065891136
2629,00:00:10.516,-0.00286147266160697
2630,00:00:10.52,0.006978264864301318
2631,00:00:10.524,0.01497545652091503
2632,00:00:10.528,-0.023918766877613996
2633,00:00:10.532,-0.01676951209083199
2634,00:00:10.536,-0.004408207256346939
2635,00:00:10.54,0.0032448983984068
2636,00:00:10.544,0.004794309672433882
2637,00:00:10.548,0.015057975761010284
2638,00:00:10.552,0.039664467796683325
2639,00:00:10.556,0.004944405052810911
2640,00:00:10.56,-0.055926275439560386
2641,00:00:10.564,-0.03234001726377748
2642,00:00:10.568,-0.0019592987955547817
2643,00:00:10.572,0.02359460620209572
2644,00:00:10.576,0.036075749492738424
2645,00:00:10.58,0.02071202080696821
2646,00:00:10.584,-0.01775271352380514
2647,00:00:10.588,-0.01825482037384058
2648,00:00:10.592,-0.01399875304196029
2649,00:00:10.596,-0.01582287810742856
2650,00:00:10.6,0.01463806780520828
2651,00:00:10.604,0.0132134787272662
2652,00:00:10.608,0.010326953255571425
2653,00:00:10.612,0.01450582104735077
2654,00:00:10.616,-0.014107659691944673
2655,00:00:10.62,-0.01191037287935615
2656,00:00:10.624,-0.01125736860558391
2657,00:00:10.628,-0.005768597591668369
2658,00:00:10.632,0.005607408238574861
2659,00:00:10.636,0.0065677386446623106
2660,00:00:10.64,0.010473375034052879
2661,00:00:10.644,0.02903477707877757
2662,00:00:10.648,-0.003157483995892111
2663,00:00:10.652,-0.029780091717839213
2664,00:00:10.656,-0.02969559421762821
2665,00:00:10.66,-0.0060462796827778185
2666,00:00:10.664,0.004891935037449
2667,00:00:10.668,0.026752369012683647
2668,00:00:10.672,0.06157525372691455
2669,00:00:10.676,0.0005267148371785901
2670,00:00:10.68,-0.0650564163224772
2671,00:00:10.684,-0.03560488228686156
2672,00:00:10.688,0.001826925843488428
2673,00:00:10.692,0.03080140659585594
2674,00:00:10.696,0.01552727306261658
2675,00:00:10.7,-0.0001236476236954405
2676,00:00:10.704,0.0074631752213463205
2677,00:00:10.708,0.009078012779355047
2678,00:00:10.712,-0.005594721820671111
2679,00:00:10.716,-0.01817262684926394
2680,00:00:10.72,-0.012497076793806624
2681,00:00:10.724,-0.00392913725227117
2682,00:00:10.728,0.00356201734393838
2683,00:00:10.732,0.0029962597473058884
2684,00:00:10.736,0.012678818777203539
2685,00:00:10.74,0.019605661742389226
2686,00:00:10.744,0.004153354471782219
2687,00:00:10.748,-0.024303191108629104
2688,00:00:10.752,-0.01054894644767047
2689,00:00:10.756,0.0009873441740637697
2690,00:00:10.76,-0.01264179626014083
2691,00:00:10.764,0.0066722936462610604
2692,00:00:10.768,0.028733704471960657
2693,00:00:10.772,0.01786556257866321
2694,00:00:10.776,-0.015667588450014622
2695,00:00:10.78,-0.01848480175249281
2696,00:00:10.784,-0.0154190172906965
2697,00:00:10.788,-0.012150693917647
2698,00:00:10.792,0.013942555429821321
2699,00:00:10.796,0.016399112646468
2700,00:00:10.8,0.01496631791815161
2701,00:00:10.804,0.0005078265812699136
2702,00:00:10.808,-0.0009987049270421197
2703,00:00:10.812,-0.01003649109043181
2704,00:00:10.816,-0.011989609221927818
2705,00:00:10.82,-0.008998468518257141
2706,00:00:10.824,0.008383111562579865
2707,00:00:10.828,0.00492783670779318
2708,00:00:10.832,0.005798539030365641
2709,00:00:10.836,0.0001669864286668566
2710,00:00:10.84,0.00694469059817493
2711,00:00:10.844,-0.0008759950287640095
2712,00:00:10.848,-0.013142136216629303
2713,00:00:10.852,-0.01989507651887832
2714,00:00:10.856,0.01506460784003138
2715,00:00:10.86,0.028272236819248085
2716,00:00:10.864,-0.006502791307866577
2717,00:00:10.868,-0.02399959833201138
2718,00:00:10.872,-0.008743177750147877
2719,00:00:10.876,0.019557464285753712
2720,00:00:10.88,0.0154089396819472
2721,00:00:10.884,0.002241106936708087
2722,00:00:10.888,-0.021865902235731458
2723,00:00:10.892,-0.00622393377125263
2724,00:00:10.896,-0.0038889962597750136
2725,00:00:10.9,0.006850883830338719
2726,00:00:10.904,0.01505391695536675
2727,00:00:10.908,0.0014647144125774503
2728,00:00:10.912,-0.01055014441953972
2729,00:00:10.916,0.005250124529993622
2730,00:00:10.92,-0.003863304038532071
2731,00:00:10.924,-0.0031973284203559113
2732,00:00:10.928,0.00813892565201968
2733,00:00:10.932,0.00016436459554825295
2734,00:00:10.936,-0.00834334881801624
2735,00:00:10.94,-0.01060395129024983
2736,00:00:10.944,0.009308685548603538
2737,00:00:10.948,0.01336623914539814
2738,00:00:10.952,-0.005266685369861076
2739,00:00:10.956,-0.008044157060794529
2740,00:00:10.96,-0.003772338619455699
2741,00:00:10.964,0.007434772851411257
2742,00:00:10.968,0.0020461815875023586
2743,00:00:10.972,0.019742461736314026
2744,00:00:10.976,0.007697481720242649
2745,00:00:10.98,-0.0303508047945798
2746,00:00:10.984,-0.036260341061279136
2747,00:00:10.988,-0.0004222467541694589
2748,00:00:10.992,0.032854438759386484
2749,00:00:10.996,0.0333227281225845
2750,00:00:11,0.00388856162317097
2751,00:00:11.004,-0.01726688673807076
2752,00:00:11.008,-0.02701190277002751
2753,00:00:11.012,-0.014495634939521551
2754,00:00:11.016,0.016413897974416572
2755,00:00:11.02,0.012397602666169402
2756,00:00:11.024,0.010212866938672953
2757,00:00:11.028,0.00038326357025653015
2758,00:00:11.032,-0.0021827294258400694
2759,00:00:11.036,-0.011273231808445439
2760,00:00:11.04,-0.01596530876122415
2761,00:00:11.044,0.0008317544125020482
2762,00:00:11.048,0.016347896074876186
2763,00:00:11.052,0.006417145952582359
2764,00:00:11.056,-0.0017566708847880303
2765,00:00:11.06,-0.0027356415812391814
2766,00:00:11.064,0.00880318709823768
2767,00:00:11.068,0.012548246915684971
2768,00:00:11.072,-0.025631454307585944
2769,00:00:11.076,-0.022699171211570487
2770,00:00:11.08,-0.007236420235130943
2771,00:00:11.084,0.0198069845791906
2772,00:00:11.088,0.02498443238437172
2773,00:00:11.092,0.0016458441969007301
2774,00:00:11.096,0.00701852247584611
2775,00:00:11.1,0.007528237823862584
2776,00:00:11.104,-0.026493144454434486
2777,00:00:11.108,-0.027570720762014368
2778,00:00:11.112,-0.00479062052909285
2779,00:00:11.116,0.01094253535848111
2780,00:00:11.12,0.019381474005058453
2781,00:00:11.124,0.02358082728460427
2782,00:00:11.128,-0.0010345413611503318
2783,00:00:11.132,-0.011068260995671157
2784,00:00:11.136,-0.017323030799161594
2785,00:00:11.14,-0.012786311330273751
2786,00:00:11.144,0.009644552599638697
2787,00:00:11.148,0.010450943605974322
2788,00:00:11.152,-0.008230512321460996
2789,00:00:11.156,-0.008195724920369681
2790,00:00:11.16,0.023960013175383172
2791,00:00:11.164,0.025221574585884782
2792,00:00:11.168,-0.00402166764251888
2793,00:00:11.172,-0.04524310900524142
2794,00:00:11.176,-0.029249594081193226
2795,00:00:11.18,0.012793923611752689
2796,00:00:11.184,0.03275337163358929
2797,00:00:11.188,0.026599768840242222
2798,00:00:11.192,0.0038726672064513003
2799,00:00:11.196,-0.021267045754939273
2800,00:00:11.2,-0.027968858368694872
2801,00:00:11.204,-0.00406401650980115
2802,00:00:11.208,0.01358311146032065
2803,00:00:11.212,0.007922009855974467
2804,00:00:11.216,1.645425800234036e-05
2805,00:00:11.22,0.009060863521881403
2806,00:00:11.224,0.0021819871617481112
2807,00:00:11.228,-0.0070215596351772495
2808,00:00:11.232,-0.007162705122027545
2809,00:00:11.236,-0.009528828028123833
2810,00:00:11.24,0.006574108527274798
2811,00:00:11.244,0.01595774886664003
2812,00:00:11.248,-0.004614892881363592
2813,00:00:11.252,-0.024142149835825
2814,00:00:11.256,0.020486001390963838
2815,00:00:11.26,0.0080635899794288
2816,00:00:11.264,-0.00628302339464426
2817,00:00:11.268,-0.006437614327296619
2818,00:00:11.272,0.004072649753652514
2819,00:00:11.276,0.01006963464897126
2820,00:00:11.28,-0.013917634147219363
2821,00:00:11.284,-0.011883909100106399
2822,00:00:11.288,-0.0017459436785429662
2823,00:00:11.292,0.010247101075947292
2824,00:00:11.296,0.012588443642016504
2825,00:00:11.3,0.000884585198946295
2826,00:00:11.304,0.00140487449243665
2827,00:00:11.308,-0.0006300225213635674
2828,00:00:11.312,-0.008995092241093511
2829,00:00:11.316,-0.010055050195660439
2830,00:00:11.32,0.0035954886116087506
2831,00:00:11.324,0.00855017104186118
2832,00:00:11.328,0.004209014337902772
2833,00:00:11.332,-0.0029885486001148833
2834,00:00:11.336,-0.005581511650234461
2835,00:00:11.34,-0.001685685070697221
2836,00:00:11.344,0.016389073338359608
2837,00:00:11.348,0.00571716472040862
2838,00:00:11.352,-0.02113390131853518
2839,00:00:11.356,-0.02624447271227834
2840,00:00:11.36,0.004086524015292522
2841,00:00:11.364,0.018660862464457747
2842,00:00:11.368,0.03785587567836044
2843,00:00:11.372,0.008312232326716188
2844,00:00:11.376,-0.03863279055804014
2845,00:00:11.38,-0.02784207186778072
2846,00:00:11.384,0.00526179825828876
2847,00:00:11.388,0.022431849036365702
2848,00:00:11.392,0.013333285343833219
2849,00:00:11.396,0.004159380681812772
2850,00:00:11.4,-0.01993610081262887
2851,00:00:11.404,-0.01610968331806362
2852,00:00:11.408,0.009369319770485161
2853,00:00:11.412,0.03064036229625346
2854,00:00:11.416,-0.010139537102077158
2855,00:00:11.42,-0.02000755490735171
2856,00:00:11.424,-0.016174273332580917
2857,00:00:11.428,0.012507803563494242
2858,00:00:11.432,0.0348636007402092
2859,00:00:11.436,-0.0031586596742272403
2860,00:00:11.44,-0.02347676019417123
2861,00:00:11.444,-0.01248890301212666
2862,00:00:11.448,0.008518849266693
2863,00:00:11.452,0.003816609969362619
2864,00:00:11.456,0.022811688715592
2865,00:00:11.46,-0.0059622717089950995
2866,00:00:11.464,-0.023301911074668207
2867,00:00:11.468,0.003429492702707651
2868,00:00:11.472,0.01113640528637916
2869,00:00:11.476,-0.01548232731875032
2870,00:00:11.48,0.005421490233857181
2871,00:00:11.484,0.0022152947494760104
2872,00:00:11.488,0.01003305357880891
2873,00:00:11.492,0.01237337390193716
2874,00:00:11.496,-0.006644207809586072
2875,00:00:11.5,-0.024688955862075132
2876,00:00:11.504,-0.005065903587819772
2877,00:00:11.508,0.0012816261732950828
2878,00:00:11.512,0.0225737928412855
2879,00:00:11.516,0.01618171809241176
2880,00:00:11.52,-0.010911221383139491
2881,00:00:11.524,-0.00975051615387201
2882,00:00:11.528,-0.01094588567502796
2883,00:00:11.532,-0.002676653210073705
2884,00:00:11.536,0.010560516384430228
2885,00:00:11.54,0.0005993667436996536
2886,00:00:11.544,-0.00019340729340910998
2887,00:00:11.548,0.0008880143723217697
2888,00:00:11.552,-0.0028979883063584492
2889,00:00:11.556,0.00672844902146607
2890,00:00:11.56,0.00115826027467847
2891,00:00:11.564,0.008353577635716654
2892,00:00:11.568,-0.00636076345108449
2893,00:00:11.572,-0.01801569503732023
2894,00:00:11.576,-0.002198204048909246
2895,00:00:11.58,0.0018435395322740102
2896,00:00:11.584,0.01117254653945565
2897,00:00:11.588,0.009763841517269611
2898,00:00:11.592,-0.002996872761286799
2899,00:00:11.596,-0.013546814559958872
2900,00:00:11.6,0.012999702477827672
2901,00:00:11.604,-0.012249347637407482
2902,00:00:11.608,0.0154889712575823
2903,00:00:11.612,0.006045928224921229
2904,00:00:11.616,-0.019135989015921923
2905,00:00:11.62,-0.01376759470440448
2906,00:00:11.624,0.007658116286620498
2907,00:00:11.628,0.012820231728255738
2908,00:00:11.632,-0.0002477472298778615
2909,00:00:11.636,0.0023673586547374704
2910,00:00:11.64,0.00810088089201599
2911,00:00:11.644,-0.00833040848374367
2912,00:00:11.648,-0.01972021558322009
2913,00:00:11.652,-0.00034322589635848826
2914,00:00:11.656,0.00935055548325181
2915,00:00:11.66,0.013755967811448505
2916,00:00:11.664,0.013284154934808619
2917,00:00:11.668,-0.011520702508278191
2918,00:00:11.672,-0.011548446142114699
2919,00:00:11.676,-0.0125364747364074
2920,00:00:11.68,0.0035086046591459334
2921,00:00:11.684,0.004075576769537296
2922,00:00:11.688,0.0019010804826393802
2923,00:00:11.692,0.01116281014401465
2924,00:00:11.696,0.01171244075521822
2925,00:00:11.7,0.0023072289186529737
2926,00:00:11.704,-0.018740698113106184
2927,00:00:11.708,-0.0183371782768518
2928,00:00:11.712,-0.0007066889666020922
2929,00:00:11.716,0.004903605557046823
2930,00:00:11.72,0.0139965966809541
2931,00:00:11.724,0.013197759864851829
2932,00:00:11.728,-0.00104201131034642
2933,00:00:11.732,-0.007832989969756454
2934,00:00:11.736,-0.00564252235926687
2935,00:00:11.74,-0.0038361868355423208
2936,00:00:11.744,-0.00760890205856413
2937,00:00:11.748,0.00470215556561015
2938,00:00:11.752,0.0027052445802837697
2939,00:00:11.756,0.0038873688317835344
2940,00:00:11.76,0.00973726704251022
2941,00:00:11.764,0.0018288972205482358
2942,00:00:11.768,-0.007350690837483862
2943,00:00:11.772,-0.00716705969534814
2944,00:00:11.776,-0.011372680542990558
2945,00:00:11.78,0.00466994126327335
2946,00:00:11.784,0.021720515564084008
2947,00:00:11.788,0.00717868862557225
2948,00:00:11.792,-0.0159966757055372
2949,00:00:11.796,-0.01923015713691711
2950,00:00:11.8,-0.0009444494389754263
2951,00:00:11.804,0.01794571033678949
2952,00:00:11.808,0.000650026340736076
2953,00:00:11.812,-0.000866457819938651
2954,00:00:11.816,0.00496641139034182
2955,00:00:11.82,0.00783872604370116
2956,00:00:11.824,-8.11461650300771e-05
2957,00:00:11.828,-0.0064518980216234905
2958,00:00:11.832,-0.02419347083196045
2959,00:00:11.836,-0.0055579928448423795
2960,00:00:11.84,0.013606226741103417
2961,00:00:11.844,0.00549675046931953
2962,00:00:11.848,0.005794578464701769
2963,00:00:11.852,0.01727524702437223
2964,00:00:11.856,0.0023139994591474594
2965,00:00:11.86,-0.01081254554446787
2966,00:00:11.864,-0.02611112501472239
2967,00:00:11.868,0.0033282808726653457
2968,00:00:11.872,0.00877981632947922
2969,00:00:11.876,-0.005076255882158882
2970,00:00:11.88,0.00023159396369010037
2971,00:00:11.884,0.01833096193149685
2972,00:00:11.888,0.005009367378079332
2973,00:00:11.892,-0.016423549037426658
2974,00:00:11.896,-0.00779791548848152
2975,00:00:11.9,0.007478023304429372
2976,00:00:11.904,-0.00043628439016174525
2977,00:00:11.908,-0.00407487689517439
2978,00:00:11.912,0.0076376455835998
2979,00:00:11.916,0.015596548328176118
2980,00:00:11.92,0.00021962850587442084
2981,00:00:11.924,-0.01553569175302984
2982,00:00:11.928,-0.023105890955775973
2983,00:00:11.932,-0.0019164747500326484
2984,00:00:11.936,0.011915275594219569
2985,00:00:11.94,0.02020682324655355
2986,00:00:11.944,0.00230722723063081
2987,00:00:11.948,-0.004233156534610316
2988,00:00:11.952,-0.0007547581917606307
2989,00:00:11.956,-0.004983957624062894
2990,00:00:11.96,0.006247000128496435
2991,00:00:11.964,-0.0112699018791318
2992,00:00:11.968,-0.017633308423683037
2993,00:00:11.972,0.0047114165499806395
2994,00:00:11.976,0.04079010838177054
2995,00:00:11.98,0.00859357882291079
2996,00:00:11.984,-0.03075743035878978
2997,00:00:11.988,-0.033005027798935826
2998,00:00:11.992,-0.001302929500525354
2999,00:00:11.996,0.02669448312371966
3000,00:00:12,0.022851590649224863
3001,00:00:12.004,0.00304600514937191
3002,00:00:12.008,-0.014789907290833048
3003,00:00:12.012,-0.00285879103466868
3004,00:00:12.016,0.002076090197078889
3005,00:00:12.02,-0.014910062425769859
3006,00:00:12.024,0.0006335598300211123
3007,00:00:12.028,0.0016988668940030038
3008,00:00:12.032,0.0028281371342018303
3009,00:00:12.036,0.017577964230440564
3010,00:00:12.04,0.005058486596681171
3011,00:00:12.044,-0.01587236626073719
3012,00:00:12.048,-0.01391777349635959
3013,00:00:12.052,-0.0017838760977611002
3014,00:00:12.056,0.008894193917512894
3015,00:00:12.06,0.012704601278528571
3016,00:00:12.064,0.0038524296978721425
3017,00:00:12.068,-0.01038956083357335
3018,00:00:12.072,-0.009228980401530865
3019,00:00:12.076,0.0161025528486789
3020,00:00:12.08,-0.00016990522271953398
3021,00:00:12.084,-0.0171764858532697
3022,00:00:12.088,-0.004450498148798941
3023,00:00:12.092,0.007811012445017701
3024,00:00:12.096,0.0066281463950872395
3025,00:00:12.1,0.010425094573292885
3026,00:00:12.104,-0.0007614589994773245
3027,00:00:12.108,-0.012451433343812782
3028,00:00:12.112,0.003939003334380681
3029,00:00:12.116,0.008275127736851578
3030,00:00:12.12,-0.020704101043520468
3031,00:00:12.124,-0.0010350433876737892
3032,00:00:12.128,0.0004528420249698683
3033,00:00:12.132,0.014605454460252073
3034,00:00:12.136,0.012318155728280569
3035,00:00:12.14,-0.01570751378312707
3036,00:00:12.144,-0.00197873450815678
3037,00:00:12.148,0.003530687186867
3038,00:00:12.152,0.00111595587804913
3039,00:00:12.156,-0.001620935945538803
3040,00:00:12.16,-0.008579896530136459
3041,00:00:12.164,0.00034910407703137036
3042,00:00:12.168,0.00472329967305996
3043,00:00:12.172,-0.007846500491723422
3044,00:00:12.176,0.011919181717530591
3045,00:00:12.18,0.03213759476784618
3046,00:00:12.184,-0.006474851630628113
3047,00:00:12.188,-0.03510920254666415
3048,00:00:12.192,-0.028112893458455784
3049,00:00:12.196,0.01023391401395202
3050,00:00:12.2,0.0212134325411171
3051,00:00:12.204,0.015534484933596108
3052,00:00:12.208,0.00861107325181365
3053,00:00:12.212,-0.010252142499666664
3054,00:00:12.216,-0.002589426585473116
3055,00:00:12.22,-0.0066392219159752104
3056,00:00:12.224,-0.009683060459792621
3057,00:00:12.228,-0.004131210182094944
3058,00:00:12.232,0.016972637502476608
3059,00:00:12.236,-0.0037665070267394293
3060,00:00:12.24,-0.0035685680340975566
3061,00:00:12.244,0.0051482138223946095
3062,00:00:12.248,0.001557179202791303
3063,00:00:12.252,-0.000285283429548144
3064,00:00:12.256,0.0010457168100401805
3065,00:00:12.26,-0.0071709488984197396
3066,00:00:12.264,0.005790389550384138
3067,00:00:12.268,-0.005212566000409423
3068,00:00:12.272,0.0019703300204128096
3069,00:00:12.276,0.01288401335477829
3070,00:00:12.28,-0.00906351977027952
3071,00:00:12.284,-0.004778943490237
3072,00:00:12.288,-0.0040323871071450395
3073,00:00:12.292,-0.0020190300419926704
3074,00:00:12.296,-0.0013305037282407301
3075,00:00:12.3,0.0067705374676734105
3076,00:00:12.304,0.006967335473746062
3077,00:00:12.308,0.003102584509179
3078,00:00:12.312,0.0218293012585491
3079,00:00:12.316,-0.01871268940158188
3080,00:00:12.32,-0.02513125725090503
3081,00:00:12.324,-0.008645526657346641
3082,00:00:12.328,0.00898510066326708
3083,00:00:12.332,0.010901302797719841
3084,00:00:12.336,0.004402018705150109
3085,00:00:12.34,0.0033353018225170646
3086,00:00:12.344,0.01437401212751865
3087,00:00:12.348,-0.003751351396203972
3088,00:00:12.352,-0.01967340847477317
3089,00:00:12.356,-0.01012743951287121
3090,00:00:12.36,0.01273699954617769
3091,00:00:12.364,0.009085898753255611
3092,00:00:12.368,-0.00395348074380308
3093,00:00:12.372,-0.005229922477155922
3094,00:00:12.376,-0.010454208415467294
3095,00:00:12.38,0.008837607980240138
3096,00:00:12.384,0.01095224171876904
3097,00:00:12.388,-0.001333574065938588
3098,00:00:12.392,-0.006308733951300379
3099,00:00:12.396,0.011469569057226181
3100,00:00:12.4,-0.008887695614248509
3101,00:00:12.404,-0.012953901950425027
