Elapsed Time,EMG1,EMG2,EMG3,BioRadio Event,
00:00:00,0.0934101045131683,-0.477429419755936,0.701613664627075,0,
00:00:00.004,-0.0951168462634087,0.448096811771393,-0.663507401943207,0,
00:00:00.008,-0.0638144090771675,0.37736850976944,-0.556885361671448,0,
00:00:00.012,-0.00699124624952674,0.0640256181359291,-0.0630226209759712,0,
00:00:00.016,0.0372458882629871,-0.208526879549026,0.280873030424118,0,
00:00:00.02,0.0289311986416578,-0.248606771230698,0.349282115697861,0,
00:00:00.024,0.0413394123315811,-0.133082091808319,0.218027919530869,0,
00:00:00.028,0.0157905090600252,-0.0133001646026969,0.0251423045992851,0,
00:00:00.032,-0.0198334399610758,0.0715615823864937,-0.109601020812988,0,
00:00:00.036,-0.0266430620104074,0.076856829226017,-0.123379290103912,0,
00:00:00.04,-0.0173623878508806,0.0680380612611771,-0.103497035801411,0,
00:00:00.044,5.95605997659732E-05,0.0327254682779312,-0.0447706654667854,0,
00:00:00.048,0.00141020421870053,-0.0137916076928377,0.0147310178726912,0,
00:00:00.052,-0.00729769328609109,-0.03087835945189,0.0437478050589561,0,
00:00:00.056,0.00554484128952026,-0.0108245741575956,0.0410796105861664,0,
00:00:00.06,0.0404248312115669,0.0133705595508218,0.0168431978672743,0,
00:00:00.064,0.0210307538509369,-0.00615634303539991,-0.00471651228144765,0,
00:00:00.068,-0.040605578571558,-0.0291851460933685,-0.0101496931165457,0,
00:00:00.072,-0.0391160547733307,-0.0220265351235867,-0.0167890563607216,0,
00:00:00.076,-0.00458511663600802,0.0124350264668465,-0.00292335054837167,0,
00:00:00.08,0.0239589232951403,0.0315603725612164,0.00515853380784392,0,
00:00:00.084,0.0177326872944832,0.00967211090028286,0.00415098993107677,0,
00:00:00.088,0.0186689551919699,0.0116790346801281,0.00100118131376803,0,
00:00:00.092,-0.0020533602219075,0.00633238721638918,-0.00324900727719069,0,
00:00:00.096,-0.0112642338499427,-0.0134302144870162,-0.00177903030999005,0,
00:00:00.1,-0.0215499252080917,-0.0250814333558083,0.00257657747715712,0,
00:00:00.104,-0.010855189524591,-0.0128453951328993,-0.000346888351486996,0,
00:00:00.108,0.00891143176704645,0.000236870502703823,0.00188289885409176,0,
00:00:00.112,0.0145657025277615,0.0021358928643167,-0.00363280391320586,0,
00:00:00.116,0.00361597957089543,0.0179486777633429,0.00301044131629169,0,
00:00:00.12,-0.000638968253042549,0.0222542732954025,0.00192167365457863,0,
00:00:00.124,0.000178826201590709,0.00586482184007764,-0.000547073839697987,0,
00:00:00.128,0.00037863478064537,-0.0131358429789543,-0.00597763480618596,0,
00:00:00.132,-0.00260565523058176,-0.0185084417462349,0.000249112781602889,0,
00:00:00.136,-0.00996227562427521,-0.022439680993557,0.0046113645657897,0,
00:00:00.14,-0.0028802256565541,-0.00632079876959324,0.000230421690503135,0,
00:00:00.144,0.0103599093854427,0.0363873839378357,0.00126402440946549,0,
00:00:00.148,0.0107710566371679,0.0378443114459515,0.00366436713375151,0,
00:00:00.152,-0.00211067800410092,-0.0143220135942101,-0.00977938808500767,0,
00:00:00.156,-0.0136004239320755,-0.0302951671183109,-0.00506454752758145,0,
00:00:00.16,-0.000301878462778404,-0.0170863382518291,0.00618648296222091,0,
00:00:00.164,-0.00354847824200988,-0.00369496853090823,0.00348696205765009,0,
00:00:00.168,-0.00254581146873534,0.00623396085575223,-0.00277488911524415,0,
00:00:00.172,0.00702698156237602,0.0205741096287966,0.0162347294390202,0,
00:00:00.176,0.0142703736200929,0.0258695743978024,-0.00123600999359041,0,
00:00:00.18,0.00230980990454555,-0.0127502186223865,-0.0226084012538195,0,
00:00:00.184,0.00296387821435928,-0.0148952025920153,-0.0185116920620203,0,
00:00:00.188,-0.0190792884677649,-0.0102537106722593,0.0192976910620928,0,
00:00:00.192,-0.00102121289819479,0.00342621607705951,0.0208086464554071,0,
00:00:00.196,-0.00230102706700563,0.00970039702951908,0.00595381576567888,0,
00:00:00.2,-0.00777234230190516,-0.000804733543191105,-0.0106681622564793,0,
00:00:00.204,0.00456096790730953,-0.00510454131290317,-0.00869897939264774,0,
00:00:00.208,0.00953703187406063,-0.0101382778957486,-0.00455519091337919,0,
00:00:00.212,0.0198873523622751,0.0199397429823875,-0.00451615359634161,0,
00:00:00.216,0.00285477773286402,0.00788603723049164,0.00619185948744416,0,
00:00:00.22,-0.0176916271448135,-0.00707364035770297,-9.9533746833913E-05,0,
00:00:00.224,-0.0230409540235996,-0.0183046720921993,0.00621604826301336,0,
00:00:00.228,-0.000467415666207671,-0.0105434991419315,0.0100525720044971,0,
00:00:00.232,0.0168815907090902,0.0179975759238005,-0.00835645850747824,0,
00:00:00.236,0.00521206902340055,0.0179848056286573,-0.0037700803950429,0,
00:00:00.24,-0.0073686745017767,-0.0229047760367393,0.00433629378676414,0,
00:00:00.244,0.0114104924723506,0.00185316894203424,-0.00864227488636971,0,
00:00:00.248,0.0159662887454033,0.0286228936165571,-0.0109325554221869,0,
00:00:00.252,-0.0134443109855056,-0.00243605184368789,0.00986704416573048,0,
00:00:00.256,-0.0283653866499662,-0.0345591083168983,0.00810460094362497,0,
00:00:00.26,0.004633286036551,-0.00678830500692129,0.00969441421329975,0,
00:00:00.264,0.0138236861675978,0.0108577134087682,-0.00459099002182484,0,
00:00:00.268,-0.000641008897218853,0.0142511809244752,-0.00561089115217328,0,
00:00:00.272,0.00964805576950312,0.00635801395401359,-0.0110500836744905,0,
00:00:00.276,-0.00829009804874659,-0.00591028016060591,-0.00263915886171162,0,
00:00:00.28,-0.00386043195612729,-0.0099441846832633,0.00700864568352699,0,
00:00:00.284,0.000463869277155027,0.00399291049689054,0.00715849874541163,0,
00:00:00.288,0.00445486837998033,0.00857776869088411,0.00529666850343347,0,
00:00:00.292,0.000114731861685868,-0.0113163460046053,-0.000654939387459308,0,
00:00:00.296,0.00120451743714511,0.000743170792702585,-0.000191370854736306,0,
00:00:00.3,0.00360482116229832,0.0181714948266745,-0.0105145154520869,0,
00:00:00.304,0.000517225184012204,0.00303616793826222,-0.00371331814676523,0,
00:00:00.308,-0.0108798127621412,-0.0293286573141813,-0.000759030459448695,0,
00:00:00.312,-0.00604636734351516,-0.0204117055982351,0.00330990389920771,0,
00:00:00.316,-0.000720173004083335,0.0246433336287737,0.00458129262551665,0,
00:00:00.32,-0.00307155540212989,0.010755268856883,0.00318323937244713,0,
00:00:00.324,0.00626684678718448,-0.00225313846021891,0.000772523984778672,0,
00:00:00.328,0.0415604040026665,0.0266064610332251,0.000944105442613363,0,
00:00:00.332,-0.00137083698064089,-0.000528535922057927,-0.00590461678802967,0,
00:00:00.336,-0.0346056632697582,-0.0304316803812981,0.00295769493095577,0,
00:00:00.34,-0.0304406378418207,-0.0277933198958635,-0.00111147377174348,0,
00:00:00.344,0.00313958339393139,-0.00480016646906734,-0.00416538724675775,0,
00:00:00.348,0.0397514589130878,0.0300700142979622,-0.00131773913744837,0,
00:00:00.352,0.000337113277055323,0.0236358884721994,0.00578914815559983,0,
00:00:00.356,-0.00378474779427052,0.00954335182905197,-0.00335781089961529,0,
00:00:00.36,-0.00674475822597742,-0.0122782932594419,-0.00141680473461747,0,
00:00:00.364,-0.0138917453587055,-0.0157389007508755,0.00175803492311388,0,
00:00:00.368,0.0328553915023804,-0.0114981308579445,0.00697255600243807,0,
00:00:00.372,-0.00737843476235867,0.0049501652829349,0.00622666021808982,0,
00:00:00.376,-0.0212586633861065,0.00193703570403159,-0.00682829227298498,0,
00:00:00.38,-0.00449577579274774,0.00245704175904393,-0.0098522063344717,0,
00:00:00.384,0.0053147142753005,0.00270111719146371,-0.00572690228000283,0,
00:00:00.388,0.00142907781992108,-0.00850751623511314,0.0085551543161273,0,
00:00:00.392,0.00695089204236865,2.35833849728806E-05,0.00673199770972133,0,
00:00:00.396,0.0101292300969362,0.0216588098555803,-0.00722636422142386,0,
00:00:00.4,6.18138801655732E-05,0.0144764762371778,-0.0010713079245761,0,
00:00:00.404,0.00540324160829186,-0.0111743966117501,0.00487688928842545,0,
00:00:00.408,-0.0048692375421524,-0.0263811927288771,0.00542224431410432,0,
00:00:00.412,-0.0295143146067858,-0.0229075532406569,0.00223805196583271,0,
00:00:00.416,0.0129283089190722,0.0180003587156534,-0.00767259392887354,0,
00:00:00.42,-0.00255970028229058,0.0266799218952656,-0.00378344696946442,0,
00:00:00.424,-0.00376351061277092,-0.00125479628331959,-0.00503626326099038,0,
00:00:00.428,0.0110073564574122,-0.00554741593077779,0.0048844488337636,0,
00:00:00.432,0.00916753336787224,-0.00300177256576717,0.000724771060049534,0,
00:00:00.436,0.0104283411055803,-0.00872981920838356,0.00565238203853369,0,
00:00:00.44,-0.0237791333347559,-0.00407410459592938,0.00642528617754579,0,
00:00:00.444,0.00215693912468851,0.0164937619119883,-0.0160070713609457,0,
00:00:00.448,0.00327219860628247,0.00164160423446447,0.00537156639620662,0,
00:00:00.452,0.005584757309407,-0.00206837663426995,0.00740373739972711,0,
00:00:00.456,-0.00222265115007758,-0.00212159450165927,-0.00809815526008606,0,
00:00:00.46,-0.00841096229851246,-0.0118027105927467,-0.00523154903203249,0,
00:00:00.464,-0.0112722543999553,-0.0158763006329536,0.00720865791663527,0,
00:00:00.468,0.00653290515765548,0.0148146143183112,0.000484081014292315,0,
00:00:00.472,0.0340819954872131,0.0444040484726429,-0.000781757174991071,0,
00:00:00.476,-0.0122045231983066,-0.0136213386431336,-0.000315244193188846,0,
00:00:00.48,-0.00644739391282201,-0.0150470556691289,0.00437516812235117,0,
00:00:00.484,-0.0126647716388106,-0.016533400863409,-0.00358741753734648,0,
00:00:00.488,-0.0052714073099196,-0.0102038411423564,-0.00724716857075691,0,
00:00:00.492,-0.00336440745741129,-0.00250604748725891,0.00560590950772166,0,
00:00:00.496,0.020741879940033,0.0213869474828243,0.00276576424948871,0,
00:00:00.5,-0.00981883052736521,0.00525371450930834,0.00259709265083075,0,
00:00:00.504,0.0103232702240348,0.0122699262574315,-0.000660813238937408,0,
00:00:00.508,0.0143870264291763,0.0034605220425874,-0.0047110402956605,0,
00:00:00.512,-0.0144873522222042,-0.0142155913636088,-0.000537783780600876,0,
00:00:00.516,-0.0115150902420282,0.000401121709728614,0.00256453966721892,0,
00:00:00.52,-0.0056892647407949,-0.0175714921206236,-0.00981009751558304,0,
00:00:00.524,0.00462760915979743,-0.0047192913480103,0.00236642127856612,0,
00:00:00.528,0.00455229543149471,0.00827548559755087,0.0104624181985855,0,
00:00:00.532,0.00616976153105497,0.00976614747196436,0.00490765180438757,0,
00:00:00.536,0.00239640939980745,0.0075360806658864,-0.00607334077358246,0,
00:00:00.54,0.00272528594359756,-0.00168110942468047,-0.00322594097815454,0,
00:00:00.544,-0.000830531469546258,-0.000392819347325712,-0.00126308435574174,0,
00:00:00.548,-0.0160369426012039,-0.0200830288231373,0.00625904835760593,0,
00:00:00.552,-0.00666993949562311,0.00502072973176837,-0.00318326917476952,0,
00:00:00.556,0.00656211143359542,0.0222777258604765,-0.0040814527310431,0,
00:00:00.56,0.0174393765628338,-0.00833648350089788,-0.00573699409142137,0,
00:00:00.564,-0.0106070442125201,-0.00171552354004234,0.000753738102503121,0,
00:00:00.568,0.0123633705079556,-0.00667846109718084,0.00726017076522112,0,
00:00:00.572,0.0098991934210062,0.00285673490725458,0.00538050848990679,0,
00:00:00.576,-0.0276194885373116,-0.0132292248308659,0.00937383435666561,0,
00:00:00.58,-0.0180703178048134,4.27361965193995E-06,-0.0121121723204851,0,
00:00:00.584,0.00751686003059149,0.0150341205298901,-0.00976028852164745,0,
00:00:00.588,0.0216134656220675,0.00553023535758257,0.00063793477602303,0,
00:00:00.592,0.00539602432399988,-0.00423724530264735,0.00649592094123363,0,
00:00:00.596,0.000264620641246438,0.00535235460847616,0.00401359191164374,0,
00:00:00.6,0.0106767034158111,0.0190394297242165,-0.00610984582453966,0,
00:00:00.604,-0.00215063896030188,-0.00396215263754129,-0.000378429191187024,0,
00:00:00.608,-0.0411793030798435,-0.0571187660098076,0.00861130282282829,0,
00:00:00.612,-0.00979802943766117,-0.0145565327256918,-0.00357900583185256,0,
00:00:00.616,0.0256994180381298,0.0427905917167664,-0.00192514178343117,0,
00:00:00.62,0.0159177128225565,0.0246246177703142,-0.00301870913244784,0,
00:00:00.624,0.00378689263015985,-0.00317741045728326,0.00173101015388966,0,
00:00:00.628,-0.0126161808148026,-0.01438819617033,0.00599480606615543,0,
00:00:00.632,-0.00298922811634839,-0.00998800806701183,-0.00131999352015555,0,
00:00:00.636,0.00552546326071024,0.00861498806625605,-0.00576575938612223,0,
00:00:00.64,0.0043780030682683,0.0252031739801168,-0.00284099229611456,0,
00:00:00.644,0.00226513668894768,-0.00960109569132328,0.000901823048479855,0,
00:00:00.648,-0.0111611625179648,-0.0331203863024712,0.00689380569383502,0,
00:00:00.652,-0.0181090980768204,-0.0149686885997653,-0.00976119469851255,0,
00:00:00.656,0.00126395700499415,0.00912891514599323,0.00782785098999739,0,
00:00:00.66,0.012380488216877,0.0319972038269043,0.00607531750574708,0,
00:00:00.664,0.0248630791902542,0.0102419247850776,-0.00221478519961238,0,
00:00:00.668,0.00451565161347389,-0.00392921175807714,-0.00416444288566709,0,
00:00:00.672,-0.016643175855279,-0.00307821622118354,-0.00280424999073148,0,
00:00:00.676,-0.0183577258139849,-0.0139503795653582,0.00146864121779799,0,
00:00:00.68,0.00991476885974407,-0.0107232704758644,-0.00102093734312803,0,
00:00:00.684,-0.00723948935046792,0.00391277763992548,0.00186113372910768,0,
00:00:00.688,0.00870782975107431,0.0110275484621525,-0.00109204568434507,0,
00:00:00.692,0.00605747569352388,-0.00570150464773178,-0.000429624546086416,0,
00:00:00.696,-0.00437256507575512,0.00569672742858529,0.00272193667478859,0,
00:00:00.7,-0.00611931644380093,0.0116012366488576,-0.000959997472818941,0,
00:00:00.704,0.00533884856849909,-0.0133992368355393,0.00320686749182642,0,
00:00:00.708,-0.0110733015462756,-0.00831753760576248,-0.00608287332579494,0,
00:00:00.712,0.013090992346406,0.00351336412131786,0.00128174235578626,0,
00:00:00.716,0.0065261390991509,-0.00817789882421494,0.00193399912677705,0,
00:00:00.72,-0.00765523128211498,0.0010949345305562,-0.00150508701335639,0,
00:00:00.724,0.00475816940888762,0.0169974938035011,-0.00276536145247519,0,
00:00:00.728,0.00231902883388102,0.0259395893663168,0.00467929290607572,0,
00:00:00.732,-0.021241270005703,-0.0198290031403303,-0.00543608702719212,0,
00:00:00.736,-0.00361081631854177,-0.0191914010792971,0.013569213449955,0,
00:00:00.74,0.0183829721063375,-0.0117180040106177,-0.0038345328066498,0,
00:00:00.744,0.00662274705246091,0.0152461789548397,-0.006579106207937,0,
00:00:00.748,-0.00371343526057899,-0.00318415393121541,-0.00546019757166505,0,
00:00:00.752,-0.013248335570097,-0.0018042791634798,0.0044486871920526,0,
00:00:00.756,0.0135994469746947,0.0197924710810184,0.00207168073393404,0,
00:00:00.76,0.000737068068701774,-7.29636230971664E-05,0.000947275839280337,0,
00:00:00.764,-0.0126567026600242,-0.00438291719183326,0.000248856871621683,0,
00:00:00.768,-0.00244346703402698,-0.0159531328827143,-0.00227554235607386,0,
00:00:00.772,0.00878855679184198,0.0183978620916605,0.00780351599678397,0,
00:00:00.776,0.0104268305003643,-0.00692794192582369,-0.00466363783925772,0,
00:00:00.78,-0.00130093388725072,-0.0101625863462687,-0.0049808225594461,0,
00:00:00.784,-0.00636741844937205,0.00636295787990093,0.000640598242171109,0,
00:00:00.788,-0.0161005407571793,0.00107423507142812,-0.000418123439885676,0,
00:00:00.792,0.00334137724712491,4.81541756016668E-05,0.0029837095644325,0,
00:00:00.796,0.0213084928691387,0.000285417801933363,0.00181167759001255,0,
00:00:00.8,0.00497706886380911,0.00465016439557076,-0.00842317380011082,0,
00:00:00.804,-0.0284676793962717,-0.00771032273769379,0.00878406409174204,0,
00:00:00.808,0.00479893619194627,0.00284372735768557,0.00131906650494784,0,
00:00:00.812,0.00315220444463193,0.000793150975368917,0.00460377428680658,0,
00:00:00.816,0.00374963087961078,0.000120847500511445,-0.00785049702972174,0,
00:00:00.82,0.00315122422762215,-0.00212448392994702,-0.0122300069779158,0,
00:00:00.824,0.0034591993317008,-0.00432822853326797,0.00736599043011665,0,
00:00:00.828,-0.000350856251316145,0.00541593553498387,0.0121827190741897,0,
00:00:00.832,-0.00304212630726397,0.013235891237855,-0.009601722471416,0,
00:00:00.836,-0.00952095445245504,-0.00672728475183249,-0.00567125901579857,0,
00:00:00.84,0.0165069364011288,-0.00844086427241564,0.0146296275779605,0,
00:00:00.844,-0.00910763628780842,0.00681889010593295,0.00846191868185997,0,
00:00:00.848,-0.00628854427486658,-0.00862926431000233,-0.0169359054416418,0,
00:00:00.852,0.00145606615114957,-0.000665433763060719,-0.0110977264121175,0,
00:00:00.856,0.0031891455873847,0.000219256427953951,0.00692694820463657,0,
00:00:00.86,-0.00402180105447769,0.000252251978963614,0.00988425780087709,0,
00:00:00.864,-0.00799303594976664,-0.00965036638081074,-0.00311582302674651,0,
00:00:00.868,0.012020000256598,0.0028604029212147,0.000976176059339195,0,
00:00:00.872,0.0191701631993055,0.0362563244998455,2.95068857667502E-05,0,
00:00:00.876,0.00517798308283091,0.0219751577824354,-0.00132541637867689,0,
00:00:00.88,-0.00594019936397672,-0.0286326203495264,-0.00782256945967674,0,
00:00:00.884,-0.0248941499739885,-0.0379202291369438,0.00499398540705442,0,
00:00:00.888,-0.0136159993708134,-0.0208235923200846,0.0069899670779705,0,
00:00:00.892,-0.0019014049321413,0.0143436603248119,-0.00497735710814595,0,
00:00:00.896,0.0170174147933722,0.0231521166861057,-0.00360157992690802,0,
00:00:00.9,0.0164542868733406,0.020085783675313,0.00452560605481267,0,
00:00:00.904,0.000591894495300949,1.28194897115463E-05,0.000709739979356527,0,
00:00:00.908,-0.00930001121014357,-0.0145137505605817,0.00133493274915963,0,
00:00:00.912,-0.00535505171865225,-0.00670737074688077,-0.00493634538725019,0,
00:00:00.916,0.0106831165030599,0.00828121416270733,-0.000156171779963188,0,
00:00:00.92,0.00570943905040622,-0.006950450129807,0.00764705520123243,0,
00:00:00.924,-0.0234008803963661,0.000386055500712246,-0.000541033979970962,0,
00:00:00.928,-0.00371859758161008,0.00434857932850719,-0.0167404431849718,0,
00:00:00.932,0.0157092064619064,0.00789513066411018,0.0038460548967123,0,
00:00:00.936,0.00751123251393437,-0.00307417986914516,0.010295114479959,0,
00:00:00.94,-0.00299625773914158,-0.0112592680379748,0.00305348192341626,0,
00:00:00.944,-0.00511464010924101,-0.0117966057732701,-0.00126561662182212,0,
00:00:00.948,-0.00945296976715326,-0.000644607353024185,0.00140829640440643,0,
00:00:00.952,0.00332941906526685,0.0140772983431816,-0.00620543956756592,0,
00:00:00.956,0.0164714008569717,0.0243513695895672,-0.00216686585918069,0,
00:00:00.96,0.00220295693725348,0.00424507539719343,-0.00419562263414264,0,
00:00:00.964,-0.0157470814883709,-0.0229791104793549,0.000734680448658764,0,
00:00:00.968,-0.00725791556760669,-0.0107038961723447,0.00627826759591699,0,
00:00:00.972,-0.00499163148924708,-0.0147765604779124,0.00228241994045675,0,
00:00:00.976,-0.00324120256118476,-3.17996746161953E-05,0.00254251970909536,0,
00:00:00.98,0.0321614369750023,0.0259524285793304,0.00374420150183141,0,
00:00:00.984,0.0170045047998428,0.0160819794982672,-0.00850872322916985,0,
00:00:00.988,-0.0200539398938417,0.0036705806851387,-0.00187862501479685,0,
00:00:00.992,-0.0198207050561905,-0.00594191486015916,-0.00426412839442492,0,
00:00:00.996,-0.00497450912371278,-0.0284480825066566,0.00418103998526931,0,
00:00:01,0.0125371217727661,-0.0112865939736366,-0.000537683721631765,0,
00:00:01.004,-0.00916153844445944,0.00753709208220243,0.0067910049110651,0,
00:00:01.008,-0.00162379373796284,0.00644682766869664,5.18562519573607E-05,0,
00:00:01.012,0.0157088935375214,0.0149967214092612,-0.00299372221343219,0,
00:00:01.016,0.0201221108436584,0.00131972413510084,-0.00707081705331802,0,
00:00:01.02,-0.00853630993515253,0.0123468153178692,-0.00152058165986091,0,
00:00:01.024,-0.0212834626436234,-0.00569420028477907,0.00548316165804863,0,
00:00:01.028,-0.00174441724084318,-0.0187400951981544,0.00681821210309863,0,
00:00:01.032,0.00138811743818223,-0.00803386140614748,-0.00261843111366034,0,
00:00:01.036,0.000906189379747957,0.0057501713745296,0.00109966937452555,0,
00:00:01.04,0.00281311850994825,0.00228318944573402,-0.00491827772930264,0,
00:00:01.044,-0.000818143889773637,-0.00350467627868056,-0.0025918441824615,0,
00:00:01.048,-0.000103452963230666,0.000400301709305495,0.000802955764811486,0,
00:00:01.052,0.00960404239594936,0.0103798918426037,0.0107284495607018,0,
00:00:01.056,0.00639814976602793,0.0050273179076612,-0.00164088944438845,0,
00:00:01.06,-0.000404302438255399,0.0210160277783871,-0.00969645567238331,0,
00:00:01.064,-0.00508398236706853,0.000343215389875695,-0.000248249911237508,0,
00:00:01.068,-0.00592786399647594,-0.0354372374713421,0.00219897273927927,0,
00:00:01.072,-0.020544096827507,-0.030454671010375,-0.00448501389473677,0,
00:00:01.076,-0.0081041045486927,0.000385741732316092,0.00445171818137169,0,
00:00:01.08,0.0276475828140974,0.0311842039227486,0.00252632703632116,0,
00:00:01.084,0.00852231774479151,0.0128678604960442,0.0118590081110597,0,
00:00:01.088,0.0127191543579102,0.0272062327712774,-0.00742392800748348,0,
00:00:01.092,-0.00430673966184258,-0.012122493237257,-0.00867325533181429,0,
00:00:01.096,-0.0271445326507092,-0.0316137000918388,-0.00552557408809662,0,
00:00:01.1,-0.00770418532192707,-0.00623126979917288,0.00351267796941102,0,
00:00:01.104,0.0167138874530792,0.00956031680107117,0.00326044205576181,0,
00:00:01.108,0.00284488825127482,-0.00453423568978906,0.00948242284357548,0,
00:00:01.112,-0.000424457713961601,0.0139069575816393,-0.00386301591061056,0,
00:00:01.116,-0.000320143648423254,0.00569912744686008,-0.00253122579306364,0,
00:00:01.12,0.00222681765444577,-0.0104431295767426,-0.00145891262218356,0,
00:00:01.124,0.00236852862872183,0.000348005472915247,0.00155387597624213,0,
00:00:01.128,0.00263154110871255,0.00181700778193772,0.000246548326686025,0,
00:00:01.132,-0.0137936193495989,0.004538310226053,-0.00316507625393569,0,
00:00:01.136,-0.0087079331278801,-0.00485751498490572,-0.00345371058210731,0,
00:00:01.14,0.015542077831924,-0.0107054905965924,0.00497046252712607,0,
00:00:01.144,0.00144699949305505,0.000708017905708402,0.00365461828187108,0,
00:00:01.148,-0.0119762141257524,0.00223873904906213,0.00227337260730565,0,
00:00:01.152,0.023474371060729,0.0142270615324378,-0.00603350298479199,0,
00:00:01.156,0.0111061669886112,0.0290588345378637,-0.00811371672898531,0,
00:00:01.16,-0.0238188207149506,-0.0148395020514727,0.00201719673350453,0,
00:00:01.164,-0.0223160684108734,-0.0377920269966125,0.0140555314719677,0,
00:00:01.168,-0.000395731563912705,-0.0188395492732525,-0.00123576482292265,0,
00:00:01.172,0.00773685472086072,-0.00102977408096194,-0.00293827662244439,0,
00:00:01.176,0.0250860620290041,0.0298824720084667,-0.00754121271893382,0,
00:00:01.18,0.00240145623683929,0.0222066938877106,-0.00455034105107188,0,
00:00:01.184,-0.00404158607125282,0.01911118067801,0.00243210326880217,0,
00:00:01.188,-0.00239530694670975,-0.00729680061340332,0.0182279292494059,0,
00:00:01.192,-0.00719027454033494,-0.0263260696083307,-0.0049970094114542,0,
00:00:01.196,-0.013795405626297,-0.0326094478368759,-0.0060173636302352,0,
00:00:01.2,0.00232453993521631,0.010828104801476,-0.00371097587049007,0,
00:00:01.204,0.0124045349657536,0.029389651492238,-0.00075319706229493,0,
00:00:01.208,0.00712926592677832,0.00160402432084084,0.00124176079407334,0,
00:00:01.212,-0.00460754102095962,-0.0110922483727336,0.00389537890441716,0,
00:00:01.216,-0.00694159651175141,-0.00825734809041023,0.00143999001011252,0,
00:00:01.22,0.00443909643217921,0.0112791378051043,-0.0052297804504633,0,
00:00:01.224,0.00072780589107424,0.00243701739236712,0.00197425554506481,0,
00:00:01.228,0.00924811046570539,-0.0021000059787184,-0.00231629051268101,0,
00:00:01.232,-0.0112217580899596,0.00112247723154724,0.00186801806557924,0,
00:00:01.236,-0.00889801047742367,-0.0120934071019292,0.00409860769286752,0,
00:00:01.24,-0.00287299323827028,0.00856056436896324,-0.00334459147416055,0,
00:00:01.244,0.00880817417055368,0.0056754257529974,0.00189728126861155,0,
00:00:01.248,0.00124334706924856,-0.0158271677792072,-0.0015231246361509,0,
00:00:01.252,0.00808142777532339,-0.00967325363308191,-0.00146787660196424,0,
00:00:01.256,-0.00129941548220813,0.020952146500349,-0.000352374918293208,0,
00:00:01.26,0.000949022418353707,0.0185422617942095,0.00261590234003961,0,
00:00:01.264,-0.00403373409062624,0.000135243302793242,0.000907881068997085,0,
00:00:01.268,0.000363220344297588,-0.0162062626332045,-0.00511643383651972,0,
00:00:01.272,-0.00959506630897522,-0.0196209251880646,-0.00175629265140742,0,
00:00:01.276,-0.0049225646071136,-0.00645143771544099,0.00826747249811888,0,
00:00:01.28,0.00840406399220228,0.00607264740392566,-0.000559327891096473,0,
00:00:01.284,0.0145741989836097,0.0256336629390717,-0.00461841654032469,0,
00:00:01.288,0.00140820548404008,0.0181013867259026,0.00242145219817758,0,
00:00:01.292,-0.00843098852783442,-0.0149108106270432,-0.000514762301463634,0,
00:00:01.296,-0.0199457239359617,-0.0300944969058037,0.00132468563970178,0,
00:00:01.3,0.0153696471825242,0.00774159468710423,-6.29810092505068E-05,0,
00:00:01.304,0.0199210848659277,0.0157194398343563,-0.00121464638505131,0,
00:00:01.308,-0.0144521612673998,-0.00364240910857916,-0.00541936699301004,0,
00:00:01.312,-0.0184293333441019,-0.0056349360384047,-0.004936040379107,0,
00:00:01.316,-0.0100242802873254,-0.00808439683169127,0.0113829374313354,0,
00:00:01.32,0.0223116055130959,0.00550463330000639,0.00756969815120101,0,
00:00:01.324,0.020512081682682,0.0160086862742901,-0.00445616990327835,0,
00:00:01.328,-0.0107203023508191,0.000463974458398297,-0.00313441129401326,0,
00:00:01.332,-0.00359673518687487,-0.010707882232964,-1.66202935361071E-05,0,
00:00:01.336,-0.00979982875287533,-0.010987532325089,-0.0049719400703907,0,
00:00:01.34,-0.00793230440467596,0.00584871601313353,0.000435096008004621,0,
00:00:01.344,0.0107770189642906,0.00924732908606529,0.00422089453786612,0,
00:00:01.348,0.0128848012536764,-0.00109274254646152,0.0039566489867866,0,
00:00:01.352,-0.00459924293681979,-0.00286795198917389,-0.00490139797329903,0,
00:00:01.356,-0.00914474669843912,0.00467899674549699,-0.00577887613326311,0,
00:00:01.36,-0.00367455440573394,0.00033920697751455,-0.000270066084340215,0,
00:00:01.364,0.00194463308434933,-0.00587142771109939,0.00780996540561318,0,
00:00:01.368,4.9974365538219E-05,-0.0127646215260029,0.00224019424058497,0,
00:00:01.372,0.0114560779184103,0.000922438979614526,-0.000942704791668803,0,
00:00:01.376,0.0108494991436601,0.016608951613307,8.94028635229915E-05,0,
00:00:01.38,-0.00324411038309336,0.0168810226023197,-0.00358355161733925,0,
00:00:01.384,-0.0238978993147612,-0.0205936618149281,0.00184110947884619,0,
00:00:01.388,-0.00486014503985643,-0.0126581992954016,-0.00396491773426533,0,
00:00:01.392,-0.00104437721893191,-0.00188793067354709,-0.00810099486261606,0,
00:00:01.396,0.00514680147171021,0.00941337272524834,0.0113029545173049,0,
00:00:01.4,0.0180376619100571,0.0155669767409563,0.00566754443570971,0,
00:00:01.404,0.0106855379417539,0.00851221010088921,-0.00464579137042165,0,
00:00:01.408,-0.0113202789798379,-0.0139995636418462,-0.00174106890335679,0,
00:00:01.412,-0.00659964000806212,-0.0168073978275061,-0.00244261207990348,0,
00:00:01.416,-0.00536558078601956,0.00426955008879304,0.0021250017452985,0,
00:00:01.42,0.00543023506179452,0.0110203986987472,0.00394953088834882,0,
00:00:01.424,-0.00134966359473765,-0.0028241160325706,0.00249446881935,0,
00:00:01.428,-0.0119436141103506,-0.00807356182485819,-0.00848332047462463,0,
00:00:01.432,0.00996106769889593,-0.00120006303768605,-0.00670634070411325,0,
00:00:01.436,0.0219486746937037,0.0170538127422333,0.00747048063203692,0,
00:00:01.44,-0.00746339606121182,6.13086667726748E-05,0.00408173445612192,0,
00:00:01.444,-0.0172851365059614,-0.0145534910261631,0.000850660086143762,0,
00:00:01.448,-0.00164741149637848,0.0043351948261261,0.00302888662554324,0,
00:00:01.452,0.00312485313042998,0.00235021719709039,-0.00353128276765347,0,
00:00:01.456,-0.00933402590453625,-0.00418673502281308,-0.00645657815039158,0,
00:00:01.46,0.00724873505532742,0.00070688029518351,-0.00653962977230549,0,
00:00:01.464,0.013943693600595,0.00212396192364395,0.00778870563954115,0,
00:00:01.468,0.00749677652493119,0.00361500331200659,0.00473003974184394,0,
00:00:01.472,-0.00757568422704935,-0.00785720441490412,0.00145610130857676,0,
00:00:01.476,-0.015218305401504,0.00164965051226318,0.00122628931421787,0,
00:00:01.48,0.00341558922082186,-0.00243431865237653,0.00250544887967408,0,
00:00:01.484,0.00942861475050449,0.0227154735475779,-0.0132161965593696,0,
00:00:01.488,3.71238238585647E-05,0.00144465337507427,-0.00600937474519014,0,
00:00:01.492,-0.0126129938289523,-0.02024195343256,0.0138307148590684,0,
00:00:01.496,-0.000295189034659415,-0.0177270881831646,0.00174280779901892,0,
00:00:01.5,0.000655448762699962,-0.00296735507436097,4.44475917902309E-05,0,
00:00:01.504,0.000315612967824563,0.0105428360402584,-0.00603626808151603,0,
00:00:01.508,0.0153996841982007,0.0220835562795401,-0.000449440849479288,0,
00:00:01.512,0.00660570664331317,0.0154518419876695,0.00169904413633049,0,
00:00:01.516,-0.0105196246877313,-0.0169880632311106,-0.000420783733716235,0,
00:00:01.52,0.00112670555245131,-0.0100024370476604,0.000603552965912968,0,
00:00:01.524,-8.57978884596378E-05,-0.00285198725759983,-0.000751668761949986,0,
00:00:01.528,-0.0175790600478649,-0.0131254019215703,0.0113261612132192,0,
00:00:01.532,-0.00659888563677669,0.00806569401174784,-0.00187262136023492,0,
00:00:01.536,0.00826533976942301,0.0107206059619784,-0.0108333835378289,0,
00:00:01.54,0.0153411524370313,0.0013620265526697,-0.00147793919313699,0,
00:00:01.544,0.00505022704601288,0.00561465416103601,0.00151403748895973,0,
00:00:01.548,-0.00642261793836951,-0.00236341636627913,-0.00240649119950831,0,
00:00:01.552,-0.00531500857323408,-0.00930085312575102,0.00293107144534588,0,
00:00:01.556,0.0132521158084273,0.00612110225483775,0.00766393356025219,0,
00:00:01.56,-0.00611969595775008,-0.0019808781798929,-0.00216084672138095,0,
00:00:01.564,-0.0111951343715191,-0.00569128431379795,-0.00347663555294275,0,
00:00:01.568,-0.00474357837811112,-0.00614706706255674,-0.00375844328664243,0,
00:00:01.572,-0.00600992748513818,0.00798923522233963,0.00223185610957444,0,
00:00:01.576,0.0133816348388791,0.004812425468117,0.00490669347345829,0,
00:00:01.58,0.0134089104831219,-0.00061387027380988,-0.000694265239872038,0,
00:00:01.584,0.0111975520849228,0.00109120213892311,8.51207441883162E-05,0,
00:00:01.588,-0.0174827519804239,0.00192767707630992,-0.00538055039942265,0,
00:00:01.592,-0.00826568994671106,0.0049764234572649,8.70751464390196E-05,0,
00:00:01.596,-0.00887289550155401,-0.0173314120620489,-0.000132691275211982,0,
00:00:01.6,0.00265252660028636,-0.00593844428658485,0.00987711548805237,0,
00:00:01.604,0.00307967001572251,0.0109417047351599,-0.00780765106901526,0,
00:00:01.608,0.00802359823137522,0.00875528529286385,-0.00108749384526163,0,
00:00:01.612,0.00777989905327559,0.00164508377201855,0.00329188769683242,0,
00:00:01.616,0.00529470853507519,-0.00963971298187971,-0.000739407551009208,0,
00:00:01.62,-0.00591392116621137,-0.00283569656312466,-0.00117299240082502,0,
00:00:01.624,-0.0126834539696574,0.00170103565324098,0.00167798530310392,0,
00:00:01.628,-0.00781866069883108,0.0050995759665966,-0.00164178281556815,0,
00:00:01.632,-0.00420733960345387,0.00428782450035214,-0.00312237977050245,0,
00:00:01.636,0.0277734119445086,-0.000980583135969937,0.00224688835442066,0,
00:00:01.64,0.0103737507015467,-0.0061397566460073,0.00262037478387356,0,
00:00:01.644,-0.0217866599559784,-0.00601139385253191,0.00522973202168942,0,
00:00:01.648,-0.0103121576830745,0.0080414367839694,-0.00439907936379313,0,
00:00:01.652,0.000629023183137178,-0.0103436103090644,-0.00650978414341807,0,
00:00:01.656,-0.000207285323995166,0.00162212899886072,0.000590231153182685,0,
00:00:01.66,0.0181264691054821,0.00869920197874308,0.000764863565564156,0,
00:00:01.664,0.00822533201426268,0.00983119197189808,0.00842010136693716,0,
00:00:01.668,-0.00432668346911669,0.00259581091813743,-0.00359978689812124,0,
00:00:01.672,-0.00357454502955079,-0.00619670236483216,-0.00160327111370862,0,
00:00:01.676,-0.0202136933803558,-0.0150789804756641,0.00153029058128595,0,
00:00:01.68,-0.00607809284701943,-0.00420776382088661,-0.00198942073620856,0,
00:00:01.684,-0.00443330826237798,0.00565960351377726,-0.00559824844822288,0,
00:00:01.688,0.0179047733545303,0.00213315058499575,0.00813560374081135,0,
00:00:01.692,0.032368365675211,0.0071695065125823,-0.0017675484996289,0,
00:00:01.696,-0.0150091499090195,-0.000866683316417038,0.00426213862374425,0,
00:00:01.7,-0.0134936682879925,-0.0016015226719901,-0.00582056725397706,0,
00:00:01.704,-0.00401327339932323,0.00364450830966234,-0.00146927079185843,0,
00:00:01.708,-0.00560171250253916,-0.00781339965760708,0.0008993114461191,0,
00:00:01.712,0.00394173851236701,0.00935617834329605,0.00150852056685835,0,
00:00:01.716,0.0191038828343153,-0.000745784083846956,0.00105054711457342,0,
00:00:01.72,0.0072601274587214,-0.000443804514361545,0.00234647607430816,0,
00:00:01.724,-0.0268707387149334,-0.0181711297482252,-0.000218028100789525,0,
00:00:01.728,-0.014545077458024,-0.0029315606225282,-0.0124480873346329,0,
00:00:01.732,0.0145579632371664,0.012682830914855,0.00773730129003525,0,
00:00:01.736,0.0138708148151636,0.0151435947045684,0.0113110402598977,0,
00:00:01.74,0.010364206507802,0.00568424444645643,-0.0049437046982348,0,
00:00:01.744,-0.0179961808025837,-0.0100896544754505,-0.00873556639999151,0,
00:00:01.748,-0.00342447822913527,-0.00850320793688297,-0.00303306756541133,0,
00:00:01.752,0.00127657793927938,-0.0026088256854564,0.00659430213272572,0,
00:00:01.756,0.00177951192017645,-0.00662899436429143,0.00460681086406112,0,
00:00:01.76,-0.00731885898858309,-0.00164385861717165,-0.00393161177635193,0,
00:00:01.764,0.00808974914252758,0.0141477147117257,0.00147546990774572,0,
00:00:01.768,0.00428989389911294,0.000179345384822227,-0.00153071689419448,0,
00:00:01.772,0.000381596328224987,0.00918526109308004,-0.00123277131933719,0,
00:00:01.776,-0.0122805889695883,-0.0179720092564821,-0.00218532583676279,0,
00:00:01.78,0.00549392402172089,-0.00563499378040433,0.00470522465184331,0,
00:00:01.784,0.0169993825256824,0.0287212003022432,0.000445377780124545,0,
00:00:01.788,-0.00156249501742423,0.00619633309543133,0.00107763905543834,0,
00:00:01.792,-0.0161393638700247,-0.0194146577268839,-0.00294665829278529,0,
00:00:01.796,-0.00514977984130383,-0.0217392295598984,-0.00414024665951729,0,
00:00:01.8,-0.000890821043867618,0.000596459663938731,-0.00019342708401382,0,
00:00:01.804,-0.00683807767927647,0.0127993673086166,0.00685752462595701,0,
00:00:01.808,0.0147903868928552,0.00859072059392929,0.00117279414553195,0,
00:00:01.812,0.0117352418601513,0.00150438852142543,-0.00153078022412956,0,
00:00:01.816,0.00817084591835737,0.00342285097576678,-0.00405616546049714,0,
00:00:01.82,-0.0110856667160988,0.00512532377615571,0.00282849720679224,0,
00:00:01.824,-0.00976445898413658,-0.0019869483076036,0.00153338967356831,0,
00:00:01.828,-0.00511505361646414,-0.0131055070087314,-0.00504063069820404,0,
00:00:01.832,-0.00224342197179794,-0.0196261890232563,-2.32296988542657E-05,0,
00:00:01.836,0.000720862997695804,0.000387794309062883,0.00591194536536932,0,
00:00:01.84,0.00289208302274346,0.0207216218113899,-0.00237202551215887,0,
00:00:01.844,0.0097420047968626,0.00734345801174641,-0.00264712446369231,0,
00:00:01.848,0.00718520395457745,-0.0119315478950739,-0.00472791213542223,0,
00:00:01.852,-0.0114354910328984,0.0093334624543786,0.00501102767884731,0,
00:00:01.856,0.0120992930606008,0.0150502314791083,0.00683459965512156,0,
00:00:01.86,-0.00793682504445314,0.0033358687069267,-0.00273157237097621,0,
00:00:01.864,-0.0110717592760921,-0.0244667753577232,0.00296643632464111,0,
00:00:01.868,0.00706295995041728,-0.00627489201724529,-0.00496258679777384,0,
00:00:01.872,-0.00200471212156117,-0.0107539854943752,-0.00413569482043386,0,
00:00:01.876,-0.0102023035287857,-0.00306932046078146,-0.000802321708761156,0,
00:00:01.88,-0.00399447837844491,0.00975565332919359,-0.00037573670851998,0,
00:00:01.884,0.012261126190424,0.0201241765171289,0.00435293093323708,0,
00:00:01.888,0.0372085757553577,0.0118900733068585,0.0032980318646878,0,
00:00:01.892,-0.0166472401469946,-0.0067472499795258,-0.00144983583595604,0,
00:00:01.896,-0.0198584571480751,-0.00672821095213294,0.00271440064534545,0,
00:00:01.9,-0.00742774875834584,-0.0050806412473321,-0.000141133001307026,0,
00:00:01.904,0.0055107194930315,-0.00486024934798479,-0.00270557752810419,0,
00:00:01.908,-0.000832158606499434,-0.00912575796246529,-0.00919472426176071,0,
00:00:01.912,0.00570685276761651,0.00169951934367418,0.00643860502168536,0,
00:00:01.916,0.00605776626616716,0.00262468680739403,0.00104001059662551,0,
00:00:01.92,-0.0098577719181776,0.0061247874982655,0.00211579352617264,0,
00:00:01.924,-0.00394128914922476,0.00816755183041096,0.000363974686479196,0,
00:00:01.928,0.00991938356310129,0.00312813348136842,-0.00526114879176021,0,
00:00:01.932,0.0149154597893357,0.0103418910875916,-0.0016256223898381,0,
00:00:01.936,-0.00610860856249928,-0.0122054507955909,0.00429039169102907,0,
00:00:01.94,-0.0130215920507908,-0.0219192653894424,0.00554222287610173,0,
00:00:01.944,-0.00920991413295269,-0.000209033576538786,0.00287152011878788,0,
00:00:01.948,0.0025253021158278,0.00827274564653635,-0.0090576633810997,0,
00:00:01.952,0.00859971530735493,0.0142422383651137,-0.00346466130577028,0,
00:00:01.956,0.00124569609761238,-0.00824946630746126,0.000723367964383215,0,
00:00:01.96,-0.00179537036456168,-0.00134060566779226,0.00247348519042134,0,
00:00:01.964,-0.00165148475207388,0.00174419756513089,0.00429199589416385,0,
00:00:01.968,0.0142965205013752,0.0122422333806753,-0.000969045620877296,0,
00:00:01.972,0.00377265992574394,-0.00715907663106918,-0.00182248500641435,0,
00:00:01.976,-0.0155074428766966,-0.00661000609397888,-0.00514321541413665,0,
00:00:01.98,-0.0107039222493768,-0.0138388630002737,0.00395257631316781,0,
00:00:01.984,-0.0109771899878979,-0.000553276739083231,0.00589185860008001,0,
00:00:01.988,0.0323412194848061,0.0222014505416155,0.00100478366948664,0,
00:00:01.992,0.00955556146800518,0.0116293281316757,-0.00502343149855733,0,
00:00:01.996,-0.022262167185545,-0.0073763313703239,-0.00389946042560041,0,
00:00:02,-0.015692662447691,-0.0149326529353857,-0.00287677184678614,0,
00:00:02.004,0.00999953225255013,-0.000447699800133705,0.00345370057038963,0,
00:00:02.008,0.0244810804724693,0.00890388619154692,0.00583177618682384,0,
00:00:02.012,-0.0149811832234263,-0.0124071426689625,-0.000304173299809918,0,
00:00:02.016,0.00261490931734443,-0.00906103663146496,-0.00205548014491796,0,
00:00:02.02,-0.00110777013469487,0.0279226675629616,-0.00576932402327657,0,
00:00:02.024,-0.00750035792589188,0.00903454795479774,0.00549242971464992,0,
00:00:02.028,-0.00722889881581068,-0.0176193863153458,0.00370204844512045,0,
00:00:02.032,0.00609843572601676,-0.015159728936851,-0.00262454408220947,0,
00:00:02.036,0.00555292004719377,-0.00143720232881606,-0.000909937894903123,0,
00:00:02.04,0.00377715402282774,0.0141527848318219,-0.00523558026179671,0,
00:00:02.044,0.00738494237884879,0.0117171686142683,0.000865016947500408,0,
00:00:02.048,-0.00489388918504119,-0.00534484907984734,0.00482100388035178,0,
00:00:02.052,-0.0214019156992435,-0.00881123915314674,-0.00399768212810159,0,
00:00:02.056,0.014046193100512,0.00117528170812875,0.00298018055036664,0,
00:00:02.06,0.0197968874126673,0.00668356707319617,0.00467102136462927,0,
00:00:02.064,-0.0117984171956778,-0.00504338415339589,-0.00175931630656123,0,
00:00:02.068,-0.0198357831686735,-0.00395444501191378,-0.0031212258618325,0,
00:00:02.072,0.000966242922004312,0.00211173691786826,0.00218492234125733,0,
00:00:02.076,0.00176472729071975,-0.00567201105877757,-0.0042221094481647,0,
00:00:02.08,0.0127779189497232,0.00281991367228329,-0.00242853164672852,0,
00:00:02.084,0.00968575477600098,0.018395958468318,-0.00130513473413885,0,
00:00:02.088,0.00171117985155433,0.00701463129371405,0.00443548383191228,0,
00:00:02.092,-0.00664411718025804,-0.0186351519078016,0.00391785148531199,0,
00:00:02.096,-0.0170928277075291,-0.0142356157302856,0.00123047805391252,0,
00:00:02.1,-0.00403033429756761,0.00615215022116899,0.00517436349764466,0,
00:00:02.104,0.00534697715193033,-0.00366873387247324,-0.0120193008333445,0,
00:00:02.108,0.0141796432435513,0.00775767536833882,-0.00464255502447486,0,
00:00:02.112,0.00376436533406377,0.00442669074982405,0.001983328955248,0,
00:00:02.116,-0.00538743147626519,0.00562941189855337,0.00667904689908028,0,
00:00:02.12,-0.00550233526155353,-0.00459919963032007,0.0059028691612184,0,
00:00:02.124,-0.0106491576880217,-0.0152712846174836,0.00402898527681828,0,
00:00:02.128,0.0105945449322462,-0.00445865606889129,-0.00803297944366932,0,
00:00:02.132,0.0107343140989542,0.0312597043812275,-0.0118329832330346,0,
00:00:02.136,-0.000980982440523803,0.0152337132021785,-0.0049926727078855,0,
00:00:02.14,-0.0120878620073199,-0.0236951522529125,0.0109783299267292,0,
00:00:02.144,0.00480770319700241,-0.0162600465118885,0.00687633967027068,0,
00:00:02.148,0.000869345909450203,-0.00469601759687066,-0.000179444323293865,0,
00:00:02.152,-0.0101755075156689,0.00185798155143857,0.00451812753453851,0,
00:00:02.156,0.001590890227817,0.00285262032411993,-0.0072377035394311,0,
00:00:02.16,0.00128920562565327,0.00711541203781962,-0.00551096443086863,0,
00:00:02.164,0.00616498291492462,0.00724183395504951,0.00352468038909137,0,
00:00:02.168,0.00868701469153166,0.00786797609180212,0.000733034161385149,0,
00:00:02.172,-0.00106402358505875,-0.00240833428688347,-0.00212175608612597,0,
00:00:02.176,-0.0114494143053889,-0.00639188848435879,0.00401459261775017,0,
00:00:02.18,0.00524983834475279,0.000696692848578095,0.00393759459257126,0,
00:00:02.184,0.0028795248363167,-9.97461829683743E-05,-0.0073122838512063,0,
00:00:02.188,-0.000134362329845317,-0.00824739784002304,-0.00635539926588535,0,
00:00:02.192,-0.01034224499017,-0.00286872847937047,0.00300157885067165,0,
00:00:02.196,-0.0152242230251431,-0.00953815691173077,0.0116137750446796,0,
00:00:02.2,0.0102122472599149,0.00421507097780705,-0.000278958497801796,0,
00:00:02.204,0.028429301455617,0.0167396664619446,-0.0063213836401701,0,
00:00:02.208,-0.0084885386750102,0.00491045461967587,0.000408483290812001,0,
00:00:02.212,-0.00785885658115149,-0.00168783869594336,-0.00795022863894701,0,
00:00:02.216,-0.00862542446702719,-0.0124133033677936,0.0112655619159341,0,
00:00:02.22,0.00302692991681397,0.0166831742972136,0.00150691741146147,0,
00:00:02.224,0.0129036651924253,0.00732619222253561,-0.00525433616712689,0,
00:00:02.228,-0.00769075052812696,-0.0210587475448847,-0.00575263705104589,0,
00:00:02.232,-0.0028028090018779,-0.0211839359253645,-0.000334916228894144,0,
00:00:02.236,-0.000560809101443738,0.0010038671316579,0.00559944938868284,0,
00:00:02.24,-0.00577908009290695,0.0174033213406801,0.00205018953420222,0,
00:00:02.244,-0.00160635553766042,0.0116947218775749,0.000609411275945604,0,
00:00:02.248,0.013510993681848,0.00793188158422709,0.00189764087554067,0,
00:00:02.252,0.0116560198366642,-0.00218557915650308,0.00155574409291148,0,
00:00:02.256,-0.0098072262480855,-0.0122270192950964,-0.0042529720813036,0,
00:00:02.26,-0.00794031750410795,-0.00389946415089071,-0.00602101208642125,0,
00:00:02.264,-0.00123999640345573,-0.00482889451086521,0.000618605932686478,0,
00:00:02.268,0.000800140609499067,0.00254184333607554,0.00674822647124529,0,
00:00:02.272,-0.000998587929643691,0.00850789435207844,0.000229527868214063,0,
00:00:02.276,-0.00759538682177663,-0.0092008588835597,-0.00653019128367305,0,
00:00:02.28,0.00990375876426697,0.00754781998693943,-0.00237318803556263,0,
00:00:02.284,0.00432826671749353,-0.00901380646973848,0.00438118726015091,0,
00:00:02.288,0.00764753948897123,0.00913397036492825,0.00612981850281358,0,
00:00:02.292,0.00398802477866411,0.0216709729284048,-0.00066145503660664,0,
00:00:02.296,-0.00590938329696655,0.000839212036225945,-0.000601094681769609,0,
00:00:02.3,-0.022339167073369,-0.0381636433303356,-0.00617262301966548,0,
00:00:02.304,0.00045021390542388,-0.0162234604358673,0.0037446292117238,0,
00:00:02.308,0.00162903347518295,0.022405507043004,-0.00417767046019435,0,
00:00:02.312,0.0148677183315158,0.0167432744055986,-0.00152285944204777,0,
00:00:02.316,0.0120665142312646,0.0102715892717242,0.00624193996191025,0,
00:00:02.32,-0.0139055084437132,-0.0233424510806799,0.0014499673852697,0,
00:00:02.324,-0.0102284029126167,-0.00883945170789957,0.00121126242447644,0,
00:00:02.328,-0.000311989919282496,0.00373210106045008,-0.00548381032422185,0,
00:00:02.332,0.0140334144234657,0.0146874552592635,-0.00484820688143373,0,
00:00:02.336,0.00446655135601759,0.0110662700608373,0.00715310918167233,0,
00:00:02.34,-0.00106405245605856,-0.00860204268246889,0.00460103852674365,0,
00:00:02.344,-0.00768776144832373,-0.014546793885529,-0.00266950880177319,0,
00:00:02.348,-0.0100651578977704,-0.00307826162315905,-0.00147970195394009,0,
00:00:02.352,-0.00580314546823502,0.0122987851500511,-0.00583514012396336,0,
00:00:02.356,0.0111545324325562,-0.00637214258313179,0.000532702601049095,0,
00:00:02.36,0.0121435271576047,-0.00713649624958634,0.00480466894805431,0,
00:00:02.364,-0.00303630391135812,0.0175250694155693,0.000338376208674163,0,
00:00:02.368,-0.000411390530643985,0.00922434963285923,0.00133226101752371,0,
00:00:02.372,0.0024033768568188,-0.00359664321877062,-0.00458390126004815,0,
00:00:02.376,-0.00244559580460191,-0.0055530066601932,0.00231915712356567,0,
00:00:02.38,-0.0135096777230501,-0.024750079959631,-0.000339489168254659,0,
00:00:02.384,-0.00462798355147243,-0.00298371794633567,-0.00042573970858939,0,
00:00:02.388,0.011096203699708,0.0106918644160032,-0.00198016408830881,0,
00:00:02.392,0.00855000782757998,0.0170654226094484,0.00238428520970047,0,
00:00:02.396,0.00353792821988463,0.0120375715196133,0.00409102439880371,0,
00:00:02.4,-0.0116633577272296,-0.00424184976145625,-0.0016561666270718,0,
00:00:02.404,-0.00442075822502375,-0.0168390739709139,-0.000497844070196152,0,
00:00:02.408,0.00991673395037651,0.00332457362674177,-0.00338558037765324,0,
00:00:02.412,0.000181702198460698,-0.00651992205530405,-0.00370108429342508,0,
00:00:02.416,-0.0073607605881989,-0.00511038536205888,0.0047101229429245,0,
00:00:02.42,-0.00499524362385273,0.00428309245035052,0.00350244040600955,0,
00:00:02.424,0.00216104020364583,-0.00395976984873414,-0.00187493744306266,0,
00:00:02.428,0.0119951125234365,0.0182243064045906,-0.0040428270585835,0,
00:00:02.432,-0.00103067269083112,0.00298066926188767,-0.000632076582405716,0,
00:00:02.436,0.0113574899733067,0.00209051719866693,0.00214726896956563,0,
00:00:02.44,-0.00517602637410164,-0.000957156589720398,0.000570447882637382,0,
00:00:02.444,-0.0214518960565329,-0.0162574145942926,0.0138577343896031,0,
00:00:02.448,-0.00878031086176634,-0.0136892832815647,-0.00618944736197591,0,
00:00:02.452,0.00559985870495439,-0.00327414367347956,-0.00897690374404192,0,
00:00:02.456,0.0177662745118141,0.0204420350492001,-0.00452399998903275,0,
00:00:02.46,0.0137302242219448,0.0185755789279938,-0.00147685373667628,0,
00:00:02.464,-0.00943789817392826,-0.00451049208641052,0.00740132108330727,0,
00:00:02.468,-0.00654766336083412,-0.0104194572195411,0.00306852394714952,0,
00:00:02.472,-0.00423225341364741,-0.0115722501650453,-0.00167858484201133,0,
00:00:02.476,-0.00787830911576748,0.00404109340161085,-0.00310440524481237,0,
00:00:02.48,0.00230710976757109,0.00957802589982748,0.0106135504320264,0,
00:00:02.484,0.00848362594842911,-0.0100362589582801,-0.00539576355367899,0,
00:00:02.488,0.00337005755864084,0.00177512073423713,-0.0058233761228621,0,
00:00:02.492,0.00449968408793211,0.00209774496033788,0.000495183398015797,0,
00:00:02.496,-0.00103456631768495,0.00436828564852476,0.00196872116066515,0,
00:00:02.5,-0.0130384769290686,-0.000508234370499849,0.00342633202672005,0,
00:00:02.504,0.00941115990281105,0.00477577932178974,-0.00168054329697043,0,
00:00:02.508,-0.00377731351181865,-0.00897314958274364,-0.00412622606381774,0,
00:00:02.512,-0.00815122481435537,-0.00324003933928907,0.00329205649904907,0,
00:00:02.516,-0.00065934268059209,0.00331452419050038,-0.00195350940339267,0,
00:00:02.52,0.0198463276028633,0.0092586437240243,0.00353418872691691,0,
00:00:02.524,-0.00345277902670205,-0.00717484904453158,0.00357764190994203,0,
00:00:02.528,-0.0160827375948429,-0.0183503981679678,-0.0032185788732022,0,
00:00:02.532,0.00356132560409606,0.0239491481333971,-0.0101596415042877,0,
00:00:02.536,0.014994747005403,0.0137483421713114,0.00405712006613612,0,
00:00:02.54,-0.00873094704002142,-0.0148299997672439,0.00119943602476269,0,
00:00:02.544,-0.00323319039307535,-0.0200135745108128,-8.62331435200758E-05,0,
00:00:02.548,0.00411497615277767,0.000148928636917844,0.00627809856086969,0,
00:00:02.552,0.00142641889397055,0.0133729046210647,0.00511997193098068,0,
00:00:02.556,-0.00603711558505893,0.00718475924804807,-0.0013006025692448,0,
00:00:02.56,-0.0030449649784714,0.00529380980879068,-0.0092462282627821,0,
00:00:02.564,-0.00492289336398244,-0.00855132844299078,-0.00298623088747263,0,
00:00:02.568,0.00306730973534286,-0.0171785335987806,0.000917626603040844,0,
00:00:02.572,0.0116866668686271,0.00659086741507053,0.00239208387210965,0,
00:00:02.576,0.0189902372658253,0.0252972040325403,0.00416664453223348,0,
00:00:02.58,-0.0107132922858,0.0107583357021213,-0.000986895058304071,0,
00:00:02.584,-0.0128925330936909,-0.0295903496444225,-0.00171744916588068,0,
00:00:02.588,-0.00996383838355541,-0.0241375826299191,-0.000830986769869924,0,
00:00:02.592,-0.00547197088599205,-0.000236518069868907,0.000140131305670366,0,
00:00:02.596,0.0109202777966857,0.0235539916902781,-0.00147208222188056,0,
00:00:02.6,0.00351525261066854,0.0253906454890966,0.0025297999382019,0,
00:00:02.604,0.00280039012432098,-0.00290840351954103,0.00396079896017909,0,
00:00:02.608,0.00645119929686189,-0.0155789367854595,-0.00394367706030607,0,
00:00:02.612,0.00106625037733465,-0.0222447887063026,0.00340635003522038,0,
00:00:02.616,-0.00381781836040318,0.00241719745099545,-0.00790243968367577,0,
00:00:02.62,0.00112205429468304,0.0278875697404146,0.00299258297309279,0,
00:00:02.624,-0.00936722755432129,0.00203077006153762,0.00311136431992054,0,
00:00:02.628,-0.00985152553766966,-0.00709432736039162,-0.0036943496670574,0,
00:00:02.632,0.00468062376603484,-0.019603755325079,0.0004630615003407,0,
00:00:02.636,0.0140277789905667,-0.00218816427513957,0.00149000436067581,0,
00:00:02.64,-0.000891477218829095,0.00297181401401758,0.00512628396973014,0,
00:00:02.644,-0.0102480193600059,0.0123192416504025,-0.0100768422707915,0,
00:00:02.648,0.0013883673818782,0.00610009860247374,8.29121345304884E-05,0,
00:00:02.652,0.0108707454055548,0.00487409252673388,0.0121651273220778,0,
00:00:02.656,0.00350631587207317,-0.0023821690119803,-0.00247529777698219,0,
00:00:02.66,-0.00625192373991013,-0.0086301239207387,-0.00325056677684188,0,
00:00:02.664,-0.0109414076432586,-0.0082042571157217,-0.00712237181141973,0,
00:00:02.668,-0.0075098262168467,-0.00134067004546523,0.000313411728711799,0,
00:00:02.672,0.00149094790685922,0.00384961371310055,0.00116354937199503,0,
00:00:02.676,0.029905604198575,0.0112991789355874,0.0049644997343421,0,
00:00:02.68,0.000106989202322438,-0.000519874040037394,0.000906232511624694,0,
00:00:02.684,-0.0153410444036126,-0.0124596012756228,0.006036595441401,0,
00:00:02.688,-0.00841855723410845,0.000375560339307413,-0.00840612780302763,0,
00:00:02.692,0.00300454813987017,0.0135194398462772,0.00285485712811351,0,
00:00:02.696,-0.00696409633383155,0.00486633693799376,-0.00105103675741702,0,
00:00:02.7,0.00677084922790527,-0.00261828768998384,-0.00440426869317889,0,
00:00:02.704,0.00317004765383899,-0.0183278024196625,-0.00166943809017539,0,
00:00:02.708,0.0110120074823499,-0.00993508566170931,0.00141796772368252,0,
00:00:02.712,-0.00197614543139935,0.00863966811448336,0.000595850462559611,0,
00:00:02.716,-0.0061346641741693,0.0220001246780157,0.00203422643244267,0,
00:00:02.72,-0.00695511698722839,-0.00526858121156693,0.00647455826401711,0,
00:00:02.724,0.0023587450850755,-0.00795511249452829,-0.00265933806076646,0,
00:00:02.728,0.00272279093042016,0.0115602677688003,0.000747314188629389,0,
00:00:02.732,-0.00340109737589955,-0.0102033335715532,0.00292369117960334,0,
00:00:02.736,0.00115874304901809,-0.00620702281594276,-0.0149271059781313,0,
00:00:02.74,0.00838169641792774,-0.0025113495066762,0.000261749752098694,0,
00:00:02.744,-0.0087426258251071,0.000933569739572704,0.00530854426324368,0,
00:00:02.748,-0.000854434503708035,0.00510042626410723,0.0107820294797421,0,
00:00:02.752,-3.84468592073972E-07,0.0200352985411882,-0.00420294934883714,0,
00:00:02.756,0.00193172926083207,-0.0088081294670701,-0.00774209992960095,0,
00:00:02.76,0.0106676844879985,-0.0116355903446674,-0.00245646736584604,0,
00:00:02.764,-0.00235178763978183,-0.000909926486201584,0.000367572210961953,0,
00:00:02.768,-0.0104987872764468,0.00173316011205316,0.0143033983185887,0,
00:00:02.772,0.00544873811304569,-0.000642425089608878,0.000734328466933221,0,
00:00:02.776,-0.0163385570049286,-0.0057636103592813,-0.0117738489061594,0,
00:00:02.78,0.00463784579187632,0.00538343237712979,-0.00394792016595602,0,
00:00:02.784,0.00579824112355709,0.004305609036237,0.00606175418943167,0,
00:00:02.788,0.0168188754469156,0.0110856145620346,0.0041517224162817,0,
00:00:02.792,0.00879509281367064,0.00729419896379113,-0.00212292699143291,0,
00:00:02.796,-0.0152622200548649,-0.0194221809506416,-0.00673235254362226,0,
00:00:02.8,-0.0184592474251986,-0.0118993073701859,0.000872836972121149,0,
00:00:02.804,-0.00503518106415868,-0.000961714365985245,0.00782814156264067,0,
00:00:02.808,0.0168113633990288,-0.000362754159141332,0.00321209407411516,0,
00:00:02.812,0.00221560476347804,0.0150330401957035,-0.00211709877476096,0,
00:00:02.816,0.00320320227183402,0.00113944662734866,-0.00839408859610558,0,
00:00:02.82,-0.0023843445815146,0.00977746304124594,-0.00350959063507617,0,
00:00:02.824,-0.00918806716799736,0.000678791431710124,0.00411583064123988,0,
00:00:02.828,0.00646724319085479,-0.0135540124028921,0.00652989139780402,0,
00:00:02.832,0.00712471269071102,-0.0028319051489234,0.00207883422262967,0,
00:00:02.836,-0.00626796903088689,-0.00235146260820329,-0.00201007118448615,0,
00:00:02.84,-0.00100933073554188,-0.00821976829320192,-0.00753047410398722,0,
00:00:02.844,0.0017451181774959,0.0119719235226512,-0.00265344325453043,0,
00:00:02.848,-0.00871195551007986,-0.00332028977572918,0.00866349786520004,0,
00:00:02.852,-0.000266230461420491,0.00861856248229742,-0.0016761370934546,0,
00:00:02.856,0.00246811029501259,0.00723404204472899,0.000283559988019988,0,
00:00:02.86,0.0109543036669493,-0.00522977020591497,0.00456866342574358,0,
00:00:02.864,0.00637721782550216,-0.00647656386718154,-0.00399502133950591,0,
00:00:02.868,-0.00929777324199677,0.00296664074994624,-0.00577639834955335,0,
00:00:02.872,-0.0100902188569307,-0.00572129059582949,0.003214554162696,0,
00:00:02.876,0.00207885284908116,0.00127133715432137,-0.00311014475300908,0,
00:00:02.88,0.0105760665610433,0.00178518914617598,0.00447285640984774,0,
00:00:02.884,-0.00751751381903887,-0.00355197442695498,0.00778733426705003,0,
00:00:02.888,-0.00493728183209896,-0.000512534053996205,-0.00552220363169909,0,
00:00:02.892,0.0117335403338075,0.00672149704769254,-0.000987167470157146,0,
00:00:02.896,0.00302009284496307,0.0033948568161577,-0.00295349978841841,0,
00:00:02.9,-0.0162217598408461,-0.00120728986803442,-0.0012748985318467,0,
00:00:02.904,0.00425247987732291,-0.0075505068525672,-0.00344435358420014,0,
00:00:02.908,0.00204168632626534,-0.00732011115178466,0.0055664274841547,0,
00:00:02.912,0.00401758030056953,0.00582338776439428,0.0067584915086627,0,
00:00:02.916,0.00370530667714775,0.0175860524177551,-0.00308678718283772,0,
00:00:02.92,0.00330371712334454,-0.00226912018842995,0.00264453794807196,0,
00:00:02.924,-0.00963707827031612,-0.0128354085609317,-0.00510041788220406,0,
00:00:02.928,-0.0151520203799009,-0.0111953290179372,-0.004093071911484,0,
00:00:02.932,0.00541539257392287,0.00491954106837511,-0.00274202856235206,0,
00:00:02.936,0.0123421484604478,0.0126493033021688,0.00381013774313033,0,
00:00:02.94,0.0088726319372654,0.00355319189839065,0.00409660022705793,0,
00:00:02.944,0.00167551112826914,-0.000316611665766686,0.00184328353498131,0,
00:00:02.948,-0.0101928301155567,-0.0103979306295514,-0.00250279041938484,0,
00:00:02.952,-0.00619311537593603,0.00530791096389294,0.00248510576784611,0,
00:00:02.956,-0.0103765456005931,-0.00390463671647012,0.00437555788084865,0,
00:00:02.96,0.00686457613483071,-0.00718632014468312,-0.0102698495611548,0,
00:00:02.964,0.00475983554497361,6.91913373884745E-05,-0.00398795492947102,0,
00:00:02.968,0.00848545413464308,0.00754751963540912,-0.00068813213147223,0,
00:00:02.972,0.00912513583898544,0.0122999474406242,0.00562679348513484,0,
00:00:02.976,-0.00864661298692226,0.00191577489022166,0.00479795364663005,0,
00:00:02.98,-0.00359628279693425,-0.000378553435439244,0.00567881111055613,0,
00:00:02.984,-0.0207071583718061,-0.0268104653805494,-0.00724157178774476,0,
00:00:02.988,0.00398301938548684,-0.0149020794779062,-0.00774912303313613,0,
00:00:02.992,0.0155607452616096,0.0307600051164627,-0.000800089619588107,0,
00:00:02.996,0.00673435535281897,0.0134812844917178,0.0124467797577381,0,
00:00:03,0.00758450897410512,-0.00395542476326227,0.00317784608341753,0,
00:00:03.004,-0.00597410555928946,-0.0110532948747277,-0.00979308970272541,0,
00:00:03.008,-0.0209104102104902,-0.00263133109547198,-0.00361413252539933,0,
00:00:03.012,-0.0101758800446987,-0.01688745431602,0.00525373499840498,0,
00:00:03.016,0.0119951609522104,0.00779364490881562,0.00310987653210759,0,
00:00:03.02,0.0173592530190945,0.0236306022852659,-0.00276850024238229,0,
00:00:03.024,-0.0021213295403868,-0.00787725951522589,-0.000584724184591323,0,
00:00:03.028,-0.00068252271739766,0.0109369652345777,-0.00473618553951383,0,
00:00:03.032,-1.84584732778603E-05,0.000404427701141685,-0.000821438443381339,0,
00:00:03.036,-0.00895378179848194,-0.0265145190060139,0.00694745499640703,0,
00:00:03.04,-0.00403112079948187,-0.0101740146055818,0.00173636211548001,0,
00:00:03.044,0.00208171224221587,0.0123394541442394,-0.000954910588916391,0,
00:00:03.048,0.0254430640488863,0.0128362569957972,0.0024658739566803,0,
00:00:03.052,-0.0138893118128181,0.0115526672452688,-0.00935266260057688,0,
00:00:03.056,-0.0150299957022071,-0.00351306330412626,-0.003917564637959,0,
00:00:03.06,0.00197263923473656,-0.00760026648640633,0.00918024312704802,0,
00:00:03.064,-0.00740449782460928,-0.022506857290864,0.00799857266247272,0,
00:00:03.068,-0.00174649292603135,-0.0010866365628317,-0.00443327752873302,0,
00:00:03.072,0.0260373055934906,0.0088334372267127,-0.00781078450381756,0,
00:00:03.076,0.0214370992034674,0.0117893842980266,0.0034424583427608,0,
00:00:03.08,-0.0148138869553804,0.0328270867466927,-0.00176674535032362,0,
00:00:03.084,-0.0243152678012848,-0.00968934968113899,-0.00925961695611477,0,
00:00:03.088,-0.00710285361856222,-0.0348827503621578,0.0129180196672678,0,
00:00:03.092,-0.000786007673013955,-0.0066415686160326,0.00639150151982903,0,
00:00:03.096,0.00270046410150826,-0.0069291964173317,-0.0031818940769881,0,
00:00:03.1,0.019154030829668,0.00730911502614617,-0.00696266395971179,0,
00:00:03.104,-0.000706610735505819,0.0229792483150959,-0.000950445886701345,0,
00:00:03.108,0.00493123522028327,0.020758518949151,0.00339400768280029,0,
00:00:03.112,0.0032002457883209,-0.00770027749240398,0.00367391319014132,0,
00:00:03.116,-0.0139051293954253,-0.0162307415157557,-0.00893112830817699,0,
00:00:03.12,-0.00344078172929585,-0.0141514558345079,-0.00152247678488493,0,
00:00:03.124,-0.00864407978951931,-0.00577694643288851,0.00745516270399094,0,
00:00:03.128,0.00639027217403054,0.0129237780347466,0.000224438248551451,0,
00:00:03.132,0.00739137642085552,-0.000883410277310759,-0.000831583747640252,0,
00:00:03.136,-0.00293944263830781,-0.00128390418831259,0.00391691969707608,0,
00:00:03.14,0.00518581178039312,0.00986990425735712,-0.00162999355234206,0,
00:00:03.144,0.000220448360778391,0.0035828712861985,0.00329724373295903,0,
00:00:03.148,-0.00406970828771591,0.00280309747904539,-0.00990316551178694,0,
00:00:03.152,-0.00637351488694549,-0.00542003707960248,-0.00739176664501429,0,
00:00:03.156,0.0146874720230699,-0.00438247621059418,0.00589278526604176,0,
00:00:03.16,0.0012470216024667,0.000651185575406998,0.00712308613583446,0,
00:00:03.164,-0.00818997528403997,-0.00765918102115393,0.00548542803153396,0,
00:00:03.168,-0.00881749577820301,-0.00507322372868657,-0.00460189068689942,0,
00:00:03.172,-0.0122389933094382,-0.00350191444158554,-0.000201591508812271,0,
00:00:03.176,0.00327929202467203,0.0147739090025425,-0.00726521713659167,0,
00:00:03.18,0.0296655297279358,-0.0015366094885394,0.00399980507791042,0,
00:00:03.184,0.00894774775952101,0.0132372099906206,0.0054161618463695,0,
00:00:03.188,-0.000994840869680047,0.0295112952589989,-0.00608195690438151,0,
00:00:03.192,-0.0144200017675757,-0.0231231190264225,-0.00381690333597362,0,
00:00:03.196,-0.0266866590827703,-0.0434161610901356,0.00501848058775067,0,
00:00:03.2,-0.0051535558886826,-0.0104674259200692,0.00145887851249427,0,
00:00:03.204,0.0212154649198055,0.0178613029420376,0.0019386715721339,0,
00:00:03.208,0.00283082481473684,0.0207885261625052,-0.00258962344378233,0,
00:00:03.212,0.0160247962921858,0.0175922587513924,-0.00216720206663013,0,
00:00:03.216,-0.0111562665551901,-0.0118077201768756,-0.00457230629399419,0,
00:00:03.22,-0.00520245917141438,-0.0115375593304634,0.00272302189841866,0,
00:00:03.224,0.00545019889250398,0.00291391066275537,0.0147201111540198,0,
00:00:03.228,-0.00254797097295523,0.00736003927886486,-0.00929149705916643,0,
00:00:03.232,-0.00332843721844256,-0.00814203172922134,-0.00604722229763865,0,
00:00:03.236,-0.00340296048671007,-0.0015251183649525,0.00135442218743265,0,
00:00:03.24,0.00682724080979824,0.00686801690608263,0.00470368564128876,0,
00:00:03.244,-0.00277417409233749,-0.00291715352796018,-0.00259496737271547,0,
00:00:03.248,-0.0017992208013311,-0.00421560415998101,0.00240781717002392,0,
00:00:03.252,0.00306237023323774,-0.00599093129858375,0.000758855778258294,0,
00:00:03.256,-0.00178603734821081,-0.00769443716853857,-0.00553003838285804,0,
00:00:03.26,0.0104165831580758,0.0193435810506344,-0.00219655339606106,0,
00:00:03.264,-0.00387688097544014,0.00814676936715841,0.0059624332934618,0,
00:00:03.268,-0.00816942099481821,-0.00341267581097782,-0.000622530758846551,0,
00:00:03.272,0.000867501832544804,0.00245640985667706,0.00128327438142151,0,
00:00:03.276,-3.64607949450146E-05,0.000613837852142751,0.00250237178988755,0,
00:00:03.28,-0.00132667040452361,-0.0256918054074049,-0.00266146124340594,0,
00:00:03.284,0.0032556913793087,-0.0036432093475014,-0.000671376008540392,0,
00:00:03.288,0.00066650309599936,0.0109519809484482,-0.00713910860940814,0,
00:00:03.292,-0.00358848343603313,0.00480930507183075,0.002882887609303,0,
00:00:03.296,0.0128259127959609,0.0068189175799489,0.0105760339647532,0,
00:00:03.3,0.00183784193359315,0.0120833562687039,-0.00782530382275581,0,
00:00:03.304,-0.00199569691903889,0.00828599091619253,-0.00117563246749341,0,
00:00:03.308,-0.0218742061406374,-0.0192618891596794,0.00121784524526447,0,
00:00:03.312,-0.00609403196722269,-0.029554158449173,0.00129596062470227,0,
00:00:03.316,0.0156221939250827,0.0047391876578331,-0.00155357120092958,0,
00:00:03.32,0.00353828608058393,0.0147652998566628,-0.000309950351947919,0,
00:00:03.324,0.00357240997254848,0.000928658701013774,0.00515586929395795,0,
00:00:03.328,0.00344793871045113,0.0175958462059498,-0.00270878965966403,0,
00:00:03.332,0.00327026238664985,0.0141250547021627,0.00152361940126866,0,
00:00:03.336,-0.00562542304396629,-0.019222229719162,-0.00234550214372575,0,
00:00:03.34,-0.00701570324599743,-0.0247595012187958,-0.00210596946999431,0,
00:00:03.344,-0.0102084716781974,-0.00657903216779232,-0.000520889065228403,0,
00:00:03.348,-0.000367066531907767,0.0173007789999247,0.000775912078097463,0,
00:00:03.352,0.0112255327403545,0.0120323495939374,0.0012098029255867,0,
00:00:03.356,0.00622779969125986,0.00542578706517816,0.000918841746170074,0,
00:00:03.36,0.0159725993871689,-0.000795259664300829,0.000329648755723611,0,
00:00:03.364,-0.0155875971540809,-0.0231677517294884,-0.00224841316230595,0,
00:00:03.368,-0.0185131505131722,0.0106391962617636,0.00572575023397803,0,
00:00:03.372,0.00246428954415023,0.00915631745010614,-0.00267538940533996,0,
00:00:03.376,0.00823921244591475,-0.00640734191983938,-0.00537383696064353,0,
00:00:03.38,0.0102845234796405,-0.00615878310054541,-0.00130411807913333,0,
00:00:03.384,-0.0104999132454395,-0.00750605762004852,0.00437880493700504,0,
00:00:03.388,0.00303637096658349,0.00843073707073927,0.00544324051588774,0,
00:00:03.392,0.00968677643686533,0.0188157558441162,0.000696542963851243,0,
00:00:03.396,0.00675595412030816,-0.00488113891333342,-0.00707638869062066,0,
00:00:03.4,-0.0230772700160742,-0.0142345624044538,-0.00379259721376002,0,
00:00:03.404,-0.0130950771272182,-0.00240439898334444,0.00509268837049603,0,
00:00:03.408,0.00515960529446602,-0.00576281640678644,-0.000666262465529144,0,
00:00:03.412,0.0136652467772365,0.00288672395981848,0.00382617441937327,0,
00:00:03.416,0.00920587498694658,0.0185959227383137,-0.000981695018708706,0,
00:00:03.42,-0.000549736781977117,0.00367326592095196,-0.00402247253805399,0,
00:00:03.424,0.000234607970924117,-0.00295006786473095,0.00287728547118604,0,
00:00:03.428,-0.00555801670998335,-0.00901710335165262,0.00165149907115847,0,
00:00:03.432,-0.0155352642759681,-0.0167633723467588,-0.00493449438363314,0,
00:00:03.436,0.0118827540427446,0.00438697542995214,0.00208616396412253,0,
00:00:03.44,0.00913367606699467,0.0186634622514248,0.00182020594365895,0,
00:00:03.444,-0.00422074133530259,0.00784242153167725,-0.00419218325987458,0,
00:00:03.448,-0.0120490025728941,-0.0147455455735326,0.000721298973076046,0,
00:00:03.452,-0.000946691201534122,-0.0140171619132161,-3.07964728563093E-05,0,
00:00:03.456,0.0157472770661116,0.0270334184169769,0.00339174037799239,0,
00:00:03.46,0.00644639693200588,0.010499688796699,0.00812074821442366,0,
00:00:03.464,-0.0191040132194757,-0.0373081415891647,-0.006337677128613,0,
00:00:03.468,-0.00742278713732958,-0.0167161095887423,-0.00659883581101894,0,
00:00:03.472,0.0187994465231895,0.0183702036738396,-0.0104674678295851,0,
00:00:03.476,-0.00305655365809798,0.00878201797604561,0.0095932949334383,0,
00:00:03.48,-0.00473801977932453,0.0112767312675714,0.0117674674838781,0,
00:00:03.484,0.0116110593080521,0.0193478167057037,0.00119018135592341,0,
00:00:03.488,-0.00141755992081016,0.0046330327168107,-0.00412331055849791,0,
00:00:03.492,-0.00891151465475559,-0.0350835509598255,-0.00476992223411798,0,
00:00:03.496,-0.00801037717610598,-0.0273046270012856,-0.00279473327100277,0,
00:00:03.5,-0.00678498484194279,-0.00269162328913808,0.00175326981116086,0,
00:00:03.504,0.00859946850687265,0.0229422505944967,-0.000677868782076985,0,
00:00:03.508,0.014638532884419,0.0310562197118998,-0.00202473509125412,0,
00:00:03.512,0.00781730841845274,0.00416813464835286,0.00299243303015828,0,
00:00:03.516,-0.0137049872428179,-0.0158250853419304,0.000794429623056203,0,
00:00:03.52,-0.00308872340247035,-0.0125869205221534,0.00292403367348015,0,
00:00:03.524,0.000270106713287532,-0.0119952177628875,0.000907085137441754,0,
00:00:03.528,0.000716672511771321,0.000210881742532365,-0.00329982722178102,0,
00:00:03.532,0.00243427115492523,0.0147599391639233,0.00413216417655349,0,
00:00:03.536,-0.00817022100090981,0.00343568273819983,-0.0038154402282089,0,
00:00:03.54,0.00836685951799154,0.0106584513559937,-0.00774855259805918,0,
00:00:03.544,-0.00336731015704572,-0.018641235306859,0.00520172109827399,0,
00:00:03.548,-0.00411143945530057,-0.00517608039081097,0.000639074190985411,0,
00:00:03.552,0.00540243834257126,0.0129356700927019,0.00692606251686811,0,
00:00:03.556,0.0211295876652002,0.0200414322316647,-0.00265715573914349,0,
00:00:03.56,-0.00888175703585148,-0.00720082269981503,-0.00592947704717517,0,
00:00:03.564,-0.0232801213860512,-0.0242529399693012,0.000158854832989164,0,
00:00:03.568,-0.00512845115736127,-0.00790892820805311,0.00617935042828321,0,
00:00:03.572,0.00395807949826121,0.0015128084924072,-0.00437907036393881,0,
00:00:03.576,0.00673481542617083,0.00171289779245853,-0.000763993302825838,0,
00:00:03.58,0.00763424625620246,0.00603092461824417,-0.00114027783274651,0,
00:00:03.584,0.013233482837677,0.0218029618263245,0.00313443155027926,0,
00:00:03.588,0.0011889023007825,0.00978508032858372,0.00227222172543406,0,
00:00:03.592,-0.0106240650638938,-0.00316471327096224,0.00224142032675445,0,
00:00:03.596,-0.0104513010010123,-0.0269212704151869,-0.00529409386217594,0,
00:00:03.6,-0.00472927186638117,-0.00716742547228932,0.000922981416806579,0,
00:00:03.604,-0.0134380692616105,-0.0186819303780794,-0.00143467355519533,0,
00:00:03.608,0.0242240186780691,0.0144829591736197,-0.000773055187892169,0,
00:00:03.612,0.0118486490100622,0.0308751668781042,0.000402366538764909,0,
00:00:03.616,-0.0115544497966766,0.00421433430165052,-0.0010718572884798,0,
00:00:03.62,-0.00400957325473428,-0.00537980627268553,0.00287472945638001,0,
00:00:03.624,0.0087697533890605,-0.0069099273532629,0.00205199746415019,0,
00:00:03.628,-0.00808578915894032,-0.0153929106891155,0.00216857763007283,0,
00:00:03.632,-0.00734551064670086,0.00134088040795177,-0.00317412964068353,0,
00:00:03.636,0.0176144745200872,0.0035653302911669,-0.00511734839528799,0,
00:00:03.64,-0.00146257306914777,-0.0021489760838449,0.000941849022638053,0,
00:00:03.644,-0.00690821604803205,0.0294716227799654,0.00235787266865373,0,
00:00:03.648,-0.00916215684264898,-0.00363595108501613,0.00366068375296891,0,
00:00:03.652,0.00294655514881015,-0.028590951114893,0.000415066664572805,0,
00:00:03.656,-0.00513581372797489,-0.0160714834928513,-1.95439315575641E-05,0,
00:00:03.66,0.0130820022895932,0.0109361223876476,-0.00862961821258068,0,
00:00:03.664,0.00655567925423384,0.0114277880638838,-0.00326768914237618,0,
00:00:03.668,-0.00261741527356207,0.0152143333107233,0.00497888214886189,0,
00:00:03.672,-0.00444770697504282,0.00418435409665108,0.00324017577804625,0,
00:00:03.676,0.00741995591670275,-0.0057215103879571,0.00019826865172945,0,
00:00:03.68,-0.00650564255192876,-0.0131786726415157,0.00706751178950071,0,
00:00:03.684,-0.0155970370396972,-0.00895942002534866,0.00146104872692376,0,
00:00:03.688,0.00303069432266057,0.00296790222637355,-0.00406823307275772,0,
00:00:03.692,0.0101851001381874,0.0150984404608607,-0.0138236116617918,0,
00:00:03.696,0.00600992050021887,0.00358025869354606,0.00222270400263369,0,
00:00:03.7,-0.00617447635158896,-0.0169723220169544,0.00795554742217064,0,
00:00:03.704,-0.00161614583339542,0.00327520142309368,0.00399769935756922,0,
00:00:03.708,0.00727121904492378,0.00349319051019847,-0.00290411082096398,0,
00:00:03.712,0.00602103536948562,-0.000173380234627984,-0.00737962033599615,0,
00:00:03.716,-0.0181162878870964,-0.00614284398034215,0.00269164005294442,0,
00:00:03.72,-0.0090841818600893,0.010796089656651,0.00592760974541307,0,
00:00:03.724,0.0122846066951752,0.0120750144124031,0.00179296697024256,0,
00:00:03.728,0.00824506208300591,-0.0144637208431959,-0.00209110206924379,0,
00:00:03.732,-0.00423139240592718,-0.0052467780187726,-0.00745366234332323,0,
00:00:03.736,0.0180916804820299,0.0010843601776287,-0.00456700567156076,0,
00:00:03.74,-0.0146633330732584,0.00105337775312364,0.00457653636112809,0,
00:00:03.744,-0.0158593263477087,-0.0103432424366474,0.00807775463908911,0,
00:00:03.748,0.000930282811168581,0.001245784224011,0.00552552798762918,0,
00:00:03.752,0.00688066240400076,0.0160559713840485,-0.00352833652868867,0,
00:00:03.756,0.0102059599012136,0.0078323669731617,-0.00753498962149024,0,
00:00:03.76,-0.0014052907936275,-0.00911534018814564,0.00262663513422012,0,
00:00:03.764,-0.00811145640909672,-0.00824389047920704,-0.00291211460717022,0,
00:00:03.768,-0.00279616215266287,-0.00646304525434971,-0.00170346430968493,0,
00:00:03.772,0.00884421728551388,0.0124630518257618,-0.00130581937264651,0,
00:00:03.776,0.000498463865369558,-0.00310549745336175,0.00406549032777548,0,
00:00:03.78,0.00644577015191317,0.0123802190646529,0.00563182029873133,0,
00:00:03.784,-0.00741144921630621,0.00016629030869808,-0.000900540966540575,0,
00:00:03.788,-0.00914587918668985,-0.0161531921476126,-0.0109400972723961,0,
00:00:03.792,-0.0104851806536317,-0.0212228987365961,0.010105318389833,0,
00:00:03.796,0.0136285191401839,0.0200659763067961,0.00411451794207096,0,
00:00:03.8,0.0223658718168736,0.0177115593105555,-0.0020188195630908,0,
00:00:03.804,-0.00496838195249438,0.00560225639492273,-0.00651755556464195,0,
00:00:03.808,-0.0123410178348422,-0.0171806514263153,-0.00774360727518797,0,
00:00:03.812,-0.0108021441847086,-0.00730984844267368,0.00439946632832289,0,
00:00:03.816,-0.0041543822735548,3.87626751034986E-05,0.00598547421395779,0,
00:00:03.82,0.000307771551888436,-0.00686530396342278,0.00518440874293447,0,
00:00:03.824,0.00560652418062091,0.00731795514002442,-9.3801150796935E-05,0,
00:00:03.828,0.0256956461817026,0.0390062779188156,-0.00978832226246595,0,
00:00:03.832,0.0161115452647209,-0.0157584901899099,-0.00207881233654916,0,
00:00:03.836,-0.0348861888051033,-0.0310659743845463,0.0109379040077329,0,
00:00:03.84,-0.0194942764937878,0.00324793625622988,-9.45678912103176E-05,0,
00:00:03.844,0.00448268232867122,0.00696365814656019,-0.0102977016940713,0,
00:00:03.848,0.00944131426513195,-0.0118740741163492,0.00244286586530507,0,
00:00:03.852,0.0128788165748119,0.0130751235410571,0.00377379101701081,0,
00:00:03.856,0.00261179637163877,0.0225367750972509,-0.00481390301138163,0,
00:00:03.86,-0.00119415030349046,-0.00888288859277964,0.00513813551515341,0,
00:00:03.864,-0.00672591803595424,-0.0105454502627254,0.00126439635641873,0,
00:00:03.868,-0.00292716617695987,-0.00801095645874739,0.00131779233925045,0,
00:00:03.872,-0.00734124705195427,0.00139799015596509,-0.00742988660931587,0,
00:00:03.876,0.00393007788807154,0.00430928450077772,-0.0048790336586535,0,
00:00:03.88,0.00978779792785645,0.00344863743521273,0.017009349539876,0,
00:00:03.884,-0.000850838434416801,-0.000799654924776405,-0.00367456837557256,0,
00:00:03.888,-0.00742501020431519,0.00350112817250192,-0.00848124269396067,0,
00:00:03.892,-0.000274101766990498,-0.00167929090093821,0.00749766221269965,0,
00:00:03.896,0.000780315021984279,-0.0047406405210495,-0.00319704576395452,0,
00:00:03.9,0.0171634443104267,0.00037847162457183,-0.00367651507258415,0,
00:00:03.904,-0.00703199626877904,0.00357996812090278,-0.00503829447552562,0,
00:00:03.908,-0.0163081306964159,-0.00723091140389442,0.00541682122275233,0,
00:00:03.912,-0.00297589041292667,-0.00595445604994893,0.00961646623909473,0,
00:00:03.916,0.00787495449185371,0.0246297866106033,-0.00411524018272758,0,
00:00:03.92,0.0284598357975483,0.0179251562803984,-0.00878464430570602,0,
00:00:03.924,-0.0207371637225151,-0.0351854003965855,0.0026233266107738,0,
00:00:03.928,-0.0260678771883249,-0.0372895449399948,0.0191425904631615,0,
00:00:03.932,0.0226334780454636,0.0324148274958134,-0.0113913975656033,0,
00:00:03.936,0.0121271535754204,0.0242314413189888,-0.0117898900061846,0,
00:00:03.94,-0.0179044473916292,-0.0076240599155426,-0.00306781032122672,0,
00:00:03.944,0.00364657933823764,0.00116346345748752,0.0102239092811942,0,
00:00:03.948,-0.000788771954830736,0.00205544126220047,0.00226175878196955,0,
00:00:03.952,0.0155018176883459,-0.00293711828999221,-0.00259047118015587,0,
00:00:03.956,-0.00724966498091817,-0.0203424599021673,0.00100736413151026,0,
00:00:03.96,-0.0112860761582851,-0.0119712175801396,0.00518219172954559,0,
00:00:03.964,-0.00791180413216352,0.0186790097504854,-0.00394379114732146,0,
00:00:03.968,0.0113967759534717,0.0157194957137108,-0.0061147129163146,0,
00:00:03.972,0.0134346708655357,0.00356363249011338,0.000736155139748007,0,
00:00:03.976,-0.00232682027854025,-0.0137637527659535,0.000698632793501019,0,
00:00:03.98,-0.00917200744152069,-0.0062351324595511,0.00411328068003058,0,
00:00:03.984,-0.00549130048602819,0.00499312393367291,0.000216959262616001,0,
00:00:03.988,-0.00832406524568796,-0.0061331451870501,0.00162145704962313,0,
00:00:03.992,0.00902625638991594,0.00838691461831331,-0.00433070864528418,0,
00:00:03.996,0.016201188787818,0.00829416140913963,0.00645275926217437,0,
00:00:04,0.00246889865957201,0.0106169627979398,-0.00247519859112799,0,
00:00:04.004,-0.0145474346354604,-0.0255982801318169,0.000200980590307154,0,
00:00:04.008,0.00620271963998675,-0.00433087255805731,-0.00809237919747829,0,
00:00:04.012,-0.0105214612558484,-0.00640433374792337,0.00102484948001802,0,
00:00:04.016,-0.00731975166127086,0.0107948044314981,-0.0032708840444684,0,
00:00:04.02,0.0215323083102703,0.0235106870532036,0.00788769777864218,0,
00:00:04.024,-0.00543138431385159,-0.00107261596713215,-0.000860478146933019,0,
00:00:04.028,-0.00530659267678857,-0.0196029376238585,0.00800086837261915,0,
00:00:04.032,-0.00173696107231081,-0.0108258947730064,-0.00448480155318975,0,
00:00:04.036,-0.00709683867171407,0.00376620003953576,-0.00487666111439466,0,
00:00:04.04,0.0142860198393464,0.00830520410090685,0.000492663297336549,0,
00:00:04.044,0.00430993642657995,0.0124896401539445,0.00127672590315342,0,
00:00:04.048,-0.0020496619399637,-0.00194654159713537,0.00263428571633995,0,
00:00:04.052,-0.0124787064269185,-0.00645767990499735,-0.00215509650297463,0,
00:00:04.056,0.0108414916321635,-0.00511556724086404,-0.00210485141724348,0,
00:00:04.06,-0.00057189108338207,0.00239882385358214,0.00155070924665779,0,
00:00:04.064,-0.00157218321692199,-0.0029155882075429,-0.00951042864471674,0,
00:00:04.068,0.00173153122887015,-0.00316376890987158,0.00743637653067708,0,
00:00:04.072,-0.00581150129437447,0.00143979769200087,0.0114057334139943,0,
00:00:04.076,-0.0162481926381588,0.00410332717001438,-5.40820110472851E-05,0,
00:00:04.08,0.0121951485052705,0.00781346391886473,-0.00574372103437781,0,
00:00:04.084,0.0169185325503349,0.00168765394482762,-0.0099480664357543,0,
00:00:04.088,-0.0101318880915642,-0.0162158515304327,-0.00719153834506869,0,
00:00:04.092,0.00335850520059466,0.00661251181736588,0.0136345606297255,0,
00:00:04.096,0.00395970465615392,0.0167176276445389,0.0050858911126852,0,
00:00:04.1,-0.0103058274835348,-0.0116024892777205,-0.000328985013766214,0,
00:00:04.104,-0.00160775077529252,-0.0244139824062586,-0.00257735955528915,0,
00:00:04.108,0.00381333916448057,0.00847898237407207,-0.00456531438976526,0,
00:00:04.112,-0.00611587194725871,0.0157657284289598,-0.00138018850702792,0,
00:00:04.116,0.0116847353056073,0.0136337773874402,0.00775941181927919,0,
00:00:04.12,0.00103045860305429,-0.00994260516017675,-0.00140258378814906,0,
00:00:04.124,-0.00393963931128383,-0.00727252243086696,-0.00518829142674804,0,
00:00:04.128,-0.010398774407804,-0.00667529879137874,0.00443594763055444,0,
00:00:04.132,-0.000246749026700854,-0.0181571394205093,-0.00215892842970788,0,
00:00:04.136,0.00712553272023797,0.0143117923289537,-0.00193677714560181,0,
00:00:04.14,-0.00502195907756686,0.0211283564567566,-0.00206428044475615,0,
00:00:04.144,0.0130538521334529,0.0118952197954059,0.00121686619240791,0,
00:00:04.148,0.0104599129408598,-0.00511029129847884,0.000911902170628309,0,
00:00:04.152,-0.00125670211855322,-0.0239565968513489,0.0107212699949741,0,
00:00:04.156,-0.0192671101540327,-0.0103018349036574,0.000748018675949425,0,
00:00:04.16,-0.0161563027650118,-0.00122619501780719,-0.00935765355825424,0,
00:00:04.164,0.00833385623991489,0.0253755077719688,-0.00397407123818994,0,
00:00:04.168,0.00908402260392904,0.00574012519791722,-3.52984279743396E-05,0,
00:00:04.172,0.00145737733691931,-0.0117474952712655,0.00190255953930318,0,
00:00:04.176,0.00320579786784947,-0.0104677528142929,0.00623651593923569,0,
00:00:04.18,-0.00256182136945426,0.0075714560225606,-0.00476402929052711,0,
00:00:04.184,-0.00082899525295943,-0.00421980349346995,-0.00314541347324848,0,
00:00:04.188,-0.000890687457285821,-0.000171375839272514,0.00280888169072568,0,
00:00:04.192,0.0138819785788655,0.0147235412150621,0.00284652085974813,0,
00:00:04.196,0.00485557597130537,-0.000808631360996515,0.00505101447924972,0,
00:00:04.2,-0.0245123617351055,-0.00551885040476918,-0.00681469682604074,0,
00:00:04.204,-0.00250766729004681,0.00380317610688508,-0.00479848217219114,0,
00:00:04.208,0.00254121306352317,0.00292875501327217,7.19695162842982E-05,0,
00:00:04.212,0.00453561497852206,-0.0197475366294384,0.00713954493403435,0,
00:00:04.216,0.00587606756016612,-0.0110057145357132,0.00333177554421127,0,
00:00:04.22,-0.00230168551206589,0.00523855304345489,-0.00356076005846262,0,
00:00:04.224,0.0001316795242019,0.0234669893980026,-0.00370191154070199,0,
00:00:04.228,-0.00394531898200512,0.00750107225030661,-0.00558538595214486,0,
00:00:04.232,0.0119347870349884,0.00052566482918337,0.00460691936314106,0,
00:00:04.236,-0.00316854985430837,-0.0116731422021985,0.00691733509302139,0,
00:00:04.24,-0.0170456189662218,-0.00964569952338934,-0.00234984327107668,0,
00:00:04.244,0.0015352068003267,-0.0133656822144985,0.00131692935246974,0,
00:00:04.248,0.0138820670545101,0.0185484010726213,0.00145235727541149,0,
00:00:04.252,0.00853693764656782,0.0109339635819197,-0.0084273312240839,0,
00:00:04.256,-0.00878654699772596,0.00188078230712563,-0.00199134834110737,0,
00:00:04.26,-0.0126829007640481,-0.0124670993536711,-4.94401647301856E-05,0,
00:00:04.264,0.00128232664428651,-0.0104341572150588,0.00508435489609838,0,
00:00:04.268,-0.00277099828235805,-0.00875864457339048,0.00383009179495275,0,
00:00:04.272,0.0101806791499257,0.0078801391646266,0.00285634724423289,0,
00:00:04.276,0.00994905550032854,0.0215991977602243,-0.00344590796157718,0,
00:00:04.28,0.00759508833289146,0.024251027032733,-0.00376471481285989,0,
00:00:04.284,-0.0110418684780598,-0.0139230312779546,-0.00171020778361708,0,
00:00:04.288,-0.00525333546102047,-0.0241101700812578,-0.00171750516165048,0,
00:00:04.292,-0.012776686809957,-0.0221435949206352,0.00544292293488979,0,
00:00:04.296,-0.0116054518148303,-0.000509933917783201,0.00101545883808285,0,
00:00:04.3,0.0157849714159966,0.0206320658326149,0.00131561898160726,0,
00:00:04.304,0.0215698070824146,0.0145201589912176,-0.00506932707503438,0,
00:00:04.308,-0.00474185962229967,0.00879052840173244,-0.00235036504454911,0,
00:00:04.312,-0.00234867562539876,-0.00290494365617633,0.00541781494393945,0,
00:00:04.316,-0.0041126012802124,-0.00311753340065479,0.000908108369912952,0,
00:00:04.32,-0.0127248037606478,-0.0251305401325226,-0.000986657338216901,0,
00:00:04.324,0.00935673899948597,-0.00349877309054136,-0.00122077181003988,0,
00:00:04.328,-0.00182152818888426,0.0163036435842514,-0.00276207295246422,0,
00:00:04.332,-0.00131824426352978,0.00605721259489655,0.00400212313979864,0,
00:00:04.336,0.00757549842819572,-0.00459394883364439,-0.00207064114511013,0,
00:00:04.34,0.000757738831453025,0.0009541554027237,0.000917510944418609,0,
00:00:04.344,-0.0111161042004824,0.000553407415281981,0.00296089565381408,0,
00:00:04.348,0.00269299489445984,-0.00709164096042514,0.000152290449477732,0,
00:00:04.352,0.00690311938524246,0.0024120039306581,-0.00622660387307405,0,
00:00:04.356,-0.00169284990988672,-0.000372635578969494,-0.00253600627183914,0,
00:00:04.36,-0.0105350287631154,-0.00460001640021801,0.00185103318654001,0,
00:00:04.364,0.0156455487012863,0.0252214446663857,0.00772198941558599,0,
00:00:04.368,0.0118539286777377,0.00348049006424844,0.00501678977161646,0,
00:00:04.372,-0.0125543316826224,-0.0179638899862766,-0.0104667376726866,0,
00:00:04.376,-0.0173134263604879,-0.0207916777580976,-0.00412381812930107,0,
00:00:04.38,-0.0113549148663878,-0.00595027673989534,0.00543566141277552,0,
00:00:04.384,0.0138505650684237,0.0115913189947605,0.00572780193760991,0,
00:00:04.388,0.0207849554717541,0.0228757709264755,-0.00635423650965095,0,
00:00:04.392,-0.00406913086771965,0.0028342199511826,-0.00423880340531468,0,
00:00:04.396,-0.00314746121875942,-0.00156425987370312,0.0047105080448091,0,
00:00:04.4,-0.00527144782245159,-0.0107337012887001,-0.000724781129974872,0,
00:00:04.404,-0.00054298696340993,-0.00952161941677332,0.00189019623212516,0,
00:00:04.408,-0.00578492833301425,0.000743767421226949,0.00114749907515943,0,
00:00:04.412,0.0165768153965473,0.0170951597392559,-0.000242405993049033,0,
00:00:04.416,-0.00286318059079349,-0.00560137676075101,0.00104019430000335,0,
00:00:04.42,-0.0180171485990286,-0.00583542603999376,-0.00507698440924287,0,
00:00:04.424,0.0111601771786809,-0.00288918474689126,0.00187420344445854,0,
00:00:04.428,-0.00442499574273825,-0.00803177151829004,-0.00257060350850224,0,
00:00:04.432,-0.00182350783143193,0.0016469806432724,-0.00244800234213471,0,
00:00:04.436,0.0113677512854338,0.0145984888076782,0.0101581383496523,0,
00:00:04.44,0.00303026149049401,0.0168145969510078,-0.00392670370638371,0,
00:00:04.444,-0.0134981088340282,-0.00878007709980011,0.00488300900906324,0,
00:00:04.448,0.00496507342904806,-0.0149148078635335,0.00267138774506748,0,
00:00:04.452,0.00892000086605549,-0.00107054086402059,-0.0141587806865573,0,
00:00:04.456,-0.00183340383227915,-0.000413292727898806,-0.0109031479805708,0,
00:00:04.46,-0.0207492932677269,-0.00938865635544062,0.0134938098490238,0,
00:00:04.464,0.00663936790078878,0.00964101776480675,0.017609728500247,0,
00:00:04.468,0.00146374211180955,0.0119487401098013,-0.00997810624539852,0,
00:00:04.472,0.0162919741123915,-0.000572587014175951,-0.0076661417260766,0,
00:00:04.476,-0.0049876905977726,-0.00194540084339678,0.000145471727591939,0,
00:00:04.48,-0.000512253667693585,-0.00107806967571378,0.00221546203829348,0,
00:00:04.484,-0.00214187311939895,-0.00479829497635365,0.00166162149980664,0,
00:00:04.488,-0.00118872884195298,-0.00513843121007085,0.000446556747192517,0,
00:00:04.492,-0.01691616140306,-0.00435123918578029,-0.00250709592364728,0,
00:00:04.496,0.0115971313789487,0.0114688761532307,0.00542930141091347,0,
00:00:04.5,0.0168993454426527,0.0177392680197954,-0.00281253247521818,0,
00:00:04.504,-0.00189802586100996,3.11851763399318E-05,-0.00325078261084855,0,
00:00:04.508,-0.0237112883478403,-0.0375918298959732,-0.00312790600582957,0,
00:00:04.512,-0.00224202312529087,-0.00864461343735456,0.0070433858782053,0,
00:00:04.516,0.0104587962850928,0.0263834185898304,-0.000666636507958174,0,
00:00:04.52,0.00932612363249063,0.00941102858632803,-0.0080541567876935,0,
00:00:04.524,0.00120879453606904,-0.00829529296606779,0.00933463871479034,0,
00:00:04.528,-0.00414624065160751,0.00406287657096982,0.00344505882821977,0,
00:00:04.532,0.00973089132457972,0.000504767813254148,-0.0038949956651777,0,
00:00:04.536,-0.00592554360628128,0.00242743501439691,0.00234394241124392,0,
00:00:04.54,-0.0168571919202805,-0.00829228106886148,-0.0114679327234626,0,
00:00:04.544,0.00114945112727582,0.00331262545660138,-0.00847556535154581,0,
00:00:04.548,0.00465053459629416,-0.00516989501193166,0.0144101800397038,0,
00:00:04.552,0.00537852616980672,-0.00689275376498699,0.0130127156153321,0,
00:00:04.556,0.0117985419929028,0.0156928617507219,-0.00293101882562041,0,
00:00:04.56,-0.0092357536777854,-0.00323256617411971,-0.00927622802555561,0,
00:00:04.564,-0.00176461087539792,-0.000797033135313541,-0.00116738444194198,0,
00:00:04.568,-0.000914516160264611,-0.00117459788452834,0.00238357088528574,0,
00:00:04.572,-0.00947909988462925,-0.00553381303325295,-0.00191534729674459,0,
00:00:04.576,0.0070122298784554,-0.00521848164498806,-0.0142326634377241,0,
00:00:04.58,0.000202399882255122,0.00284004746936262,0.00752896536141634,0,
00:00:04.584,0.0134156467393041,0.0112536596134305,0.0169897191226482,0,
00:00:04.588,-0.0014456290518865,0.0248456299304962,0.0100509226322174,0,
00:00:04.592,-0.00560139585286379,-0.00843942444771528,-0.0195442717522383,0,
00:00:04.596,-0.0170230660587549,-0.0338584706187248,-0.015107317827642,0,
00:00:04.6,-0.00254173344001174,-0.00679266359657049,0.0127534121274948,0,
00:00:04.604,0.00119617185555398,-0.0112477652728558,0.012423375621438,0,
00:00:04.608,0.0256863292306662,0.0284390300512314,-0.00106069794856012,0,
00:00:04.612,0.00292257149703801,0.0282952804118395,-0.0172373633831739,0,
00:00:04.616,-0.00891480315476656,0.00182663183659315,0.00167095731012523,0,
00:00:04.62,-0.00993063021451235,-0.0267150122672319,0.00156775990035385,0,
00:00:04.624,-0.00294257327914238,-0.0147833144292235,0.00546833593398333,0,
00:00:04.628,0.00697817606851459,0.00624564895406365,0.00358796701766551,0,
00:00:04.632,0.000662755104713142,0.00227158633060753,0.0045120557770133,0,
00:00:04.636,0.0165714845061302,0.00793433282524347,-0.00782405212521553,0,
00:00:04.64,-0.00917116086930037,0.0064477170817554,-0.00356767605990171,0,
00:00:04.644,-0.0247982516884804,-0.00460248161107302,-0.0022945140954107,0,
00:00:04.648,0.0080345394089818,-0.000863537832628936,0.00345794064924121,0,
00:00:04.652,0.0112573504447937,-0.00382238836027682,0.00747223617509007,0,
00:00:04.656,0.00459657842293382,-0.000310615607304499,-0.00276711955666542,0,
00:00:04.66,-0.0162964817136526,-0.0061205318197608,-0.00396795803681016,0,
00:00:04.664,0.00534248258918524,-0.00238757836632431,-0.00386761175468564,0,
00:00:04.668,0.00363249471411109,0.00664230156689882,0.000388237764127553,0,
00:00:04.672,0.013305694796145,0.0194827597588301,0.00102670327760279,0,
00:00:04.676,0.00613334774971008,0.00793049018830061,0.011339052580297,0,
00:00:04.68,-0.0160313528031111,-0.0162024702876806,-0.000684625294525176,0,
00:00:04.684,-0.0217475984245539,-0.0313501171767712,-0.00700381910428405,0,
00:00:04.688,-0.00159558234736323,-0.00790273770689964,0.00187861733138561,0,
00:00:04.692,0.0109801394864917,0.0174516178667545,-0.00188736838754267,0,
00:00:04.696,0.0105252107605338,0.0279069244861603,-0.00856444332748652,0,
00:00:04.7,0.0133309178054333,0.0042850305326283,0.0070069576613605,0,
00:00:04.704,0.0104958722367883,-0.00716785760596395,-0.000658162287436426,0,
00:00:04.708,-0.00664242915809155,0.00111430254764855,0.00420323479920626,0,
00:00:04.712,-0.0280443504452705,-0.0159745346754789,-0.000173864071257412,0,
00:00:04.716,-0.00761831132695079,-0.00773466005921364,-0.00330791436135769,0,
00:00:04.72,0.00248182727955282,0.000863315130118281,-0.00100446818396449,0,
00:00:04.724,0.00634983694180846,-0.000783411029260606,0.0033453986980021,0,
00:00:04.728,0.0144711285829544,0.0177662130445242,0.00613736361265183,0,
00:00:04.732,-0.00609252508729696,-0.00821384228765965,-0.00431901076808572,0,
00:00:04.736,0.00702454103156924,0.00992421247065067,-0.00494622578844428,0,
00:00:04.74,0.00288432114757597,0.00794540345668793,-0.00611865753307939,0,
00:00:04.744,-0.00747473491355777,-0.0149208158254623,0.00484360102564096,0,
00:00:04.748,-0.00394606171175838,-0.011441390030086,0.00751057034358382,0,
00:00:04.752,0.00493979966267943,0.00272709340788424,0.00232757930643857,0,
00:00:04.756,-0.0137512413784862,-0.00889572594314814,-0.00239374279044569,0,
00:00:04.76,7.0514804974664E-05,0.019586618989706,-0.0101788118481636,0,
00:00:04.764,0.0194771010428667,0.0186299532651901,-0.0010788117069751,0,
00:00:04.768,0.00344756501726806,-0.0114596709609032,0.00813056062906981,0,
00:00:04.772,-0.0124142654240131,-0.014304424636066,0.00476509984582663,0,
00:00:04.776,-0.0165486168116331,-0.0148792332038283,-0.00471769645810127,0,
00:00:04.78,0.0160842053592205,0.00728100771084428,0.000518416229169816,0,
00:00:04.784,0.0138185992836952,0.024332283064723,-0.00212178565561771,0,
00:00:04.788,-0.00847973208874464,-0.00238733924925327,-0.00339251360855997,0,
00:00:04.792,-0.0197535622864962,-0.0171394478529692,0.00421286607161164,0,
00:00:04.796,0.000455238216090947,0.003974633757025,0.0027705617249012,0,
00:00:04.8,0.0288598127663136,-0.00065149215515703,-0.00238325214013457,0,
00:00:04.804,0.00449866522103548,0.00938553921878338,-0.0020900194067508,0,
00:00:04.808,-0.0181476101279259,0.00503424881026149,-0.00450604036450386,0,
00:00:04.812,-0.0146348038688302,-0.0121587188914418,0.00484431581571698,0,
00:00:04.816,-0.000985756167210639,-0.0122179966419935,0.00652184756472707,0,
00:00:04.82,0.0122189316898584,0.00422113435342908,0.00118663650937378,0,
00:00:04.824,0.0115562453866005,0.0230488814413548,-0.00519739976152778,0,
00:00:04.828,-0.00182863359805197,-0.00588403036817908,-0.00629102718085051,0,
00:00:04.832,-0.00703638512641191,-0.0143040036782622,0.000907218898646533,0,
00:00:04.836,0.000539286702405661,-0.00721194036304951,0.00507059600204229,0,
00:00:04.84,0.00903587602078915,0.0184634737670422,0.000326166569720954,0,
00:00:04.844,-0.0168098825961351,-0.000829474127385765,-0.000905242282897234,0,
00:00:04.848,0.0166980493813753,-0.00210016476921737,-0.0027586086653173,0,
00:00:04.852,-0.0170951187610626,-0.00606003776192665,0.00598294846713543,0,
00:00:04.856,-0.0095378439873457,0.00082908442709595,-0.00624861987307668,0,
00:00:04.86,0.0106207951903343,0.00924977753311396,-0.000948834232985973,0,
00:00:04.864,0.0216717533767223,0.00257623684592545,0.00838224589824677,0,
00:00:04.868,-0.0115173105150461,-0.0165395997464657,-0.0012897684937343,0,
00:00:04.872,-0.0103492652997375,-0.000359587225830182,-0.0034693805500865,0,
00:00:04.876,0.00726821133866906,0.015993095934391,-0.00219919625669718,0,
00:00:04.88,0.00755347963422537,-0.00269160512834787,-0.0023036936763674,0,
00:00:04.884,-0.00241926964372396,-0.00608759606257081,0.000938388635404408,0,
00:00:04.888,-0.0118177738040686,-0.00533035257831216,0.00697699282318354,0,
00:00:04.892,-0.000268170522758737,0.000232938487897627,0.000671515765134245,0,
00:00:04.896,0.00587422726675868,0.0141888912767172,-5.81112581130583E-05,0,
00:00:04.9,-0.00678037852048874,-0.00794611126184464,-0.00224765203893185,0,
00:00:04.904,0.00777508458122611,-0.00623724749311805,-0.00904192589223385,0,
00:00:04.908,0.0247428733855486,0.00877841096371412,0.00209060334600508,0,
00:00:04.912,-0.0257616825401783,-0.00145001150667667,0.00672999117523432,0,
00:00:04.916,-0.0104093747213483,0.00401306850835681,-0.000995115609839559,0,
00:00:04.92,-0.00120618310756981,-0.00632849428802729,-0.00122827279847115,0,
00:00:04.924,0.00574064673855901,-0.00396294379606843,0.000155764530063607,0,
00:00:04.928,0.0113040283322334,0.00064164079958573,0.00506801437586546,0,
00:00:04.932,0.00263012223877013,0.00728467619046569,-0.00111450150143355,0,
00:00:04.936,-0.00662996619939804,-0.000981975696049631,-0.00510618044063449,0,
00:00:04.94,-0.00410877959802747,0.000126061771879904,0.00176544522400945,0,
00:00:04.944,0.0105913048610091,0.00145480397623032,0.00110252888407558,0,
00:00:04.948,0.000895200180821121,-0.00313131394796073,0.00138566130772233,0,
00:00:04.952,-0.0117119057103992,-0.00056254246737808,-0.00959318038076162,0,
00:00:04.956,-0.0105839297175407,-0.00256652268581092,0.00126105372328311,0,
00:00:04.96,0.00957542285323143,-0.00478702504187822,0.00873605441302061,0,
00:00:04.964,-0.00131086504552513,0.00942390505224466,0.00165640632621944,0,
00:00:04.968,0.0206828340888023,0.00127712043467909,-0.0104470308870077,0,
00:00:04.972,0.00592390354722738,-0.00154212536290288,0.00297679100185633,0,
00:00:04.976,-0.0220180880278349,0.00872027594596148,0.00265092542394996,0,
00:00:04.98,-0.0209745913743973,-0.0127513222396374,0.00608569942414761,0,
00:00:04.984,0.0119546018540859,-0.0144944991916418,-0.00324214762076736,0,
00:00:04.988,0.00774651346728206,0.00704824551939964,-0.00163708918262273,0,
00:00:04.992,0.00732324132695794,0.011325896717608,-0.00127256487030536,0,
00:00:04.996,0.00247028167359531,0.0130112580955029,-0.00292970356531441,0,
00:00:05,-0.00394073687493801,0.0028368984349072,0.00171594577841461,0,
00:00:05.004,0.00454269535839558,-0.0102191446349025,0.0081306891515851,0,
00:00:05.008,-0.00737761426717043,-0.0195444580167532,-0.0052365274168551,0,
00:00:05.012,-0.0123571595177054,-0.00617646472528577,-0.00529103353619576,0,
00:00:05.016,-0.00142371433321387,0.00459653232246637,-0.00128508557099849,0,
00:00:05.02,0.0134721854701638,0.01929921656847,0.00194466346874833,0,
00:00:05.024,0.0152939492836595,0.00389814632944763,0.000824144459329546,0,
00:00:05.028,-0.0116536226123571,0.00175911420956254,0.00402508489787579,0,
00:00:05.032,-0.00602248776704073,0.000540115986950696,0.00426631001755595,0,
00:00:05.036,0.00686493469402194,-0.00162480934523046,-0.00658860709518194,0,
00:00:05.04,-0.0025841889437288,-0.0159146189689636,0.00244496483355761,0,
00:00:05.044,-0.00658439798280597,-0.0190370101481676,-0.000806637515779585,0,
00:00:05.048,-0.0025634802877903,0.0076555828563869,-0.00149349484127015,0,
00:00:05.052,0.0039500780403614,0.0260507948696613,-0.000868763017933816,0,
00:00:05.056,0.00592531263828278,0.0181595832109451,-0.00205775257200003,0,
00:00:05.06,-0.00665544765070081,-0.0292702801525593,0.00462575349956751,0,
00:00:05.064,-0.000360082747647539,-0.00345154688693583,0.00447909999638796,0,
00:00:05.068,0.00940903089940548,0.0098749129101634,-0.00706769013777375,0,
00:00:05.072,-0.00265737134031951,-0.00908767431974411,-0.00430616270750761,0,
00:00:05.076,-0.00349609437398613,-0.00451221922412515,-0.0012111667310819,0,
00:00:05.08,0.000990784959867597,0.00737265218049288,0.00970912631601095,0,
00:00:05.084,-0.0114558860659599,-0.00160449102986604,0.00307396100834012,0,
00:00:05.088,0.0200663860887289,0.011937353760004,-0.0015871716896072,0,
00:00:05.092,0.0156958345323801,0.0171641353517771,-0.00323221529833972,0,
00:00:05.096,-0.0222038496285677,-0.0181142911314964,-0.0004951580776833,0,
00:00:05.1,-0.0218930952250957,-0.0197265222668648,-0.00293521932326257,0,
00:00:05.104,-0.00261540105566382,-0.00764175923541188,-0.00742052914574742,0,
00:00:05.108,0.0113734370097518,0.00632093381136656,0.0110018597915769,0,
00:00:05.112,0.00975652411580086,0.0118969548493624,-0.00131651083938777,0,
00:00:05.116,0.0434656664729118,0.0238767024129629,0.002757289679721,0,
00:00:05.12,-0.0151770189404488,-0.000263179448666051,0.0072792861610651,0,
00:00:05.124,-0.0385817885398865,-0.0277354381978512,-0.00925254635512829,0,
00:00:05.128,-0.0100502707064152,-0.00600044382736087,-0.00719540426507592,0,
00:00:05.132,-0.000338715850375593,0.00430473126471043,0.00348314200527966,0,
00:00:05.136,0.00830922555178404,0.00235422025434673,0.00181023916229606,0,
00:00:05.14,0.0273158438503742,0.0103816753253341,0.00326019315980375,0,
00:00:05.144,0.00226840609684587,0.0065576802007854,-0.0033619636669755,0,
00:00:05.148,-0.0100563457235694,-0.00856447592377663,-0.00155456608626992,0,
00:00:05.152,-0.00449844263494015,-0.00520200002938509,0.00532018393278122,0,
00:00:05.156,-0.00496971001848578,-0.00357257481664419,-0.00175350380595773,0,
00:00:05.16,-0.00383461592718959,0.0050771152600646,-0.0037852565292269,0,
00:00:05.164,-0.00504876207560301,-0.00049308140296489,0.00607064925134182,0,
00:00:05.168,0.0100307799875736,-0.0103955268859863,0.00695524225011468,0,
00:00:05.172,0.0191966760903597,0.0214210227131844,-0.0121192652732134,0,
00:00:05.176,-0.0075069391168654,0.00177306518889964,0.000825734867248684,0,
00:00:05.18,-0.00693177431821823,0.00177721667569131,-0.00248150550760329,0,
00:00:05.184,-0.0178101509809494,-0.0147080887109041,-0.000396160554373637,0,
00:00:05.188,0.00524709699675441,-0.0203041862696409,-0.000226470161578618,0,
00:00:05.192,0.0266607515513897,0.00948881916701794,0.00236693979240954,0,
00:00:05.196,-0.0075146914459765,0.0181054510176182,0.00943389255553484,0,
00:00:05.2,-0.0144542781636119,0.00150914560072124,-0.00176633044611663,0,
00:00:05.204,-0.00597702153027058,-0.00355069292709231,-0.00250530103221536,0,
00:00:05.208,0.00291210017167032,0.0028641908429563,-0.00518776895478368,0,
00:00:05.212,0.0128807984292507,-0.00332717248238623,-0.00448512192815542,0,
00:00:05.216,0.0120208486914635,-0.00261283945292234,0.000715580827090889,0,
00:00:05.22,-0.0126408627256751,-0.00897025316953659,0.00599720794707537,0,
00:00:05.224,-0.0175805240869522,-0.00616390444338322,0.00191315461415797,0,
00:00:05.228,0.00328246364369988,0.0126678086817265,0.00647850753739476,0,
00:00:05.232,0.00894769001752138,0.00571728311479092,-0.00433687074109912,0,
00:00:05.236,0.00434322142973542,0.00964754819869995,-0.00557797541841865,0,
00:00:05.24,-0.00062396889552474,-0.00702969171106815,0.00137880782131106,0,
00:00:05.244,-0.000632843526545912,-0.0169082991778851,-0.00775489723309875,0,
00:00:05.248,0.00830031558871269,0.00794166419655085,0.000615668832324445,0,
00:00:05.252,-0.00157426844816655,0.0115775009617209,0.00697843916714191,0,
00:00:05.256,-0.00647044507786632,-0.0115187242627144,0.00483558513224125,0,
00:00:05.26,-0.0266103111207485,-0.0177957825362682,0.00270685367286205,0,
00:00:05.264,0.0215089432895184,0.0197603087872267,-0.00213382765650749,0,
00:00:05.268,0.0238646920770407,0.0232758708298206,-0.00649173744022846,0,
00:00:05.272,-0.00654793111607432,-0.0094265341758728,-0.00788639206439257,0,
00:00:05.276,-0.0245781950652599,-0.0256917979568243,0.00207903073169291,0,
00:00:05.28,-0.0182940308004618,-0.00512491120025516,0.00775796920061111,0,
00:00:05.284,0.030665185302496,0.0180771425366402,0.00882224459201097,0,
00:00:05.288,0.0200175344944,0.00477354042232037,-0.00600655237212777,0,
00:00:05.292,-0.0224008355289698,-0.00338515057228506,-0.00614985963329673,0,
00:00:05.296,0.00384649122133851,0.00739628914743662,-0.00188059662468731,0,
00:00:05.3,-0.00566377863287926,-0.0104726376011968,0.0119919329881668,0,
00:00:05.304,-0.0118641639128327,-0.0072150407359004,-0.00712977722287178,0,
00:00:05.308,0.0128461793065071,0.00243889377452433,-0.00621610879898071,0,
00:00:05.312,0.00378740229643881,0.00496465712785721,0.00587752321735024,0,
00:00:05.316,0.0004703595477622,-0.000664412917103618,-0.00442729936912656,0,
00:00:05.32,-0.000625794753432274,0.000656674557831138,0.0031662646215409,0,
00:00:05.324,-0.00295213516801596,0.00198066676966846,0.00552678946405649,0,
00:00:05.328,0.00120208109728992,0.00167412147857249,-0.000824365939479321,0,
00:00:05.332,0.0156510733067989,0.0169888380914927,-0.00258004711940885,0,
00:00:05.336,-0.00974589772522449,-0.00418428052216768,0.00429235538467765,0,
00:00:05.34,-0.0225507188588381,-0.0263570956885815,-0.00651047471910715,0,
00:00:05.344,-0.00162472890224308,-0.01037731859833,-0.0148486839607358,0,
00:00:05.348,0.0264432020485401,0.00724576413631439,0.0122583238407969,0,
00:00:05.352,-0.00279409298673272,0.0159589070826769,0.00943466741591692,0,
00:00:05.356,-0.0132880574092269,0.00431719375774264,0.00466983905062079,0,
00:00:05.36,0.000906875007785857,-0.00728636281564832,-0.00456739217042923,0,
00:00:05.364,0.0165115650743246,0.00111074664164335,-0.00803722999989986,0,
00:00:05.368,0.00344073749147356,0.0107442922890186,0.000587581191211939,0,
00:00:05.372,-0.00844873953610659,-0.000837295141536742,0.00351469614543021,0,
00:00:05.376,-0.0129193458706141,-0.00929633062332869,-0.00994882639497519,0,
00:00:05.38,-0.00623368006199598,-0.0175430588424206,0.00787813123315573,0,
00:00:05.384,-0.000189643338671885,0.00402614520862699,-0.000230241552344523,0,
00:00:05.388,0.0228543616831303,0.014712106436491,-0.000395054317777976,0,
00:00:05.392,-0.00583092821761966,-0.000160235314979218,-0.00121405743993819,0,
00:00:05.396,0.0109847681596875,0.0112480064854026,0.00740208849310875,0,
00:00:05.4,0.0117077864706516,-0.000971604022197425,0.00674074701964855,0,
00:00:05.404,-0.0245790481567383,-0.0102388625964522,-0.00902637466788292,0,
00:00:05.408,-0.0189567133784294,-0.00413441844284534,-0.0104225743561983,0,
00:00:05.412,-0.00660513760522008,-0.0146860787644982,-0.00457694428041577,0,
00:00:05.416,0.00476251216605306,-0.00751795340329409,0.0101736560463905,0,
00:00:05.42,0.0207037497311831,0.015989538282156,0.00777251832187176,0,
00:00:05.424,0.0185113623738289,0.029425460845232,-0.000873680342920125,0,
00:00:05.428,0.0106101995334029,0.0144225070253015,-0.00754198478534818,0,
00:00:05.432,-0.0216971300542355,-0.0194546952843666,0.00128092349041253,0,
00:00:05.436,-0.0210915636271238,-0.0288896877318621,0.00235278415493667,0,
00:00:05.44,-0.00568125210702419,-0.0138603495433927,0.00290148076601326,0,
00:00:05.444,0.00883482955396175,-0.00475883623585105,-0.00469768606126308,0,
00:00:05.448,0.00661196047440171,0.0393285602331162,0.00331185711547732,0,
00:00:05.452,0.0267408564686775,0.0158595442771912,-0.00128547858912498,0,
00:00:05.456,-0.0140903200954199,-0.0148613918572664,-0.0065632862970233,0,
00:00:05.46,-0.00767842493951321,0.00288370321504772,0.000436417176388204,0,
00:00:05.464,-0.00708868773654103,-0.0093099270015955,0.00116130465175956,0,
00:00:05.468,-0.0149245047941804,-0.0256434381008148,0.00906359869986773,0,
00:00:05.472,0.0115445582196116,0.00827210489660501,-0.00104933546390384,0,
00:00:05.476,0.0196150448173285,0.0191460289061069,-0.00553679699078202,0,
00:00:05.48,-0.00220623007044196,0.0030688913539052,0.00168146484065801,0,
00:00:05.484,-0.00266260630451143,-0.00044538953807205,-0.00290310522541404,0,
00:00:05.488,-0.0041695055551827,0.00109942944254726,-0.00078295887215063,0,
00:00:05.492,-0.00587023003026843,-0.00535068102180958,0.00163626356516033,0,
00:00:05.496,8.93138349056244E-05,-0.00543470727279782,0.00645239464938641,0,
00:00:05.5,-0.00437179859727621,-0.0169649720191956,-0.000405829079682007,0,
00:00:05.504,-0.00278482702560723,0.0020639393478632,-0.00718028843402863,0,
00:00:05.508,0.0239481702446938,0.0381531976163387,0.00125143071636558,0,
00:00:05.512,0.00716055650264025,0.0119743412360549,0.00631766486912966,0,
00:00:05.516,-0.0227399095892906,-0.0273625086992979,0.000919940881431103,0,
00:00:05.52,-0.0178302340209484,-0.0298405699431896,-0.00990248844027519,0,
00:00:05.524,0.00780787272378802,-0.000156893147504888,-0.00889701768755913,0,
00:00:05.528,0.0134913166984916,0.0212733466178179,0.0144319999963045,0,
00:00:05.532,0.0189046747982502,0.0116651579737663,0.00279133534058928,0,
00:00:05.536,0.00572697957977653,0.0217330548912287,-0.00368673074990511,0,
00:00:05.54,-0.0135592455044389,-0.00389244244433939,-0.000229182318435051,0,
00:00:05.544,-0.0336104519665241,-0.0416748933494091,0.00245278910733759,0,
00:00:05.548,-0.0148974834010005,-0.0191374868154526,-0.00195738510228693,0,
00:00:05.552,0.0220996737480164,0.0171172078698874,-0.00199352041818202,0,
00:00:05.556,0.0315879210829735,0.0299112871289253,-0.000604873755946755,0,
00:00:05.56,0.00224067945964634,0.00365150813013315,-0.00357346469536424,0,
00:00:05.564,0.00718059344217181,0.00151525367982686,0.00909836031496525,0,
00:00:05.568,-0.0195071045309305,-0.00530525343492627,-0.0040530962869525,0,
00:00:05.572,-0.0327561162412167,-0.0251185819506645,0.00543653499335051,0,
00:00:05.576,0.00321469153277576,-0.00776439718902111,-0.00702189560979605,0,
00:00:05.58,0.0174935422837734,0.0135532421991229,-0.00385657255537808,0,
00:00:05.584,0.00892770290374756,0.0106528848409653,0.00982052087783813,0,
00:00:05.588,0.00327565870247781,0.00239472603425384,0.00232716789469123,0,
00:00:05.592,0.00145548197906464,0.00313937407918274,-0.00711010582745075,0,
00:00:05.596,-0.0108245089650154,-0.0101113710552454,-0.00235552457161248,0,
00:00:05.6,0.00351898325607181,0.000961953715886921,-0.00158095743972808,0,
00:00:05.604,0.0174732822924852,0.00820401310920715,0.00560917193070054,0,
00:00:05.608,-0.0125626977533102,-0.00159470923244953,0.00311589171178639,0,
00:00:05.612,-0.0246757194399834,-0.0204440467059612,-0.00487514305859804,0,
00:00:05.616,-0.00589628890156746,-0.00566275324672461,-0.000749101571273059,0,
00:00:05.62,0.0170874465256929,0.0258017051964998,0.00291655189357698,0,
00:00:05.624,0.0282085388898849,0.0163587145507336,-0.00102243479341269,0,
00:00:05.628,0.0041888365522027,-0.0136750023812056,-0.00118283915799111,0,
00:00:05.632,-0.0209242422133684,-0.00191883067600429,-0.0023107067681849,0,
00:00:05.636,-0.0182999707758427,-0.0108575727790594,0.000412808411056176,0,
00:00:05.64,-0.00976350530982018,-0.0232574008405209,0.00431055575609207,0,
00:00:05.644,0.0175393559038639,0.010020381771028,0.00434140441939235,0,
00:00:05.648,0.0112098036333919,0.0177540853619576,-0.00464627565816045,0,
00:00:05.652,0.00411078613251448,0.0135988742113113,0.000335507211275399,0,
00:00:05.656,0.00901095755398273,0.00398376444354653,-0.00453227246180177,0,
00:00:05.66,-0.00756114162504673,-0.00638965284451842,0.00457309186458588,0,
00:00:05.664,-0.0199652314186096,-0.010047560557723,-0.00216848729178309,0,
00:00:05.668,-0.0183856748044491,-0.0178655553609133,-0.00400030566379428,0,
00:00:05.672,0.0335234440863132,0.0116738947108388,-2.53343969234265E-05,0,
00:00:05.676,0.00902615301311016,0.004129892680794,0.00501691224053502,0,
00:00:05.68,-0.0176464896649122,-0.000787456694524735,0.00747882761061192,0,
00:00:05.684,-0.00128651817794889,0.00434305146336555,-0.00379244377836585,0,
00:00:05.688,0.00137708999682218,-0.00871702190488577,-0.00723515264689922,0,
00:00:05.692,0.00264910398982465,0.00619764113798738,-0.00264447787776589,0,
00:00:05.696,0.00420718593522906,0.0073426142334938,0.0081080486997962,0,
00:00:05.7,0.00498579675331712,0.00661230459809303,-0.00028887324151583,0,
00:00:05.704,0.00643135607242584,-0.0043606641702354,-0.00626253057271242,0,
00:00:05.708,-0.0262782573699951,-0.0327880084514618,0.00892665516585112,0,
00:00:05.712,-0.00420451210811734,0.00942465011030436,-0.00468662427738309,0,
00:00:05.716,-0.00150512275286019,0.00691047962754965,-0.00391791947185993,0,
00:00:05.72,0.024768278002739,0.00908081140369177,0.00426397752016783,0,
00:00:05.724,0.00385917280800641,0.00718633830547333,-0.00134687183890492,0,
00:00:05.728,-0.00304850656539202,0.00423732213675976,0.00146980222780257,0,
00:00:05.732,-0.0103806667029858,-0.00251233158633113,0.00104048615321517,0,
00:00:05.736,0.000715295958798379,-0.00852337665855885,0.00196049595251679,0,
00:00:05.74,-0.009294418618083,-0.0229175984859467,-0.00487621314823627,0,
00:00:05.744,-0.00109174428507686,-0.0026330838445574,0.0015518085565418,0,
00:00:05.748,0.0209601763635874,0.0200986061245203,0.00110193609725684,0,
00:00:05.752,0.000214922736631706,0.0105281574651599,-0.00675018317997456,0,
00:00:05.756,-0.00250597530975938,0.0083396565169096,0.00260596885345876,0,
00:00:05.76,-0.0118188066408038,-0.0111443800851703,0.0101251807063818,0,
00:00:05.764,-0.0180344432592392,-0.00353597942739725,-0.00609222380444407,0,
00:00:05.768,0.0264283511787653,-0.00233639660291374,-0.00329045159742236,0,
00:00:05.772,0.0120088048279285,-0.00186398788355291,0.00375649775378406,0,
00:00:05.776,-0.0200249068439007,-0.00911735463887453,-0.00687545305117965,0,
00:00:05.78,0.00765976263210177,0.00830401387065649,0.0042104790918529,0,
00:00:05.784,-0.0058613047003746,0.00151461292989552,-0.00440056016668677,0,
00:00:05.788,-0.00392370764166117,0.00375355989672244,0.0084935249760747,0,
00:00:05.792,0.00931238383054733,0.00636981381103396,0.00894499756395817,0,
00:00:05.796,-0.00835361331701279,-0.00622842274606228,-0.00962110050022602,0,
00:00:05.8,0.00495443912222981,0.00523252785205841,-0.010275418870151,0,
00:00:05.804,0.0125794736668468,0.0100731905549765,0.00255237799137831,0,
00:00:05.808,-0.01187754701823,-0.0279279518872499,0.00714446185156703,0,
00:00:05.812,-0.0155369034036994,-0.0168755538761616,-0.00514235952869058,0,
00:00:05.816,0.00546780088916421,0.0136832464486361,0.00249158497899771,0,
00:00:05.82,0.016411243006587,0.0193252172321081,0.0115257697179914,0,
00:00:05.824,0.00465041771531105,0.0090090949088335,-0.00462603149935603,0,
00:00:05.828,-0.00607284298166633,-0.00628600036725402,-0.00524369440972805,0,
00:00:05.832,-0.0130354054272175,-0.00784691050648689,-0.00806132797151804,0,
00:00:05.836,0.00256708450615406,-0.00414334749802947,-0.00161343684885651,0,
00:00:05.84,0.00729658221825957,0.00401193229481578,0.00389700569212437,0,
00:00:05.844,-0.0054088244214654,0.000158288938109763,0.01156453974545,0,
00:00:05.848,0.00204053078778088,-0.000970396038610488,-0.00237161922268569,0,
00:00:05.852,0.0174370333552361,0.00555696710944176,-0.00628954684361815,0,
00:00:05.856,-0.0168245695531368,-0.0121436780318618,0.00624727737158537,0,
00:00:05.86,-0.00822375435382128,-0.00475321244448423,0.000244613038375974,0,
00:00:05.864,0.0088344719260931,0.0150295924395323,-0.00523507967591286,0,
00:00:05.868,0.00117630232125521,0.00854969676584005,-0.00338192377239466,0,
00:00:05.872,-0.00562611594796181,-0.00190924853086472,-0.00206843204796314,0,
00:00:05.876,0.0026074699126184,-0.0218024048954248,0.00409080646932125,0,
00:00:05.88,0.000929825066123158,0.00300682755187154,0.0019292829092592,0,
00:00:05.884,0.000848373281769454,0.0146339070051908,0.001471794443205,0,
00:00:05.888,0.000730525061953813,0.00763042643666267,0.00293467426672578,0,
00:00:05.892,-0.00590927945449948,-0.0123261148110032,0.0042715105228126,0,
00:00:05.896,0.00784915219992399,-0.0157934706658125,-0.00613665906712413,0,
00:00:05.9,0.00251230923458934,0.0047730440273881,-0.00588042987510562,0,
00:00:05.904,-0.00365120847709477,0.00953402370214462,-0.0019388310611248,0,
00:00:05.908,0.0051922770217061,0.00830730982124805,-0.000580823456402868,0,
00:00:05.912,-0.0045408527366817,0.00111977977212518,0.00689127156510949,0,
00:00:05.916,-0.00959751661866903,-0.00409946963191032,-0.0021631212439388,0,
00:00:05.92,-0.00260122865438461,-0.00936676282435656,0.00551125453785062,0,
00:00:05.924,0.00188421783968806,-0.00355111807584763,-0.00209185690619051,0,
00:00:05.928,0.0100421095266938,0.00247087515890598,-0.000429220352089033,0,
00:00:05.932,0.00387370516546071,0.00273683783598244,-0.000732512562535703,0,
00:00:05.936,0.00578674301505089,0.00781330745667219,0.00107913825195283,0,
00:00:05.94,-0.0125811258330941,0.00713765760883689,-0.00480386940762401,0,
00:00:05.944,-0.00150798726826906,-0.00833255145698786,0.000110288739961106,0,
00:00:05.948,0.0178731326013803,-0.00370353786274791,0.00378709239885211,0,
00:00:05.952,-0.0168845131993294,-0.00428984593600035,-0.000498068518936634,0,
00:00:05.956,-0.0172091331332922,0.0030288896523416,-0.00520060304552317,0,
00:00:05.96,-0.000349120935425162,-0.0146803604438901,0.00774355605244637,0,
00:00:05.964,0.0237188544124365,0.0175274536013603,-0.000357496726792306,0,
00:00:05.968,0.00477435998618603,0.0119057642295957,-0.00031582050723955,0,
00:00:05.972,-0.00285140913911164,-0.0114763360470533,-0.00569948507472873,0,
00:00:05.976,0.00812195427715778,-0.0152581743896008,6.21597064309753E-05,0,
00:00:05.98,-0.0169388297945261,0.00519282184541225,0.00419718306511641,0,
00:00:05.984,-0.00684890290722251,0.0240403767675161,-0.00423803366720676,0,
00:00:05.988,-0.00101050571538508,0.00226758746430278,0.000993908965028822,0,
00:00:05.992,0.00867585372179747,-0.00865066982805729,0.000662647362332791,0,
00:00:05.996,-0.00217764801345766,-0.0266036204993725,0.00811278074979782,0,
00:00:06,0.00458082091063261,-0.00881674792617559,0.00427878787741065,0,
00:00:06.004,0.00993659254163504,0.0176434200257063,-0.00371397379785776,0,
00:00:06.008,-0.00338382623158395,0.0181721821427345,-0.013379349373281,0,
00:00:06.012,-0.00890683569014072,-0.00281854323111475,-0.00583157129585743,0,
00:00:06.016,-0.00276507227681577,-0.00144326372537762,0.0050755781121552,0,
00:00:06.02,-0.00359447672963142,-0.0024761154782027,0.00908203423023224,0,
00:00:06.024,0.00781252235174179,-0.00286058732308447,0.000227073396672495,0,
00:00:06.028,0.00917806383222342,-0.00413303822278976,0.000931895978283137,0,
00:00:06.032,-0.00634016841650009,0.00128247158136219,0.00170112238265574,0,
00:00:06.036,-0.00877458322793245,0.00417543854564428,-0.00755315972492099,0,
00:00:06.04,-0.000144054589327425,0.0033337390050292,-0.00129946658853441,0,
00:00:06.044,0.00139332597609609,-0.00969265028834343,0.00623045489192009,0,
00:00:06.048,-0.0112144285812974,-0.00836579687893391,0.000718752562534064,0,
00:00:06.052,0.0357025638222694,0.0152286356315017,0.000353876472217962,0,
00:00:06.056,-0.0026649683713913,0.0198973398655653,-0.00178017711732537,0,
00:00:06.06,-0.00336961331777275,-0.0174690298736095,-0.0045563206076622,0,
00:00:06.064,-0.0203250981867313,-0.0137458452954888,-0.00379641889594495,0,
00:00:06.068,-0.0131533239036798,-0.00940469186753035,0.0054030604660511,0,
00:00:06.072,-0.00632478157058358,-0.00400884775444865,0.00227447994984686,0,
00:00:06.076,0.012416735291481,0.0276398994028568,0.00064038293203339,0,
00:00:06.08,0.027392229065299,0.0127851674333215,0.00185013853479177,0,
00:00:06.084,0.0279486365616322,0.019051194190979,-0.00254880823194981,0,
00:00:06.088,-0.028319725766778,-0.0184147749096155,-0.000123848745715804,0,
00:00:06.092,-0.0294900350272655,-0.0394598282873631,-0.0045749363489449,0,
00:00:06.096,-0.00244195037521422,-0.0108568090945482,-0.00100219121668488,0,
00:00:06.1,0.00686722435057163,0.0106868036091328,0.00868767406791449,0,
00:00:06.104,0.0137497745454311,0.0196639727801085,0.00154784496407956,0,
00:00:06.108,0.00295914337038994,0.0110707385465503,-0.00678462022915483,0,
00:00:06.112,0.00511412462219596,0.0045549557544291,-0.00359148811548948,0,
00:00:06.116,0.000349273585015908,0.00499483570456505,0.00520612765103579,0,
00:00:06.12,-0.0144262406975031,-0.0190701745450497,0.00346345780417323,0,
00:00:06.124,-0.0120516326278448,-0.0150197902694345,-0.00648654252290726,0,
00:00:06.128,0.00563495326787233,0.00558929098770022,0.0035624832380563,0,
00:00:06.132,0.0141023555770516,0.00692707998678088,0.000510796904563904,0,
00:00:06.136,0.00267567625269294,0.0154120093211532,0.00140826136339456,0,
00:00:06.14,-0.00619357544928789,-0.00389813259243965,-0.00271764071658254,0,
00:00:06.144,-0.00109533849172294,-0.0192318316549063,7.31599939172156E-05,0,
00:00:06.148,0.0114758824929595,-0.00238603400066495,-0.00626488961279392,0,
00:00:06.152,0.00164406222756952,0.0150749552994967,0.00547825451940298,0,
00:00:06.156,-0.00950677040964365,0.0103606805205345,0.00449329800903797,0,
00:00:06.16,-0.0175297670066357,-0.00380075816065073,-0.0016456957673654,0,
00:00:06.164,-0.0061685461550951,-0.0168339461088181,-0.00445957714691758,0,
00:00:06.168,0.020298607647419,-0.00475461827591062,0.000841959670651704,0,
00:00:06.172,0.00518831331282854,0.00447233812883496,0.0059831328690052,0,
00:00:06.176,0.00393632426857948,0.0073228171095252,-0.00294643524102867,0,
00:00:06.18,-0.00347991217859089,0.0114867752417922,-0.00543018896132708,0,
00:00:06.184,-0.00676415208727121,-0.00451419781893492,0.00302566308528185,0,
00:00:06.188,-0.00504966638982296,-0.0107318358495831,-0.00142473401501775,0,
00:00:06.192,0.00302480719983578,0.0026577056851238,0.00217861006967723,0,
00:00:06.196,0.00443475740030408,0.00355885783210397,0.00186604005284607,0,
00:00:06.2,0.0149831958115101,0.0153502374887466,0.00244822399690747,0,
00:00:06.204,-0.00558139476925135,-0.0152100129052997,-0.000681234465446323,0,
00:00:06.208,-0.0151993157342076,-0.0134019600227475,-0.00473135802894831,0,
00:00:06.212,-0.0159423295408487,-0.014882056042552,0.0015359849203378,0,
00:00:06.216,0.00560382939875126,0.0238683372735977,-0.00767697766423225,0,
00:00:06.22,0.0317594036459923,0.0200750362128019,-0.00140893715433776,0,
00:00:06.224,0.000670908309984952,-0.00649095373228192,0.0151539137586951,0,
00:00:06.228,-0.0236506331712008,-0.015104272402823,0.000441988056991249,0,
00:00:06.232,-0.00688757607713342,-0.00642005773261189,-0.008414376527071,0,
00:00:06.236,0.00711174728348851,0.00279418239369988,0.00644722580909729,0,
00:00:06.24,0.0128111196681857,0.0107360659167171,-0.00408240547403693,0,
00:00:06.244,0.00256601558066905,0.00965949054807425,-0.00404515443369746,0,
00:00:06.248,-0.0035645270254463,-0.00318274274468422,-0.000841919216327369,0,
00:00:06.252,-0.0050159371457994,-0.00797471962869167,0.00168251188006252,0,
00:00:06.256,-0.00338875036686659,-0.0105565451085567,-0.00178199319634587,0,
00:00:06.26,-0.00290592084638774,-0.00447118561714888,0.00765532534569502,0,
00:00:06.264,-0.00316641293466091,0.00446350686252117,0.00378426979295909,0,
00:00:06.268,0.0176328271627426,0.0163955837488174,-0.00381208723410964,0,
00:00:06.272,0.000683555961586535,0.00457344995811582,-0.00440242746844888,0,
00:00:06.276,-0.0144885536283255,-0.00221726694144309,-4.39573013863992E-05,0,
00:00:06.28,-0.0125721003860235,-0.0256337095052004,0.000385681516490877,0,
