Elapsed Time,EMG1,EMG2,EMG3,BioRadio Event,
00:00:00,0.680855870246887,8.50239562988281,0.209653794765472,0,
00:00:00.004,-0.645829975605011,-8.09092044830322,-0.203659117221832,0,
00:00:00.008,-0.540565431118011,-6.72373199462891,-0.170198813080788,0,
00:00:00.012,-0.059710655361414,-0.725049018859863,-0.00877128727734089,0,
00:00:00.016,0.278315842151642,3.4503014087677,0.102316938340664,0,
00:00:00.02,0.333855241537094,4.20123863220215,0.0965543687343597,0,
00:00:00.024,0.206110209226608,2.57953810691834,0.0601727701723576,0,
00:00:00.028,0.0350092761218548,0.353715151548386,-0.0107270171865821,0,
00:00:00.032,-0.106158703565598,-1.23296868801117,-0.0375111997127533,0,
00:00:00.036,-0.129339709877968,-1.68497753143311,-0.0268652141094208,0,
00:00:00.04,-0.0961504504084587,-1.24147427082062,-0.0271691773086786,0,
00:00:00.044,-0.0401836037635803,-0.455115228891373,-0.00920160580426455,0,
00:00:00.048,0.00963089801371098,0.189934983849525,0.0151103623211384,0,
00:00:00.052,0.0396886132657528,0.490241140127182,0.0135725168511271,0,
00:00:00.056,0.0344009101390839,0.443083822727203,-0.00987756345421076,0,
00:00:00.06,0.0247261952608824,0.23606775701046,0.0113951871171594,0,
00:00:00.064,0.00877254921942949,0.0177649836987257,0.016951659694314,0,
00:00:00.068,-0.0162591822445393,-0.124568425118923,-0.0248405598104,0,
00:00:00.072,-0.0180393178015947,-0.153218239545822,-0.00338712870143354,0,
00:00:00.076,-0.0054734661243856,-0.103684455156326,-0.00962167792022228,0,
00:00:00.08,-0.000167394478921779,-0.0279224067926407,0.00637651281431317,0,
00:00:00.084,0.00191595801152289,0.0282118245959282,0.0189488045871258,0,
00:00:00.088,0.0044014947488904,0.0461892895400524,-0.000769699923694134,0,
00:00:00.092,-0.00845347065478563,0.0240805093199015,0.00299242069013417,0,
00:00:00.096,0.00308364699594676,0.016991663724184,-0.00129965762607753,0,
00:00:00.1,0.0105471611022949,0.0166525598615408,-0.0133468266576529,0,
00:00:00.104,0.004579849075526,-0.00518246600404382,-0.00589689891785383,0,
00:00:00.108,-0.0065183425322175,-0.0187074858695269,-0.00759015139192343,0,
00:00:00.112,-0.00148609769530594,-0.0117558352649212,0.0120263835415244,0,
00:00:00.116,-0.0033745844848454,-0.012479443103075,0.00877262838184834,0,
00:00:00.12,-0.00157557893544436,-0.00125991564709693,0.0010363549226895,0,
00:00:00.124,0.00268341111950576,0.0136688351631165,0.000526523566804826,0,
00:00:00.128,-0.00442505488172174,0.00342124863527715,-0.00592870265245438,0,
00:00:00.132,0.00388706289231777,-0.00297904293984175,0.00522365141659975,0,
00:00:00.136,0.00181308516766876,0.00676060654222965,0.00528876669704914,0,
00:00:00.14,0.00934532471001148,0.00568169262260199,-0.00972289033234119,0,
00:00:00.144,-0.00755745079368353,-0.00151889282278717,-0.014410306699574,0,
00:00:00.148,-0.00687659066170454,-0.00789370201528072,0.000142888457048684,0,
00:00:00.152,0.000679298536852002,-0.00566504197195172,0.00399892311543226,0,
00:00:00.156,0.00276126759126782,0.000997651484794915,0.0166153404861689,0,
00:00:00.16,0.00417125504463911,-0.00180208147503436,0.00169384269975126,0,
00:00:00.164,0.000744179531466216,0.00560851721093059,0.00296300370246172,0,
00:00:00.168,-0.010314448736608,-0.00234793359413743,-0.00118260632734746,0,
00:00:00.172,0.00115926598664373,0.00615300517529249,-0.00666647264733911,0,
00:00:00.176,0.0110257426276803,0.004947564098984,-0.0156094757840037,0,
00:00:00.18,0.00397840468212962,-0.00169782224111259,-0.0127085288986564,0,
00:00:00.184,-0.00781666114926338,-0.015769749879837,0.0308693144470453,0,
00:00:00.188,-0.0107130901888013,-0.00328113115392625,0.0192572474479675,0,
00:00:00.192,0.00241608032956719,0.0120403841137886,-0.0273721907287836,0,
00:00:00.196,0.00766145624220371,0.00821239128708839,-0.0138154290616512,0,
00:00:00.2,0.00181495910510421,-0.00376852322369814,0.0061318650841713,0,
00:00:00.204,-0.00294030248187482,-0.00468882964923978,0.00159795500803739,0,
00:00:00.208,0.00253815250471234,0.00425223540514708,0.0283656865358353,0,
00:00:00.212,-0.00142890319693834,0.000861340202391148,-0.0150257758796215,0,
00:00:00.216,-0.00183817697688937,-0.00923982821404934,-0.0140786487609148,0,
00:00:00.22,-0.00291200587525964,-0.00826555490493774,0.0166680961847305,0,
00:00:00.224,0.00427145324647427,0.00850379187613726,0.000989339081570506,0,
00:00:00.228,0.000408130115829408,0.0128447934985161,-0.0128002408891916,0,
00:00:00.232,-0.000764387543313205,-0.000828885124064982,-0.0027675274759531,0,
00:00:00.236,-0.0027434048242867,-0.00515844114124775,-0.0084238164126873,0,
00:00:00.24,0.00592403067275882,-0.000109400534711313,0.0088328905403614,0,
00:00:00.244,0.00200522900559008,-0.00551799684762955,0.0144462157040834,0,
00:00:00.248,-0.0109249697998166,-0.0088012283667922,0.0133239030838013,0,
00:00:00.252,-0.00654494343325496,0.0072587039321661,-0.0120515553280711,0,
00:00:00.256,0.0116552747786045,0.0101693347096443,-0.0183281451463699,0,
00:00:00.26,0.0105105675756931,0.00130201689898968,-0.00889981258660555,0,
00:00:00.264,-0.00569492299109697,-0.00507267750799656,0.0126451849937439,0,
00:00:00.268,-0.004436029586941,0.00251529947854579,0.00463080545887351,0,
00:00:00.272,-0.000211918071727268,-0.000355702562956139,0.000327909656334668,0,
00:00:00.276,-0.000179631111677736,-0.00327443890273571,0.00320877064950764,0,
00:00:00.28,-0.00477444380521774,-0.0117192920297384,0.00169975112657994,0,
00:00:00.284,-0.000727658451069146,-0.00820555817335844,-0.000705544138327241,0,
00:00:00.288,0.00303876539692283,0.0147156687453389,0.0165737010538578,0,
00:00:00.292,0.00592850148677826,0.0240632407367229,-0.0157381314784288,0,
00:00:00.296,0.00660651084035635,-0.0034470388200134,-0.0199476089328527,0,
00:00:00.3,-0.00736749451607466,-0.0159520097076893,-0.00711660273373127,0,
00:00:00.304,-0.00226296740584075,-0.00113391655031592,-0.000638093275483698,0,
00:00:00.308,-0.00120803492609411,-0.00164187070913613,0.0294014923274517,0,
00:00:00.312,-0.0070169847458601,-0.00499923154711723,0.0252470225095749,0,
00:00:00.316,0.00365714496001601,0.000224262767005712,-0.0206795446574688,0,
00:00:00.32,0.005237374920398,0.00437998212873936,-0.00972449313849211,0,
00:00:00.324,0.000737020454835147,0.00693927379325032,-0.0116168018430471,0,
00:00:00.328,0.00187642453238368,0.00282959989272058,-0.00463261548429728,0,
00:00:00.332,0.00195102172438055,0.00264036515727639,0.00909627694636583,0,
00:00:00.336,-0.00372405583038926,-0.00740487920120358,0.0131287919357419,0,
00:00:00.34,-0.00362322339788079,-0.00835198163986206,-0.00648593623191118,0,
00:00:00.344,-0.00135919114109129,0.000299147213809192,0.00554939545691013,0,
00:00:00.348,-0.00135750172194093,0.00570221338421106,-0.00705207185819745,0,
00:00:00.352,0.00568119063973427,0.00349379540421069,-0.00240897224284709,0,
00:00:00.356,0.00732383318245411,-0.00201172265224159,0.00702268164604902,0,
00:00:00.36,-0.0129508571699262,-0.00613337755203247,0.00427034497261047,0,
00:00:00.364,-0.00010519556235522,0.00557907670736313,-0.0030673963483423,0,
00:00:00.368,-0.0025171204470098,0.00200838223099709,-0.0187151581048965,0,
00:00:00.372,0.00884937401860952,-0.000316698802635074,-0.00328487274236977,0,
00:00:00.376,0.00985561963170767,-0.00125057355035096,0.010247758589685,0,
00:00:00.38,-0.00221765250898898,-0.00114159542135894,0.0211050380021334,0,
00:00:00.384,-0.00713588716462255,0.00152836716733873,-0.00480943080037832,0,
00:00:00.388,-0.0102138761430979,0.00222069839946926,-0.0174381826072931,0,
00:00:00.392,-0.00250913295894861,-0.00729773147031665,0.0111352298408747,0,
00:00:00.396,0.00422913394868374,-0.00523782568052411,0.00894470885396004,0,
00:00:00.4,0.00830791611224413,0.00424802862107754,-0.01312165427953,0,
00:00:00.404,0.00445889960974455,0.00611879304051399,-0.00743428757414222,0,
00:00:00.408,-0.000452585547463968,0.00987555272877216,-0.0125138182193041,0,
00:00:00.412,-0.00112008047290146,-0.00155738345347345,0.0285088680684567,0,
00:00:00.416,-0.00321753253228962,-0.0109232449904084,0.00262810243293643,0,
00:00:00.42,-0.00962066184729338,-0.0063581126742065,-0.0102690374478698,0,
00:00:00.424,0.00408431049436331,0.00249959132634103,0.000154642475536093,0,
00:00:00.428,0.0029576460365206,0.00641294475644827,0.00300194066949189,0,
00:00:00.432,0.00181099865585566,0.000844511727336794,-0.00874397531151772,0,
00:00:00.436,-0.00142668629996479,-0.00106101611163467,-0.00743635464459658,0,
00:00:00.44,-0.000329972681356594,-0.00319175259210169,0.0198066532611847,0,
00:00:00.444,0.00505504943430424,0.00353563274256885,0.00136392784770578,0,
00:00:00.448,-0.00077119329944253,0.00180060986895114,-0.0072161378338933,0,
00:00:00.452,0.00149433698970824,-0.00102959747891873,0.00125895987730473,0,
00:00:00.456,-0.008126150816679,-0.0105417678132653,-0.00435355585068464,0,
00:00:00.46,-0.00406064093112946,0.00615524826571345,-0.0025318746920675,0,
00:00:00.464,0.00376805267296731,0.00607199408113956,0.00269154412671924,0,
00:00:00.468,0.00449072988703847,0.00129159085918218,-0.00792612042278051,0,
00:00:00.472,0.00430325232446194,-0.00233336398378015,0.0126874251291156,0,
00:00:00.476,-0.000124777827295475,-0.0115211615338922,0.00358662661164999,0,
00:00:00.48,-0.00931527651846409,-0.000409285043133423,0.00440831016749144,0,
00:00:00.484,-0.00154539803043008,0.0142337782308459,-0.00736276991665363,0,
00:00:00.488,0.005023751873523,0.00459661800414324,-0.0116864936426282,0,
00:00:00.492,0.00378892617300153,-0.00522410729900002,-0.00117362267337739,0,
00:00:00.496,0.0026775635778904,-0.00797604862600565,0.0023996599484235,0,
00:00:00.5,-0.00358673837035894,0.0012331927428022,0.00305412686429918,0,
00:00:00.504,-0.00374813936650753,0.00422028172761202,0.00453277537599206,0,
00:00:00.508,0.000524438102729619,-0.00540667865425348,0.0202224608510733,0,
00:00:00.512,-0.00140880525577813,-0.00230221753008664,-0.0146698486059904,0,
00:00:00.516,-0.00216052238829434,0.00838182307779789,-0.0164076928049326,0,
00:00:00.52,0.0073761329986155,-0.00205867574550211,0.00863526668399572,0,
00:00:00.524,-0.00284071010537446,1.39047779157409E-05,0.0005542280850932,0,
00:00:00.528,-0.00430288026109338,-0.00177312619052827,0.00753714609891176,0,
00:00:00.532,0.00247386167757213,-0.000144847421324812,-0.0119528211653233,0,
00:00:00.536,0.00772267067804933,0.0074025415815413,-0.00378109654411674,0,
00:00:00.54,-3.30425791617017E-05,-0.00464110821485519,-0.000664059480186552,0,
00:00:00.544,-0.00556159438565373,-0.00226276740431786,0.0160166509449482,0,
00:00:00.548,0.00268840231001377,0.00142088462598622,0.00981337949633598,0,
00:00:00.552,-0.00189884542487562,-0.00167965528089553,-0.0114950323477387,0,
00:00:00.556,-0.00696097034960985,0.00108622200787067,-0.00824319664388895,0,
00:00:00.56,-0.00169834215193987,-0.00572638353332877,-0.000523538677953184,0,
00:00:00.564,0.0075019970536232,0.00345020368695259,-0.000328179012285545,0,
00:00:00.568,0.0070711956359446,0.006230553612113,0.00158321275375783,0,
00:00:00.572,-0.00389625481329858,-0.000291266827844083,-0.0079313674941659,0,
00:00:00.576,-0.00660807499662042,-0.000315223005600274,0.0117863472551107,0,
00:00:00.58,0.000260817323578522,-0.00399166066199541,0.0213509406894445,0,
00:00:00.584,0.000422069220803678,-0.00656848726794124,-0.0134479850530624,0,
00:00:00.588,0.00195417390204966,0.00614331802353263,-0.0130127463489771,0,
00:00:00.592,0.00637556938454509,0.00706950249150395,-0.00126360089052469,0,
00:00:00.596,-0.000622485764324665,-0.00767470477148891,-0.00648587243631482,0,
00:00:00.6,-0.00116518407594413,-0.00231181550770998,0.00969171896576881,0,
00:00:00.604,-0.00481221824884415,0.00789481680840254,-0.00276536657474935,0,
00:00:00.608,-0.00696212192997336,-0.00103680149186403,0.0068652112968266,0,
00:00:00.612,0.00415108120068908,-0.00500790681689978,0.0068353321403265,0,
00:00:00.616,0.00525927217677236,-0.00186696276068687,-0.00831007491797209,0,
00:00:00.62,0.00454123737290502,0.0056241643615067,0.00726092932745814,0,
00:00:00.624,-0.00659835478290915,0.000798295368440449,-0.000665409723296762,0,
00:00:00.628,0.00452200416475534,0.00293005723506212,-0.00760785490274429,0,
00:00:00.632,-0.00478461151942611,-0.00327664031647146,-0.0179617330431938,0,
00:00:00.636,0.0030949916690588,-0.0101485876366496,0.00687924725934863,0,
00:00:00.64,-0.00950185209512711,-0.00218707253225148,0.0122470911592245,0,
00:00:00.644,0.00163370964583009,0.00918614864349365,0.0201224107295275,0,
00:00:00.648,0.00936808530241251,0.00910844933241606,0.00357636064291,0,
00:00:00.652,0.00418685609474778,0.00136390584520996,-0.0293617397546768,0,
00:00:00.656,7.91595739428885E-05,-0.00443060928955674,-0.0173112004995346,0,
00:00:00.66,-0.00873742438852787,-0.00982204359024763,0.00838751439005136,0,
00:00:00.664,-0.00977378524839878,-0.00586408469825983,0.0069377045147121,0,
00:00:00.668,0.00388562073931098,0.0128107517957687,0.0202212538570166,0,
00:00:00.672,0.00665889028459787,0.0029549936298281,-0.00818153005093336,0,
00:00:00.676,0.0082898261025548,-0.00838190689682961,0.000140360425575636,0,
00:00:00.68,-0.00756236631423235,-0.0035129701718688,-0.000872203439939767,0,
00:00:00.684,-0.00115091633051634,0.00886690337210894,-0.00695787742733955,0,
00:00:00.688,0.00264971214346588,0.00730670383200049,-0.00107999611645937,0,
00:00:00.692,-0.0015370900509879,-0.00300887320190668,0.0036743909586221,0,
00:00:00.696,-0.00378191517665982,-0.0122203342616558,-0.0020408839918673,0,
00:00:00.7,0.00353626860305667,-0.0004104541731067,0.00988100841641426,0,
00:00:00.704,-0.00187290401663631,0.00174381013493985,-0.0103477546945214,0,
00:00:00.708,0.00142424658406526,0.00761719280853868,3.98938682337757E-05,0,
00:00:00.712,0.00548027129843831,0.00122464145533741,-0.00192081264685839,0,
00:00:00.716,-0.00370739004574716,-0.00387487187981606,-0.00302679510787129,0,
00:00:00.72,-0.00802355259656906,-0.0023866449482739,0.0132619282230735,0,
00:00:00.724,0.00279637100175023,0.0063546234741807,0.0104744024574757,0,
00:00:00.728,0.00650438107550144,0.00176467152778059,-0.0175399482250214,0,
00:00:00.732,-0.00384387141093612,-0.0115220518782735,-0.00292951543815434,0,
00:00:00.736,0.0062246760353446,0.00126810604706407,0.0036923554725945,0,
00:00:00.74,-0.00450967671349645,-0.000546658178791404,-0.00214429292827845,0,
00:00:00.744,-0.00380841945298016,0.00182742020115256,-0.00909960456192493,0,
00:00:00.748,0.00172975019086152,0.00725955469533801,0.0134939113631845,0,
00:00:00.752,0.00205772323533893,0.000531107594724745,0.0110996905714273,0,
00:00:00.756,0.00279473816044629,-0.00455345585942268,-0.00272653484717011,0,
00:00:00.76,-0.000361796090146527,0.00136140792164952,-0.0204991940408945,0,
00:00:00.764,0.00172120006754994,0.00440746825188398,0.00107589876279235,0,
00:00:00.768,-0.0167257785797119,-0.00956660881638527,0.00937888585031033,0,
00:00:00.772,0.00135763757862151,-0.00736696505919099,0.00362550979480147,0,
00:00:00.776,0.0121470782905817,0.0037227189168334,0.00822421256452799,0,
00:00:00.78,0.00284062931314111,0.0110525134950876,-0.0158467162400484,0,
00:00:00.784,0.00124160712584853,0.0029758729506284,-0.00656602624803782,0,
00:00:00.788,0.000409717787988484,-0.00207458715885878,0.0113150840625167,0,
00:00:00.792,-0.00705176452174783,0.000503004586789757,0.0031068807002157,0,
00:00:00.796,0.00200425507500768,-0.00465456349775195,-0.00507197761908174,0,
00:00:00.8,-0.00143159017898142,-0.00624857703223825,0.00398527225479484,0,
00:00:00.804,-0.00596806639805436,-0.00771165173500776,0.00599119765684009,0,
00:00:00.808,0.00121163600124419,0.0127616785466671,-0.00982421264052391,0,
00:00:00.812,0.00171085353940725,0.00700702890753746,-0.00661445409059525,0,
00:00:00.816,0.0030191286932677,-0.00813486333936453,0.0107838306576014,0,
00:00:00.82,0.004767254460603,0.000113885136670433,-0.0177952107042074,0,
00:00:00.824,0.00123216363135725,0.00863916985690594,0.0290636587888002,0,
00:00:00.828,-0.00204352266155183,-0.00225573172792792,-0.00839882250875235,0,
00:00:00.832,-0.00519857369363308,-0.00068979780189693,-0.0134245483204722,0,
00:00:00.836,0.00175445736385882,-0.0112715680152178,0.00682657118886709,0,
00:00:00.84,0.00310417450964451,-0.00188717083074152,-0.00697830272838473,0,
00:00:00.844,-0.00274701858870685,0.0124998930841684,0.00317447632551193,0,
00:00:00.848,-0.00721111474558711,-0.000405809842050076,0.00155489728786051,0,
00:00:00.852,-0.00128664937801659,-0.00308793410658836,0.00550976721569896,0,
00:00:00.856,0.00601184507831931,-0.00800365302711725,0.0242798179388046,0,
00:00:00.86,0.0052522704936564,0.00393539294600487,-0.00528171379119158,0,
00:00:00.864,0.00170481309760362,0.0100606679916382,-0.0306731499731541,0,
00:00:00.868,-0.00338387093506753,0.00335275498218834,-0.0203005112707615,0,
00:00:00.872,-0.000526122399605811,-0.00130135309882462,0.00342853693291545,0,
00:00:00.876,0.00164539040997624,-0.0118659874424338,0.0211077891290188,0,
00:00:00.88,0.00146724714431912,-0.0019288626499474,0.0271533690392971,0,
00:00:00.884,-0.00621836399659514,0.00191335030831397,-0.0111118666827679,0,
00:00:00.888,-0.0120075419545174,-0.00786855258047581,-0.000662014994304627,0,
00:00:00.892,0.010621652007103,0.0136238979175687,0.000211965394555591,0,
00:00:00.896,0.0118288146331906,0.00678634876385331,-0.0168438069522381,0,
00:00:00.9,-0.00183328567072749,-0.00514511996880174,-0.0152659146115184,0,
00:00:00.904,-0.00734634837135673,-0.00719065917655826,0.00830820482224226,0,
00:00:00.908,-0.00173925224225968,0.00449014501646161,0.0277762897312641,0,
00:00:00.912,0.000748321297578514,0.000915625423658639,0.00488308304920793,0,
00:00:00.916,0.00338107882998884,0.00318739050999284,-0.0284930355846882,0,
00:00:00.92,0.00100248935632408,-0.00107611028943211,-0.00727951293811202,0,
00:00:00.924,-0.00128340604715049,-0.0121011938899755,0.0211236272007227,0,
00:00:00.928,-0.00607990147545934,0.000325111526763067,-0.00154852354899049,0,
00:00:00.932,-0.00144799612462521,0.00508581334725022,-0.0128842834383249,0,
00:00:00.936,0.00709561118856072,0.0067195538431406,0.0167800690978765,0,
00:00:00.94,0.000158675058628432,-0.0020579241681844,-0.00193695875350386,0,
00:00:00.944,0.00145452888682485,0.00187557330355048,0.000916940509341657,0,
00:00:00.948,0.000126648141304031,-0.00231034494936466,-0.00256185000762343,0,
00:00:00.952,0.00507341371849179,-0.000303041510051116,-0.0148132154718041,0,
00:00:00.956,-0.00740573648363352,-0.0112333158031106,0.00440849363803864,0,
00:00:00.96,-0.0080002136528492,0.00870566535741091,0.00927850790321827,0,
00:00:00.964,-0.000870633986778557,0.00537664024159312,-0.00659389793872833,0,
00:00:00.968,0.00441288249567151,0.00283626047894359,0.00801654532551765,0,
00:00:00.972,0.00535835279151797,-0.00410508504137397,-4.32981396443211E-05,0,
00:00:00.976,0.00944803468883038,-0.000193189567653462,-0.00462834117934108,0,
00:00:00.98,0.00267293117940426,-0.00377851747907698,-0.0043359505943954,0,
00:00:00.984,-0.0228449981659651,-0.0130453268066049,-0.00352260889485478,0,
00:00:00.988,0.00271131959743798,0.00968755781650543,0.0303669795393944,0,
00:00:00.992,0.00488535268232226,0.00565135944634676,-0.00674399547278881,0,
00:00:00.996,0.00339288613758981,0.00478198193013668,-0.0241861697286367,0,
00:00:01,0.00100610905792564,0.002457206370309,-0.00667029293254018,0,
00:00:01.004,0.00135318678803742,-0.00270365155301988,0.00292480946518481,0,
00:00:01.008,-0.00329709309153259,-0.00706635508686304,0.00854336190968752,0,
00:00:01.012,-0.00475402688607574,-0.00405065808445215,0.0100790560245514,0,
00:00:01.016,0.00348805612884462,-0.0018732079770416,0.00392612349241972,0,
00:00:01.02,0.00276395003311336,0.00260195415467024,0.00615721754729748,0,
00:00:01.024,-0.00404816819354892,0.00654098344966769,-0.0127667635679245,0,
00:00:01.028,0.00242703664116561,0.0076739969663322,-0.0129133323207498,0,
00:00:01.032,-0.00455131568014622,-0.00442407466471195,-0.00901620369404554,0,
00:00:01.036,0.00550919771194458,-0.00596613064408302,0.0173484105616808,0,
00:00:01.04,0.00134183873888105,-0.00515701342374086,0.0105070630088449,0,
00:00:01.044,-0.00089997221948579,0.00425576278939843,-0.00540474290028214,0,
00:00:01.048,-0.00355650042183697,0.00790268369019032,-0.0011309958063066,0,
00:00:01.052,0.000924231251701713,-0.00943027529865503,0.00111966859549284,0,
00:00:01.056,0.00341107416898012,-0.00702944165095687,0.00291567062959075,0,
00:00:01.06,-0.00360658788122237,0.00859244912862778,-0.0128692211583257,0,
00:00:01.064,-0.00209980690851808,0.00759773841127753,0.00665775500237942,0,
00:00:01.068,0.00281280605122447,0.00585828954353929,-0.00411742087453604,0,
00:00:01.072,0.00428224122151732,-0.00264771794900298,-0.0124675752595067,0,
00:00:01.076,0.00242308038286865,-0.00724841095507145,0.0034792700316757,0,
00:00:01.08,-0.00459774862974882,-0.0229940358549356,0.0280669704079628,0,
00:00:01.084,-0.0129763763397932,0.0111489854753017,0.0128103084862232,0,
00:00:01.088,0.00190136930905282,0.0141976634040475,-0.0190129354596138,0,
00:00:01.092,0.0114232460036874,0.00396608049049973,-0.0182036980986595,0,
00:00:01.096,0.00827382318675518,-4.63304022559896E-05,-0.00839787162840366,0,
00:00:01.1,-0.00504622654989362,-0.00606197910383344,0.00391336111351848,0,
00:00:01.104,-0.0065087447874248,-0.00487099634483457,0.00551618356257677,0,
00:00:01.108,-0.00322042219340801,-0.00352292438037694,0.0144484555348754,0,
00:00:01.112,-0.00379841681569815,0.0053210761398077,0.013225425966084,0,
00:00:01.116,0.0103286979719996,0.00192044104915112,-0.00817397516220808,0,
00:00:01.12,0.00365683319978416,0.00447315908968449,-0.00768967531621456,0,
00:00:01.124,-0.00785323698073626,-0.00842894054949284,-0.0192364025861025,0,
00:00:01.128,0.000290591036900878,0.000206906945095398,0.0019100634381175,0,
00:00:01.132,0.0041057076305151,0.00466476334258914,0.0240226425230503,0,
00:00:01.136,-0.00290287705138326,-0.00216152961365879,-0.00571285560727119,0,
00:00:01.14,0.00228387722745538,-0.00136844022199512,-0.010403573513031,0,
00:00:01.144,-0.00133149465546012,0.00480062048882246,0.0015286470297724,0,
00:00:01.148,-0.00144268956501037,0.00382107472978532,0.00220446125604212,0,
00:00:01.152,-0.000409400323405862,-0.00595229538157582,-0.00568773318082094,0,
00:00:01.156,0.000475954235298559,-0.00906651839613914,0.0117645151913166,0,
00:00:01.16,0.000775484018959105,0.0030517743434757,0.0319459661841393,0,
00:00:01.164,0.000581535103265196,0.00533466786146164,-0.0253195315599442,0,
00:00:01.168,-0.00188652612268925,0.00522392801940441,-0.0343230776488781,0,
00:00:01.172,0.00183602201286703,-0.00177027063909918,-0.000227428172365762,0,
00:00:01.176,0.00136103550903499,-0.00739959254860878,0.0138228526338935,0,
00:00:01.18,0.00200526881963015,0.00394278857856989,0.0155907794833183,0,
00:00:01.184,-0.00294149713590741,0.00302559183910489,-0.00163559941574931,0,
00:00:01.188,0.00148343644104898,-0.000393451860873029,0.00368963228538632,0,
00:00:01.192,-0.00676018837839365,-0.00439483765512705,-0.00603624433279037,0,
00:00:01.196,-0.00461484910920262,-0.00435377471148968,0.00864381156861782,0,
00:00:01.2,0.00662160338833928,-0.00153016578406096,0.00494056288152933,0,
00:00:01.204,0.00619954103603959,0.00772478943690658,-0.0193117968738079,0,
00:00:01.208,0.0040102181956172,0.00751068582758307,-0.0141143891960382,0,
00:00:01.212,-0.00156658119522035,0.000533489917870611,-0.00514663895592093,0,
00:00:01.216,-0.00661610811948776,-0.00649459846317768,0.0246017910540104,0,
00:00:01.22,-0.00211836094968021,-0.00319928210228682,0.016084261238575,0,
00:00:01.224,-0.00221073068678379,0.000685117265675217,-0.00622953148558736,0,
00:00:01.228,-0.0035215225070715,-0.0103107821196318,-0.00377514422871172,0,
00:00:01.232,0.00229928642511368,0.00295471283607185,-0.00974771566689014,0,
00:00:01.236,0.0138964802026749,0.00939377769827843,-0.00755170825868845,0,
00:00:01.24,0.00308439950458705,0.00564243504777551,0.0107297077775002,0,
00:00:01.244,-0.00871038157492876,0.00207778601907194,-0.00653084088116884,0,
00:00:01.248,-0.00257381401024759,-0.00332660018466413,-0.00455225817859173,0,
00:00:01.252,-0.00525231193751097,-0.00746314041316509,0.0100175738334656,0,
00:00:01.256,0.00129055662546307,2.52878035098547E-05,0.00162354717031121,0,
00:00:01.26,0.00522299762815237,-0.00568540440872312,0.0112344771623611,0,
00:00:01.264,-0.00582776451483369,-0.00256348005495965,0.00562643771991134,0,
00:00:01.268,0.00712934508919716,0.00622281478717923,-0.0112909059971571,0,
00:00:01.272,0.00434459047392011,0.0109405666589737,-0.0207628551870584,0,
00:00:01.276,-0.00325159355998039,-0.000686500512529165,-0.010508993640542,0,
00:00:01.28,-0.00416510365903378,0.000256376166362315,0.0216692704707384,0,
00:00:01.284,-0.0021582345943898,-0.00292422040365636,0.0095438277348876,0,
00:00:01.288,-0.00194174447096884,-0.00843995623290539,-0.000939856516197324,0,
00:00:01.292,0.00546989450231195,-0.00123267888557166,-0.00116414506919682,0,
00:00:01.296,0.00326165673322976,0.00239467062056065,-0.00434268685057759,0,
00:00:01.3,-0.00255253305658698,0.00303264567628503,-0.00874355249106884,0,
00:00:01.304,-0.00254875444807112,0.0019484682707116,0.0121345175430179,0,
00:00:01.308,-0.00283942557871342,0.00251753535121679,0.010730299167335,0,
00:00:01.312,0.0047544133849442,-0.00260156253352761,-0.0170176476240158,0,
00:00:01.316,0.000855721707921475,-0.00468901032581925,-0.00246028834953904,0,
00:00:01.32,0.00148908712435514,0.00312716071493924,0.00404023332521319,0,
00:00:01.324,-0.00481077656149864,0.00229583494365215,-0.00192094466183335,0,
00:00:01.328,0.00197699619457126,-0.0043830769136548,-0.00690867053344846,0,
00:00:01.332,-0.000567931740079075,0.000236458727158606,0.00117461488116533,0,
00:00:01.336,-0.00253744050860405,0.00371427624486387,0.0151711022481322,0,
00:00:01.34,0.00425603566691279,0.00136520667001605,0.0154572334140539,0,
00:00:01.344,-0.00391948036849499,-0.0115853575989604,-0.00690527586266398,0,
00:00:01.348,0.00505561986938119,0.00569017417728901,-0.0225947219878435,0,
00:00:01.352,0.00255695544183254,0.0107389856129885,-0.011013581417501,0,
00:00:01.356,-0.00562513060867786,-0.0018785756547004,0.0012371881166473,0,
00:00:01.36,-0.00138111435808241,-0.00727028865367174,0.0143523039296269,0,
00:00:01.364,0.000563034438528121,0.000372397596947849,0.00902369432151318,0,
00:00:01.368,0.00103478459641337,-0.00118553882930428,0.00484742410480976,0,
00:00:01.372,0.00281852064654231,0.00182337872684002,-0.00185070838779211,0,
00:00:01.376,-0.00173734070267528,-0.00113587605301291,-0.00962410029023886,0,
00:00:01.38,-0.0017870154697448,0.00164147361647338,-0.00747343990951777,0,
00:00:01.384,-0.000467421836219728,-0.00126589613500983,0.00655793445184827,0,
00:00:01.388,0.000603325257543474,-0.00259359693154693,0.0116080157458782,0,
00:00:01.392,-0.0011484989663586,0.00260428595356643,-0.00741117773577571,0,
00:00:01.396,0.00263315066695213,0.000601698469836265,0.000691499561071396,0,
00:00:01.4,-0.00026048204745166,0.000800679088570178,-0.00369985052384436,0,
00:00:01.404,0.00194177275989205,0.002911132061854,-0.012028144672513,0,
00:00:01.408,0.00251722754910588,0.00669210823252797,0.000299146777251735,0,
00:00:01.412,-0.0031221597455442,-0.0118641499429941,0.00109804735984653,0,
00:00:01.416,-0.0011748691322282,-0.00124306243378669,0.0197593085467815,0,
00:00:01.42,-0.00116970133967698,-0.00282736751250923,0.0112095205113292,0,
00:00:01.424,-0.00508230645209551,0.00501570152118802,-0.0126111218705773,0,
00:00:01.428,0.00161453150212765,0.00154074130114168,-0.00625285319983959,0,
00:00:01.432,0.0036040844861418,-0.00190301903057843,-0.0103976102545857,0,
00:00:01.436,0.00266217463649809,0.00171250535640866,-0.00244350242428482,0,
00:00:01.44,0.000747749931178987,0.00340634770691395,0.00468573113903403,0,
00:00:01.444,0.00338746933266521,5.58134670427535E-05,0.002634949516505,0,
00:00:01.448,-0.0115119367837906,-0.00456891115754843,0.0107550360262394,0,
00:00:01.452,0.00362700619734824,-0.00287041254341602,0.00663515599444509,0,
00:00:01.456,0.00212316960096359,-0.00617278320714831,-0.00477238185703754,0,
00:00:01.46,0.000670137349516153,0.00981793832033873,-0.00562494061887264,0,
00:00:01.464,-0.000259682856267318,0.00492631178349257,-0.00726013444364071,0,
00:00:01.468,-0.000582536158617586,0.00208709947764874,-0.00496795307844877,0,
00:00:01.472,-0.000470222264993936,-0.00460634240880609,0.00980143342167139,0,
00:00:01.476,0.00189405551645905,-0.00864210911095142,-0.00269795022904873,0,
00:00:01.48,-0.00190312182530761,0.00629623327404261,0.00255120522342622,0,
00:00:01.484,-0.00352644198574126,0.00210148864425719,-0.00639121979475021,0,
00:00:01.488,0.00197706068865955,-0.00514387991279364,0.0057929796166718,0,
00:00:01.492,0.0025789225474,-3.96459436160512E-05,0.00730698183178902,0,
00:00:01.496,-0.000867294962517917,0.00398057093843818,-0.00311431265436113,0,
00:00:01.5,0.00171225029043853,-0.00437782239168882,-0.00615985877811909,0,
00:00:01.504,0.000634908210486174,0.00718104094266891,0.00222408468835056,0,
00:00:01.508,-0.000795476138591766,-0.00316852144896984,0.0104262130334973,0,
00:00:01.512,-0.00134487508330494,-0.00290807127021253,-0.0120582701638341,0,
00:00:01.516,0.00313312862999737,0.0019225082360208,0.000163995529874228,0,
00:00:01.52,-0.0063416208140552,0.00586931826546788,-0.00903012417256832,0,
00:00:01.524,-0.00102621188852936,-0.00583100458607078,0.00152958859689534,0,
00:00:01.528,0.00390327931381762,-0.00218502362258732,0.0111020151525736,0,
00:00:01.532,-0.00379211036488414,0.000224002578761429,0.00453389156609774,0,
00:00:01.536,0.0058331754989922,-0.000852096767630428,0.0119833732023835,0,
00:00:01.54,-0.000711462809704244,0.00312752556055784,-0.0168341305106878,0,
00:00:01.544,0.000924337888136506,0.00428722146898508,-0.00880101975053549,0,
00:00:01.548,-3.58907454938162E-05,0.00232548033818603,-0.00107743800617754,0,
00:00:01.552,0.00312659563496709,-0.00472489558160305,-0.00282288296148181,0,
00:00:01.556,-0.00724292919039726,-0.0151703907176852,0.0185176301747561,0,
00:00:01.56,-0.00413845991715789,0.0037916568107903,-0.00014491708134301,0,
00:00:01.564,0.00316226342692971,0.015098012983799,-0.00948407594114542,0,
00:00:01.568,0.00594507064670324,0.00439241155982018,-0.0105269122868776,0,
00:00:01.572,0.00406929943710566,-0.00139083911199123,0.0141103575006127,0,
00:00:01.576,-0.00997367780655622,-0.0162311065942049,0.0201324671506882,0,
00:00:01.58,-0.000855976832099259,-0.000176490953890607,-0.0166461803019047,0,
00:00:01.584,0.00241089030168951,0.00710825575515628,-0.017235342413187,0,
00:00:01.588,0.000251108664087951,0.000293072313070297,0.00717251282185316,0,
00:00:01.592,0.00502073671668768,0.00196235370822251,0.0100024538114667,0,
00:00:01.596,0.00144215696491301,0.00283758412115276,-0.00609067734330893,0,
00:00:01.6,-0.00848978478461504,-0.00473579065874219,-0.00641062716022134,0,
00:00:01.604,-0.00162075832486153,0.00110029964707792,0.00704384502023458,0,
00:00:01.608,0.00448055937886238,0.00048331607831642,0.00147083937190473,0,
00:00:01.612,0.0032546129077673,-0.00719140190631151,0.00243193958885968,0,
00:00:01.616,0.00241585751064122,0.00246977410279214,0.00240080477669835,0,
00:00:01.62,-0.00355381774716079,0.00608269264921546,-0.00764113059267402,0,
00:00:01.624,-0.00769679853692651,0.000144698322401382,-0.00175841595046222,0,
00:00:01.628,0.00261988118290901,0.000275921745924279,0.00372652127407491,0,
00:00:01.632,0.00606473442167044,-0.00772186601534486,0.00457714684307575,0,
00:00:01.636,0.00204339786432683,0.00166864355560392,6.69057117193006E-05,0,
00:00:01.64,-0.00392083544284105,0.00330644263885915,-0.0113730859011412,0,
00:00:01.644,-0.00739461835473776,0.0038487259298563,-0.00787448789924383,0,
00:00:01.648,0.00325336772948503,-0.00211095344275236,0.0354030542075634,0,
00:00:01.652,0.00864347070455551,-0.00281789060682058,-0.0132193248718977,0,
00:00:01.656,0.000216348358662799,0.000691773951984942,-0.0180673040449619,0,
00:00:01.66,-0.0140327401459217,-0.00385464075952768,-0.004681923892349,0,
00:00:01.664,0.00417666835710406,0.00135789485648274,0.0107562243938446,0,
00:00:01.668,0.0105982907116413,0.00249014119617641,0.0327907055616379,0,
00:00:01.672,0.00300868996419013,0.00364428316242993,-0.024503068998456,0,
00:00:01.676,-0.0103167416527867,0.000297117920126766,-0.0143700446933508,0,
00:00:01.68,-0.0044011240825057,-0.00640957616269588,-0.00573290791362524,0,
00:00:01.684,-0.00358594418503344,-0.00284992274828255,0.0161425564438105,0,
00:00:01.688,0.00889831967651844,0.007795674726367,0.00862286519259214,0,
00:00:01.692,0.00614047423005104,-0.00251868600025773,-0.00843415688723326,0,
00:00:01.696,-0.0039611435495317,-0.00637264270335436,0.0072126816958189,0,
00:00:01.7,-0.00160992448218167,0.0125905787572265,-0.00658605666831136,0,
00:00:01.704,-0.00274826702661812,-0.00283377920277417,-0.00752460863441229,0,
00:00:01.708,0.0038065598346293,-0.000435916561400518,0.0138497427105904,0,
00:00:01.712,-0.000333685631630942,-0.00366520788520575,-0.00954166520386934,0,
00:00:01.716,0.000746153935324401,-0.00227700755931437,-0.00648227753117681,0,
00:00:01.72,-0.00281982589513063,-0.00203316798433661,-0.00048336255713366,0,
00:00:01.724,-0.00583693291991949,0.00552174542099237,0.00996244419366121,0,
00:00:01.728,0.00424383161589503,-0.000774068990722299,0.0174817312508821,0,
00:00:01.732,0.00468414509668946,0.00148399476893246,-0.00697316601872444,0,
00:00:01.736,0.00588613748550415,0.000750520674046129,-0.0116376001387835,0,
00:00:01.74,-0.00285980151966214,0.00162295252084732,-0.00900767743587494,0,
00:00:01.744,-0.0115169957280159,-0.00302212359383702,-0.00685118930414319,0,
00:00:01.748,0.00227076257579029,-0.0025604700203985,0.0192781388759613,0,
00:00:01.752,1.6964049791568E-05,-0.0026592758949846,0.00715232640504837,0,
00:00:01.756,0.00174817233346403,0.00291758729144931,-0.00842367950826883,0,
00:00:01.76,0.00684300577268004,0.00304138939827681,-0.00406301859766245,0,
00:00:01.764,0.000132777742692269,0.00534017663449049,0.00817387364804745,0,
00:00:01.768,-0.00266264309175313,-0.00448446348309517,-0.0165187958627939,0,
00:00:01.772,-0.00472621200606227,-0.00872278027236462,0.0113120237365365,0,
00:00:01.776,0.000653007766231894,0.00247271778061986,0.0127832246944308,0,
00:00:01.78,0.00171410490293056,0.00653967307880521,-0.0107263196259737,0,
00:00:01.784,0.00311266491189599,0.00468286219984293,-0.00750437472015619,0,
00:00:01.788,-0.00395087664946914,-0.00559628941118717,-0.0057858289219439,0,
00:00:01.792,-0.000115941860713065,-0.004918048158288,0.00642424076795578,0,
00:00:01.796,0.000945812556892633,-0.00526714883744717,0.00897746626287699,0,
00:00:01.8,0.000725515827070922,0.00572806550189853,-0.00320890010334551,0,
00:00:01.804,-0.00190208444837481,0.00586846703663468,0.00136282027233392,0,
00:00:01.808,0.00175018387380987,0.00422479258850217,0.00450118212029338,0,
00:00:01.812,0.00337986764498055,-0.00528208445757627,-0.00736165558919311,0,
00:00:01.816,4.02568257413805E-05,-0.00230883108451962,-0.0052746762521565,0,
00:00:01.82,-0.00659842882305384,-0.000771166931372136,-0.00428248103708029,0,
00:00:01.824,-0.00494891498237848,-0.00201652059331536,0.00912029854953289,0,
00:00:01.828,0.00782933458685875,0.00448184041306376,0.0192600972950459,0,
00:00:01.832,0.00337799568660557,0.000140534990350716,-0.0132140396162868,0,
00:00:01.836,0.0040266290307045,0.000935922900680453,-0.0154007207602262,0,
00:00:01.84,-0.00987777579575777,-0.00287250732071698,-0.00787088461220264,0,
00:00:01.844,0.00509903160855174,0.000215109015698545,0.0222003497183323,0,
00:00:01.848,-0.00809646304696798,0.000217629189137369,-0.000157257105456665,0,
00:00:01.852,0.00105318427085876,-0.00854854192584753,0.0107051301747561,0,
00:00:01.856,0.00160188716836274,0.00339274574071169,-0.0154212042689323,0,
00:00:01.86,0.00471401680260897,0.00830576382577419,-0.0149118574336171,0,
00:00:01.864,0.00859603751450777,0.0102747352793813,0.0124813504517078,0,
00:00:01.868,-0.0127930119633675,-0.0112282233312726,-0.001960244262591,0,
00:00:01.872,-0.00119566405192018,-0.00473499391227961,0.0194057729095221,0,
00:00:01.876,0.00438435422256589,-0.0049070818349719,-0.00303128780797124,0,
00:00:01.88,4.13490233768243E-05,0.0092886071652174,-0.0119153987616301,0,
00:00:01.884,-0.00308972480706871,0.00092886108905077,-0.0116856014356017,0,
00:00:01.888,0.00133436755277216,-0.00181469949893653,0.0013848376693204,0,
00:00:01.892,0.00580316130071878,0.000410181615734473,-0.00324687524698675,0,
00:00:01.896,-0.00129654153715819,-0.00254119071178138,0.0205883290618658,0,
00:00:01.9,-0.00981730967760086,-0.00127569574397057,0.0134113617241383,0,
00:00:01.904,-0.00505374185740948,-0.00360023672692478,0.00343587319366634,0,
00:00:01.908,0.0121780317276716,0.0053871888667345,-0.0156566053628922,0,
00:00:01.912,0.00806058291345835,0.004547746386379,-0.028540775179863,0,
00:00:01.916,0.00179933314211667,0.00297188851982355,0.000356597389327362,0,
00:00:01.92,-0.0113449618220329,-0.00382647872902453,0.00530539220198989,0,
00:00:01.924,-0.00731917936354876,-0.00423543201759458,0.00862301047891378,0,
00:00:01.928,0.0041730860248208,-0.00197759014554322,0.0160807818174362,0,
00:00:01.932,0.00253589893691242,0.000364542240276933,0.00870757177472115,0,
00:00:01.936,0.00365458591841161,-0.000496854656375945,-0.00780821824446321,0,
00:00:01.94,-0.00333446240983903,0.00354855577461421,-0.0122819133102894,0,
00:00:01.944,0.000328093214193359,0.00665380712598562,0.00222159875556827,0,
00:00:01.948,0.00518743600696325,-0.00372171611525118,-0.00291829695925117,0,
00:00:01.952,-0.00759907532483339,-0.0108091346919537,-0.00412074383348227,0,
00:00:01.956,0.000485103693790734,0.0060583958402276,0.000289525807602331,0,
00:00:01.96,0.00447474746033549,0.00362054002471268,0.0056066564284265,0,
00:00:01.964,-0.0045836535282433,0.00282106758095324,0.00188411108683795,0,
00:00:01.968,0.00450735772028565,-0.00302903214469552,0.00260542309843004,0,
00:00:01.972,0.00450605945661664,-0.00521381525322795,0.00413977494463325,0,
00:00:01.976,-0.00947440974414349,0.000780996342655271,-0.00596172176301479,0,
00:00:01.98,-0.00281841377727687,-0.00191789690870792,-0.00766715360805392,0,
00:00:01.984,0.00630567735061049,0.0096343494951725,-0.00182910379953682,0,
00:00:01.988,0.00387357384897769,0.00173137011006474,0.00931626930832863,0,
00:00:01.992,-0.00256095989607275,-0.00542245898395777,-0.00351962726563215,0,
00:00:01.996,-0.00499942572787404,-0.0106568606570363,-0.00403190730139613,0,
00:00:02,0.00290378369390965,0.00484982319176197,0.00990530103445053,0,
00:00:02.004,0.000187415149412118,0.0126365907490253,0.00920474901795387,0,
00:00:02.008,-0.000235649480600841,-0.00312660657800734,-0.00623129913583398,0,
00:00:02.012,-0.00204907706938684,-0.00994995981454849,-0.0131329894065857,0,
00:00:02.016,0.00430408539250493,-0.00122260267380625,-0.00537544582039118,0,
00:00:02.02,-0.00214909226633608,0.00963516440242529,0.00293785077519715,0,
00:00:02.024,-0.00144696293864399,8.44016831251793E-05,0.0106146233156323,0,
00:00:02.028,0.000480168790090829,-0.00476473663002253,-0.000675011950079352,0,
00:00:02.032,0.00347605021670461,-0.0022155805490911,-0.00131977931596339,0,
00:00:02.036,0.00538678839802742,0.00511029362678528,0.00853402726352215,0,
00:00:02.04,-0.00518052838742733,0.000430390326073393,-0.00692344876006246,0,
00:00:02.044,-0.00542182801291347,0.000742308038752526,0.00652047106996179,0,
00:00:02.048,-0.00195907126180828,-0.0053607989102602,-0.0127079971134663,0,
00:00:02.052,0.00536166457459331,-0.00230547925457358,-0.000989878899417818,0,
00:00:02.056,-0.00557532301172614,0.00359926884993911,-0.00582117307931185,0,
00:00:02.06,0.00071917223976925,0.00732667185366154,0.0102339163422585,0,
00:00:02.064,0.00789173319935799,-0.00309804920107126,0.00144663546234369,0,
00:00:02.068,0.00769666256383061,-0.00841727014631033,0.0129027077928185,0,
00:00:02.072,-0.00992688536643982,0.0020258966833353,-0.00690040644258261,0,
00:00:02.076,-0.00974765978753567,0.00173336523585021,-0.0132051277905703,0,
00:00:02.08,0.00537490705028176,0.00402019359171391,-0.000283585075521842,0,
00:00:02.084,0.00357609870843589,0.00358443195000291,3.56890050170477E-05,0,
00:00:02.088,-0.000590824347455055,-0.00312407966703177,0.0119296386837959,0,
00:00:02.092,0.00391981191933155,-0.00385645567439497,0.000978492782451212,0,
00:00:02.096,-0.00332265323959291,0.000129562249640003,-0.00537177128717303,0,
00:00:02.1,-0.000428288418333977,-0.00177558604627848,-0.00555193657055497,0,
00:00:02.104,8.40098000480793E-05,-0.000254452024819329,0.00186736148316413,0,
00:00:02.108,-7.9259931226261E-05,0.00128244643565267,0.00141551380511373,0,
00:00:02.112,0.00186111568473279,0.00168925267644227,0.0228086933493614,0,
00:00:02.116,-0.00422271015122533,-0.000942797982133925,-0.0159670766443014,0,
00:00:02.12,0.000304046290693805,0.0042976001277566,-0.021959450095892,0,
00:00:02.124,0.00363944307900965,-0.000762200157623738,0.0020863451063633,0,
00:00:02.128,-0.000805621559266001,-0.0042093307711184,0.0188426170498133,0,
00:00:02.132,-0.00340779847465456,0.000419760268414393,0.000993106048554182,0,
00:00:02.136,0.0056139943189919,0.00122289301361889,-0.00116057554259896,0,
00:00:02.14,-0.00201550242491066,0.00061445776373148,-0.000116818060632795,0,
00:00:02.144,-0.00664973352104425,-0.00218671001493931,-0.00810904148966074,0,
00:00:02.148,0.00531109794974327,0.00566952116787434,-0.000827980693429708,0,
00:00:02.152,0.00420410744845867,-0.00272140512242913,0.000845828210003674,0,
00:00:02.156,-0.00818362832069397,-0.00742953782901168,0.0135343372821808,0,
00:00:02.16,0.00958580989390612,0.00697230454534292,-0.000399345270125195,0,
00:00:02.164,-6.59317884128541E-05,-0.00189539126586169,-0.0104440683498979,0,
00:00:02.168,-0.00814062170684338,0.000654766568914056,-0.00602808129042387,0,
00:00:02.172,-0.00382426870055497,0.00088696280727163,-0.00143417029175907,0,
00:00:02.176,0.00377003359608352,-0.00179023772943765,0.00834853574633598,0,
00:00:02.18,0.00632935576140881,0.00168853253126144,0.00394652411341667,0,
00:00:02.184,-0.00420199148356915,0.00321223144419491,0.00483413599431515,0,
00:00:02.188,0.00394655158743262,-0.00219910615123808,-0.00310003058984876,0,
00:00:02.192,0.00159714627079666,-0.00471240514889359,-0.0049618324264884,0,
00:00:02.196,-0.0018910369835794,0.000840006687212735,0.00296009960584342,0,
00:00:02.2,-0.00109815062023699,0.00618046848103404,-0.0127694252878428,0,
00:00:02.204,-0.0104912556707859,-0.000587785732932389,-0.003946119453758,0,
00:00:02.208,0.00167596631217748,-0.00508198887109756,0.01010169275105,0,
00:00:02.212,0.00138766202144325,-0.00667789252474904,0.0217306278645992,0,
00:00:02.216,0.0103735560551286,0.000634557742159814,-0.00248350016772747,0,
00:00:02.22,0.000628404086455703,0.00970012042671442,-0.0221562925726175,0,
00:00:02.224,-0.000347338209394366,0.0099935494363308,-0.000228690289077349,0,
00:00:02.228,-0.000162253956659697,-0.00224629393778741,-0.00390581763349473,0,
00:00:02.232,-0.00264272652566433,-0.00927373114973307,0.000320958497468382,0,
00:00:02.236,-0.00754481088370085,-0.0103928176686168,0.0126655297353864,0,
00:00:02.24,-0.000289733987301588,0.00309698097407818,0.00987223815172911,0,
00:00:02.244,0.00295290676876903,0.00607015937566757,-0.000263717549387366,0,
00:00:02.248,-0.00104879902210087,-0.000180476345121861,-0.0130065511912107,0,
00:00:02.252,0.00771029060706496,0.0109241362661123,-0.00556975603103638,0,
00:00:02.256,0.00554354954510927,-0.00408563204109669,0.00273677404038608,0,
00:00:02.26,-0.004054787568748,-0.00452008191496134,0.00572217162698507,0,
00:00:02.264,-0.00611755065619946,-0.0014659269945696,-0.0125708123669028,0,
00:00:02.268,-0.0058924718759954,-0.00761615578085184,0.0143287274986506,0,
00:00:02.272,-0.00678128004074097,-0.00967232696712017,0.0130291348323226,0,
00:00:02.276,0.0113912718370557,0.016496367752552,-0.00406369892880321,0,
00:00:02.28,0.00918496772646904,0.0147025836631656,-0.0194542314857244,0,
00:00:02.284,-0.00254430109634995,-0.00267963274382055,-0.0136788906529546,0,
00:00:02.288,-0.00194362457841635,-0.00593219744041562,0.0091428104788065,0,
00:00:02.292,0.000164082230185159,-0.0124149974435568,0.012628773227334,0,
00:00:02.296,-0.00551174115389586,0.000144338075187989,0.00296423397958279,0,
00:00:02.3,-0.00032348177046515,0.0105695752426982,0.00629783514887095,0,
00:00:02.304,0.0015700301155448,-0.00415425049141049,0.0015878367703408,0,
00:00:02.308,-0.000522387388627976,-0.00339510780759156,-0.0159934964030981,0,
00:00:02.312,0.00273831002414227,0.000644650252070278,0.0041401507332921,0,
00:00:02.316,0.00161497725639492,0.00293129845522344,-0.00731681706383824,0,
00:00:02.32,-0.00027496850816533,0.00893505569547415,-0.0062751229852438,0,
00:00:02.324,0.000749445578549057,-0.000675288552884012,0.0204979944974184,0,
00:00:02.328,-0.00535848597064614,-0.00525213964283466,-0.00461922725662589,0,
00:00:02.332,0.00382181769236922,-0.00706112990155816,0.0048847203142941,0,
00:00:02.336,-0.00243741995655,-0.00857139565050602,-0.00406159134581685,0,
00:00:02.34,-0.00386847020126879,0.00803316291421652,-0.0111751314252615,0,
00:00:02.344,-0.00181477738078684,0.0108022205531597,0.00562600092962384,0,
00:00:02.348,0.00722445780411363,0.001555060967803,0.00545171601697803,0,
00:00:02.352,0.007131970487535,-0.00514428084716201,-0.00532787805423141,0,
00:00:02.356,-0.00168314261827618,-0.00185577105730772,0.00360108586028218,0,
00:00:02.36,-0.00238850596360862,0.00131604890339077,0.00618360191583633,0,
00:00:02.364,-0.00754249840974808,0.00395963806658983,-0.0154588408768177,0,
00:00:02.368,-0.000852321449201554,-0.00961806438863277,0.00405590981245041,0,
00:00:02.372,-0.00195613014511764,-0.0111898425966501,0.00170426291879267,0,
00:00:02.376,0.00650629354640841,0.00809697713702917,0.00802036933600903,0,
00:00:02.38,0.00687764352187514,0.0166934542357922,-0.00433444464579225,0,
00:00:02.384,-0.00138916808646172,0.00556568568572402,-0.00624481914564967,0,
00:00:02.388,-0.0018612218555063,-0.0094603793695569,-0.00498503819108009,0,
00:00:02.392,-0.000880937033798546,-0.0114066433161497,0.0155247403308749,0,
00:00:02.396,-0.0107480296865106,-0.00170892965979874,0.0117573812603951,0,
00:00:02.4,-0.00298506091348827,0.00729717686772347,-0.00966343749314547,0,
00:00:02.404,0.013236790895462,3.68177825293969E-05,-0.0224181618541479,0,
00:00:02.408,0.00148475263267756,-0.00489639909937978,-0.00021033434313722,0,
00:00:02.412,-0.00357627565972507,-1.13737432911876E-05,0.0213704239577055,0,
00:00:02.416,0.00691718887537718,0.0101385107263923,-0.0115457382053137,0,
00:00:02.42,-0.00473479134961963,0.00449795695021749,0.00412666890770197,0,
00:00:02.424,0.00155270262621343,-0.00259617064148188,0.00910255871713161,0,
00:00:02.428,-0.00920090917497873,-0.00774376140907407,-0.00910584535449743,0,
00:00:02.432,-0.00348881236277521,-0.00682057719677687,0.000468590355012566,0,
00:00:02.436,0.0116380145773292,0.003894810564816,-0.000599681225139648,0,
00:00:02.44,0.00210347608663142,0.000292529613943771,-0.0021117168944329,0,
00:00:02.444,3.78357181034517E-05,0.0057150605134666,0.0149508025497198,0,
00:00:02.448,-0.00253431149758399,0.00473461952060461,-0.009607819840312,0,
00:00:02.452,-0.0072233946993947,-0.00733887078240514,-0.0176534112542868,0,
00:00:02.456,-0.0041487505659461,-0.0089409900829196,0.0163441449403763,0,
00:00:02.46,0.0069692968390882,0.00853284075856209,0.0025365122128278,0,
00:00:02.464,0.00621992954984307,0.00682253343984485,-0.00216594664379954,0,
00:00:02.468,0.00383729441091418,-0.00154248275794089,-0.00437439884990454,0,
00:00:02.472,-0.00382345542311668,-0.00371990655548871,-0.00306304730474949,0,
00:00:02.476,-0.0047230813652277,-0.002640082500875,0.00390520156361163,0,
00:00:02.48,-0.00252512283623219,-0.000661957368720323,0.0146549418568611,0,
00:00:02.484,-0.00204624724574387,0.000799027446191758,-0.0101307621225715,0,
00:00:02.488,0.0034944994840771,-0.000795738829765469,-0.0172989964485168,0,
00:00:02.492,0.00749726640060544,0.00295542110688984,0.0232368092983961,0,
00:00:02.496,-0.00480199186131358,0.00408024899661541,-0.00304957595653832,0,
00:00:02.5,-0.00611058762297034,0.000111094450403471,-0.0093508642166853,0,
00:00:02.504,0.00588490627706051,-0.00487015582621098,0.00484597682952881,0,
00:00:02.508,0.00403403071686625,-0.00322567694820464,-0.00735810631886125,0,
00:00:02.512,-0.000496947497595102,-0.000163822522154078,0.0147546799853444,0,
00:00:02.516,-0.00719009200111032,-0.000295581383397803,-0.0155506962910295,0,
00:00:02.52,0.00102326017804444,0.00611678557470441,-0.00315092876553535,0,
00:00:02.524,-0.000111845110950526,0.00299166887998581,0.0118666989728808,0,
00:00:02.528,-0.00352254696190357,-0.00742317130789161,0.00769750867038965,0,
00:00:02.532,0.0071925432421267,0.000715579779352993,0.00594861526042223,0,
00:00:02.536,0.00231667165644467,0.00214256043545902,-0.0151257310062647,0,
00:00:02.54,-0.00501577975228429,-0.00105548626743257,-0.0104941837489605,0,
00:00:02.544,0.00400515459477901,0.0037323166616261,0.00377560313791037,0,
00:00:02.548,0.00377720850519836,-0.00128324422985315,0.020671010017395,0,
00:00:02.552,-0.00802059005945921,-0.00230758776888251,-0.0164979211986065,0,
00:00:02.556,-0.00506141129881144,-0.00137986894696951,-0.00525636645033956,0,
00:00:02.56,0.0026809168048203,0.00200380966998637,6.91216064296896E-06,0,
00:00:02.564,0.00388903543353081,-0.00121789379045367,0.00444355281069875,0,
00:00:02.568,0.00220029265619814,-0.000733775785192847,0.00507330754771829,0,
00:00:02.572,0.00426000542938709,0.00041381994378753,0.000829855736810714,0,
00:00:02.576,-0.00716684153303504,0.00098233250901103,0.00205917074345052,0,
00:00:02.58,-0.000559254025574774,0.00291205500252545,-0.000153332584886812,0,
00:00:02.584,-0.00150856375694275,-0.00165113352704793,0.00210195872932673,0,
00:00:02.588,-0.00407713325694203,0.00234746909700334,-0.00636473065242171,0,
00:00:02.592,0.00738770421594381,-0.00453172763809562,-0.00276950770057738,0,
00:00:02.596,0.000777624954935163,-0.00905433855950832,-0.00266462750732899,0,
00:00:02.6,0.00160109100397676,0.00638424605131149,0.000613162061199546,0,
00:00:02.604,-0.000138356132083572,0.00929244793951511,0.0152137102559209,0,
00:00:02.608,0.000554912257939577,0.00286423554643989,-0.0132014453411102,0,
00:00:02.612,0.000466081430204213,-0.00506004132330418,-0.00856436789035797,0,
00:00:02.616,-0.00661373883485794,-0.00505861034616828,0.0144425397738814,0,
00:00:02.62,-0.00357466819696128,-2.50640914600808E-05,0.00603992771357298,0,
00:00:02.624,0.000998807256110013,-0.00129814795218408,-0.00881173647940159,0,
00:00:02.628,0.00131771666929126,0.00032263295724988,-0.0146702071651816,0,
00:00:02.632,0.00723667396232486,0.00162252062000334,0.013912389986217,0,
00:00:02.636,-0.00295740342698991,-0.000358860124833882,0.00423607137054205,0,
00:00:02.64,0.00434675719588995,0.00292729935608804,0.00802354421466589,0,
00:00:02.644,-0.00299405446276069,0.00996003020554781,-0.0200647544115782,0,
00:00:02.648,-0.000799483503215015,-0.0124689638614655,0.0141050266101956,0,
00:00:02.652,0.00143991888035089,-0.00625965418294072,-0.00731186103075743,0,
00:00:02.656,-0.000568832096178085,0.00302011310122907,0.0045613688416779,0,
00:00:02.66,-0.00612428411841393,0.00872334651648998,-0.00917831435799599,0,
00:00:02.664,0.0021893207449466,-0.00132832396775484,-0.00571941072121263,0,
00:00:02.668,0.000599066261202097,-0.00522123463451862,0.007644924800843,0,
00:00:02.672,0.000781003676820546,0.000254922284511849,0.0121842911466956,0,
00:00:02.676,-0.0052872053347528,-0.00242835329845548,0.00138409831561148,0,
00:00:02.68,0.00659373542293906,0.00932789221405983,-0.0066435020416975,0,
00:00:02.684,0.00509465811774135,-0.00044264696771279,0.000672178983222693,0,
00:00:02.688,0.000279199768556282,-0.0034140651114285,-0.00559068657457829,0,
00:00:02.692,0.00119562866166234,0.001440190942958,-0.00976722594350576,0,
00:00:02.696,-0.00947756972163916,-0.00894283223897219,0.00206937012262642,0,
00:00:02.7,-0.00338629051111639,0.00132537086028606,0.0115377958863974,0,
00:00:02.704,0.00103903538547456,0.00415585329756141,0.0129165444523096,0,
00:00:02.708,0.00286788493394852,0.00303646526299417,-0.00226554879918695,0,
00:00:02.712,0.00255932449363172,0.000780310307163745,-0.0196751095354557,0,
00:00:02.716,0.00329515035264194,0.00115882593672723,-0.00678482605144382,0,
00:00:02.72,-0.00623573083430529,-0.00346216489560902,0.00433535780757666,0,
00:00:02.724,0.00354047166183591,0.00136341154575348,0.00420467648655176,0,
00:00:02.728,0.00437216926366091,-0.00455712852999568,0.024895291775465,0,
00:00:02.732,-0.00702941417694092,-0.00640432350337505,-0.000206072523724288,0,
00:00:02.736,-0.00225404393859208,0.00717625860124826,-0.0165697485208511,0,
00:00:02.74,-0.00117042916826904,0.0040679695084691,-0.0167122296988964,0,
00:00:02.744,0.00398125918582082,0.00315944431349635,-0.00300323287956417,0,
00:00:02.748,0.00324551574885845,-0.00286534009501338,0.00753928162157536,0,
00:00:02.752,0.0028480552136898,-0.00529884081333876,0.0100803365930915,0,
00:00:02.756,-0.00517750298604369,0.00466274656355381,0.0232198406010866,0,
00:00:02.76,0.000694547547027469,0.00212202128022909,-0.0145266326144338,0,
00:00:02.764,-0.0017708403756842,-0.0100855380296707,-0.00958171114325523,0,
00:00:02.768,0.00104619190096855,0.00261218077503145,-0.00924391858279705,0,
00:00:02.772,-0.0016733780503273,0.00213895854540169,-0.00118110177572817,0,
00:00:02.776,-0.00268007582053542,-0.000297283084364608,0.0069459374062717,0,
00:00:02.78,0.00279547809623182,0.00505082914605737,0.0062807141803205,0,
00:00:02.784,0.00298794754780829,-0.000231421858188696,-0.00171021965797991,0,
00:00:02.788,0.00117095827590674,-0.00406351452693343,0.000898272090125829,0,
00:00:02.792,-0.000564365705940872,0.00232100416906178,0.00276217120699584,0,
00:00:02.796,-0.00134291907306761,0.00101338617969304,-0.00438894052058458,0,
00:00:02.8,-0.00326441833749413,-0.00327218021266162,0.0138355763629079,0,
00:00:02.804,0.0034938957542181,9.31522663449869E-06,-0.0196546781808138,0,
00:00:02.808,-0.000261879380559549,0.000305678637232631,-0.00726712169125676,0,
00:00:02.812,0.0010300847934559,-0.00416051456704736,0.0119594195857644,0,
00:00:02.816,-0.0046229287981987,0.00173169979825616,0.00822693109512329,0,
00:00:02.82,0.000422916375100613,0.00522059062495828,-0.0103484094142914,0,
00:00:02.824,-0.000157691640197299,0.00213302648626268,-0.00527760665863752,0,
00:00:02.828,0.00552415708079934,-0.00126733747310936,0.00895962584763765,0,
00:00:02.832,9.10674571059644E-05,-0.00681937811896205,0.00851383619010448,0,
00:00:02.836,-0.0018637259490788,-0.00234998227097094,-0.0018287367420271,0,
00:00:02.84,-0.00171806709840894,0.00854942761361599,-0.00964552816003561,0,
00:00:02.844,-0.000742866250220686,0.00214143912307918,-0.0088321752846241,0,
00:00:02.848,0.000172382206073962,-0.00399732124060392,0.0178790278732777,0,
00:00:02.852,-0.00145334051921964,-0.00513330334797502,0.00822001043707132,0,
00:00:02.856,0.00465360144153237,-0.0005272903945297,-0.0258835908025503,0,
00:00:02.86,-1.28237325043301E-05,0.0111920358613133,0.00926637835800648,0,
00:00:02.864,-0.00352971674874425,-0.000351065624272451,-0.00192172487732023,0,
00:00:02.868,0.00700480584055185,-0.00861438922584057,-0.00289809121750295,0,
00:00:02.872,-0.00883415155112743,-0.00194521422963589,0.00618594558909535,0,
00:00:02.876,-0.000544808164704591,0.00390549004077911,0.00905774626880884,0,
00:00:02.88,0.00449402956292033,0.000737079360987991,-0.00938433315604925,0,
00:00:02.884,-0.00385296461172402,0.00223220931366086,0.000453204498626292,0,
00:00:02.888,0.0074011548422277,0.000299523147987202,0.00787860807031393,0,
00:00:02.892,-0.00529182655736804,-0.00343526690267026,-0.0243683140724897,0,
00:00:02.896,0.00305911619216204,-0.00178737030364573,0.022270679473877,0,
00:00:02.9,-0.00052256922936067,0.000530425051692873,0.00319512491114438,0,
00:00:02.904,-0.00559245189651847,0.00165114144328982,-0.00890998914837837,0,
00:00:02.908,0.00505199702456594,0.00145910901483148,0.00272573530673981,0,
00:00:02.912,0.00323063787072897,0.00267395097762346,-0.00127253064420074,0,
00:00:02.916,-0.00491823954507709,-0.000139545838464983,-0.0150191355496645,0,
00:00:02.92,-0.00303221773356199,-0.00221066805534065,0.0101728644222021,0,
00:00:02.924,0.00470969406887889,-0.00444701826199889,0.00562986964359879,0,
00:00:02.928,0.000579468964133412,-0.00549896759912372,0.00612131506204605,0,
00:00:02.932,-0.000909037422388792,0.00766973756253719,0.00172834459226578,0,
00:00:02.936,-0.00299654761329293,0.00604391004890203,-0.0212745927274227,0,
00:00:02.94,-0.000479077396448702,0.000764615775551647,0.00710492487996817,0,
00:00:02.944,0.00582586694508791,-0.00491591449826956,0.0106918234378099,0,
00:00:02.948,0.00228799926117063,-0.0015316124772653,-0.00390679528936744,0,
00:00:02.952,-0.00187197490595281,-0.000508226512465626,-0.00687939720228314,0,
00:00:02.956,-0.00757863139733672,-0.00216724025085568,-0.00361767364665866,0,
00:00:02.96,-0.00275006680749357,-0.00197860389016569,0.0111741106957197,0,
00:00:02.964,0.00655899895355105,0.00596999702975154,0.00392590742558241,0,
00:00:02.968,0.00243823323398829,0.00178958522155881,0.00421878229826689,0,
00:00:02.972,-0.0040880492888391,-0.00028931355336681,-0.0184304192662239,0,
00:00:02.976,0.00508419144898653,0.00311882817186415,0.0038204409647733,0,
00:00:02.98,0.000305801484500989,-0.00284334481693804,-0.00526408664882183,0,
00:00:02.984,-0.0018784113926813,-0.00580319110304117,0.0107957869768143,0,
00:00:02.988,-0.00197033700533211,-0.00624778354540467,-0.000138486895593815,0,
00:00:02.992,0.00106916425283998,0.00563377048820257,0.00219602696597576,0,
00:00:02.996,-0.00399412354454398,0.00850213039666414,-0.00478839129209518,0,
00:00:03,0.00308542605489492,0.00499095628038049,-0.00292840297333896,0,
00:00:03.004,-0.00183373666368425,-0.00435641268268228,-0.00374595983885229,0,
00:00:03.008,0.00597715890035033,-0.0101295979693532,0.00821494217962027,0,
00:00:03.012,-0.00427253777161241,0.000438618037151173,0.00753548135980964,0,
00:00:03.016,-0.000843770976644009,0.00303448783233762,-0.00223989551886916,0,
00:00:03.02,-0.00139572122134268,0.000131621811306104,-0.00947018340229988,0,
00:00:03.024,0.000792315928265452,-0.00156641833018512,-0.00215583550743759,0,
00:00:03.028,0.00617178622633219,0.00509282480925322,0.00820540450513363,0,
00:00:03.032,-0.000176879606442526,0.000565847032703459,0.00120891747064888,0,
00:00:03.036,-0.0026225782930851,-0.00116065470501781,-0.0110002486035228,0,
00:00:03.04,-0.00447314186021686,0.000771448889281601,-0.00352484313771129,0,
00:00:03.044,0.00301948259584606,-0.000661535887047648,0.0149810230359435,0,
00:00:03.048,-5.97361504333094E-05,-0.00168280443176627,-0.000648087123408914,0,
00:00:03.052,0.00154067401308566,-0.00354797276668251,-0.00324369175359607,0,
00:00:03.056,-0.00208559888415039,-0.000635921605862677,0.0108867427334189,0,
00:00:03.06,-0.00755407009273767,0.00192662491463125,-0.0115693062543869,0,
00:00:03.064,0.0082628782838583,0.00463901739567518,-0.00261083175428212,0,
00:00:03.068,0.00824608467519283,-0.000303601118503138,-0.00415539555251598,0,
00:00:03.072,-0.00603896658867598,-0.00134742411319166,0.000341297738486901,0,
00:00:03.076,-0.00764309847727418,0.00325094535946846,-0.00669736368581653,0,
00:00:03.08,-0.00124537746887654,-0.00416221236810088,0.013881703838706,0,
00:00:03.084,0.00986650586128235,-0.00307302013970912,0.0312056560069323,0,
00:00:03.088,0.00278870947659016,-0.00213509611785412,-0.022976903244853,0,
00:00:03.092,2.70836681011133E-05,0.00590467592701316,-0.0222198739647865,0,
00:00:03.096,-0.00342412549071014,0.00794378761202097,0.000710036838427186,0,
00:00:03.1,-0.00825685448944569,-0.00417217938229442,0.00783677119761705,0,
00:00:03.104,-0.00264970329590142,-0.00997270178049803,0.00453652255237103,0,
00:00:03.108,0.00709697976708412,-0.00315420632250607,0.00664354767650366,0,
00:00:03.112,0.0051048812456429,0.00344443577341735,-0.00531462766230106,0,
00:00:03.116,-0.00152448820881546,0.0139144118875265,0.00638029770925641,0,
00:00:03.12,0.00168014434166253,-0.00183004501741379,-0.0182085800915957,0,
00:00:03.124,-0.0135244717821479,-0.0075835888274014,0.0081906896084547,0,
00:00:03.128,0.00470107747241855,-0.0017300071194768,0.0144905056804419,0,
00:00:03.132,0.00906906183809042,0.00300788762979209,-0.0129451798275113,0,
00:00:03.136,0.00119109335355461,0.00157914275769144,0.00126835284754634,0,
00:00:03.14,-0.00465265661478043,-0.000584411143790931,-0.00689164828509092,0,
00:00:03.144,-0.0010957014746964,0.000551532953977585,0.000571120181120932,0,
00:00:03.148,0.0039867265149951,-0.00318171875551343,-4.63800170109607E-05,0,
00:00:03.152,-0.00399173144251108,-0.0061226524412632,0.0078242551535368,0,
00:00:03.156,-0.00538509432226419,-0.00202150922268629,0.0174669530242682,0,
00:00:03.16,-0.000415229646023363,0.0128767546266317,-0.0181826967746019,0,
00:00:03.164,0.0074951509013772,0.00497042993083596,0.00728890532627702,0,
00:00:03.168,0.00205101422034204,-0.00600717449560761,-0.0136723490431905,0,
00:00:03.172,-0.00299161393195391,-0.00489071058109403,-0.00606340635567904,0,
00:00:03.176,-0.00191057217307389,0.00531504396349192,-0.00612641172483563,0,
00:00:03.18,0.00221413443796337,-0.00206605228595436,0.00979416258633137,0,
00:00:03.184,0.00336766941472888,-0.0025264632422477,0.0180230848491192,0,
00:00:03.188,-0.000356394652044401,0.00135696702636778,0.00450563291087747,0,
00:00:03.192,-0.00494854943826795,0.00304057751782238,-0.00926792994141579,0,
00:00:03.196,-0.00298518151976168,-0.00627880543470383,-0.00824317149817944,0,
00:00:03.2,-0.00395031739026308,0.00161488528829068,0.00963948573917151,0,
00:00:03.204,0.00603592116385698,-0.00160949910059571,-0.00405397452414036,0,
00:00:03.208,0.00757659273222089,0.00294612301513553,-0.00845380872488022,0,
00:00:03.212,-0.000370594643754885,0.00278640491887927,-0.00537396175786853,0,
00:00:03.216,-0.00324331759475172,0.00503688491880894,0.000120781762234401,0,
00:00:03.22,-0.000827624637167901,-0.000600445899181068,0.00198854668997228,0,
00:00:03.224,-0.00531258527189493,-0.00871456693857908,0.0152897359803319,0,
00:00:03.228,-0.00146796787157655,-0.00694349780678749,0.00147395464591682,0,
00:00:03.232,0.00655718194320798,0.00277004484087229,0.0137628773227334,0,
00:00:03.236,-0.000367096130503342,0.00549568282440305,-0.00433704955503345,0,
00:00:03.24,0.00332832592539489,0.00809750985354185,-0.0288650058209896,0,
00:00:03.244,-0.0037884961348027,-0.00290793227031827,-0.0115035651251674,0,
00:00:03.248,0.00156515452545136,-0.00448051188141108,0.00986306648701429,0,
00:00:03.252,-0.00169425166677684,-0.0023614892270416,0.011073405854404,0,
00:00:03.256,-0.00560416374355555,7.33113338355906E-05,0.00139295042026788,0,
00:00:03.26,0.00166753854136914,0.00137671455740929,0.0186756663024426,0,
00:00:03.264,0.0101299164816737,0.00142730481456965,-0.00261203083209693,0,
00:00:03.268,-0.00101346033625305,0.000756395049393177,-0.017281724140048,0,
00:00:03.272,-0.00623571407049894,0.00206392933614552,-0.00993249006569386,0,
00:00:03.276,0.000951401132624596,-0.00245722150430083,0.0132079254835844,0,
00:00:03.28,-0.00114787206985056,0.00194810947868973,-0.0114207696169615,0,
00:00:03.284,-0.0026218518614769,-0.00449898838996887,0.0132086332887411,0,
00:00:03.288,0.00246064364910126,-0.00461921468377113,-0.000464181619463488,0,
00:00:03.292,0.00469427788630128,0.00689938478171825,-0.0048168976791203,0,
00:00:03.296,-0.00511965295299888,0.000181531722773798,-0.0054762470535934,0,
00:00:03.3,0.00389542826451361,0.00124907167628407,0.0121579002588987,0,
00:00:03.304,-0.00207592849619687,-0.00214803381823003,0.0126004265621305,0,
00:00:03.308,0.000555406324565411,-0.00123968266416341,-0.0168383792042732,0,
00:00:03.312,-0.00169569393619895,-0.00178128213156015,-0.0101009542122483,0,
00:00:03.316,-0.00040629314025864,0.00509239407256246,0.00612537935376167,0,
00:00:03.32,0.00299878814257681,0.00264595239423215,0.00178627541754395,0,
00:00:03.324,0.00549109280109406,0.00311347260139883,-0.00292984046973288,0,
00:00:03.328,-0.00474870810285211,-0.00880706217139959,0.00513455551117659,0,
00:00:03.332,-0.00706187402829528,-0.00992028322070837,0.020656356588006,0,
00:00:03.336,-0.0038936163764447,6.35271208011545E-05,-0.0174149554222822,0,
00:00:03.34,0.00889526400715113,0.015251743607223,-0.0174195077270269,0,
00:00:03.344,0.00596158253028989,0.00584026565775275,-0.00680319732055068,0,
00:00:03.348,-0.00421232357621193,-0.00231657666154206,0.0350136421620846,0,
00:00:03.352,0.000318944687023759,-0.00980391260236502,-0.00388855952769518,0,
00:00:03.356,-0.0047014718875289,-0.0007996711647138,-0.0152845997363329,0,
00:00:03.36,0.000231644749874249,0.00138235196936876,-0.00208241608925164,0,
00:00:03.364,0.00163472059648484,-0.00306149991229177,0.00792904105037451,0,
00:00:03.368,0.00127707479987293,0.00430281413719058,-0.00174896267708391,0,
00:00:03.372,0.00455705029889941,-0.000966841238550842,0.000879180268384516,0,
00:00:03.376,-0.00422357162460685,0.00204765633679926,0.0115003371611238,0,
00:00:03.38,-0.0100333401933312,0.00351761840283871,-0.0157628487795591,0,
00:00:03.384,0.0072303619235754,0.00211103493347764,-0.00688432948663831,0,
00:00:03.388,0.00447577424347401,-0.00665232352912426,0.00513049913570285,0,
00:00:03.392,-0.0031398287974298,-0.0108804125338793,0.0280229113996029,0,
00:00:03.396,0.00268239551223814,0.00775956781581044,-0.0155558176338673,0,
00:00:03.4,0.00137274339795113,0.00761744240298867,-0.0162824206054211,0,
00:00:03.404,-0.00102301791775972,0.00197790213860571,-5.79239676881116E-05,0,
00:00:03.408,-0.0021115755662322,-0.00454981531947851,0.00362960691563785,0,
00:00:03.412,0.0003554884751793,-0.00179694453254342,0.00722883595153689,0,
00:00:03.416,-0.00466708326712251,0.00109189283102751,-0.00223336857743561,0,
00:00:03.42,-0.00135333393700421,-0.00450153509154916,-0.000510750396642834,0,
00:00:03.424,0.0043040276505053,-0.00373571342788637,0.0227758102118969,0,
00:00:03.428,0.00553459627553821,0.00172961002681404,-0.00699932593852282,0,
00:00:03.432,-0.00326173519715667,0.00675734598189592,-0.0273301675915718,0,
00:00:03.436,-0.000874331162776798,0.00625015702098608,-0.00444596074521542,0,
00:00:03.44,-0.00239872583188117,-0.00194911588914692,0.0119957430288196,0,
00:00:03.444,0.0037947806995362,-6.56472911941819E-05,0.0102222068235278,0,
00:00:03.448,0.00155764527153224,-0.00707451673224568,-0.00518587371334434,0,
00:00:03.452,-0.00348444725386798,-0.00841546896845102,0.00543092470616102,0,
00:00:03.456,-0.00464553898200393,0.0042999554425478,-0.00404209643602371,0,
00:00:03.46,-0.000303449225611985,0.00840185768902302,0.00329902744852006,0,
00:00:03.464,0.00500302109867334,0.00363770476542413,-0.00785050075501204,0,
00:00:03.468,0.00555525068193674,-0.00355035346001387,0.00302604539319873,0,
00:00:03.472,0.00253915251232684,-0.00381311075761914,0.0113163543865085,0,
00:00:03.476,-0.0114547722041607,0.00254393718205392,-0.0242581870406866,0,
00:00:03.48,-0.00369482464157045,-0.00140193325933069,0.013824226334691,0,
00:00:03.484,0.000253531441558152,-0.00799733866006136,0.0191783607006073,0,
00:00:03.488,0.0125578381121159,0.00322340428829193,-0.0232533700764179,0,
00:00:03.492,0.0051918369717896,0.00744559336453676,-0.0108217149972916,0,
00:00:03.496,-0.0055816643871367,0.00324186589568853,0.00478519173339009,0,
00:00:03.5,-0.0153548950329423,-0.00349734956398606,0.0110892355442047,0,
00:00:03.504,-8.19651468191296E-05,-0.0015061660669744,0.00642073526978493,0,
00:00:03.508,0.0106068681925535,-0.00754240993410349,0.00412468193098903,0,
00:00:03.512,0.00437139114364982,0.00284286262467504,-0.00778477545827627,0,
00:00:03.516,-0.000320312421536073,0.00654217787086964,-0.00337323429994285,0,
00:00:03.52,-0.000397260271711275,0.00453765038400888,-0.0150993587449193,0,
00:00:03.524,-0.00235172756947577,-0.00368839013390243,0.0039373217150569,0,
00:00:03.528,-0.0111391926184297,-0.0173954889178276,0.015578705817461,0,
00:00:03.532,0.00407883850857615,0.00913761276751757,0.00498636858537793,0,
00:00:03.536,0.00632550427690148,0.0119844796136022,-0.0113337952643633,0,
00:00:03.54,0.0032660523429513,0.000821525522042066,-0.00204695714637637,0,
00:00:03.544,-0.000301795429550111,-0.00679819006472826,0.00607688492164016,0,
00:00:03.548,-0.00222134101204574,-0.00518878363072872,-0.00160982657689601,0,
00:00:03.552,-0.000196018314454705,0.00303258071653545,-0.00422016019001603,0,
00:00:03.556,-0.0052796215750277,-0.00418926449492574,0.00557208387181163,0,
00:00:03.56,-0.00177315296605229,-0.00487667415291071,0.0150508787482977,0,
00:00:03.564,0.0062309498898685,0.013237128034234,-0.0198865178972483,0,
00:00:03.568,0.00154513900633901,0.00335855595767498,-0.0157974660396576,0,
00:00:03.572,0.00137571874074638,-6.56424163025804E-06,0.00908259022980928,0,
00:00:03.576,-0.00529786478728056,-0.00557866366580129,0.0094005623832345,0,
00:00:03.58,0.00153304357081652,-0.00222730333916843,0.00108910049311817,0,
00:00:03.584,0.00131608336232603,-0.000962426362093538,0.000331230083247647,0,
00:00:03.588,-0.00860565714538097,-0.00638488028198481,0.0069077555090189,0,
00:00:03.592,0.00260321283712983,0.00221615750342608,0.00692670047283173,0,
00:00:03.596,0.00955538917332888,0.00753627996891737,-0.0171002522110939,0,
00:00:03.6,0.00164459797088057,0.00648653786629438,-0.0071360245347023,0,
00:00:03.604,-0.00275701633654535,-0.00217000464908779,-0.00767320487648249,0,
00:00:03.608,-0.00154272955842316,-0.00455963797867298,0.0163457170128822,0,
00:00:03.612,-0.00220530712977052,-0.00126031204126775,0.0110706696286798,0,
00:00:03.616,-0.0082012852653861,-0.0029631310608238,-0.0249470323324203,0,
00:00:03.62,-0.00112713628914207,-0.000802993890829384,0.0211884174495935,0,
00:00:03.624,0.0112738171592355,-0.000724658602848649,0.0232067611068487,0,
00:00:03.628,0.00658787786960602,0.0040693823248148,-0.0269957240670919,0,
00:00:03.632,-0.00291978544555604,0.00528070097789168,-0.0200542416423559,0,
00:00:03.636,-0.00706904567778111,-0.00336657161824405,-0.00712757417932153,0,
00:00:03.64,0.000794836552813649,0.00533950282260776,0.0106117893010378,0,
00:00:03.644,0.00526841357350349,0.00412764819338918,0.010273496620357,0,
00:00:03.648,-0.012424991466105,-0.0296180341392756,0.0213969741016626,0,
00:00:03.652,-0.00246511236764491,-0.00345290591940284,0.0196190718561411,0,
00:00:03.656,0.00732174282893538,0.0271701086312532,-0.0278682690113783,0,
00:00:03.66,0.0111982515081763,0.013387399725616,-0.0300873816013336,0,
00:00:03.664,0.000857569568324834,-0.00481416285037994,-0.0143765257671475,0,
00:00:03.668,-0.00243580550886691,-0.0148801486939192,0.0223348047584295,0,
00:00:03.672,-0.00499846367165446,-0.00433780672028661,0.0232962053269148,0,
00:00:03.676,-0.0107077537104487,0.000536167295649648,-0.00485449563711882,0,
00:00:03.68,-0.00021594732243102,-0.00399707909673452,0.0121853733435273,0,
00:00:03.684,0.00738567300140858,0.00599649315699935,-0.00893361959606409,0,
00:00:03.688,0.00573075097054243,0.00818099454045296,-0.0206233020871878,0,
00:00:03.692,0.00352861359715462,0.000439794937847182,-0.00731417024508119,0,
00:00:03.696,-0.00374687882140279,0.00143036991357803,0.0123310154303908,0,
00:00:03.7,-0.0065110600553453,-0.00887477025389671,0.0175424721091986,0,
00:00:03.704,0.00179736455902457,-0.00494039710611105,-0.00431484309956431,0,
00:00:03.708,-0.00225312844850123,0.00105946708936244,-0.00770298391580582,0,
00:00:03.712,0.00200367998331785,0.00621281238272786,0.00219465862028301,0,
00:00:03.716,-0.00401264103129506,0.00807805452495813,-0.00776113709434867,0,
00:00:03.72,0.0068483604118228,0.000356562086381018,0.00366201205179095,0,
00:00:03.724,0.00875256676226854,-0.0115018039941788,0.00169354293029755,0,
00:00:03.728,-0.00431533623486757,-0.00625978456810117,-0.00133409583941102,0,
00:00:03.732,-0.00869414675980806,0.00342505285516381,-0.00196460145525634,0,
00:00:03.736,-0.00391456158831716,0.00534705817699432,-0.00280006206594408,0,
00:00:03.74,0.00346515187993646,0.00541289430111647,0.0173736847937107,0,
00:00:03.744,0.0101491613313556,0.00266802124679089,0.00617129821330309,0,
00:00:03.748,-0.00826843362301588,-0.0111503908410668,-0.0192137509584427,0,
00:00:03.752,0.000809625955298543,-0.00138958869501948,0.00475461920723319,0,
00:00:03.756,0.00361413438804448,0.00453453836962581,-0.0166813358664513,0,
00:00:03.76,-0.0101971058174968,-0.00137954950332642,0.00350019335746765,0,
00:00:03.764,-0.000912524876184762,-0.000417588802520186,0.0130068119615316,0,
00:00:03.768,0.0134055642411113,0.00541643425822258,0.000290905678411946,0,
00:00:03.772,0.00615557143464684,0.00396024063229561,0.000257450097706169,0,
00:00:03.776,-0.00937658920884132,-0.00823619309812784,-0.00482274359092116,0,
00:00:03.78,-0.011631871573627,-0.00534140784293413,-0.00145928200799972,0,
00:00:03.784,0.00894879270344973,0.00246183993294835,0.0164353083819151,0,
00:00:03.788,0.00669752946123481,0.00376317580230534,-0.0110451020300388,0,
00:00:03.792,-0.00647753989323974,0.00215528486296535,-0.00981040671467781,0,
00:00:03.796,-0.0025399278383702,0.00218929396942258,0.0049958061426878,0,
00:00:03.8,0.000410597043810412,-0.00101631123106927,-0.00326209189370275,0,
00:00:03.804,-0.00250693433918059,-0.00284739397466183,0.00695603433996439,0,
00:00:03.808,0.00750466249883175,-0.00875891838222742,0.00469974149018526,0,
00:00:03.812,0.00403923634439707,0.000749533588532358,0.010211399756372,0,
00:00:03.816,-0.00756362220272422,0.00934596639126539,-0.0150791825726628,0,
00:00:03.82,0.00195138889830559,0.00713380938395858,-0.0137215629220009,0,
00:00:03.824,-0.00273355166427791,-0.00708790263161063,-0.00334251602180302,0,
00:00:03.828,0.000962835270911455,-0.00591335399076343,0.0281157661229372,0,
00:00:03.832,0.00122659164480865,0.00114104792010039,-0.00727566750720143,0,
00:00:03.836,-0.00165659270714968,0.00466742413118482,-0.0156006142497063,0,
00:00:03.84,-0.00246337847784162,-0.000385902152629569,0.0101103875786066,0,
00:00:03.844,0.00921696424484253,-0.00148805940989405,0.0130628393962979,0,
00:00:03.848,0.00327727710828185,-0.000911438721232116,-0.00726335262879729,0,
00:00:03.852,-0.0057444809935987,-4.28549756179564E-05,-0.0102900760248303,0,
00:00:03.856,-0.0123426867648959,0.000477389519801363,0.00326472544111311,0,
00:00:03.86,-0.000897339719813317,-0.00153616548050195,0.00785740092396736,0,
00:00:03.864,0.00766509305685759,0.00228790449909866,-0.00739168841391802,0,
00:00:03.868,0.00637709116563201,0.00374343199655414,-0.00702127069234848,0,
00:00:03.872,0.00402008183300495,-0.00196218281053007,-0.00335350609384477,0,
00:00:03.876,-0.00362222152762115,-0.00269415392540395,0.0283050704747438,0,
00:00:03.88,-0.00876774452626705,-0.00135281297843903,0.00151418684981763,0,
00:00:03.884,0.00347196590155363,0.000162730691954494,-0.0237444378435612,0,
00:00:03.888,0.00329048582352698,0.000975296134129167,-0.0122319413349032,0,
00:00:03.892,0.000189679718459956,0.000994349829852581,-0.00254817423410714,0,
00:00:03.896,-0.00802802294492722,0.00262178108096123,0.0255161020904779,0,
00:00:03.9,-0.00014603536692448,-0.00609815400093794,0.0297583714127541,0,
00:00:03.904,0.00797454081475735,0.00408720457926393,-0.0154822953045368,0,
00:00:03.908,0.00614599138498306,0.000766352110076696,-0.0288579966872931,0,
00:00:03.912,-0.0115340054035187,-0.000695740978699178,-0.0127491252496839,0,
00:00:03.916,0.000373950664652511,0.00324017298407853,-0.00145224703010172,0,
00:00:03.92,0.00708592310547829,-0.00239892117679119,0.0269505884498358,0,
00:00:03.924,-0.00638684397563338,-0.0156784933060408,0.016416534781456,0,
00:00:03.928,0.000587227928917855,0.00814188830554485,0.00321487826295197,0,
00:00:03.932,0.00393068138509989,0.0162654109299183,-0.0210539679974318,0,
00:00:03.936,-0.00103614164981991,-0.00193233881145716,-0.0106909601017833,0,
00:00:03.94,-0.00183406588621438,-0.00679847924038768,-0.00767806172370911,0,
00:00:03.944,-0.00300190458074212,-0.00701555842533708,0.00367218838073313,0,
00:00:03.948,0.00420367624610662,0.00280004716478288,0.0160708036273718,0,
00:00:03.952,0.000386368425097317,0.00113712751772255,0.00702568143606186,0,
00:00:03.956,-0.00283079571090639,0.000881294079590589,-0.0030201671179384,0,
00:00:03.96,0.00132578203920275,0.00282557611353695,-0.00288385106250644,0,
00:00:03.964,-0.000624908367171884,-0.00361735722981393,-0.00734270550310612,0,
00:00:03.968,0.0043912292458117,0.00245639984495938,0.00981600768864155,0,
00:00:03.972,-0.000898654281627387,-0.00281737116165459,-0.00974359083920717,0,
00:00:03.976,-0.00228891591541469,0.00103276921436191,-0.00188758643344045,0,
00:00:03.98,0.000484686868730932,0.00347549561411142,-0.000107165054942016,0,
00:00:03.984,-0.00437598070129752,-0.00146239623427391,-0.00150778144598007,0,
00:00:03.988,0.00300142960622907,-0.00199027033522725,0.0114454226568341,0,
00:00:03.992,-0.00171786325518042,-0.00295162806287408,0.0097802272066474,0,
00:00:03.996,0.00407162075862288,0.00639655813574791,-0.0105150053277612,0,
00:00:04,-0.000101564924989361,-0.00358355301432312,-0.00964026525616646,0,
00:00:04.004,-0.00321911391802132,-0.00248699449002743,0.0036888353060931,0,
00:00:04.008,-0.000919167592655867,0.00274782604537904,-0.000809972814749926,0,
00:00:04.012,0.00343047780916095,0.0024113655090332,-0.00423259567469358,0,
00:00:04.016,0.00413871370255947,0.00255604321137071,-0.0030225021764636,0,
00:00:04.02,0.00186421780381352,0.00119628582615405,0.0150152128189802,0,
00:00:04.024,-0.0113776903599501,-0.00903542526066303,0.0102852154523134,0,
00:00:04.028,-0.00319512677378953,-0.0065743220038712,-0.00216685724444687,0,
00:00:04.032,0.00702091632410884,0.00792550947517157,-0.0133110135793686,0,
00:00:04.036,0.00281538721174002,0.00243384018540382,-0.00475029740482569,0,
00:00:04.04,-0.00193843140732497,0.00304039451293647,-0.00487049063667655,0,
00:00:04.044,-0.00116605090443045,0.00258492445573211,-0.00305427610874176,0,
00:00:04.048,0.00245999544858933,-0.00567145179957151,0.00905313715338707,0,
00:00:04.052,0.00114765961188823,0.000210645841434598,0.00645391969010234,0,
00:00:04.056,-0.000761255098041147,4.4592292397283E-05,0.00102513935416937,0,
00:00:04.06,-0.0015947490464896,-0.00299879792146385,0.00185043981764466,0,
00:00:04.064,0.000785213778726757,0.000914126459974796,-0.00254309363663197,0,
00:00:04.068,-0.00242848717607558,-0.00505189225077629,0.0100168995559216,0,
00:00:04.072,0.000734870438463986,0.00637365272268653,-0.00877299159765244,0,
00:00:04.076,-0.00357646169140935,0.00271259504370391,-0.00959210190922022,0,
00:00:04.08,-0.000304123474052176,0.000123287492897362,-0.00362106342799962,0,
00:00:04.084,0.00478310836479068,-0.00116701924707741,0.00414163619279861,0,
00:00:04.088,0.00746269105002284,0.000741350231692195,-0.00157598091755062,0,
00:00:04.092,-0.005744609516114,-0.00489587383344769,0.00210405141115189,0,
00:00:04.096,-0.00304734450764954,-0.00194454949814826,0.017157293856144,0,
00:00:04.1,-0.00498302048072219,0.00369190145283937,-0.00994859915226698,0,
00:00:04.104,0.00653409631922841,0.00513978721573949,0.0017695986898616,0,
00:00:04.108,0.00640369672328234,0.00492760166525841,0.00188303680624813,0,
00:00:04.112,-0.00656630331650376,-0.0149099808186293,-0.0115212658420205,0,
00:00:04.116,-0.0049454546533525,-0.00494499504566193,-0.00569159118458629,0,
00:00:04.12,0.00196201377548277,0.010131529532373,0.00249829771928489,0,
00:00:04.124,0.00714646559208632,0.00924284104257822,0.0104890931397676,0,
00:00:04.128,-0.00858593173325062,-0.00993604306131601,-0.00888530351221561,0,
00:00:04.132,0.00464922143146396,0.0023388999979943,0.0170794669538736,0,
00:00:04.136,-0.000466489582322538,0.0020037570502609,0.00940971169620752,0,
00:00:04.14,0.00150456640403718,-0.00296738930046558,-0.0184395629912615,0,
00:00:04.144,0.00455789919942617,-0.00455466285347939,-0.00943179987370968,0,
00:00:04.148,-0.00271504349075258,-0.00052884133765474,0.0010731517104432,0,
00:00:04.152,-0.00441437540575862,0.00679555675014853,-0.00647623790428042,0,
00:00:04.156,-0.00690103601664305,0.00341787491925061,0.015094168484211,0,
00:00:04.16,-0.00665448047220707,-0.00325304735451937,0.00548850558698177,0,
00:00:04.164,0.0125890001654625,-0.00342020555399358,-0.00308415805920959,0,
00:00:04.168,0.0124672139063478,-0.00338663719594479,0.00661575235426426,0,
00:00:04.172,0.00220510037615895,0.00466985208913684,-0.00752207171171904,0,
00:00:04.176,-0.00771861663088202,0.00317652034573257,-0.0161984134465456,0,
00:00:04.18,-0.00762341963127255,-0.00221778452396393,0.000786310061812401,0,
00:00:04.184,-0.00339184934273362,-0.0042177545838058,0.0122332628816366,0,
00:00:04.188,-0.00131264596711844,-0.00268443650566041,0.0140023455023766,0,
00:00:04.192,0.00691288663074374,0.0063431840389967,-0.0118582556024194,0,
00:00:04.196,0.00454897386953235,0.00870206393301487,-0.00947475992143154,0,
00:00:04.2,-0.00607016636058688,-0.00162987585645169,0.0055500864982605,0,
00:00:04.204,0.0013756756670773,-0.00782197713851929,-0.00513654528185725,0,
00:00:04.208,0.00211641890928149,-0.011198609136045,0.0149199273437262,0,
00:00:04.212,0.00268034869804978,0.00772807653993368,0.0040969755500555,0,
00:00:04.216,-0.00483498955145478,0.01186796836555,-0.0238369647413492,0,
00:00:04.22,-0.000911096227355301,-0.00388275110162795,0.0120231211185455,0,
00:00:04.224,0.000554131052922457,-0.00983558595180511,0.0137255964800715,0,
00:00:04.228,0.00282864342443645,-0.00265185488387942,-0.0132190594449639,0,
00:00:04.232,-0.00360573478974402,0.0122337536886334,-0.0107503039762378,0,
00:00:04.236,0.000412503519328311,0.00407721661031246,0.00317892944440246,0,
00:00:04.24,-0.000752663181629032,-0.00458106445148587,-0.00659685814753175,0,
00:00:04.244,0.0048836562782526,-0.00489603169262409,0.0237800683826208,0,
00:00:04.248,0.00180856697261333,-0.00208822009153664,0.00664206454530358,0,
00:00:04.252,-0.00385744194500148,-0.00145713705569506,-0.0150146707892418,0,
00:00:04.256,-0.00316071836277843,0.00386098795570433,-0.0172867402434349,0,
00:00:04.26,0.00140219391323626,0.00545180914923549,-0.00153906492050737,0,
00:00:04.264,-0.00286587770096958,0.00111542223021388,0.0285178273916245,0,
00:00:04.268,-3.92123074561823E-05,-0.00661915075033903,0.0102618904784322,0,
00:00:04.272,0.00463556870818138,-0.00355258863419294,-0.0179765410721302,0,
00:00:04.276,0.00298911775462329,0.00506880600005388,-0.0145250847563148,0,
00:00:04.28,-0.00206813123077154,0.00122115609701723,-0.000673228525556624,0,
00:00:04.284,0.002193673979491,-0.000439198018284515,0.00580463744699955,0,
00:00:04.288,-0.00242372392676771,0.00128508545458317,0.00205650925636292,0,
00:00:04.292,-0.000637919525615871,-0.000422271201387048,0.00528645701706409,0,
00:00:04.296,-0.00315709970891476,-0.00373627920635045,0.00751997577026486,0,
00:00:04.3,-0.00540157966315746,-0.00581230688840151,-0.00594258448109031,0,
00:00:04.304,0.00494905607774854,0.00277902255766094,0.00275194901041687,0,
00:00:04.308,0.00732103548943996,0.00937819108366966,-0.00313950842246413,0,
00:00:04.312,0.00207058852538466,0.00588453002274036,-0.00468472577631474,0,
00:00:04.316,-0.0067345523275435,-0.0105821099132299,-0.00502966903150082,0,
00:00:04.32,-0.00215312791988254,-0.00270887580700219,-0.0065691233612597,0,
00:00:04.324,0.00242187851108611,0.000704256177414209,0.0153888883069158,0,
00:00:04.328,0.00130874419119209,0.0015285782283172,0.00501465518027544,0,
00:00:04.332,-0.00465341936796904,0.00318374997004867,-0.00386665621772408,0,
00:00:04.336,0.0026907124556601,-0.00368911121040583,-0.012553570792079,0,
00:00:04.34,0.000256883242400363,0.00221320148557425,0.0144408280029893,0,
00:00:04.344,-0.00409131590276957,-0.000912587274797261,0.00127280887681991,0,
00:00:04.348,0.00424323137849569,-0.00302398926578462,-0.0125451497733593,0,
00:00:04.352,0.00361914304085076,0.00185550807509571,0.00151672202628106,0,
00:00:04.356,0.000514835293870419,0.00421331310644746,0.000397282157791778,0,
00:00:04.36,0.000323501561069861,0.00296716159209609,0.0025673417840153,0,
00:00:04.364,-0.00216410658322275,-0.00813519675284624,0.00944169983267784,0,
00:00:04.368,-0.00510250963270664,-0.0066219624131918,0.00226828502491117,0,
00:00:04.372,-0.00835658796131611,0.00318570854142308,0.00166791141964495,0,
00:00:04.376,0.00715049309656024,0.00989002455025911,-0.0123936785385013,0,
00:00:04.38,0.00972440373152494,0.00405390420928597,-0.0175486784428358,0,
00:00:04.384,0.000883116270415485,-0.00447091832756996,0.0107198050245643,0,
00:00:04.388,-0.00110294320620596,-0.00515421479940414,0.00284676090814173,0,
00:00:04.392,-0.00552171375602484,-0.0025295636150986,-0.00525327492505312,0,
00:00:04.396,-0.00364145683124661,0.000279367988696322,0.0237554423511028,0,
00:00:04.4,-0.000344384810887277,0.00386281963437796,0.00518148578703403,0,
00:00:04.404,0.00390195357613266,-0.00220559677109122,-0.0251692626625299,0,
00:00:04.408,-0.00387399317696691,0.00137394387274981,-0.00238099507987499,0,
00:00:04.412,0.00169425818603486,0.00155913410708308,0.00919276010245085,0,
00:00:04.416,0.00540084950625896,0.0025803663302213,0.00283994572237134,0,
00:00:04.42,0.00439763348549604,-0.00244785821996629,0.000716456735972315,0,
00:00:04.424,-0.00117911165580153,-0.0045760958455503,-0.0107871303334832,0,
00:00:04.428,-0.00651204539462924,-0.000975767325144261,0.000429293169872835,0,
00:00:04.432,-0.00636209361255169,0.00625012442469597,0.00432732421904802,0,
00:00:04.436,-0.000464176700916141,0.00303857354447246,-0.000461223069578409,0,
00:00:04.44,0.00375099759548903,-0.00337230740115047,0.00322048179805279,0,
00:00:04.444,0.00856955349445343,-0.00540960161015391,0.00869985576719046,0,
00:00:04.448,0.00281675066798925,0.000836107006762177,0.000579699582885951,0,
00:00:04.452,-0.00494162878021598,0.00240991520695388,-0.0101794693619013,0,
00:00:04.456,-0.00702325208112597,0.00375946727581322,-0.00930887646973133,0,
00:00:04.46,-5.79192965233233E-05,-0.00159846979659051,-0.00308765843510628,0,
00:00:04.464,0.00235190405510366,-0.00427135592326522,0.0110821723937988,0,
00:00:04.468,0.0021555267740041,0.000970393128227443,0.00791381485760212,0,
00:00:04.472,0.000963175785727799,0.00395735492929816,-0.00746625661849976,0,
00:00:04.476,-0.000149203435285017,-0.000964182254392654,0.00204190565273166,0,
00:00:04.48,-0.000702720833942294,-0.00171455671079457,0.0102119734510779,0,
00:00:04.484,-0.000694863148964942,-0.00291922129690647,-0.00840861350297928,0,
00:00:04.488,-0.000372667418560013,5.41653826076072E-05,-0.0106180179864168,0,
00:00:04.492,0.00206200941465795,0.00634873891249299,0.00145834579598159,0,
00:00:04.496,0.00238324934616685,0.00461928313598037,8.89671791810542E-05,0,
00:00:04.5,-0.00534337339922786,-0.00595567468553782,-0.00140131136868149,0,
00:00:04.504,-0.0115965232253075,-0.00951958913356066,0.0140354195609689,0,
00:00:04.508,0.0105138923972845,0.00047484296374023,0.0125265549868345,0,
00:00:04.512,0.00933929905295372,0.00908592157065868,-0.00752640049904585,0,
00:00:04.516,-0.000300608982797712,0.00276961666531861,-0.0231703128665686,0,
00:00:04.52,-0.00598744442686439,0.000942931219469756,-0.00696483207866549,0,
00:00:04.524,0.000439310329966247,-0.0085775637999177,0.00841488130390644,0,
00:00:04.528,-0.00199222285300493,0.00034572122967802,0.00877487100660801,0,
00:00:04.532,-0.00123208714649081,0.00650039175525308,0.00838063377887011,0,
00:00:04.536,-0.00394972879439592,-0.00246009021066129,0.0022793507669121,0,
00:00:04.54,0.00709245260804892,-0.00108109973371029,-0.0050085885450244,0,
00:00:04.544,0.00241898163221776,-0.00302181812003255,0.00132311892230064,0,
00:00:04.548,0.00349452835507691,-0.000752232561353594,-0.0143702356144786,0,
00:00:04.552,-0.00990956928580999,0.00142694276291877,0.00542371207848191,0,
00:00:04.556,-0.00294253719039261,1.05822327896021E-05,0.0122864563018084,0,
00:00:04.56,0.00633643148466945,0.00135445198975503,-0.00454299617558718,0,
00:00:04.564,0.00395789230242372,0.00604629470035434,-0.0112683996558189,0,
00:00:04.568,-0.0024847025051713,-0.00274371169507504,0.000411648827139288,0,
00:00:04.572,-0.00288232881575823,0.00298421969637275,-0.00225733360275626,0,
00:00:04.576,-0.00321699073538184,-0.0050391023978591,0.00508131738752127,0,
00:00:04.58,0.000405215309001505,-0.00630665617063642,0.00391731224954128,0,
00:00:04.584,0.00690276687964797,0.00113447045441717,0.0155270909890532,0,
00:00:04.588,0.00295259873382747,0.00545203406363726,-0.00642442051321268,0,
00:00:04.592,-0.00384887726977468,-0.00141990033444017,-0.0123762357980013,0,
00:00:04.596,-0.00382287311367691,0.00537436502054334,-0.00396161060780287,0,
00:00:04.6,-0.00141645676922053,-0.00509310327470303,0.0013807489303872,0,
00:00:04.604,0.000739134149625897,-0.00140223116613925,0.00543862720951438,0,
00:00:04.608,-0.000437277572927997,-0.00155450648162514,0.00297584175132215,0,
00:00:04.612,0.00336540234275162,0.00300873792730272,-0.00231906538829207,0,
00:00:04.616,0.00223655323497951,0.00444809347391129,0.00214547663927078,0,
00:00:04.62,1.93014730029972E-05,0.000462560914456844,-0.00840375944972038,0,
00:00:04.624,0.00068687170278281,-0.00883763283491135,0.00153724197298288,0,
00:00:04.628,-0.00354909431189299,-0.00134026748128235,0.0019288663752377,0,
00:00:04.632,0.00156447349581867,0.00708048744127154,0.00879231467843056,0,
00:00:04.636,-0.00633001467213035,0.00376895256340504,-0.00606659287586808,0,
00:00:04.64,-0.00210895715281367,-0.00312959030270576,-0.00240418128669262,0,
00:00:04.644,0.00487844739109278,-0.00348413619212806,0.0107983369380236,0,
00:00:04.648,0.00664258748292923,-0.0014320167247206,-0.00841819774359465,0,
00:00:04.652,-0.000346563872881234,-0.00153709878213704,-0.00707759242504835,0,
00:00:04.656,-0.0067735412158072,0.00547798164188862,0.00146932748612016,0,
00:00:04.66,0.0016973374877125,0.00301150348968804,0.00388494413346052,0,
00:00:04.664,0.00235168333165348,-0.00285885855555534,-0.00332912360318005,0,
00:00:04.668,0.000588350289035589,-0.00483823753893375,0.00886484794318676,0,
00:00:04.672,0.00116966653149575,0.00736866006627679,0.00637869769707322,0,
00:00:04.676,-0.00952581129968166,-0.00561365904286504,-0.00845325086265802,0,
00:00:04.68,0.00754469679668546,-0.00357029912993312,-0.00715873762965202,0,
00:00:04.684,0.00270004407502711,0.00320107210427523,0.0130318934097886,0,
00:00:04.688,-0.00144189782440662,0.00569434417411685,-0.0173935070633888,0,
00:00:04.692,-0.00492040067911148,0.00163846299983561,-0.00184548285324126,0,
00:00:04.696,-0.00630412576720119,-0.0103840958327055,0.0165605992078781,0,
00:00:04.7,0.0029683611355722,0.000503334333188832,-0.00498893111944199,0,
00:00:04.704,0.00987961795181036,0.00823379214853048,-0.0025099297054112,0,
00:00:04.708,0.00633403612300754,0.00137099868152291,0.00686900643631816,0,
00:00:04.712,-0.00622039474546909,-0.00229220069013536,0.00015426088066306,0,
00:00:04.716,-0.0149926515296102,-0.000844248745124787,-0.0136421760544181,0,
00:00:04.72,0.00515861064195633,-0.00374645995907485,0.00653733499348164,0,
00:00:04.724,0.0117211686447263,-0.00394178833812475,0.00659649400040507,0,
00:00:04.728,-0.000554777623619884,0.00261866115033627,-0.000919522659387439,0,
00:00:04.732,-0.00425905827432871,0.00565221346914768,-0.0112729510292411,0,
00:00:04.736,-0.00128641014453024,0.00208829692564905,0.00781198730692267,0,
00:00:04.74,-0.00507145561277866,-0.00771606666967273,0.00611537508666515,0,
00:00:04.744,0.00117622327525169,-0.00104359758552164,0.00396983185783029,0,
00:00:04.748,0.0030010815244168,0.00466020172461867,-0.00798926502466202,0,
00:00:04.752,0.00018233472655993,0.00307988957501948,-0.00954162515699863,0,
00:00:04.756,0.00473740138113499,0.00415258156135678,-0.00668118381872773,0,
00:00:04.76,-0.00296893110498786,-0.00791307911276817,0.0074929534457624,0,
00:00:04.764,-0.000528881268110126,-0.00545486714690924,0.0087854415178299,0,
00:00:04.768,0.00184016034472734,0.00416827714070678,0.00437602121382952,0,
00:00:04.772,-0.000279153813607991,0.00354353059083223,-0.00670185033231974,0,
00:00:04.776,-0.0081354258581996,-0.00156885001342744,0.00278169312514365,0,
00:00:04.78,0.004041054751724,-0.00160876102745533,0.00992958061397076,0,
00:00:04.784,0.0041186329908669,-0.00440951390191913,-0.00720985326915979,0,
00:00:04.788,-0.00118333345744759,0.00261532072909176,-0.0133915357291698,0,
00:00:04.792,-0.00370063236914575,0.00827485881745815,-0.000521804089657962,0,
00:00:04.796,-0.000634675903711468,0.00266764173284173,-0.00411113351583481,0,
00:00:04.8,0.00612325314432383,-0.00299759348854423,0.0141478506848216,0,
00:00:04.804,0.000593178032431751,-0.00699906656518579,-0.00153247884009033,0,
00:00:04.808,-0.00176883197855204,-0.0057425182312727,0.0112469438463449,0,
00:00:04.812,-0.00399268046021461,0.00465846108272672,0.00010784490586957,0,
00:00:04.816,-0.0011114050867036,0.00258255260996521,-0.0131767252460122,0,
00:00:04.82,0.00776650989428163,0.00144178606569767,-0.00780900847166777,0,
00:00:04.824,-0.00154150102753192,0.000522204441949725,0.000648807093966752,0,
00:00:04.828,-0.00327523984014988,-0.00225429702550173,0.00538733508437872,0,
00:00:04.832,-0.00179825129453093,0.00351167959161103,0.00961702689528465,0,
00:00:04.836,0.000119929434731603,0.00118507735896856,-0.00114157842472196,0,
00:00:04.84,0.0011979634873569,0.000354468676960096,-0.00139061559457332,0,
00:00:04.844,-0.00289427977986634,-0.0150182815268636,-0.000157987931743264,0,
00:00:04.848,0.00672607216984034,0.00433686375617981,7.80005648266524E-05,0,
00:00:04.852,-0.000727961247321218,0.0117560056969523,-0.0129416743293405,0,
00:00:04.856,0.000304754415992647,0.00222000828944147,0.000391319626942277,0,
00:00:04.86,0.00138153543230146,-0.00550629617646337,0.00603718310594559,0,
00:00:04.864,0.00288913818076253,-0.00881634093821049,0.0160399153828621,0,
00:00:04.868,-0.0149741061031818,-0.00150160759221762,-0.00531368376687169,0,
00:00:04.872,-0.00589230004698038,0.0127128073945642,-0.00669348519295454,0,
00:00:04.876,0.0155122131109238,0.00602706614881754,-0.00669940421357751,0,
00:00:04.88,0.00769713148474693,-0.00900665111839771,-0.00351328682154417,0,
00:00:04.884,0.00116426195017993,-0.00279876263812184,-0.00147105369251221,0,
00:00:04.888,-0.0113329999148846,-0.00270910235121846,0.0136274034157395,0,
00:00:04.892,-0.00684843771159649,6.77157659083605E-05,0.00384755828417838,0,
00:00:04.896,0.00259049399755895,0.00204865331761539,0.00907932221889496,0,
00:00:04.9,0.000595885794609785,0.00232056598179042,-0.0108444839715958,0,
00:00:04.904,0.0112653402611613,-0.000685804290696979,-0.00658323569223285,0,
00:00:04.908,0.00207350729033351,0.00214258790947497,-0.0138996159657836,0,
00:00:04.912,-0.00599695509299636,0.00304634706117213,0.00303319469094276,0,
00:00:04.916,-0.0115186627954245,-0.00477558048442006,0.0114840790629387,0,
00:00:04.92,0.00627132225781679,0.00297999987378716,0.00377714401111007,0,
00:00:04.924,0.00833795592188835,-0.00583232054486871,0.0115472748875618,0,
00:00:04.928,-0.00269398442469537,-0.000815368664916605,-0.0079295989125967,0,
00:00:04.932,-0.00407245336100459,0.00580487120896578,-0.00700648128986359,0,
00:00:04.936,-0.00598523300141096,-0.00401812605559826,-0.00366442580707371,0,
00:00:04.94,0.00448931567370892,-0.00218577170744538,-0.000250963057624176,0,
00:00:04.944,0.00700880493968725,0.005496755708009,-0.00235452107153833,0,
00:00:04.948,0.00401740055531263,0.00307379802688956,0.00199777563102543,0,
00:00:04.952,-0.00868185330182314,-0.00293283932842314,0.0149422688409686,0,
00:00:04.956,-0.00991134345531464,-0.00500440550968051,-0.0101692909374833,0,
00:00:04.96,0.00621133763343096,0.00305924867279828,0.00956806261092424,0,
00:00:04.964,0.00912534072995186,0.000329381437040865,-0.00421309191733599,0,
00:00:04.968,0.00271633081138134,-0.000186106160981581,-0.00296438741497695,0,
00:00:04.972,-0.00715345283970237,0.00206479337066412,-0.0143964495509863,0,
00:00:04.976,-0.000879197788890451,-0.00180018250830472,-0.00160113035235554,0,
00:00:04.98,-0.000156762034748681,-0.00145204225555062,0.0048645157366991,0,
00:00:04.984,-0.00673243356868625,-0.00217028218321502,0.0144940633326769,0,
00:00:04.988,0.00335833104327321,0.00277566746808589,0.00891843810677528,0,
00:00:04.992,0.00889310520142317,0.00463221175596118,-0.0168641246855259,0,
00:00:04.996,-0.00151893589645624,0.00286950473673642,-0.00498181069269776,0,
00:00:05,-0.00352167198434472,-0.0126507645472884,0.0280007254332304,0,
00:00:05.004,2.40938716160599E-05,0.00112106930464506,-0.0121867582201958,0,
00:00:05.008,-0.00412712804973125,0.00647383416071534,-0.0200900826603174,0,
00:00:05.012,-0.000674946757499129,0.00299565657041967,-0.00652102986350656,0,
00:00:05.016,0.00462553603574634,0.000907463952898979,0.0041940794326365,0,
00:00:05.02,0.00540985027328134,-0.00911964941769838,0.0210174079984427,0,
00:00:05.024,-0.00364971905946732,-0.0084816562011838,-0.0044935205951333,0,
00:00:05.028,0.000798691238742322,0.00804134365171194,0.0226512029767036,0,
00:00:05.032,-0.00670019490644336,0.010307707823813,-0.0166154634207487,0,
00:00:05.036,0.00199407618492842,0.00294410064816475,-0.0114606758579612,0,
00:00:05.04,0.00507582537829876,-0.00346938916482031,-0.0160745475441217,0,
00:00:05.044,0.0013769615907222,-0.0055228085257113,0.00125867372844368,0,
00:00:05.048,-0.0061612706631422,-0.00605254620313644,0.0171016585081816,0,
00:00:05.052,-0.00314471684396267,-0.00740422634407878,0.00711406674236059,0,
00:00:05.056,0.00739090004935861,0.00872253812849522,0.00900995172560215,0,
00:00:05.06,-0.000677006377372891,0.0129652358591557,-0.00426494656130672,0,
00:00:05.064,-0.00419378327205777,-0.000730821338947862,-0.0240921042859554,0,
00:00:05.068,0.000929190719034523,-0.00304588070139289,-0.00424536829814315,0,
00:00:05.072,0.00189710420090705,-0.0062761208973825,0.0207739025354385,0,
00:00:05.076,-0.0010175866773352,-0.00537365069612861,0.00509806163609028,0,
00:00:05.08,0.00400391733273864,0.00241648638620973,-0.00305815460160375,0,
00:00:05.084,-0.00101688492577523,0.00203430792316794,-0.00921938009560108,0,
00:00:05.088,-0.00220023281872272,0.00671720039099455,0.000455619156127796,0,
00:00:05.092,0.000632760173175484,0.00430796295404434,0.000318811536999419,0,
00:00:05.096,-0.000125949940411374,-0.00434949481859803,-0.000769673206377774,0,
00:00:05.1,-0.00301105016842484,-0.00770434131845832,0.0160129722207785,0,
00:00:05.104,-0.00307524250820279,-0.0073602800257504,-0.011259239166975,0,
00:00:05.108,0.00114030716940761,0.00344561040401459,-0.00130553881172091,0,
00:00:05.112,0.00566035695374012,0.0110070295631886,0.00163246935699135,0,
00:00:05.116,0.00333318952471018,0.00315308477729559,-0.0134729351848364,0,
00:00:05.12,-0.000224523435463198,0.00023026266717352,0.00306904688477516,0,
00:00:05.124,-0.000244420196395367,-0.00548013718798757,0.00556496391072869,0,
00:00:05.128,0.00177551619708538,-0.00232877396047115,0.0115962298586965,0,
00:00:05.132,-0.013133704662323,-0.00321516441181302,-0.00307814148254693,0,
00:00:05.136,-0.00127389584667981,0.00376387615688145,-0.0050308839417994,0,
00:00:05.14,0.00224364968016744,-0.00407518865540624,0.00162881566211581,0,
00:00:05.144,0.0109624462202191,-0.000882628839462996,0.00243946746923029,0,
00:00:05.148,-0.00170199305284768,0.00283869495615363,-0.00776130985468626,0,
00:00:05.152,-0.000995762646198273,0.00998350139707327,-0.00184804445598274,0,
00:00:05.156,0.00107388314791024,0.000537446525413543,0.00182449852582067,0,
00:00:05.16,-0.00496887229382992,-0.00872189458459616,0.00282278517261148,0,
00:00:05.164,-0.00025640064268373,-0.00519071659073234,-0.0042294654995203,0,
00:00:05.168,0.00129464012570679,0.00453710788860917,0.00233879080042243,0,
00:00:05.172,0.00117069506086409,0.00365572632290423,0.0207762867212296,0,
00:00:05.176,0.002543062902987,0.000370631983969361,-0.0048703383654356,0,
00:00:05.18,-5.17907028552145E-05,-0.00174033211078495,-0.0230213645845652,0,
00:00:05.184,-0.00404434558004141,-0.00613613519817591,-0.00563226407393813,0,
00:00:05.188,-0.00427761394530535,-0.00332796177826822,0.00771049596369267,0,
00:00:05.192,0.00246273982338607,0.00930129550397396,0.0108718378469348,0,
00:00:05.196,0.00353813404217362,0.00400389125570655,0.000465957185951993,0,
00:00:05.2,0.00404880335554481,0.00172931689303368,0.00431177020072937,0,
00:00:05.204,0.000115729286335409,-0.0044191712513566,-0.00529254693537951,0,
00:00:05.208,-0.00892744679003954,-0.00825345609337091,-0.0115464916452765,0,
00:00:05.212,0.000808195327408612,0.00658913981169462,0.0101661048829556,0,
00:00:05.216,0.00312489015050232,0.00217922497540712,-0.0062098940834403,0,
00:00:05.22,0.00621517561376095,-0.00316888536326587,0.00796132441610098,0,
00:00:05.224,-0.00574676692485809,-0.00633814698085189,-0.00429554935544729,0,
00:00:05.228,-0.00219803466461599,0.00822128914296627,0.00355289387516677,0,
00:00:05.232,-0.0019212958868593,0.000838173262309283,0.00770573457702994,0,
00:00:05.236,0.00517671694979072,0.000715136586222798,-0.0117748836055398,0,
00:00:05.24,0.0069521451368928,-0.00111469521652907,-0.00798121839761734,0,
00:00:05.244,-0.0151895442977548,-0.00817879009991884,-0.00570668838918209,0,
00:00:05.248,0.00190051819663495,0.000279277533991262,0.0239190068095922,0,
00:00:05.252,0.0054901628755033,0.0105177378281951,0.00499305222183466,0,
00:00:05.256,0.00324842310510576,-0.00182875629980117,-0.0102549726143479,0,
00:00:05.26,2.95619593089214E-05,-0.00106412847526371,-0.0128114968538284,0,
00:00:05.264,0.000198896741494536,0.00107802601996809,-0.000371113419532776,0,
00:00:05.268,-0.00405561970546842,-0.000723535718861967,0.00792711693793535,0,
00:00:05.272,-0.00285112136043608,-0.00821094494313002,0.0103233121335506,0,
00:00:05.276,0.00178109237458557,0.0041789747774601,-0.00243607675656676,0,
00:00:05.28,0.00154850515536964,0.00221711420454085,-0.00737311458215117,0,
00:00:05.284,-0.00388100510463119,0.00297013320960104,-0.00358279561623931,0,
00:00:05.288,-0.00072969077154994,-0.00402732333168387,0.00505103170871735,0,
00:00:05.292,0.00455458229407668,-8.07492106105201E-05,0.00734545476734638,0,
00:00:05.296,0.00743295578286052,0.00305672036483884,-0.0126951914280653,0,
00:00:05.3,-0.00360172055661678,0.00079206534428522,0.000178653121110983,0,
00:00:05.304,-0.00287742516957223,-0.00354022206738591,0.00392067013308406,0,
00:00:05.308,-0.00649909442290664,-0.00423247460275888,0.00302889919839799,0,
00:00:05.312,-0.00143111927900463,0.00429512327536941,0.000794845167547464,0,
00:00:05.316,0.00726130651310086,0.00334020960144699,0.0115484176203609,0,
00:00:05.32,0.00450046919286251,0.000237453074078076,-0.0278490576893091,0,
00:00:05.324,-0.00441899243742228,-0.00797488167881966,0.00701446738094091,0,
00:00:05.328,0.000983926234766841,0.00395690416917205,0.0164698380976915,0,
00:00:05.332,-0.00181097991298884,0.00178147724363953,-0.00664489390328527,0,
00:00:05.336,-0.00957200583070517,-0.00368239521048963,-0.00780455768108368,0,
00:00:05.34,0.00998930726200342,0.00785253942012787,-0.00424003507941961,0,
00:00:05.344,0.0095599452033639,-0.00324500375427306,0.00247262511402369,0,
00:00:05.348,-0.00191510980948806,0.00275955628603697,0.00349099515005946,0,
00:00:05.352,-0.0103780096396804,-0.00249949540011585,0.0106859281659126,0,
00:00:05.356,-0.00326323718763888,-0.0054723946377635,-0.000729670806322247,0,
00:00:05.36,0.00136923301033676,-0.0040195994079113,-0.00423948746174574,0,
00:00:05.364,0.00302270636893809,-0.000473834661534056,0.00471271434798837,0,
00:00:05.368,0.00248315907083452,0.0107830753549933,-0.0094256866723299,0,
00:00:05.372,0.00102036143653095,0.00600575329735875,-0.002147481078282,0,
00:00:05.376,-0.000298558705253527,-0.00117206247523427,-0.00147513917181641,0,
00:00:05.38,-0.000945962325204164,-0.00703843357041478,0.00124104390852153,0,
00:00:05.384,0.00115934410132468,-0.00482802512124181,-0.00348317576572299,0,
00:00:05.388,-0.00247825146652758,-0.000710107153281569,0.0146172773092985,0,
00:00:05.392,-0.00168520619627088,0.00416057417169213,0.000158472234033979,0,
00:00:05.396,6.83426769683138E-05,0.002827990334481,-0.006652498152107,0,
00:00:05.4,0.0011520350817591,-0.00386568368412554,-0.00409878510981798,0,
00:00:05.404,0.00124171539209783,-0.00147497211582959,0.00205572624690831,0,
00:00:05.408,0.00277288537472487,0.00783908180892468,0.0106855351477861,0,
00:00:05.412,-0.00401773024350405,0.000846600625663996,-0.00913841743022203,0,
00:00:05.416,-6.24127278570086E-05,-0.00296987732872367,-0.000963083526585251,0,
00:00:05.42,0.00305071962065995,-0.00754224276170135,-0.0061125960201025,0,
00:00:05.424,-0.00129629916045815,-0.00204633641988039,-0.00477410154417157,0,
00:00:05.428,-0.00156654126476496,0.00518847815692425,0.012307545170188,0,
00:00:05.432,-0.00257772649638355,0.00681090913712978,0.00858986657112837,0,
00:00:05.436,0.00449215434491634,-0.0024399405810982,-0.00177561840973794,0,
00:00:05.44,0.000439619296230376,-0.000758381327614188,-0.00712350895628333,0,
00:00:05.444,0.00119519513100386,-0.000716831127647311,-0.00414528232067823,0,
00:00:05.448,-0.00281029450707138,0.00127401005011052,0.00418414687737823,0,
00:00:05.452,-0.00197810120880604,-0.000493729603476822,0.00463826395571232,0,
00:00:05.456,-7.44731005397625E-05,-0.00381882023066282,-0.00673805177211761,0,
00:00:05.46,0.00321019720286131,-0.00374609907157719,0.00223261746577919,0,
00:00:05.464,-0.00276788836345077,0.00295744161121547,-0.00277205766178668,0,
00:00:05.468,-0.00307689770124853,0.00380719755776227,-0.00737004401162267,0,
00:00:05.472,0.00754408910870552,0.00407499819993973,0.000946055457461625,0,
00:00:05.476,0.00400137389078736,-9.08685342437821E-06,0.0213520973920822,0,
00:00:05.48,-0.00151387217920274,-0.0070102009922266,0.00338102667592466,0,
00:00:05.484,-0.00416271621361375,0.000798862078227103,-0.00785600580275059,0,
00:00:05.488,-0.00775279523804784,0.0015492852544412,-0.0161160714924335,0,
00:00:05.492,-0.00162225391250104,-0.00170587038155645,-0.00625453051179647,0,
00:00:05.496,0.00374668301083148,0.00142776209395379,0.00197541201487184,0,
00:00:05.5,0.011371923610568,-0.00320540345273912,0.0164452344179153,0,
00:00:05.504,0.0016147211426869,0.00379614345729351,0.00651863217353821,0,
00:00:05.508,-0.00826454535126686,-0.00158480380196124,-0.00418772269040346,0,
00:00:05.512,-0.00319542200304568,0.00367220817133784,-0.00797674804925919,0,
00:00:05.516,0.000138875111588277,-0.000697113340720534,-0.0036159441806376,0,
00:00:05.52,0.00364217488095164,-0.00162815721705556,0.0093768984079361,0,
00:00:05.524,-0.000434450194006786,-0.00104498490691185,-0.0047318572178483,0,
00:00:05.528,-0.00084125465946272,0.00190494663547724,-0.00383246806450188,0,
00:00:05.532,-0.000167341320775449,0.000493022438604385,0.00245033064857125,0,
00:00:05.536,0.000387094361940399,-0.00310184014961123,0.00298911868594587,0,
00:00:05.54,0.00465166661888361,-0.00148216472007334,0.00546166999265552,0,
00:00:05.544,-0.00573511188849807,0.0007360017625615,-0.0105777801945806,0,
00:00:05.548,-0.00338399433530867,0.00382130709476769,0.0118050472810864,0,
00:00:05.552,0.00306820753030479,-0.000506603857502341,-0.01057861559093,0,
00:00:05.556,0.0011902378173545,0.00307419616729021,-0.0108916275203228,0,
00:00:05.56,0.00319764739833772,-0.0106345498934388,0.00780281983315945,0,
00:00:05.564,0.00305261719040573,0.00486713042482734,0.0241358932107687,0,
00:00:05.568,0.000890850729774684,0.00504331290721893,-0.00734858540818095,0,
00:00:05.572,-0.0159826781600714,-0.00113188452087343,-0.0125266741961241,0,
00:00:05.576,0.00495186867192388,-0.00017130583000835,-0.00672232871875167,0,
00:00:05.58,0.00666263699531555,-0.00326415034942329,0.00244918605312705,0,
00:00:05.584,0.000207757184398361,-0.00376893975771964,0.000261165056144819,0,
00:00:05.588,-0.00379065098240972,0.0066097192466259,0.000716915295924991,0,
00:00:05.592,0.00264099380001426,0.00134321127552539,0.00586483813822269,0,
00:00:05.596,-0.00285387760959566,-0.00778984325006604,0.00642337696626782,0,
00:00:05.6,0.00290291151031852,0.00384366163052619,0.00703395111486316,0,
00:00:05.604,0.00338921626098454,0.0016433703713119,-0.0136854937300086,0,
00:00:05.608,-0.0051364041864872,-0.00168177054729313,-0.00144644698593765,0,
00:00:05.612,-0.00996488053351641,0.00378888077102602,-0.00423603737726808,0,
00:00:05.616,0.00584820611402392,0.00541094830259681,-0.00519266678020358,0,
00:00:05.62,0.00926114805042744,-0.00780573161318898,0.00821449793875217,0,
00:00:05.624,0.00107879156712443,-0.0103143211454153,0.000432760454714298,0,
00:00:05.628,-0.00273186666890979,0.00113506056368351,0.00508555304259062,0,
00:00:05.632,-0.00318242749199271,0.012426009401679,0.00635239668190479,0,
00:00:05.636,-0.00186278077308089,0.00178990268614143,-0.00540048349648714,0,
00:00:05.64,0.00184184103272855,0.00170871545560658,-0.0167641434818506,0,
00:00:05.644,0.00092177651822567,-0.00890537165105343,0.0131201250478625,0,
00:00:05.648,-0.000466784229502082,-0.00294256117194891,0.00494617875665426,0,
00:00:05.652,-0.00304323085583746,0.00317241088487208,-0.00568073056638241,0,
00:00:05.656,-0.00697110313922167,-0.00357812666334212,3.01640830002725E-05,0,
00:00:05.66,0.00744503596797585,0.0064557702280581,-0.00601512240245938,0,
00:00:05.664,0.0112395137548447,0.001926010241732,0.00328474957495928,0,
00:00:05.668,-0.00197027157992125,-0.000783430645242333,0.00404821615666151,0,
00:00:05.672,-0.00761451758444309,0.000370349793229252,0.00998677685856819,0,
00:00:05.676,0.00207249610684812,-0.00129313871730119,-0.0106220282614231,0,
00:00:05.68,-0.00343406526371837,-0.00419757002964616,-0.00627996539697051,0,
00:00:05.684,-0.00201941351406276,-0.00374787813052535,-0.000549826887436211,0,
00:00:05.688,0.00273676519282162,0.00522065814584494,-0.0012618585024029,0,
00:00:05.692,-0.00401345500722528,0.00202801404520869,0.0052917986176908,0,
00:00:05.696,0.00221669394522905,0.00253798859193921,0.00525739090517163,0,
00:00:05.7,0.0101883020251989,-0.00226110848598182,0.00425948761403561,0,
00:00:05.704,-0.00124413531739265,-0.00425517559051514,0.00334880291484296,0,
00:00:05.708,-0.00451976526528597,0.00339431059546769,-0.00794752687215805,0,
00:00:05.712,-0.00551433488726616,-0.00184383511077613,-0.00320071540772915,0,
00:00:05.716,-0.00113460072316229,0.00562184909358621,-0.00854136329144239,0,
00:00:05.72,0.00653527630493045,-0.00470569403842092,0.00249731005169451,0,
00:00:05.724,0.00345392827875912,0.000950562302023172,0.00278276670724154,0,
00:00:05.728,-0.00304741458967328,0.000725105113815516,-0.00516093708574772,0,
00:00:05.732,-0.00318927806802094,0.00153969693928957,0.0102154109627008,0,
00:00:05.736,-0.00115407456178218,-0.00512129394337535,0.0156727973371744,0,
00:00:05.74,0.000670731242280453,-0.00458092428743839,-0.0118728764355183,0,
00:00:05.744,0.00140534760430455,-0.000917758501600474,-0.00714969635009766,0,
00:00:05.748,0.0032361161429435,0.01065041590482,-0.00469383457675576,0,
00:00:05.752,-0.00566162867471576,0.00606619054451585,0.000502881535794586,0,
00:00:05.756,0.00213581277057529,-0.0010773609392345,0.00772013794630766,0,
00:00:05.76,0.00469482596963644,-0.00907688122242689,0.00177762564271688,0,
00:00:05.764,0.000827129115350544,-0.00081011513248086,-0.00749021908268332,0,
00:00:05.768,-0.0107632437720895,-0.005265555344522,-0.00018792791524902,0,
00:00:05.772,0.00888232421129942,0.00657945312559605,0.0179362818598747,0,
00:00:05.776,0.00275880051776767,0.00505470810458064,0.00193106674123555,0,
00:00:05.78,-0.0150871770456433,-0.00370142958126962,-0.0220125857740641,0,
00:00:05.784,0.00144250062294304,0.00140440091490746,-0.0117546925321221,0,
00:00:05.788,0.0109733240678906,0.000327946996549144,0.00731017580255866,0,
00:00:05.792,0.00350127369165421,-0.00132503488566726,0.00876703951507807,0,
00:00:05.796,0.000455739762401208,-0.00588349672034383,0.0106505546718836,0,
00:00:05.8,-0.00749794207513332,-0.00123650918249041,-0.0036690654233098,0,
00:00:05.804,0.00170267908833921,0.00722333695739508,0.00367469876073301,0,
00:00:05.808,-0.00564067857339978,0.00226573087275028,-0.00552130211144686,0,
00:00:05.812,-0.00401077140122652,-0.000552358746062964,-0.00989643298089504,0,
00:00:05.816,0.00656863674521446,-0.00156556710135192,-0.00259281136095524,0,
00:00:05.82,0.00997710134834051,-0.00136794906575233,0.0184909328818321,0,
00:00:05.824,-0.0023595152888447,0.00350235868245363,-0.00795555952936411,0,
00:00:05.828,-0.00716229807585478,-0.00598900439217687,-0.0033350745216012,0,
00:00:05.832,-0.00545975286513567,0.00117517542093992,-0.00435478473082185,0,
00:00:05.836,0.00922661647200584,-0.000248035008553416,0.00724454550072551,0,
00:00:05.84,0.000828505319077522,-0.00366816530004144,0.00676791043952107,0,
00:00:05.844,5.68816285522189E-05,0.00503001641482115,-0.00867508072406054,0,
00:00:05.848,-0.0038500945083797,0.00840749498456717,-0.00738692935556173,0,
00:00:05.852,-0.00233065010979772,-0.00110713881440461,0.013490928336978,0,
00:00:05.856,-0.00189919478725642,-0.00710661010816693,0.000348478119121864,0,
00:00:05.86,0.00360963889397681,-0.00867780763655901,-0.00178592756856233,0,
00:00:05.864,0.00957526545971632,0.00371879991143942,-0.00730200856924057,0,
00:00:05.868,-0.00897115934640169,0.00780662754550576,0.00135852594394237,0,
00:00:05.872,-0.00595251331105828,0.00121198280248791,-0.00181797577533871,0,
00:00:05.876,0.0051192669197917,0.000460042414488271,0.000750421662814915,0,
00:00:05.88,0.00901770312339067,-0.00397446053102613,0.00275842100381851,0,
00:00:05.884,-0.00273605086840689,-0.0028409028891474,0.00474265124648809,0,
00:00:05.888,-0.00704493978992105,-0.00245038629509509,0.00130939530208707,0,
00:00:05.892,-0.000934116716962308,0.00742152007296681,-0.00191752566024661,0,
00:00:05.896,-0.000569543684832752,-0.000666205072775483,-0.00299186632037163,0,
00:00:05.9,0.00578073458746076,-0.00204622955061495,-0.00219684513285756,0,
00:00:05.904,0.000632317911367863,-0.003062256379053,0.00141337909735739,0,
00:00:05.908,0.000704633595887572,0.00637636939063668,-0.00552607839927077,0,
00:00:05.912,-0.00342626986093819,-0.00149400194641203,0.00343435863032937,0,
00:00:05.916,-0.00235525914467871,-0.000324555789120495,0.00407748250290751,0,
00:00:05.92,0.00402980390936136,-0.00497550005093217,0.00166856194846332,0,
00:00:05.924,-0.00263580470345914,0.000852040597237647,-0.0069044572301209,0,
00:00:05.928,-0.00175820023287088,0.000473006832180545,0.0187344383448362,0,
00:00:05.932,-0.00151101895608008,0.00385245587676764,-0.0145642757415771,0,
00:00:05.936,-0.000374162162188441,0.00419046264141798,-0.00976263359189034,0,
00:00:05.94,0.00721527962014079,-0.00240533356554806,0.0037122848443687,0,
00:00:05.944,0.00829076953232288,-0.00554141774773598,0.00341914827004075,0,
00:00:05.948,-0.00677891587838531,2.14783790397632E-06,0.000673031667247415,0,
00:00:05.952,-0.00477890530601144,0.00570089183747768,0.00342304701916873,0,
00:00:05.956,-0.0021457583643496,-0.00480004865676165,0.00173127499874681,0,
00:00:05.96,8.63093810039572E-05,-0.000918818928766996,-0.00475759338587523,0,
00:00:05.964,0.00335804838687181,0.00103998032864183,0.00418609566986561,0,
00:00:05.968,0.00151844858191907,0.0034676706418395,-0.00251668505370617,0,
00:00:05.972,-0.00687589636072516,0.000949331442825496,-0.004360883962363,0,
00:00:05.976,0.00234113726764917,-0.00350738782435656,0.00375579390674829,0,
00:00:05.98,0.00575072690844536,-0.00428090197965503,0.00282588065601885,0,
00:00:05.984,-0.000187819547136314,5.28282325831242E-05,0.00409354083240032,0,
00:00:05.988,6.40065409243107E-05,0.00512338802218437,-0.00368545041419566,0,
00:00:05.992,-0.00778632936999202,0.00543395103886724,-0.00714482693001628,0,
00:00:05.996,-0.000365342653822154,-0.00185181805863976,-0.00709256203845143,0,
00:00:06,0.00743985874578357,-0.00357230077497661,0.00143552711233497,0,
00:00:06.004,0.00150876794941723,-0.00240552169270813,0.00674685044214129,0,
00:00:06.008,0.000506277719978243,0.00363903096877038,0.00656761322170496,0,
00:00:06.012,-0.00625131884589791,-0.00312131410464644,0.0093113211914897,0,
00:00:06.016,-0.00108211080078036,-0.00412887334823608,0.0141428830102086,0,
00:00:06.02,0.00119133573025465,0.00460687279701233,-0.0275202933698893,0,
00:00:06.024,0.00155117339454591,-0.000410695909522474,-0.0199538134038448,0,
00:00:06.028,0.000959721859544516,0.000308960763504729,0.000971010362263769,0,
00:00:06.032,0.00018360247486271,0.00761336274445057,0.0111927771940827,0,
00:00:06.036,0.0038168728351593,-0.00250808638520539,0.0112258456647396,0,
00:00:06.04,-0.00857926812022924,-0.00640923110768199,0.0099191190674901,0,
00:00:06.044,0.00032304844353348,0.00155859661754221,-3.06345900753513E-05,0,
00:00:06.048,0.00489474274218082,-0.000422588229412213,-0.0172493048012257,0,
00:00:06.052,0.000140228628879413,0.00195809872820973,6.68385982862674E-05,0,
00:00:06.056,-0.00319377356208861,-0.00352614279836416,0.0139700714498758,0,
00:00:06.06,0.00113848259206861,-0.00306209898553789,-0.00990875065326691,0,
00:00:06.064,0.00352792604826391,0.0080370930954814,-0.00426339777186513,0,
00:00:06.068,-0.00153921637684107,0.00247979280538857,-0.00654652435332537,0,
00:00:06.072,-0.00211191480048001,0.00080008793156594,-0.000619735277723521,0,
00:00:06.076,-0.000956434290856123,-0.0045397081412375,0.0129083311185241,0,
00:00:06.08,-0.00181414524558932,-0.00366340740583837,0.0105672460049391,0,
00:00:06.084,0.000747259298805147,-0.000919235579203814,0.000324439140968025,0,
00:00:06.088,0.00440169544890523,0.00120684807188809,-0.00238908105529845,0,
00:00:06.092,0.00219504348933697,0.00189653213601559,-0.0217564515769482,0,
00:00:06.096,0.00136446987744421,0.0014252447290346,0.0022880993783474,0,
00:00:06.1,-0.00205372320488095,0.000491790357045829,0.00963313970714808,0,
00:00:06.104,-0.00558202620595694,-0.00236839056015015,-0.00119023688603193,0,
00:00:06.108,-0.000645766034722328,0.00548716029152274,-0.000994589412584901,0,
00:00:06.112,0.000944183091633022,-0.00288296118378639,0.00116356543730944,0,
00:00:06.116,-0.00512530282139778,-0.00755059998482466,0.0144701553508639,0,
00:00:06.12,0.00044682392035611,0.00482733035460114,-0.0167152993381023,0,
00:00:06.124,0.0111787840723991,0.00421033008024096,-0.00172723538707942,0,
00:00:06.128,0.00341057870537043,-0.00164319050963968,0.0010527113918215,0,
00:00:06.132,-0.00427507609128952,-0.00427328469231725,0.00488386582583189,0,
00:00:06.136,-0.000123369769426063,0.00315903453156352,0.000611722061876208,0,
00:00:06.14,-0.00156129244714975,-0.00202915165573359,0.00368804112076759,0,
00:00:06.144,-0.00468924175947905,-0.000647301960270852,-0.00441984506323934,0,
00:00:06.148,-0.00211187754757702,0.00752157717943192,0.0026713740080595,0,
00:00:06.152,0.001029466628097,6.52197850286029E-05,-0.00849180389195681,0,
00:00:06.156,0.00045914194197394,-0.00980725325644016,0.000726564903743565,0,
00:00:06.16,0.00631263246759772,0.00236741057597101,0.0031943335197866,0,
00:00:06.164,0.000714033318217844,0.0012150356778875,0.00443632435053587,0,
00:00:06.168,0.000438696122728288,0.000825333932880312,-0.00133657280821353,0,
00:00:06.172,-0.0100681371986866,0.000520777422934771,-0.010580669157207,0,
00:00:06.176,0.00528106931596994,0.00226139998994768,0.014975517988205,0,
00:00:06.18,0.0026251575909555,-0.00414426252245903,0.000790195015724748,0,
00:00:06.184,0.000169959632330574,9.93755966192111E-05,-0.0133080026134849,0,
00:00:06.188,0.000971066299825907,0.00330989784561098,0.00100153847597539,0,
00:00:06.192,-0.00526840845122933,-0.00317081017419696,0.00237474986352026,0,
00:00:06.196,-0.00241407752037048,0.000486960343550891,0.00910927914083004,0,
00:00:06.2,0.00549571635201573,0.00111103116068989,0.000215432388358749,0,
00:00:06.204,0.00522618740797043,0.00261369557119906,-0.0146098341792822,0,
00:00:06.208,-0.00683909934014082,-4.54086111858487E-05,0.0117795243859291,0,
00:00:06.212,-0.00656205881386995,-0.00410168990492821,-0.00188814918510616,0,
00:00:06.216,0.00459574582055211,-0.00226793019101024,-0.00381024437956512,0,
00:00:06.22,0.00715731596574187,-0.00369822536595166,-0.00564139429479837,0,
00:00:06.224,-0.000112988309410866,0.00792872812598944,0.00281225028447807,0,
00:00:06.228,-0.000650575617328286,0.00521186040714383,0.0134181845933199,0,
00:00:06.232,-0.00443265587091446,-0.00029472669120878,-0.00651549687609077,0,
00:00:06.236,-0.00268515665084124,-0.00766366766765714,-0.00190397340338677,0,
00:00:06.24,0.00216958299279213,-0.00174258754123002,0.00162242644000798,0,
00:00:06.244,-0.000220313013414852,0.0013252985663712,-0.0062621608376503,0,
