,Elapsed Time,EMG
0,00:00:00,8.17649745941162
1,00:00:00.004,-7.789098024368289
2,00:00:00.008,-6.458030045032497
3,00:00:00.012,-0.688610032200813
4,00:00:00.016,3.312573283910754
5,00:00:00.02,4.04091370105743
6,00:00:00.024,2.485863804817196
7,00:00:00.028,0.3237972818315033
8,00:00:00.032,-1.1875172853469849
9,00:00:00.036,-1.615940690040591
10,00:00:00.04,-1.186542049050332
11,00:00:00.044,-0.4426954835653304
12,00:00:00.048,0.1871436331421139
13,00:00:00.052,0.4706298373639588
14,00:00:00.056,0.43544672802090667
15,00:00:00.06,0.23196650855243223
16,00:00:00.064,-0.0040019014850258775
17,00:00:00.068,-0.1359341945499182
18,00:00:00.072,-0.1427647797390818
19,00:00:00.076,-0.07575375819578768
20,00:00:00.08,-0.010519566945731623
21,00:00:00.084,0.005486982176080341
22,00:00:00.088,0.035808046028250815
23,00:00:00.092,0.03177507524378602
24,00:00:00.096,0.02557342126965527
25,00:00:00.1,0.01077780674677342
26,00:00:00.104,-0.025634494144469548
27,00:00:00.108,-0.017094658178393736
28,00:00:00.112,0.0006558545865118608
29,00:00:00.116,-0.005254776333458721
30,00:00:00.12,0.013316480442881579
31,00:00:00.124,0.0023557496460853136
32,00:00:00.128,-0.01767117041163146
33,00:00:00.132,0.0017116766248364019
34,00:00:00.136,0.019536169944331102
35,00:00:00.14,0.008197954244678835
36,00:00:00.144,-0.011370994616299871
37,00:00:00.148,-0.01917911856435239
38,00:00:00.152,0.00833197665633634
39,00:00:00.156,0.0071261131670325994
40,00:00:00.16,-0.005954671185463691
41,00:00:00.164,0.012783419282641265
42,00:00:00.168,-0.0019600621890276705
43,00:00:00.172,-0.01032326707354514
44,00:00:00.176,-0.0046739593090023845
45,00:00:00.18,0.004146389546804132
46,00:00:00.184,0.0009795207297429412
47,00:00:00.188,-0.0017006936250254505
48,00:00:00.192,0.023481372743845
49,00:00:00.196,0.005784697539638737
50,00:00:00.2,-0.028706428318400867
51,00:00:00.204,-0.01764708291739225
52,00:00:00.208,-0.00052499305456876
53,00:00:00.212,0.018582861521281278
54,00:00:00.216,0.01862536580301825
55,00:00:00.22,0.003763681510463349
56,00:00:00.224,-0.0119853203650564
57,00:00:00.228,-0.017280558240599927
58,00:00:00.232,0.0016996958875097347
59,00:00:00.236,0.01090487657347694
60,00:00:00.24,-0.0031146467663347704
61,00:00:00.244,0.002050313400104641
62,00:00:00.248,0.00786605908069756
63,00:00:00.252,-0.00606688810512423
64,00:00:00.256,-0.0020670125959441105
65,00:00:00.26,-0.01000899821519852
66,00:00:00.264,0.002431187953334306
67,00:00:00.268,0.01221714308485387
68,00:00:00.272,-0.005693468381650741
69,00:00:00.276,0.00019311881624161807
70,00:00:00.28,0.00351453409530222
71,00:00:00.284,-0.00129586877301335
72,00:00:00.288,-0.00199930649250746
73,00:00:00.292,0.005167385534150524
74,00:00:00.296,-0.00796739454381168
75,00:00:00.3,-0.0023219265858642766
76,00:00:00.304,-0.0003060081508010617
77,00:00:00.308,0.005038331670220945
78,00:00:00.312,0.0018133586272597309
79,00:00:00.316,0.004880168242380021
80,00:00:00.32,0.0023360616760328403
81,00:00:00.324,-0.009674993809312579
82,00:00:00.328,-0.008086400222964588
83,00:00:00.332,-0.0017112323548644772
84,00:00:00.336,0.03257134126033629
85,00:00:00.34,-0.02028939602314491
86,00:00:00.344,-0.010489926149603009
87,00:00:00.348,0.00837918720208109
88,00:00:00.352,0.0038651495124213398
89,00:00:00.356,-0.0026724323397502316
90,00:00:00.36,-0.010882781760301467
91,00:00:00.364,0.0053084825631231
92,00:00:00.368,0.00963561842218042
93,00:00:00.372,0.0017972484056372213
94,00:00:00.376,-0.006402868079021568
95,00:00:00.38,0.0007934194873087179
96,00:00:00.384,0.011479581706225869
97,00:00:00.388,-0.0060266929212957595
98,00:00:00.392,-0.017493582912720743
99,00:00:00.396,0.0007499565836042103
100,00:00:00.4,0.004694893024861809
101,00:00:00.404,0.0036447761813178632
102,00:00:00.408,-0.004518022760748858
103,00:00:00.412,0.006289145443588492
104,00:00:00.416,0.027589038509177
105,00:00:00.42,-0.004752198932692401
106,00:00:00.424,-0.03219808297581045
107,00:00:00.428,0.00507234758697454
108,00:00:00.432,-0.004084072774276141
109,00:00:00.436,-0.00906278868205847
110,00:00:00.44,0.01377272978425026
111,00:00:00.444,0.011979315197095278
112,00:00:00.448,-0.0053055642783874655
113,00:00:00.452,-0.00227947277016938
114,00:00:00.456,0.0022830453235655997
115,00:00:00.46,0.0010703680454753287
116,00:00:00.464,0.005205866327742109
117,00:00:00.468,-0.00582744926214218
118,00:00:00.472,-0.01060924353078008
119,00:00:00.476,-0.004990897257812321
120,00:00:00.48,0.0123746024328284
121,00:00:00.484,0.00832448445726187
122,00:00:00.488,-0.004096019780263301
123,00:00:00.492,-0.005079474241938447
124,00:00:00.496,-0.0021284251997713078
125,00:00:00.5,0.0006943839835003001
126,00:00:00.504,-0.002244101895485071
127,00:00:00.508,-0.006872210127767177
128,00:00:00.512,0.03862268134253105
129,00:00:00.516,-0.007637323928065603
130,00:00:00.52,-0.027511370950378443
131,00:00:00.524,-0.004935629433020949
132,00:00:00.528,0.0004374010313767957
133,00:00:00.532,-0.00015506858471780994
134,00:00:00.536,0.011092322849435735
135,00:00:00.54,0.01777188992127776
136,00:00:00.544,0.00334056041901931
137,00:00:00.548,-0.023417070158757256
138,00:00:00.552,-0.002235393505543471
139,00:00:00.556,0.0014597907138522719
140,00:00:00.56,0.009102803131099794
141,00:00:00.564,-0.0013899900368414789
142,00:00:00.568,-0.00364564498886466
143,00:00:00.572,-0.006280606088694191
144,00:00:00.576,-0.0022095728527347135
145,00:00:00.58,0.008523549302481115
146,00:00:00.584,0.004640339349862188
147,00:00:00.588,0.0012079929001629261
148,00:00:00.592,0.007115400861948741
149,00:00:00.596,0.01278290827758611
150,00:00:00.6,-0.03432939997583158
151,00:00:00.604,-0.019954507471993538
152,00:00:00.608,0.002356664670514881
153,00:00:00.612,0.03171737026423213
154,00:00:00.616,0.01839984441176057
155,00:00:00.62,-0.00380019610747695
156,00:00:00.624,-0.019242042093537717
157,00:00:00.628,-0.009741267072968181
158,00:00:00.632,-0.002365254680626089
159,00:00:00.636,0.002692579175345599
160,00:00:00.64,0.011010946356691413
161,00:00:00.644,0.006648781476542361
162,00:00:00.648,0.00198510731570423
163,00:00:00.652,8.14975210232658e-05
164,00:00:00.656,-0.01219153932470363
165,00:00:00.66,-0.011990799568593526
166,00:00:00.664,-0.00022954441374167876
167,00:00:00.668,0.009988626406993713
168,00:00:00.672,0.004803613570402376
169,00:00:00.676,0.013599939993582642
170,00:00:00.68,0.014401872875168902
171,00:00:00.684,-0.022165141475852593
172,00:00:00.688,-0.01625237800180912
173,00:00:00.692,-0.01620257459580898
174,00:00:00.696,-0.003813200921285903
175,00:00:00.7,0.02261184202507137
176,00:00:00.704,0.02619742479873817
177,00:00:00.708,0.01116647373419255
178,00:00:00.712,-0.017561059852596372
179,00:00:00.716,-0.024487409318680924
180,00:00:00.72,0.0020016822963952988
181,00:00:00.724,0.0028532128781080302
182,00:00:00.728,0.0019165991761838095
183,00:00:00.732,0.005537441669730466
184,00:00:00.736,0.0014786684769205758
185,00:00:00.74,0.004332926735514775
186,00:00:00.744,-0.002222187584266059
187,00:00:00.748,-0.012104446534067401
188,00:00:00.752,0.015706129408499716
189,00:00:00.756,0.002338143531233069
190,00:00:00.76,-0.0146342491498217
191,00:00:00.764,-0.007945376361021772
192,00:00:00.768,0.00421180506236851
193,00:00:00.772,0.00735125120263547
194,00:00:00.776,-0.0011402695672586604
195,00:00:00.78,0.00922438723500818
196,00:00:00.784,0.013737940753344453
197,00:00:00.788,-0.01561818580375985
198,00:00:00.792,-0.022941736737266207
199,00:00:00.796,-0.0003908281214535247
200,00:00:00.8,0.014969199983170254
201,00:00:00.804,0.019640296173747625
202,00:00:00.808,-0.0012300286907702988
203,00:00:00.812,-0.02277727809268983
204,00:00:00.816,-0.0019342931918799816
205,00:00:00.82,0.013682196964509782
206,00:00:00.824,-0.008904364658519631
207,00:00:00.828,0.00786524685099721
208,00:00:00.832,-0.004271666664863003
209,00:00:00.836,-0.0070956138661131575
210,00:00:00.84,0.0027352714387234205
211,00:00:00.844,0.020520833997579726
212,00:00:00.848,-0.007432225858792659
213,00:00:00.852,-0.008428974135313185
214,00:00:00.856,0.0017399398348061327
215,00:00:00.86,-0.012262601667316655
216,00:00:00.864,0.0013485253439284902
217,00:00:00.868,0.017439829127397388
218,00:00:00.872,-0.00564482048503123
219,00:00:00.876,-0.0015735453926026817
220,00:00:00.88,-0.004268004558980472
221,00:00:00.884,0.012351710662187546
222,00:00:00.888,-0.010917338135186602
223,00:00:00.892,0.0036500219721347102
224,00:00:00.896,-0.001629248145036404
225,00:00:00.9,0.0005292526693665462
226,00:00:00.904,-0.00407630892004818
227,00:00:00.908,0.0034503722563386002
228,00:00:00.912,-0.0014021776150912042
229,00:00:00.916,-0.004183100129012014
230,00:00:00.92,0.013856590318027924
231,00:00:00.924,-0.004903142325929368
232,00:00:00.928,0.004938551923260097
233,00:00:00.932,-0.00682461238466203
234,00:00:00.936,-0.012130077928304681
235,00:00:00.94,0.0005351722938939899
236,00:00:00.944,0.01329552801325914
237,00:00:00.948,0.013504872098565119
238,00:00:00.952,-0.01349018421024082
239,00:00:00.956,-0.00688556593377143
240,00:00:00.96,0.009178759064525359
241,00:00:00.964,-0.014062610389373717
242,00:00:00.968,-0.007806635636370634
243,00:00:00.972,0.017997767485212583
244,00:00:00.976,0.003744613903108985
245,00:00:00.98,0.011781565997807776
246,00:00:00.984,-0.0070931365626165695
247,00:00:00.988,-0.023214010405354212
248,00:00:00.992,-0.00292857107706369
249,00:00:00.996,0.02342766616493461
250,00:00:01,0.005016672657802705
251,00:00:01.004,-0.007197848171927042
252,00:00:01.008,-0.0177219727775082
253,00:00:01.012,0.006856487016193571
254,00:00:01.016,0.021710368862841292
255,00:00:01.02,-0.0018331325845792842
256,00:00:01.024,-0.025663496082415825
257,00:00:01.028,-0.012350746430456635
258,00:00:01.032,0.017674301285296682
259,00:00:01.036,0.02458216203376649
260,00:00:01.04,-0.005088868929306049
261,00:00:01.044,-0.013258514321933031
262,00:00:01.048,0.007423756003845504
263,00:00:01.052,-0.01118398457765579
264,00:00:01.056,-0.008922033535782208
265,00:00:01.06,0.005725628638174389
266,00:00:01.064,0.010129341659194336
267,00:00:01.068,-0.0015320698730647495
268,00:00:01.072,-0.0036848612362518924
269,00:00:01.076,0.01074846216943115
270,00:00:01.08,0.003437649545958269
271,00:00:01.084,-0.01751191983930771
272,00:00:01.088,-9.501143358648615e-05
273,00:00:01.092,0.01465095416642729
274,00:00:01.096,-0.008878127817297384
275,00:00:01.1,-0.011801490734797013
276,00:00:01.104,0.007805058732628823
277,00:00:01.108,0.0018626709352247482
278,00:00:01.112,0.012512058543506984
279,00:00:01.116,0.0028748784679919486
280,00:00:01.12,-0.01465021341573447
281,00:00:01.124,-0.013304995838552708
282,00:00:01.128,0.0003304884303361199
283,00:00:01.132,0.013340444769710321
284,00:00:01.136,0.022388160286936902
285,00:00:01.14,-0.00576076412107796
286,00:00:01.144,-0.017730578547343594
287,00:00:01.148,-0.01202420146728404
288,00:00:01.152,0.00679741136264056
289,00:00:01.156,0.004273233236744999
290,00:00:01.16,0.003690912795718754
291,00:00:01.164,-0.001711130622425115
292,00:00:01.168,0.00252441922202706
293,00:00:01.172,0.023102439474314427
294,00:00:01.176,-0.015197454427834559
295,00:00:01.18,-0.02373666723724452
296,00:00:01.184,-0.002887759997975083
297,00:00:01.188,0.014566220910637669
298,00:00:01.192,0.008205802994780239
299,00:00:01.196,-0.007077191374264637
300,00:00:01.2,0.0008492627530358719
301,00:00:01.204,0.0068220749963074905
302,00:00:01.208,0.0057921210536733304
303,00:00:01.212,-0.01155850279610604
304,00:00:01.216,-0.004208832222502681
305,00:00:01.22,-0.010684554683393804
306,00:00:01.224,0.0030441733542829717
307,00:00:01.228,0.02621898346114904
308,00:00:01.232,0.0029302795883268105
309,00:00:01.236,-0.017740747309289862
310,00:00:01.24,-0.00916840384888928
311,00:00:01.244,-0.0038718623109161897
312,00:00:01.248,0.015445999219082322
313,00:00:01.252,-0.0013552228920161733
314,00:00:01.256,0.00016602838877588966
315,00:00:01.26,0.013355760980630318
316,00:00:01.264,-0.00510315573774278
317,00:00:01.268,-0.016061345348134623
318,00:00:01.272,-0.0026939414674416193
319,00:00:01.276,0.001705451519228522
320,00:00:01.28,0.006938948732567958
321,00:00:01.284,0.0027766336570493877
322,00:00:01.288,0.0008240791503340101
323,00:00:01.292,0.00800615234766155
324,00:00:01.296,-0.0025412105023861005
325,00:00:01.3,-0.01967185770627114
326,00:00:01.304,-0.0024744126712903398
327,00:00:01.308,0.009438153996597977
328,00:00:01.312,0.01090876362286511
329,00:00:01.316,0.013919845456257466
330,00:00:01.32,-0.012928560725413278
331,00:00:01.324,-0.019918183468689638
332,00:00:01.328,-0.0013063583901384806
333,00:00:01.332,0.00960561039391905
334,00:00:01.336,0.00612399430247024
335,00:00:01.34,-0.0035464234533719727
336,00:00:01.344,0.00575051479972899
337,00:00:01.348,0.017686303996015344
338,00:00:01.352,-0.011156434658914792
339,00:00:01.356,-0.01724826137069612
340,00:00:01.36,-0.012081148568540815
341,00:00:01.364,0.00011400924995540922
342,00:00:01.368,0.01460934127680957
343,00:00:01.372,0.01838265082915318
344,00:00:01.376,0.004124594037421041
345,00:00:01.38,-0.00984062533825636
346,00:00:01.384,-0.021521893853787347
347,00:00:01.388,-0.008548170793801551
348,00:00:01.392,0.02218897943384942
349,00:00:01.396,0.02074256341438736
350,00:00:01.4,-0.010535914683714469
351,00:00:01.404,-0.016388539341278367
352,00:00:01.408,-0.00708469259552657
353,00:00:01.412,-0.0015305287670344162
354,00:00:01.416,0.008856586413457991
355,00:00:01.42,0.011348060390446342
356,00:00:01.424,0.010820307477843029
357,00:00:01.428,9.173760190605033e-05
358,00:00:01.432,-0.014103618217632202
359,00:00:01.436,-0.02001104422379283
360,00:00:01.44,-0.003913044474757047
361,00:00:01.444,0.01779327844269572
362,00:00:01.448,0.01117236493155362
363,00:00:01.452,-0.006161083292681719
364,00:00:01.456,0.008225150580983612
365,00:00:01.46,0.00138194835744798
366,00:00:01.464,-0.002003812638577064
367,00:00:01.468,-0.02016067004296928
368,00:00:01.472,-0.012698866310529413
369,00:00:01.476,0.011445282259956011
370,00:00:01.48,0.01886771828867497
371,00:00:01.484,0.010287452780175958
372,00:00:01.488,-0.011353204026818279
373,00:00:01.492,-0.00611381675116714
374,00:00:01.496,-0.0026547805755399233
375,00:00:01.5,-0.0002640003804117398
376,00:00:01.504,-0.00101571646519005
377,00:00:01.508,-0.00286649237386882
378,00:00:01.512,0.016899843234568827
379,00:00:01.516,0.003848786975140682
380,00:00:01.52,-0.01704804319888356
381,00:00:01.524,-0.018030293053016087
382,00:00:01.528,0.00355486141052097
383,00:00:01.532,0.03079537666053516
384,00:00:01.536,0.01561015890911217
385,00:00:01.54,-0.009208106028381726
386,00:00:01.544,-0.030212320503778718
387,00:00:01.548,-0.01393497060053051
388,00:00:01.552,0.01783994783181698
389,00:00:01.556,0.006569212710019198
390,00:00:01.56,-0.0014165595348458802
391,00:00:01.564,0.0028686810837825773
392,00:00:01.568,0.00504869016003795
393,00:00:01.572,0.011387924256268925
394,00:00:01.576,-0.014677234168630132
395,00:00:01.58,-0.014253861736506272
396,00:00:01.584,0.006080331979319451
397,00:00:01.588,0.002890276955440637
398,00:00:01.592,0.01041103678289801
399,00:00:01.596,-0.004348041606135671
400,00:00:01.6,-0.005862799822352825
401,00:00:01.604,-0.002463090582750729
402,00:00:01.608,0.0009796234080568095
403,00:00:01.612,-0.0016231545014306996
404,00:00:01.616,-0.0021327621070668145
405,00:00:01.62,0.012166282627731558
406,00:00:01.624,0.010844185628229768
407,00:00:01.628,-0.003725310496520252
408,00:00:01.632,-0.009500224216026257
409,00:00:01.636,-0.009867687826044861
410,00:00:01.64,-0.00290678784949705
411,00:00:01.644,-0.0030260076746344592
412,00:00:01.648,0.000988463638350367
413,00:00:01.652,0.027380818326491814
414,00:00:01.656,0.00868991576135158
415,00:00:01.66,-0.019002662826096636
416,00:00:01.664,-0.01287843729369342
417,00:00:01.668,0.001433621393516655
418,00:00:01.672,0.0002643048846948633
419,00:00:01.676,-0.003446003276621916
420,00:00:01.68,0.016029795922804624
421,00:00:01.684,0.00806347699835896
422,00:00:01.688,-0.011585798114538193
423,00:00:01.692,-0.004829563258681443
424,00:00:01.696,-0.007189502473920584
425,00:00:01.7,-0.0014284574426710601
426,00:00:01.704,0.02051694120746109
427,00:00:01.708,0.00853161871782504
428,00:00:01.712,-0.005952187813818459
429,00:00:01.716,-0.02204337075818334
430,00:00:01.72,-0.009459280350711202
431,00:00:01.724,0.00298746174667031
432,00:00:01.728,0.015380762750282839
433,00:00:01.732,0.01735342107713222
434,00:00:01.736,0.00042280733759980703
435,00:00:01.74,-0.01945407525636255
436,00:00:01.744,-0.01454523007851094
437,00:00:01.748,0.01861203240696346
438,00:00:01.752,0.03095465176738799
439,00:00:01.756,-0.023282446753000795
440,00:00:01.76,-0.032179302070289816
441,00:00:01.764,-0.0012653279118239901
442,00:00:01.768,0.00947287841700017
443,00:00:01.772,0.016228374792262912
444,00:00:01.776,0.014890900944010363
445,00:00:01.78,0.010267617413774131
446,00:00:01.784,-0.01570117834489793
447,00:00:01.788,-0.02495245402678848
448,00:00:01.792,-0.0098939873278141
449,00:00:01.796,0.02450768393464388
450,00:00:01.8,0.02190684480592611
451,00:00:01.804,-0.019250183890107984
452,00:00:01.808,-0.01570967875886712
453,00:00:01.812,0.01511291298083961
454,00:00:01.816,-0.005798686644993719
455,00:00:01.82,-0.0038025924877729215
456,00:00:01.824,0.00017809635028243022
457,00:00:01.828,0.007068509614327924
458,00:00:01.832,0.0119393594795838
459,00:00:01.836,0.012077922554453835
460,00:00:01.84,-0.018727293005213166
461,00:00:01.844,-0.02105809410568323
462,00:00:01.848,-0.009068686631508165
463,00:00:01.852,0.020571071188896888
464,00:00:01.856,0.013692886219359941
465,00:00:01.86,-0.0037829251814400808
466,00:00:01.864,-0.005299586919136344
467,00:00:01.868,0.00204095989465714
468,00:00:01.872,-0.0074278453830629605
469,00:00:01.876,0.002286716102389617
470,00:00:01.88,0.018583600874990197
471,00:00:01.884,-0.0033623834606260005
472,00:00:01.888,-0.015513600083068017
473,00:00:01.892,-0.015497315675020181
474,00:00:01.896,0.012507939809438505
475,00:00:01.9,-0.0011231447570025901
476,00:00:01.904,-0.00013220836990513601
477,00:00:01.908,0.01570096793875566
478,00:00:01.912,0.015348978631664071
479,00:00:01.916,-0.01611461804714059
480,00:00:01.92,-0.01576367858797312
481,00:00:01.924,-0.009274666022975001
482,00:00:01.928,0.01201149169355631
483,00:00:01.932,0.006564719253219669
484,00:00:01.936,0.004825465846806759
485,00:00:01.94,0.0021858811669517282
486,00:00:01.944,-0.009158228640444572
487,00:00:01.948,-0.00119238463230431
488,00:00:01.952,-0.0011063190358981993
489,00:00:01.956,0.0007794548291712995
490,00:00:01.96,0.01013456750661134
491,00:00:01.964,-0.010445525927934803
492,00:00:01.968,-0.0019426683429628604
493,00:00:01.972,0.0085556621197611
494,00:00:01.976,-0.0050104113179259
495,00:00:01.98,0.0008195953632821338
496,00:00:01.984,-0.000824956805445256
497,00:00:01.988,0.00835992209613323
498,00:00:01.992,-0.013267605158034705
499,00:00:01.996,0.00026349357358412947
500,00:00:02,0.01086779462639242
501,00:00:02.004,-0.0021603886270895496
502,00:00:02.008,0.002421137265628199
503,00:00:02.012,-0.00542646122630685
504,00:00:02.016,-1.418567262590105e-05
505,00:00:02.02,-0.01276516274083402
506,00:00:02.024,0.006677372963167717
507,00:00:02.028,0.00467957346700131
508,00:00:02.032,0.003907458565663547
509,00:00:02.036,0.00629081693477929
510,00:00:02.04,0.006395801145117728
511,00:00:02.044,-0.012650306511204686
512,00:00:02.048,-0.012527072103694076
513,00:00:02.052,-0.002336845675017689
514,00:00:02.056,0.011696650180965678
515,00:00:02.06,0.01390010758768772
516,00:00:02.064,-0.007779139559715995
517,00:00:02.068,-0.01754566724412139
518,00:00:02.072,-0.00604983163066208
519,00:00:02.076,0.02238472917815667
520,00:00:02.08,0.013154493295587617
521,00:00:02.084,-9.924272308126124e-05
522,00:00:02.088,-0.016498590761329996
523,00:00:02.092,-0.02211632498074319
524,00:00:02.096,-0.00011970364721491803
525,00:00:02.1,0.027592242287937534
526,00:00:02.104,0.012547208752948793
527,00:00:02.108,-0.00984404701739551
528,00:00:02.112,-0.013365608989261119
529,00:00:02.116,0.005239771446213111
530,00:00:02.12,-0.0030658125178888527
531,00:00:02.124,-0.01263736863620579
532,00:00:02.128,0.010529406368732449
533,00:00:02.132,0.02099711936898529
534,00:00:02.136,-0.008700370439328262
535,00:00:02.14,-0.01545456587336955
536,00:00:02.144,-0.002666149346623571
537,00:00:02.148,0.0175817989947973
538,00:00:02.152,-0.003234135336242617
539,00:00:02.156,-0.007921027718111899
540,00:00:02.16,-0.000312585150823001
541,00:00:02.164,0.002875497331842778
542,00:00:02.168,0.008997134165838359
543,00:00:02.172,-0.00890147883910685
544,00:00:02.176,-0.0013767726486548799
545,00:00:02.18,0.011932393681490799
546,00:00:02.184,-0.01023256592452527
547,00:00:02.188,-0.003402520524105052
548,00:00:02.192,0.00271214614622295
549,00:00:02.196,0.0022446249786298757
550,00:00:02.2,-0.0017121506389230503
551,00:00:02.204,-0.01129848160780966
552,00:00:02.208,9.082861652132102e-05
553,00:00:02.212,0.02973910729633644
554,00:00:02.216,0.004392285540234294
555,00:00:02.22,-0.019307708367705338
556,00:00:02.224,-0.01192767533939328
557,00:00:02.228,0.0023455845657736002
558,00:00:02.232,0.000708503241185094
559,00:00:02.236,0.0027956711419392373
560,00:00:02.24,0.005751873191911729
561,00:00:02.244,0.008954353339504449
562,00:00:02.248,-0.008839535294100637
563,00:00:02.252,-0.01178448135033251
564,00:00:02.256,0.0004658701363950985
565,00:00:02.26,0.012487475178204473
566,00:00:02.264,0.004209915525279941
567,00:00:02.268,0.002071080030873416
568,00:00:02.272,-0.00625669735018164
569,00:00:02.276,-0.008753687492571782
570,00:00:02.28,-0.003265602281317115
571,00:00:02.284,-0.004038158804178241
572,00:00:02.288,0.0020963452552677985
573,00:00:02.292,0.024859581651980947
574,00:00:02.296,0.004891805350780489
575,00:00:02.3,-0.01491164276376367
576,00:00:02.304,-0.01207638811320067
577,00:00:02.308,-0.0008707056986168057
578,00:00:02.312,-0.0022319523850455893
579,00:00:02.316,0.01030405925121159
580,00:00:02.32,0.0012171540874987793
581,00:00:02.324,0.013020330341532837
582,00:00:02.328,-0.00042722374200820836
583,00:00:02.332,-0.016957158339209827
584,00:00:02.336,-0.011466072348412123
585,00:00:02.34,0.00984716368839145
586,00:00:02.344,0.007319428113987671
587,00:00:02.348,-0.0015787500888109203
588,00:00:02.352,0.019485094991978247
589,00:00:02.356,-0.01709795743227003
590,00:00:02.36,-0.019139566546073197
591,00:00:02.364,0.001511850088718352
592,00:00:02.368,-0.0045812299940735
593,00:00:02.372,0.016622834838926792
594,00:00:02.376,0.050342582864686805
595,00:00:02.38,-0.01846058282535526
596,00:00:02.384,-0.04427288845181472
597,00:00:02.388,-0.00910788215696811
598,00:00:02.392,0.01275027135852725
599,00:00:02.396,0.006530819460749628
600,00:00:02.4,0.00727996486239135
601,00:00:02.404,-0.00047093123430385925
602,00:00:02.408,0.00358868145849556
603,00:00:02.412,-0.0014759148471057495
604,00:00:02.416,0.003570514381863178
605,00:00:02.42,-0.00993149646092207
606,00:00:02.424,-0.0119408864993602
607,00:00:02.428,0.01965367980301383
608,00:00:02.432,0.00834292732179164
609,00:00:02.436,-0.008461478631943489
610,00:00:02.44,-0.019899685925338386
611,00:00:02.444,0.005746783164795494
612,00:00:02.448,0.007490958611015225
613,00:00:02.452,-0.0013928793341619898
614,00:00:02.456,0.011224810485146014
615,00:00:02.46,0.003677577624330301
616,00:00:02.464,-0.01729260414140295
617,00:00:02.468,-1.6758887795723836e-05
618,00:00:02.472,0.012456538141122974
619,00:00:02.476,-0.002998376566893064
620,00:00:02.48,-0.012289683683775409
621,00:00:02.484,-0.0057515002554282615
622,00:00:02.488,0.01101884548552334
623,00:00:02.492,0.00941240694373846
624,00:00:02.496,0.006482985801994801
625,00:00:02.5,-0.0009043131722137401
626,00:00:02.504,-0.02033366798423233
627,00:00:02.508,-0.011243358370848
628,00:00:02.512,0.023237066401634407
629,00:00:02.516,0.006848593446193261
630,00:00:02.52,-0.014130975818261508
631,00:00:02.524,-0.01151841832324859
632,00:00:02.528,0.01095803990028799
633,00:00:02.532,0.02755082584917549
634,00:00:02.536,-0.010338902939111
635,00:00:02.54,-0.022390293743228554
636,00:00:02.544,-0.006708215223625299
637,00:00:02.548,0.007476444705389436
638,00:00:02.552,0.019815300242044028
639,00:00:02.556,-0.006617553532123571
640,00:00:02.56,-0.003877869807183751
641,00:00:02.564,0.004234028667269742
642,00:00:02.568,-0.01065398426726465
643,00:00:02.572,-0.004799398302566258
644,00:00:02.576,0.00738746658316813
645,00:00:02.58,0.004699370503658425
646,00:00:02.584,0.004046618356369431
647,00:00:02.588,-0.00018126190116163603
648,00:00:02.592,-0.0030443315627053467
649,00:00:02.596,0.011175732390256607
650,00:00:02.6,-0.015766747877933075
651,00:00:02.604,-0.019949711335357286
652,00:00:02.608,0.001470861549023539
653,00:00:02.612,0.021796277796966034
654,00:00:02.616,0.018026198536972522
655,00:00:02.62,-0.005668784186127606
656,00:00:02.624,-0.01757280989841093
657,00:00:02.628,-0.0039421999244950694
658,00:00:02.632,0.00295052188448608
659,00:00:02.636,0.012756001669913529
660,00:00:02.64,0.0012425463646650297
661,00:00:02.644,-0.011893538990989319
662,00:00:02.648,-0.010831550462171435
663,00:00:02.652,0.0073136749269906345
664,00:00:02.656,0.01300641125999388
665,00:00:02.66,-0.002039964369032524
666,00:00:02.664,-0.006454396527260542
667,00:00:02.668,0.005977029912173739
668,00:00:02.672,-0.00616304832510651
669,00:00:02.676,0.000646598241019097
670,00:00:02.68,0.01197475171647966
671,00:00:02.684,-0.015483629889786233
672,00:00:02.688,-0.004711098896223127
673,00:00:02.692,0.007393918407615275
674,00:00:02.696,-0.0023240353621076784
675,00:00:02.7,0.009035106850205917
676,00:00:02.704,-0.001943197625223549
677,00:00:02.708,0.003571917506633326
678,00:00:02.712,-0.00041090761078521317
679,00:00:02.716,-0.001827473111916333
680,00:00:02.72,-0.010314790590200568
681,00:00:02.724,-0.01025169529020787
682,00:00:02.728,0.01115279295481741
683,00:00:02.732,0.015214670915156601
684,00:00:02.736,-0.0001900372735690331
685,00:00:02.74,-0.02663821435999122
686,00:00:02.744,0.02472112444229422
687,00:00:02.748,0.024896040325984376
688,00:00:02.752,-0.02780655049718919
689,00:00:02.756,-0.028066938277334027
690,00:00:02.76,-0.002508783712983129
691,00:00:02.764,0.01944324001669886
692,00:00:02.768,0.0053911681752652485
693,00:00:02.772,0.016405682777985937
694,00:00:02.776,0.008082769578322761
695,00:00:02.78,-0.01822842052206396
696,00:00:02.784,-0.02141716703772543
697,00:00:02.788,0.002169117220546471
698,00:00:02.792,0.02233471156796442
699,00:00:02.796,0.0024885859311325406
700,00:00:02.8,-0.01491447584703565
701,00:00:02.804,-0.01379267871379852
702,00:00:02.808,0.012752993789035832
703,00:00:02.812,0.010468026390299201
704,00:00:02.816,-0.0004947243724018301
705,00:00:02.82,0.024713910883292552
706,00:00:02.824,-0.01460599084384735
707,00:00:02.828,-0.035686502000316936
708,00:00:02.832,-0.012266184610780299
709,00:00:02.836,0.02176667854655532
710,00:00:02.84,0.02042142185382543
711,00:00:02.844,0.007222150452435019
712,00:00:02.848,-0.00832328607793897
713,00:00:02.852,-0.00893562519922849
714,00:00:02.856,-0.01039108808618039
715,00:00:02.86,0.012618323802598709
716,00:00:02.864,0.007953195250593122
717,00:00:02.868,-0.007675377768464382
718,00:00:02.872,-0.002522659313399343
719,00:00:02.876,-0.0010001533009926797
720,00:00:02.88,-0.000303755878121588
721,00:00:02.884,-0.010122175182914361
722,00:00:02.888,0.00843578539206646
723,00:00:02.892,0.006755809823516758
724,00:00:02.896,0.002876341517549007
725,00:00:02.9,0.01176142180338498
726,00:00:02.904,-0.008167081745341418
727,00:00:02.908,-0.020424233051016892
728,00:00:02.912,-0.0013647965097334214
729,00:00:02.916,0.006124617211753498
730,00:00:02.92,-0.0019217741792090224
731,00:00:02.924,0.007162621302995796
732,00:00:02.928,0.008652778109535577
733,00:00:02.932,0.004297906682495516
734,00:00:02.936,-0.005426930176327011
735,00:00:02.94,-0.004902099288301539
736,00:00:02.944,-0.00820164319884498
737,00:00:02.948,-0.00428066763561219
738,00:00:02.952,0.0052919742884114445
739,00:00:02.956,0.006725004932377487
740,00:00:02.96,0.0142140965908766
741,00:00:02.964,-0.00970229913946241
742,00:00:02.968,-0.006200140807777647
743,00:00:02.972,-0.017807136275223442
744,00:00:02.976,0.006995691626798356
745,00:00:02.98,0.03732589760329574
746,00:00:02.984,-0.011816357495263222
747,00:00:02.988,-0.02908625314012169
748,00:00:02.992,0.015376504336018105
749,00:00:02.996,-0.012124089756980531
750,00:00:03,0.004522222501691429
751,00:00:03.004,0.008014747407287363
752,00:00:03.008,0.002804580995871218
753,00:00:03.012,0.00026987888850271875
754,00:00:03.016,0.00106295145815238
755,00:00:03.02,-0.001332245796220381
756,00:00:03.024,-0.00484483962645757
757,00:00:03.028,0.0016288433471345382
758,00:00:03.032,0.00692573946435005
759,00:00:03.036,-0.015262276399880651
760,00:00:03.04,0.0014849241124465999
761,00:00:03.044,-0.005159556312719364
762,00:00:03.048,0.019509635632857666
763,00:00:03.052,0.004894910918665112
764,00:00:03.056,-0.019759539747610702
765,00:00:03.06,-0.00033370364690199234
766,00:00:03.064,0.009985072334529832
767,00:00:03.068,0.013265883957501496
768,00:00:03.072,-0.009633546753320836
769,00:00:03.076,-0.023854882456362244
770,00:00:03.08,0.011156102293170989
771,00:00:03.084,0.00976021587848662
772,00:00:03.088,-0.009647717466577891
773,00:00:03.092,0.00941990641877055
774,00:00:03.096,-0.002434700727462767
775,00:00:03.1,-0.004185532103292649
776,00:00:03.104,0.014930405130144205
777,00:00:03.108,-0.0022172455210238704
778,00:00:03.112,-0.014236928080208568
779,00:00:03.116,-0.004542741422483232
780,00:00:03.12,0.0049120151670649604
781,00:00:03.124,0.009656709968112413
782,00:00:03.128,-0.007552057388238619
783,00:00:03.132,0.00024728104472160947
784,00:00:03.136,0.015097440220415589
785,00:00:03.14,-0.014074590406380547
786,00:00:03.144,-0.011857251462060982
787,00:00:03.148,0.017565887188538926
788,00:00:03.152,0.009531568037346
789,00:00:03.156,-0.00987352151423692
790,00:00:03.16,-0.020398573367856453
791,00:00:03.164,0.002303165849298241
792,00:00:03.168,0.00839767395518721
793,00:00:03.172,0.014905546918726021
794,00:00:03.176,0.013326581683941224
795,00:00:03.18,-0.01464512804523108
796,00:00:03.184,-0.025304810551460832
797,00:00:03.188,0.0022854373091831747
798,00:00:03.192,0.021467491053044793
799,00:00:03.196,-0.0030157607980072602
800,00:00:03.2,-0.001155795733211565
801,00:00:03.204,-0.0031506436644122
802,00:00:03.208,0.005018918658606704
803,00:00:03.212,-0.005181484506465499
804,00:00:03.216,-0.00141269469168037
805,00:00:03.22,-0.005614929832518104
806,00:00:03.224,0.013370330372708844
807,00:00:03.228,-0.00628521025646478
808,00:00:03.232,-0.00019160052761437157
809,00:00:03.236,0.01200549915665761
810,00:00:03.24,-0.00041554344352333935
811,00:00:03.244,-0.013981910189613702
812,00:00:03.248,-0.010153200360946331
813,00:00:03.252,-0.00525523233227433
814,00:00:03.256,0.007428839566273381
815,00:00:03.26,0.03332354885060343
816,00:00:03.264,-0.00424352136906237
817,00:00:03.268,-0.013743892748607331
818,00:00:03.272,-0.005620720185106612
819,00:00:03.276,-0.0042874189093709
820,00:00:03.28,-0.002397807937086324
821,00:00:03.284,0.002472558044246397
822,00:00:03.288,0.015169637277722331
823,00:00:03.292,-0.0017772234714357148
824,00:00:03.296,-0.012723064050078392
825,00:00:03.3,-0.009169074241071934
826,00:00:03.304,0.015793614846188533
827,00:00:03.308,0.01253288239240647
828,00:00:03.312,-0.004763468343298884
829,00:00:03.316,-0.01927540364704324
830,00:00:03.32,-0.0001502580562373619
831,00:00:03.324,0.017361229751259123
832,00:00:03.328,-0.0014487717999145467
833,00:00:03.332,-0.011764891913117031
834,00:00:03.336,0.0025519892806187302
835,00:00:03.34,0.015173056162893807
836,00:00:03.344,-0.009619491553166883
837,00:00:03.348,-0.0171189098764444
838,00:00:03.352,0.008717170043382799
839,00:00:03.356,0.0170273206895217
840,00:00:03.36,0.0025441396282985793
841,00:00:03.364,-0.012922821770189325
842,00:00:03.368,-0.006527148827444799
843,00:00:03.372,-0.006426883512176571
844,00:00:03.376,0.005016705690650271
845,00:00:03.38,0.01870772219263017
846,00:00:03.384,2.596585545687404e-06
847,00:00:03.388,-0.00476936926861527
848,00:00:03.392,-0.00410038675181572
849,00:00:03.396,-0.008303810842335219
850,00:00:03.4,-0.004886418610112746
851,00:00:03.404,-0.00559886789415036
852,00:00:03.408,0.020634670509025448
853,00:00:03.412,0.018713296209170956
854,00:00:03.416,-0.011712872743373733
855,00:00:03.42,-0.02081801736494525
856,00:00:03.424,-0.0029187360778450988
857,00:00:03.428,0.014507461455650631
858,00:00:03.432,0.0037399687571451103
859,00:00:03.436,-0.014449548907577991
860,00:00:03.44,0.01261299592442815
861,00:00:03.444,0.005722380446968599
862,00:00:03.448,-0.006700888858176763
863,00:00:03.452,-0.008342265795363343
864,00:00:03.456,-0.00193012360250578
865,00:00:03.46,-0.0049644601531326805
866,00:00:03.464,0.01057433371897787
867,00:00:03.468,0.02416485443245624
868,00:00:03.472,0.0014839202631264808
869,00:00:03.476,-0.024236207129433772
870,00:00:03.48,-0.012029693643853541
871,00:00:03.484,-0.004858212312683461
872,00:00:03.488,-0.0007268616027431559
873,00:00:03.492,0.02199561404995617
874,00:00:03.496,0.006813208223320539
875,00:00:03.5,-0.0015746985664009177
876,00:00:03.504,0.0036076684482395597
877,00:00:03.508,-0.00803308375179768
878,00:00:03.512,-0.01277407689485699
879,00:00:03.516,-3.7875375710422774e-05
880,00:00:03.52,-0.001992957200855016
881,00:00:03.524,0.0015807067975401841
882,00:00:03.528,0.010636757069732997
883,00:00:03.532,0.023549916804768183
884,00:00:03.536,-0.01136745419353247
885,00:00:03.54,-0.023256200831383512
886,00:00:03.544,-0.01175151183269918
887,00:00:03.548,0.0005384418473113361
888,00:00:03.552,0.030956360045820454
889,00:00:03.556,0.023074219701811626
890,00:00:03.56,-0.03061469964450226
891,00:00:03.564,-0.016708996277884608
892,00:00:03.568,0.0008486716978950421
893,00:00:03.572,-0.00485869124531745
894,00:00:03.576,0.02510914765298365
895,00:00:03.58,0.019655030453577648
896,00:00:03.584,-0.024428254051599742
897,00:00:03.588,-0.009906809602398432
898,00:00:03.592,0.007710122270509601
899,00:00:03.596,-0.00634425471071153
900,00:00:03.6,-0.008897109422832727
901,00:00:03.604,0.007024547667242578
902,00:00:03.608,0.01856900588609276
903,00:00:03.612,0.00651822856161744
904,00:00:03.616,-0.010028797788663757
905,00:00:03.62,-0.01479242509230971
906,00:00:03.624,-0.00294754956848919
907,00:00:03.628,4.679383710026958e-05
908,00:00:03.632,0.016028820027713706
909,00:00:03.636,0.01163096923846752
910,00:00:03.64,-0.005272085545584553
911,00:00:03.644,-0.025912978686392283
912,00:00:03.648,-0.00316763506270945
913,00:00:03.652,0.00859578218660317
914,00:00:03.656,0.01631522201932967
915,00:00:03.66,-0.00015983363846316847
916,00:00:03.664,-0.0004001654160674743
917,00:00:03.668,-0.007573553433758207
918,00:00:03.672,-0.0004438303876668193
919,00:00:03.676,-0.0038585758302360704
920,00:00:03.68,-0.0005049247265560563
921,00:00:03.684,0.006722405087202789
922,00:00:03.688,0.0034363244194537393
923,00:00:03.692,-0.005229254020377991
924,00:00:03.696,-0.0034110631095245576
925,00:00:03.7,0.0002959071935038076
926,00:00:03.704,0.00026872730813921083
927,00:00:03.708,0.010479781427420658
928,00:00:03.712,0.002970475499751043
929,00:00:03.716,-0.015121287360670978
930,00:00:03.72,0.009083104232558977
931,00:00:03.724,-0.004494307097047565
932,00:00:03.728,-0.01324854569975286
933,00:00:03.732,0.0006163625512272094
934,00:00:03.736,0.012647821946302453
935,00:00:03.74,0.012922368943691257
936,00:00:03.744,-0.0029007375414948906
937,00:00:03.748,-0.007472411904018347
938,00:00:03.752,-0.00566996983252465
939,00:00:03.756,-0.00805037631653249
940,00:00:03.76,0.011321355355903543
941,00:00:03.764,0.007580098579637709
942,00:00:03.768,-0.006725227052811501
943,00:00:03.772,-0.0074395779520273295
944,00:00:03.776,0.00989052164368331
945,00:00:03.78,-0.005510915303602815
946,00:00:03.784,-0.007455055834725498
947,00:00:03.788,0.009824756125453867
948,00:00:03.792,0.01993812643922865
949,00:00:03.796,-0.0051949699409306
950,00:00:03.8,-0.03246679902076728
951,00:00:03.804,-0.0031903316848911362
952,00:00:03.808,0.025813811458647237
953,00:00:03.812,0.00289684324525297
954,00:00:03.816,-0.004542363050859423
955,00:00:03.82,-0.004400953184813259
956,00:00:03.824,-0.010084526846185332
957,00:00:03.828,0.01672541419975462
958,00:00:03.832,0.000169732491485778
959,00:00:03.836,-0.004555487423203881
960,00:00:03.84,-0.009759937820490451
961,00:00:03.844,0.005010435357689857
962,00:00:03.848,0.012197639269288636
963,00:00:03.852,-0.00580972115858458
964,00:00:03.856,-0.006326901804641247
965,00:00:03.86,0.0024728511343710094
966,00:00:03.864,-0.001888458238681783
967,00:00:03.868,-0.002229264602647162
968,00:00:03.872,0.007907050603535023
969,00:00:03.876,0.00812045896964265
970,00:00:03.88,-0.013955237925983991
971,00:00:03.884,-0.0017733824206516199
972,00:00:03.888,0.014927858253940952
973,00:00:03.892,-0.017583924651262316
974,00:00:03.896,0.0012865096796303996
975,00:00:03.9,-0.0008081638370640601
976,00:00:03.904,0.00931192853022367
977,00:00:03.908,0.005203033499128646
978,00:00:03.912,-0.0010671174386516205
979,00:00:03.916,-0.008527866390068086
980,00:00:03.92,-0.00643083638533426
981,00:00:03.924,0.003089293895754965
982,00:00:03.928,0.00541295245056972
983,00:00:03.932,0.009792379511054607
984,00:00:03.936,-0.0011772930156439495
985,00:00:03.94,-0.008315396087709816
986,00:00:03.944,-0.00999150623101741
987,00:00:03.948,-0.00321044283919036
988,00:00:03.952,0.01585358707234264
989,00:00:03.956,0.021285680821165474
990,00:00:03.96,-0.02208197978325191
991,00:00:03.964,-0.01763876678887754
992,00:00:03.968,0.002500030910596252
993,00:00:03.972,0.007148241827962917
994,00:00:03.976,0.007447514886735016
995,00:00:03.98,0.004292952333344148
996,00:00:03.984,0.00034080064506269395
997,00:00:03.988,0.008056244718318345
998,00:00:03.992,-0.00665638665668664
999,00:00:03.996,-0.01631674997042869
1000,00:00:04,-0.00452595972456037
1001,00:00:04.004,-1.8531543901195908e-05
1002,00:00:04.008,0.008862207178026441
1003,00:00:04.012,0.010567402117885651
1004,00:00:04.016,0.00590540876146406
1005,00:00:04.02,-0.0025054738143808273
1006,00:00:04.024,-0.00890732160769403
1007,00:00:04.028,-0.01455362339038399
1008,00:00:04.032,0.010840938542969528
1009,00:00:04.036,0.007083396892994635
1010,00:00:04.04,0.0050862953648902415
1011,00:00:04.044,-0.015062123013194647
1012,00:00:04.048,-0.002893773780670015
1013,00:00:04.052,0.00825434771832079
1014,00:00:04.056,0.0014797801559325373
1015,00:00:04.06,0.00415386119857431
1016,00:00:04.064,0.00431977724656463
1017,00:00:04.068,-0.009109910955885385
1018,00:00:04.072,-0.01318261330015962
1019,00:00:04.076,-0.005315931397490198
1020,00:00:04.08,0.03060299204662439
1021,00:00:04.084,0.0031651990429963864
1022,00:00:04.088,-0.01494003937114031
1023,00:00:04.092,-0.0034845885820686795
1024,00:00:04.096,0.00221905263606459
1025,00:00:04.1,-0.007370459032244974
1026,00:00:04.104,0.0008140015561366428
1027,00:00:04.108,0.01536155282519753
1028,00:00:04.112,-0.0030769763980060803
1029,00:00:04.116,-0.018457638449035592
1030,00:00:04.12,0.012983382330276102
1031,00:00:04.124,0.0187957031885162
1032,00:00:04.128,-0.013978861505165729
1033,00:00:04.132,-0.00914705626200885
1034,00:00:04.136,-0.009054786642082039
1035,00:00:04.14,0.0035685051116161087
1036,00:00:04.144,0.0020641685696318663
1037,00:00:04.148,0.012533274129964408
1038,00:00:04.152,0.019628482870757594
1039,00:00:04.156,-0.012868233257904649
1040,00:00:04.16,-0.013536142192606345
1041,00:00:04.164,0.00137776311021298
1042,00:00:04.168,-0.00980979669839145
1043,00:00:04.172,-0.0024676857283338805
1044,00:00:04.176,0.00757009454537183
1045,00:00:04.18,-0.00026018964126706286
1046,00:00:04.184,0.009794840996619317
1047,00:00:04.188,0.01018477068282664
1048,00:00:04.192,0.005773576092906291
1049,00:00:04.196,-0.007536582677857957
1050,00:00:04.2,-0.021468188613653173
1051,00:00:04.204,-0.018615102453622995
1052,00:00:04.208,0.01758510828949516
1053,00:00:04.212,0.00883397221332416
1054,00:00:04.216,0.007181686320109295
1055,00:00:04.22,0.004272290563676503
1056,00:00:04.224,-0.00818247522693127
1057,00:00:04.228,-0.003567369829397651
1058,00:00:04.232,0.0018569848616607416
1059,00:00:04.236,0.0054850752203492404
1060,00:00:04.24,-0.00220146600622683
1061,00:00:04.244,-0.01268907345365734
1062,00:00:04.248,0.0007916274480521701
1063,00:00:04.252,-0.00028625343111344506
1064,00:00:04.256,0.029832684434950338
1065,00:00:04.26,-0.004574092869006562
1066,00:00:04.264,-0.02312758145853875
1067,00:00:04.268,-0.013494162703864302
1068,00:00:04.272,0.009523111162707239
1069,00:00:04.276,0.018563705147244036
1070,00:00:04.28,0.0005186739726923461
1071,00:00:04.284,-0.007293494258192373
1072,00:00:04.288,-0.0067758286022581975
1073,00:00:04.292,0.009969512349925928
1074,00:00:04.296,0.01051986031234263
1075,00:00:04.3,-0.023987721418961886
1076,00:00:04.304,-0.010000149835832419
1077,00:00:04.308,0.011932336085010313
1078,00:00:04.312,0.01647871476598083
1079,00:00:04.316,0.009188094059936702
1080,00:00:04.32,-0.01748249214142561
1081,00:00:04.324,-0.014426063629798598
1082,00:00:04.328,0.005592152301687751
1083,00:00:04.332,0.00860529881902039
1084,00:00:04.336,0.00872098258696493
1085,00:00:04.34,0.0020627181511372315
1086,00:00:04.344,-0.02244640723802148
1087,00:00:04.348,0.007806798093952192
1088,00:00:04.352,0.00590395042672754
1089,00:00:04.356,-0.00351317669264972
1090,00:00:04.36,-0.006930295028723769
1091,00:00:04.364,0.004169139327132145
1092,00:00:04.368,0.005323196994140741
1093,00:00:04.372,0.0003412060905247892
1094,00:00:04.376,0.009599884389899678
1095,00:00:04.38,-0.012636245844987602
1096,00:00:04.384,-0.006634903140366079
1097,00:00:04.388,0.0109214192489162
1098,00:00:04.392,-0.005620693438686431
1099,00:00:04.396,0.0001324804616160641
1100,00:00:04.4,-0.004866830044193187
1101,00:00:04.404,0.00263283320236951
1102,00:00:04.408,0.00482163566630334
1103,00:00:04.412,0.00950517260935158
1104,00:00:04.416,0.002911930350819607
1105,00:00:04.42,-0.018494661198928963
1106,00:00:04.424,-0.009460072498768572
1107,00:00:04.428,0.021939341124380052
1108,00:00:04.432,-0.0043850444490089995
1109,00:00:04.436,-0.010765038779936727
1110,00:00:04.44,0.00028562790248543284
1111,00:00:04.444,0.02031929290387783
1112,00:00:04.448,-0.0082652987257461
1113,00:00:04.452,-0.0049704076955095
1114,00:00:04.456,0.0022205498535186
1115,00:00:04.46,-0.005818671837914735
1116,00:00:04.464,-0.00012736103963107977
1117,00:00:04.468,0.00454469549003989
1118,00:00:04.472,-0.0015286022680811588
1119,00:00:04.476,0.0016196978103835077
1120,00:00:04.48,0.0014027418801560896
1121,00:00:04.484,-0.0019042554195038935
1122,00:00:04.488,0.00743906653951852
1123,00:00:04.492,0.000947636712226081
1124,00:00:04.496,-0.009283153340220441
1125,00:00:04.5,-0.014689531875774259
1126,00:00:04.504,0.0012999626924283833
1127,00:00:04.508,0.01195061154430734
1128,00:00:04.512,0.013889835099689659
1129,00:00:04.516,-0.005137585481861611
1130,00:00:04.52,5.86914829909795e-05
1131,00:00:04.524,0.0043463939800858515
1132,00:00:04.528,0.000870379059051627
1133,00:00:04.532,-0.013802923669572972
1134,00:00:04.536,-0.020256488642189638
1135,00:00:04.54,0.0006436596158891953
1136,00:00:04.544,0.011105770594440399
1137,00:00:04.548,0.01791051239706576
1138,00:00:04.552,0.02355593116953968
1139,00:00:04.556,-0.01764623424969612
1140,00:00:04.56,-0.0213127892930061
1141,00:00:04.564,0.0007646441808901698
1142,00:00:04.568,0.0031531042186543367
1143,00:00:04.572,0.01353176031261682
1144,00:00:04.576,-0.014123999862931657
1145,00:00:04.58,-0.001668989367317404
1146,00:00:04.584,0.00993364118039608
1147,00:00:04.588,-0.00809313321951776
1148,00:00:04.592,0.003044441611564252
1149,00:00:04.596,7.336909766309224e-05
1150,00:00:04.6,-0.006870041484944521
1151,00:00:04.604,0.028679935203399506
1152,00:00:04.608,0.008784094374277632
1153,00:00:04.612,-0.03398671885952357
1154,00:00:04.616,-0.020936065586283862
1155,00:00:04.62,0.01242845598608256
1156,00:00:04.624,0.009283728795708207
1157,00:00:04.628,0.007053950290355718
1158,00:00:04.632,0.007756254984997213
1159,00:00:04.636,0.00022026302758604028
1160,00:00:04.64,-0.01368892934988257
1161,00:00:04.644,-0.00047249742783605966
1162,00:00:04.648,0.004713187750894576
1163,00:00:04.652,0.0018607182428240793
1164,00:00:04.656,-0.0034363290760666106
1165,00:00:04.66,-0.0004886581700702672
1166,00:00:04.664,-0.008367178816115487
1167,00:00:04.668,0.0015847737668082062
1168,00:00:04.672,0.01457538688555364
1169,00:00:04.676,0.003848626976832722
1170,00:00:04.68,-0.00831632433983031
1171,00:00:04.684,-0.00254888250492513
1172,00:00:04.688,0.004960452904924749
1173,00:00:04.692,-0.014991933014243806
1174,00:00:04.696,-0.0075322623597458005
1175,00:00:04.7,0.0163997770869173
1176,00:00:04.704,0.014324750925879924
1177,00:00:04.708,-0.002705742415855634
1178,00:00:04.712,-0.009798736253287673
1179,00:00:04.716,-0.0018879997078329299
1180,00:00:04.72,-0.0085055910749361
1181,00:00:04.724,0.0036532098893076225
1182,00:00:04.728,0.022961753420531784
1183,00:00:04.732,-0.0076157914008945105
1184,00:00:04.736,-0.020699859654996565
1185,00:00:04.74,-0.006738136129570195
1186,00:00:04.744,0.011188262084033338
1187,00:00:04.748,0.013907297980040308
1188,00:00:04.752,0.01156218349933625
1189,00:00:04.756,-0.0088951571378857
1190,00:00:04.76,-0.01142549305222929
1191,00:00:04.764,-0.012260236544534554
1192,00:00:04.768,-9.82617930276291e-05
1193,00:00:04.772,0.02914146846160288
1194,00:00:04.776,-0.00218444643542171
1195,00:00:04.78,-0.019245358649641272
1196,00:00:04.784,-0.0022055240115150866
1197,00:00:04.788,0.00047211570199579705
1198,00:00:04.792,0.01516785279090983
1199,00:00:04.796,0.004023630594019785
1200,00:00:04.8,-0.012806783735868521
1201,00:00:04.804,-0.009383570613863416
1202,00:00:04.808,0.00759280798956752
1203,00:00:04.812,0.0015274226898327522
1204,00:00:04.816,0.012549684528494255
1205,00:00:04.82,0.007236498408019535
1206,00:00:04.824,-0.014322672504931681
1207,00:00:04.828,-0.0164420877117664
1208,00:00:04.832,-0.0032910224981606002
1209,00:00:04.836,0.011381949298083782
1210,00:00:04.84,0.018397159175947298
1211,00:00:04.844,-0.00859774427954107
1212,00:00:04.848,-0.006867886404506831
1213,00:00:04.852,0.0022082703653723
1214,00:00:04.856,0.0017954756040126083
1215,00:00:04.86,-0.010858211840968586
1216,00:00:04.864,0.01444746038760054
1217,00:00:04.868,0.0008879514643922426
1218,00:00:04.872,-0.006537441018736008
1219,00:00:04.876,-0.002292590099386871
1220,00:00:04.88,-0.01254526735283434
1221,00:00:04.884,0.01480831508524716
1222,00:00:04.888,0.0006115142969065339
1223,00:00:04.892,0.00598044914659112
1224,00:00:04.896,0.0036048335023224323
1225,00:00:04.9,-0.00302629960060585
1226,00:00:04.904,-0.00823956972453743
1227,00:00:04.908,-0.00304370257072152
1228,00:00:04.912,-0.00012910779332742095
1229,00:00:04.916,-0.004858640255406499
1230,00:00:04.92,0.0014435315970331396
1231,00:00:04.924,0.01220527617260813
1232,00:00:04.928,0.004027497583592778
1233,00:00:04.932,-0.010384552413597712
1234,00:00:04.936,0.005579719319939619
1235,00:00:04.94,0.00926608603913337
1236,00:00:04.944,-0.00617901631630956
1237,00:00:04.948,-0.02814153209328656
1238,00:00:04.952,0.012145365384640134
1239,00:00:04.956,0.016684026049915687
1240,00:00:04.96,0.0009798094397410694
1241,00:00:04.964,-0.011361086973920416
1242,00:00:04.968,-0.011545874502189735
1243,00:00:04.972,0.018677435582503673
1244,00:00:04.976,0.00691402098163959
1245,00:00:04.98,-0.00286574568599462
1246,00:00:04.984,-0.010773103917017579
1247,00:00:04.988,-0.007611792767420411
1248,00:00:04.992,0.005248632107395675
1249,00:00:04.996,0.01256706030108035
1250,00:00:05,-0.007143734110286465
1251,00:00:05.004,0.0005425241542980103
1252,00:00:05.008,0.00265255942940712
1253,00:00:05.012,-0.019416346680373
1254,00:00:05.016,0.008601888053817671
1255,00:00:05.02,0.026323928497731696
1256,00:00:05.024,-0.004447590414201839
1257,00:00:05.028,-0.021321099717169948
1258,00:00:05.032,-0.01186677254736423
1259,00:00:05.036,0.0183936335379258
1260,00:00:05.04,0.006072620104532685
1261,00:00:05.044,0.0011454519117251004
1262,00:00:05.048,-0.009489827090874321
1263,00:00:05.052,0.0015385834267362996
1264,00:00:05.056,0.002044435124844307
1265,00:00:05.06,-0.00622198509518057
1266,00:00:05.064,0.00047344143968075384
1267,00:00:05.068,0.011750625446438779
1268,00:00:05.072,-0.0026973979838658124
1269,00:00:05.076,-0.01144725698395632
1270,00:00:05.08,0.0010302420705556872
1271,00:00:05.084,0.009156954940408463
1272,00:00:05.088,0.0020306388178141822
1273,00:00:05.092,-0.00831633328925818
1274,00:00:05.096,0.011163328017573807
1275,00:00:05.1,-0.00710029108449816
1276,00:00:05.104,-0.010742388520156961
1277,00:00:05.108,0.00920541514642537
1278,00:00:05.112,0.004630818963050842
1279,00:00:05.116,-0.004560060333460581
1280,00:00:05.12,-0.0009494107362115747
1281,00:00:05.124,0.0005619288422167301
1282,00:00:05.128,-0.0033538798743393263
1283,00:00:05.132,0.0023314910940825904
1284,00:00:05.136,0.00944185839034616
1285,00:00:05.14,-0.006333676399663086
1286,00:00:05.144,-0.0094158387510106
1287,00:00:05.148,0.013989053491968651
1288,00:00:05.152,0.0065855538123287295
1289,00:00:05.156,-0.016732551157474518
1290,00:00:05.16,-0.0010060942149721034
1291,00:00:05.164,0.005082469317130736
1292,00:00:05.168,-0.00584705406799913
1293,00:00:05.172,0.0029118291568011097
1294,00:00:05.176,0.004236568755004556
1295,00:00:05.18,0.0001467487309127994
1296,00:00:05.184,-0.002378197328653189
1297,00:00:05.188,-0.002210337599535709
1298,00:00:05.192,0.018091453210217826
1299,00:00:05.196,-0.006417868527933024
1300,00:00:05.2,-0.010519166418816901
1301,00:00:05.204,-0.009810992516577258
1302,00:00:05.208,0.008479608986817764
1303,00:00:05.212,-0.0030828719027340508
1304,00:00:05.216,-0.0033145449706353295
1305,00:00:05.22,0.027572996914386777
1306,00:00:05.224,-0.0011413109386921845
1307,00:00:05.228,-0.026247968664392787
1308,00:00:05.232,0.003559001837857063
1309,00:00:05.236,0.01166971691418439
1310,00:00:05.24,-0.00718946271808818
1311,00:00:05.244,0.0032335596624761902
1312,00:00:05.248,-0.0026094412896782203
1313,00:00:05.252,-0.006008010881487282
1314,00:00:05.256,0.00427915249019862
1315,00:00:05.26,0.002832874772138896
1316,00:00:05.264,0.003943169343983758
1317,00:00:05.268,0.00492315995506942
1318,00:00:05.272,-0.010055284248664972
1319,00:00:05.276,-0.00827032187953591
1320,00:00:05.28,0.013214750913903159
1321,00:00:05.284,0.006800110742915393
1322,00:00:05.288,-0.01763215381652116
1323,00:00:05.292,0.004302430948882835
1324,00:00:05.296,-0.00495044246781618
1325,00:00:05.3,0.00253209623042495
1326,00:00:05.304,0.00961369648575783
1327,00:00:05.308,0.006437538657337427
1328,00:00:05.312,-0.00396243648719974
1329,00:00:05.316,-0.006557148939464239
1330,00:00:05.32,0.0017889372538775206
1331,00:00:05.324,-0.011040335171856028
1332,00:00:05.328,-0.005609247193206096
1333,00:00:05.332,0.006955605014809409
1334,00:00:05.336,0.019856449565850188
1335,00:00:05.34,0.0062459988403134005
1336,00:00:05.344,-0.01759608069551175
1337,00:00:05.348,-0.010093373362906284
1338,00:00:05.352,0.0036265032831579373
1339,00:00:05.356,-0.00725403381511569
1340,00:00:05.36,0.012321056836299258
1341,00:00:05.364,0.015780251007527113
1342,00:00:05.368,-0.0048250653780996505
1343,00:00:05.372,-0.00759397685760628
1344,00:00:05.376,-0.010474533657543361
1345,00:00:05.38,-0.0008681035833433294
1346,00:00:05.384,-0.002323295921087261
1347,00:00:05.388,0.01247769920155407
1348,00:00:05.392,0.003553185364580715
1349,00:00:05.396,0.0012755714124068692
1350,00:00:05.4,-8.968677138909567e-05
1351,00:00:05.404,-0.009699081070721146
1352,00:00:05.408,-0.0046417345074587476
1353,00:00:05.412,0.012268942082300751
1354,00:00:05.416,0.0032700006267987127
1355,00:00:05.42,-0.009950086823664606
1356,00:00:05.424,-0.007890291555668227
1357,00:00:05.428,0.0031064918730408014
1358,00:00:05.432,0.006452265992265891
1359,00:00:05.436,0.006783411459764462
1360,00:00:05.44,-0.006973621551878757
1361,00:00:05.444,0.015225163355353288
1362,00:00:05.448,-0.001329679038462932
1363,00:00:05.452,-0.01843286398798227
1364,00:00:05.456,-0.01417461363598704
1365,00:00:05.46,0.003944702300941573
1366,00:00:05.464,0.009560493635945015
1367,00:00:05.468,0.020261079189367596
1368,00:00:05.472,0.008089528419077402
1369,00:00:05.476,-0.013784943323116751
1370,00:00:05.48,-0.01401158352382482
1371,00:00:05.484,-0.007953886233735833
1372,00:00:05.488,0.001814065901271539
1373,00:00:05.492,0.009217265411280096
1374,00:00:05.496,0.0007821961771696797
1375,00:00:05.5,0.0057748097460717015
1376,00:00:05.504,0.01113419514149427
1377,00:00:05.508,-0.013339807075681127
1378,00:00:05.512,0.00017482475959695886
1379,00:00:05.516,-0.01071279344614595
1380,00:00:05.52,0.007345819030888389
1381,00:00:05.524,0.0013829350937157978
1382,00:00:05.528,-0.0004197477246634658
1383,00:00:05.532,0.00375145277939737
1384,00:00:05.536,-0.00388237694278359
1385,00:00:05.54,-0.00706942740362138
1386,00:00:05.544,0.003963206429034471
1387,00:00:05.548,0.005152182187885042
1388,00:00:05.552,0.004461497883312404
1389,00:00:05.556,-0.00669732643291354
1390,00:00:05.56,0.0002555216196924398
1391,00:00:05.564,-0.003011158085428181
1392,00:00:05.568,0.010367172653786831
1393,00:00:05.572,-0.0032728873193264003
1394,00:00:05.576,-0.009505955560598522
1395,00:00:05.58,-0.0028600129298865904
1396,00:00:05.584,0.007723503164015711
1397,00:00:05.588,0.007854112656787041
1398,00:00:05.592,0.002953029550553768
1399,00:00:05.596,-0.010299955261871226
1400,00:00:05.6,-0.017257329076528553
1401,00:00:05.604,0.013957736111478889
1402,00:00:05.608,0.01041170745156706
1403,00:00:05.612,0.0063071900513023095
1404,00:00:05.616,-0.0013660889526363467
1405,00:00:05.62,-0.020560889854095873
1406,00:00:05.624,-0.0028243260458111798
1407,00:00:05.628,0.009426202159374947
1408,00:00:05.632,-0.0017762877978384503
1409,00:00:05.636,0.0023316029109992087
1410,00:00:05.64,0.0033402529661543737
1411,00:00:05.644,0.00821987725794315
1412,00:00:05.648,0.0002890881733037498
1413,00:00:05.652,-0.010164786130189897
1414,00:00:05.656,-0.01121066231280565
1415,00:00:05.66,-0.00509871169924735
1416,00:00:05.664,0.012590959231602025
1417,00:00:05.668,0.015294148819521059
1418,00:00:05.672,0.007701181515585629
1419,00:00:05.676,-0.01432509208098054
1420,00:00:05.68,-0.01038502482697368
1421,00:00:05.684,-0.013710696133784993
1422,00:00:05.688,0.005804587155580519
1423,00:00:05.692,0.03713027178309862
1424,00:00:05.696,-0.0062670311308465915
1425,00:00:05.7,-0.02920902729965751
1426,00:00:05.704,0.004908122355118387
1427,00:00:05.708,0.0042389074806124
1428,00:00:05.712,-0.007855359115637844
1429,00:00:05.716,0.010773678543046106
1430,00:00:05.72,0.00391876546200365
1431,00:00:05.724,0.00431342155206949
1432,00:00:05.728,-0.003448237897828219
1433,00:00:05.732,-0.005057118483819069
1434,00:00:05.736,-0.005300653603626419
1435,00:00:05.74,-0.004809737612959001
1436,00:00:05.744,0.0150896201375872
1437,00:00:05.748,0.003074011765420439
1438,00:00:05.752,-0.01210571639239789
1439,00:00:05.756,0.0006631334690609956
1440,00:00:05.76,0.005390692993387345
1441,00:00:05.764,-5.586596671492078e-05
1442,00:00:05.768,0.004524694173596799
1443,00:00:05.772,-0.013483314076438541
1444,00:00:05.776,-0.00349375291261822
1445,00:00:05.78,0.008769768290221677
1446,00:00:05.784,0.00494987424463034
1447,00:00:05.788,0.00755956443026661
1448,00:00:05.792,-0.00291599612683058
1449,00:00:05.796,-0.0047233595978468604
1450,00:00:05.8,-0.00734468339942396
1451,00:00:05.804,-0.00962243764661249
1452,00:00:05.808,-0.0011918667150894178
1453,00:00:05.812,0.014307817233202468
1454,00:00:05.816,0.016638277098536512
1455,00:00:05.82,-0.0043903240002691815
1456,00:00:05.824,-0.00960328453220426
1457,00:00:05.828,-0.008754014343139712
1458,00:00:05.832,-0.003794812088017352
1459,00:00:05.836,0.007641211443115022
1460,00:00:05.84,0.004601846216246485
1461,00:00:05.844,0.010142686927792965
1462,00:00:05.848,-0.00820603163447231
1463,00:00:05.852,-0.01006180327385664
1464,00:00:05.856,0.0018332751933485204
1465,00:00:05.86,0.004151733402977696
1466,00:00:05.864,0.002487268298864363
1467,00:00:05.868,0.004359238140750683
1468,00:00:05.872,-0.003023397788638248
1469,00:00:05.876,-0.01074668134970125
1470,00:00:05.88,-0.000907000736333432
1471,00:00:05.884,0.0025408541550859818
1472,00:00:05.888,0.01131934323348107
1473,00:00:05.892,0.004681775368226224
1474,00:00:05.896,0.009531840449199105
1475,00:00:05.9,-0.022091326944064384
1476,00:00:05.904,-0.025346443711896385
1477,00:00:05.908,-0.0002388848224654719
1478,00:00:05.912,0.04841089274850677
1479,00:00:05.916,0.0038018951454432647
1480,00:00:05.92,-0.020102145414057315
1481,00:00:05.924,-0.010269333026371884
1482,00:00:05.928,-0.0019422913028392917
1483,00:00:05.932,-0.0012940291780978398
1484,00:00:05.936,0.00591742875985801
1485,00:00:05.94,0.006033983576344328
1486,00:00:05.944,0.000704607678926552
1487,00:00:05.948,0.00966090243309736
1488,00:00:05.952,0.0016758276615291797
1489,00:00:05.956,-0.016679582360666252
1490,00:00:05.96,-0.015256135702657029
1491,00:00:05.964,0.00366026442497969
1492,00:00:05.968,0.0036427337036002445
1493,00:00:05.972,0.02211640193127093
1494,00:00:05.976,-0.0001245080493390699
1495,00:00:05.98,-0.0137111248914152
1496,00:00:05.984,0.0014232802204787705
1497,00:00:05.988,-0.0018264694372192004
1498,00:00:05.992,0.01406225468963386
1499,00:00:05.996,-0.01265480148140342
1500,00:00:06,-0.020225734013365596
1501,00:00:06.004,0.009726761782076217
1502,00:00:06.008,0.03296768909785894
1503,00:00:06.012,-0.006058390485122801
1504,00:00:06.016,-0.025491412336123176
1505,00:00:06.02,-0.006164912265376189
1506,00:00:06.024,0.010709549969760708
1507,00:00:06.028,0.016219887707848123
1508,00:00:06.032,-0.008724706625798722
1509,00:00:06.036,-0.0032655631202942468
1510,00:00:06.04,0.006130266374384517
1511,00:00:06.044,-0.0007696313987253232
1512,00:00:06.048,-0.001818698561692146
1513,00:00:06.052,-0.005384459582728593
1514,00:00:06.056,-0.01116505544632673
1515,00:00:06.06,0.004406919098983055
1516,00:00:06.064,0.02146566356532278
1517,00:00:06.068,-0.007461659843102089
1518,00:00:06.072,-0.00630982825532555
1519,00:00:06.076,0.002502587041817599
1520,00:00:06.08,-0.0022961766808293742
1521,00:00:06.084,0.001263247759197846
1522,00:00:06.088,0.005454143625684076
1523,00:00:06.092,-0.00573523447383196
1524,00:00:06.096,-0.00389637233456596
1525,00:00:06.1,-0.00784750136517687
1526,00:00:06.104,0.02118407710804602
1527,00:00:06.108,0.0036588184011634418
1528,00:00:06.112,-0.008088029833743352
1529,00:00:06.116,-0.007773384626489134
1530,00:00:06.12,-0.005104832791403166
1531,00:00:06.124,0.001201560546178366
1532,00:00:06.128,0.01099766905826982
1533,00:00:06.132,-0.0013380866075749542
1534,00:00:06.136,-0.0047776837392348144
1535,00:00:06.14,0.001124679751228541
1536,00:00:06.144,0.014835445792414248
1537,00:00:06.148,0.0019218035158701282
1538,00:00:06.152,-0.028105317513109202
1539,00:00:06.156,-0.00813499622745439
1540,00:00:06.16,0.018044203054159883
1541,00:00:06.164,0.00686720560770482
1542,00:00:06.168,-0.0010732251685112697
1543,00:00:06.172,-0.00380814168602228
1544,00:00:06.176,0.0013247362803667797
1545,00:00:06.18,0.00175601115915925
1546,00:00:06.184,0.008697705401573328
1547,00:00:06.188,-0.004637674861442058
1548,00:00:06.192,-0.00978910888079554
1549,00:00:06.196,-0.013239278574474161
1550,00:00:06.2,0.00066660530865192
1551,00:00:06.204,0.027003808412700878
1552,00:00:06.208,0.011804339475929739
1553,00:00:06.212,-0.012911444675410211
1554,00:00:06.216,-0.01884460123255852
1555,00:00:06.22,-0.009140766225755218
1556,00:00:06.224,0.004326983122155069
1557,00:00:06.228,0.014729901769896966
1558,00:00:06.232,0.02168421098031107
1559,00:00:06.236,-0.015486265532672412
1560,00:00:06.24,-0.015037016040878369
1561,00:00:06.244,0.0023686852073296905
1562,00:00:06.248,0.0030440388363786033
1563,00:00:06.252,0.00252536241896451
1564,00:00:06.256,-0.0028274296782910906
1565,00:00:06.26,0.014460580074228369
1566,00:00:06.264,-0.00511199701577425
1567,00:00:06.268,-0.01266437582671642
1568,00:00:06.272,-0.006915366713656119
1569,00:00:06.276,0.00533143384382129
1570,00:00:06.28,0.01026998297311366
1571,00:00:06.284,0.0074744179146364305
1572,00:00:06.288,-0.004749740000988825
1573,00:00:06.292,-0.00578312156721949
1574,00:00:06.296,-0.00690530915744603
1575,00:00:06.3,0.010487867519259411
1576,00:00:06.304,0.01577143860049547
1577,00:00:06.308,-0.020712653873488304
1578,00:00:06.312,-0.02292006486095492
1579,00:00:06.316,0.010461197933182119
1580,00:00:06.32,0.02460151317063719
1581,00:00:06.324,0.01592021202668544
1582,00:00:06.328,-0.01602690271101892
1583,00:00:06.332,-0.02352157654240729
1584,00:00:06.336,-0.011522074695676558
1585,00:00:06.34,0.01961392979137602
1586,00:00:06.344,0.01189200067892672
1587,00:00:06.348,-0.001076896674931044
1588,00:00:06.352,0.003134432299702887
1589,00:00:06.356,0.0005955101514700801
1590,00:00:06.36,-0.01111322734504938
1591,00:00:06.364,-0.010887870332226154
1592,00:00:06.368,0.012749190791510039
1593,00:00:06.372,0.004182173637673249
1594,00:00:06.376,-0.009515564306639138
1595,00:00:06.38,0.002896918376791292
1596,00:00:06.384,0.004295342136174451
1597,00:00:06.388,-0.0045330165885388825
1598,00:00:06.392,0.0174598737503402
1599,00:00:06.396,-0.006877336418256158
1600,00:00:06.4,-0.02337213745340702
1601,00:00:06.404,0.001883005548734214
1602,00:00:06.408,0.010162457358092061
1603,00:00:06.412,0.02902787103084843
1604,00:00:06.416,-0.01490314281545579
1605,00:00:06.42,-0.024392587249167298
1606,00:00:06.424,0.0009328914748039116
1607,00:00:06.428,0.0022927036043256504
1608,00:00:06.432,0.012840035604313021
1609,00:00:06.436,-0.0009643782395869498
1610,00:00:06.44,0.003032176449778491
1611,00:00:06.444,0.005277247662888838
1612,00:00:06.448,0.004855695297010231
1613,00:00:06.452,-0.01803149213083088
1614,00:00:06.456,-0.00478487811051309
1615,00:00:06.46,-0.0025477175367996105
1616,00:00:06.464,0.005452266341308127
1617,00:00:06.468,-3.91963112633645e-05
1618,00:00:06.472,0.007196464575827129
1619,00:00:06.476,0.01111183094326403
1620,00:00:06.48,0.00045532651711255545
1621,00:00:06.484,-0.028427421581000072
1622,00:00:06.488,0.0067993438569828885
1623,00:00:06.492,0.03611709456890817
1624,00:00:06.496,-0.023116967873647854
1625,00:00:06.5,-0.025929572322638664
1626,00:00:06.504,0.002296153164934366
1627,00:00:06.508,0.010934560814348496
1628,00:00:06.512,0.02168280094338116
1629,00:00:06.516,0.0004259308334440006
1630,00:00:06.52,-0.00797574047464877
1631,00:00:06.524,-0.01197521993890405
1632,00:00:06.528,-0.008210757499909963
1633,00:00:06.532,0.017622310086153496
1634,00:00:06.536,0.009687787911389027
1635,00:00:06.54,-0.015383843739982698
1636,00:00:06.544,-0.0033487188629806102
1637,00:00:06.548,0.00182447955012322
1638,00:00:06.552,0.004895367874269141
1639,00:00:06.556,0.001921370625495909
1640,00:00:06.56,-0.005287765641696749
1641,00:00:06.564,0.0016745771863497763
1642,00:00:06.568,0.001573179150000211
1643,00:00:06.572,-0.008403647458180789
1644,00:00:06.576,-0.013953336980193848
1645,00:00:06.58,0.02734600345138465
1646,00:00:06.584,0.04171948583098129
1647,00:00:06.588,-0.032840380095876746
1648,00:00:06.592,-0.04199479648377742
1649,00:00:06.596,-0.004798054433194922
1650,00:00:06.6,0.01764580983581249
1651,00:00:06.604,0.022675949905533368
1652,00:00:06.608,0.009497878665570168
1653,00:00:06.612,-0.009946015314199034
1654,00:00:06.616,-0.00584122724831104
1655,00:00:06.62,-0.0016558560309931597
1656,00:00:06.624,-0.0037421864763018606
1657,00:00:06.628,-0.007876456365920602
1658,00:00:06.632,0.01098958018701527
1659,00:00:06.636,0.0031710557814221834
1660,00:00:06.64,-0.0007329395739361668
1661,00:00:06.644,0.0043698906083591334
1662,00:00:06.648,-0.009422575356438749
1663,00:00:06.652,-0.00550702679902316
1664,00:00:06.656,-0.0007894106674939398
1665,00:00:06.66,0.00265348854009062
1666,00:00:06.664,0.007972731254994871
1667,00:00:06.668,0.01570320944301784
1668,00:00:06.672,-0.0010953409946523611
1669,00:00:06.676,-0.01074640778824686
1670,00:00:06.68,-0.014985880814492699
1671,00:00:06.684,-0.011753490078262971
1672,00:00:06.688,0.02017016382887959
1673,00:00:06.692,-0.0033926422474905783
1674,00:00:06.696,0.0047244168817996805
1675,00:00:06.7,0.0021189450053498097
1676,00:00:06.704,0.00485897192265838
1677,00:00:06.708,-0.0022609099978581097
1678,00:00:06.712,-0.010468809632584447
1679,00:00:06.716,-0.0033784161350922715
1680,00:00:06.72,0.014103674708167091
1681,00:00:06.724,0.008536699169781056
1682,00:00:06.728,-0.005602723627816891
1683,00:00:06.732,-0.01987076993100345
1684,00:00:06.736,-0.002728317922446878
1685,00:00:06.74,0.006819095695391294
1686,00:00:06.744,0.01041060290299356
1687,00:00:06.748,0.005096006090752779
1688,00:00:06.752,-0.003040665993466976
1689,00:00:06.756,-0.0021391672780737255
1690,00:00:06.76,-0.014847180689685036
1691,00:00:06.764,0.011992411549726932
1692,00:00:06.768,0.025727791129611384
1693,00:00:06.772,-0.02846505632624033
1694,00:00:06.776,-0.009247350040823218
1695,00:00:06.78,0.01051999581977725
1696,00:00:06.784,-0.007837110148102512
1697,00:00:06.788,0.002599325787741693
1698,00:00:06.792,0.004298327956348654
1699,00:00:06.796,0.01518194301752377
1700,00:00:06.8,-0.00281308824196457
1701,00:00:06.804,-0.00994550110772252
1702,00:00:06.808,0.0002733043972966689
1703,00:00:06.812,-0.01023228373378516
1704,00:00:06.816,0.006413802271708841
1705,00:00:06.82,0.0044462315854616385
1706,00:00:06.824,0.0037831109075341365
1707,00:00:06.828,-0.002377009892370556
1708,00:00:06.832,-0.005050839856266974
1709,00:00:06.836,-0.0015178176108747701
1710,00:00:06.84,0.0017596643883734994
1711,00:00:06.844,0.008988349989522245
1712,00:00:06.848,-0.004033756791614
1713,00:00:06.852,-0.01078596303705126
1714,00:00:06.856,0.008742773556150512
1715,00:00:06.86,0.00644918263424188
1716,00:00:06.864,-0.002496923902072021
1717,00:00:06.868,0.005798760481411599
1718,00:00:06.872,-0.0149164650356397
1719,00:00:06.876,-0.01290111476555467
1720,00:00:06.88,0.00798811309505253
1721,00:00:06.884,0.0069312762934714495
1722,00:00:06.888,0.005885920953005548
1723,00:00:06.892,0.013467153650708491
1724,00:00:06.896,-0.005868267035111785
1725,00:00:06.9,-0.008222116215620192
1726,00:00:06.904,-0.012878113950137068
1727,00:00:06.908,0.00523256114684046
1728,00:00:06.912,-0.0065117577323690005
1729,00:00:06.916,0.009546033761580471
1730,00:00:06.92,0.010352136450819671
1731,00:00:06.924,0.00821832823567094
1732,00:00:06.928,-0.016738943464588367
1733,00:00:06.932,-0.00729321013204753
1734,00:00:06.936,-0.006027796654962001
1735,00:00:06.94,-0.0006395129603333776
1736,00:00:06.944,0.02289587166160344
1737,00:00:06.948,0.01733648218214514
1738,00:00:06.952,-0.010515522269997753
1739,00:00:06.956,-0.02509227208793168
1740,00:00:06.96,-0.00902705360203981
1741,00:00:06.964,-0.0014690484968013999
1742,00:00:06.968,0.020277559757232683
1743,00:00:06.972,0.01764958724379538
1744,00:00:06.976,-0.007381689036265012
1745,00:00:06.98,-0.012885932170320297
1746,00:00:06.984,-0.0016604106058366631
1747,00:00:06.988,0.01223211153410375
1748,00:00:06.992,-0.01628438709303737
1749,00:00:06.996,-0.0035936303902417413
1750,00:00:07,0.01166291662957519
1751,00:00:07.004,0.005777768092229962
1752,00:00:07.008,-0.004085563006810847
1753,00:00:07.012,0.003043166885618124
1754,00:00:07.016,0.00013707601465285388
1755,00:00:07.02,-0.007205824600532651
1756,00:00:07.024,-0.010017974767833959
1757,00:00:07.028,0.015290923067368557
1758,00:00:07.032,0.0005252581322565696
1759,00:00:07.036,-0.006991125119384384
1760,00:00:07.04,0.0146016466896981
1761,00:00:07.044,-0.0024078214773908223
1762,00:00:07.048,-0.01245521754026413
1763,00:00:07.052,-0.0066572258947417105
1764,00:00:07.056,-0.0028066366503480796
1765,00:00:07.06,0.007462585170287638
1766,00:00:07.064,0.01065943879075349
1767,00:00:07.068,0.0026193008525297098
1768,00:00:07.072,-0.003906873520463707
1769,00:00:07.076,0.0007580221499665692
1770,00:00:07.08,0.003166815964505073
1771,00:00:07.084,-0.014917269872967103
1772,00:00:07.088,0.006234107248019422
1773,00:00:07.092,0.0052583187352865796
1774,00:00:07.096,-0.006572315935045486
1775,00:00:07.1,-0.003850583481835206
1776,00:00:07.104,0.009586469037458297
1777,00:00:07.108,-0.006091176241170606
1778,00:00:07.112,-0.0052956216968596
1779,00:00:07.116,0.00837900163605809
1780,00:00:07.12,0.012585453965584751
1781,00:00:07.124,-0.003372661652974778
1782,00:00:07.128,-0.01868329511489721
1783,00:00:07.132,-0.004633019911125304
1784,00:00:07.136,0.022699986817315228
1785,00:00:07.14,-0.0006584744187421174
1786,00:00:07.144,-0.009033898764755586
1787,00:00:07.148,-0.0030723266245331633
1788,00:00:07.152,0.0006134606665000304
1789,00:00:07.156,-6.659929204033682e-05
1790,00:00:07.16,-0.0024806056171655646
1791,00:00:07.164,0.012532203923910861
1792,00:00:07.168,0.013500518572982397
1793,00:00:07.172,-0.02019297544029542
1794,00:00:07.176,-0.01250452900421806
1795,00:00:07.18,-0.0023435620823875104
1796,00:00:07.184,0.0089556910097599
1797,00:00:07.188,0.009308773907832801
1798,00:00:07.192,0.01068961014971137
1799,00:00:07.196,-0.00038700771892763414
1800,00:00:07.2,-0.01645223269588317
1801,00:00:07.204,0.0011354474117979479
1802,00:00:07.208,-0.006447133258916439
1803,00:00:07.212,-0.005285871913656594
1804,00:00:07.216,0.002025765777943887
1805,00:00:07.22,0.014918341068550951
1806,00:00:07.224,0.021464935329277058
1807,00:00:07.228,-0.004060213228513026
1808,00:00:07.232,-0.03021744068246338
1809,00:00:07.236,-0.012603506562299985
1810,00:00:07.24,0.013454801985062659
1811,00:00:07.244,0.0214376839576289
1812,00:00:07.248,-0.009584031475242227
1813,00:00:07.252,-0.01164002978475764
1814,00:00:07.256,0.002582979068392889
1815,00:00:07.26,0.014331763435620816
1816,00:00:07.264,-0.004003575013484814
1817,00:00:07.268,-0.01028534723445774
1818,00:00:07.272,0.0013304497115314011
1819,00:00:07.276,0.01872469985391944
1820,00:00:07.28,-0.00897933531086888
1821,00:00:07.284,-0.01519647345412527
1822,00:00:07.288,-0.00634194872691296
1823,00:00:07.292,0.01380947913276035
1824,00:00:07.296,0.01265361631521955
1825,00:00:07.3,-0.00455139041878283
1826,00:00:07.304,-0.00853341375477612
1827,00:00:07.308,0.0031366981565952314
1828,00:00:07.312,0.006535589287523181
1829,00:00:07.316,-0.012997671263292402
1830,00:00:07.32,0.0002047022426268076
1831,00:00:07.324,-2.017826773225936e-06
1832,00:00:07.328,-0.0010327612981200197
1833,00:00:07.332,0.018441944266669476
1834,00:00:07.336,0.00436171784531325
1835,00:00:07.34,-0.017536277533508872
1836,00:00:07.344,-0.00032794321305117965
1837,00:00:07.348,-0.002677616721484815
1838,00:00:07.352,-0.0087973561603576
1839,00:00:07.356,0.013873089104890822
1840,00:00:07.36,0.001052922598319126
1841,00:00:07.364,0.011590329584578287
1842,00:00:07.368,-0.0035484210529830302
1843,00:00:07.372,-0.01716376224067064
1844,00:00:07.376,-0.0030864055734127803
1845,00:00:07.38,-0.0018464345484972015
1846,00:00:07.384,0.01384927378967404
1847,00:00:07.388,0.008781150740105676
1848,00:00:07.392,-0.00855843420140445
1849,00:00:07.396,0.0002088929977617218
1850,00:00:07.4,0.0004799408488906905
1851,00:00:07.404,0.0031245020218193596
1852,00:00:07.408,0.004730912984996393
1853,00:00:07.412,-0.02477678796276452
1854,00:00:07.416,-0.007265720865689209
1855,00:00:07.42,0.01743444800376892
1856,00:00:07.424,0.020782098174095157
1857,00:00:07.428,-0.0023418385244440296
1858,00:00:07.432,-0.003565655963029708
1859,00:00:07.436,-0.02016244316473604
1860,00:00:07.44,-0.0019383832113817284
1861,00:00:07.444,0.003697648477100298
1862,00:00:07.448,0.0041410763806197836
1863,00:00:07.452,0.011113741100416526
1864,00:00:07.456,0.005832112059579237
1865,00:00:07.46,-0.0119967648060992
1866,00:00:07.464,-0.00017993920482695016
1867,00:00:07.468,-0.0021584426431218123
1868,00:00:07.472,-0.01424466050229967
1869,00:00:07.476,0.0073723477544263005
1870,00:00:07.48,0.023065697751008016
1871,00:00:07.484,-0.002101352922181828
1872,00:00:07.488,-0.0163087278488092
1873,00:00:07.492,-0.01038396544754505
1874,00:00:07.496,0.00823678949382156
1875,00:00:07.5,0.0006797637179261089
1876,00:00:07.504,0.015532998077105733
1877,00:00:07.508,0.005165419948752971
1878,00:00:07.512,-0.004049926879815762
1879,00:00:07.516,-0.01819999923463907
1880,00:00:07.52,-0.009143435512669348
1881,00:00:07.524,0.00263900007121265
1882,00:00:07.528,0.0023115124204196027
1883,00:00:07.532,0.017950397392269273
1884,00:00:07.536,0.021250609424896556
1885,00:00:07.54,-0.02543407079065209
1886,00:00:07.544,-0.008996625692816451
1887,00:00:07.548,-0.005063867109129205
1888,00:00:07.552,-0.00612297491170466
1889,00:00:07.556,0.024230843409895876
1890,00:00:07.56,0.01246689877007156
1891,00:00:07.564,-0.016987597467959824
1892,00:00:07.568,-0.01723540719831363
1893,00:00:07.572,-0.0016051013953983799
1894,00:00:07.576,0.023901520064100668
1895,00:00:07.58,0.01575791486538946
1896,00:00:07.584,-0.01695671072229741
1897,00:00:07.588,-0.015782958711497517
1898,00:00:07.592,-0.008523090247763317
1899,00:00:07.596,0.01494956889655441
1900,00:00:07.6,0.00921884237322957
1901,00:00:07.604,-0.007013228372670712
1902,00:00:07.608,0.010535394074395254
1903,00:00:07.612,-0.008000805799383672
1904,00:00:07.616,-0.007205864530988031
1905,00:00:07.62,-0.001236765645444391
1906,00:00:07.624,0.005166595045011494
1907,00:00:07.628,0.008276480017229916
1908,00:00:07.632,-0.00088420213432983
1909,00:00:07.636,-0.010773509522550743
1910,00:00:07.64,-0.0021897043625358457
1911,00:00:07.644,0.00319652934558689
1912,00:00:07.648,-0.00188403204083442
1913,00:00:07.652,0.014868147205561429
1914,00:00:07.656,0.00765433744527399
1915,00:00:07.66,-0.005296778515912591
1916,00:00:07.664,-0.01514180074445905
1917,00:00:07.668,-0.01515386649407446
1918,00:00:07.672,-0.00207815307658165
1919,00:00:07.676,0.01457901019603014
1920,00:00:07.68,0.017600636114366318
1921,00:00:07.684,-0.0008078159298747804
1922,00:00:07.688,-0.0016326723271049548
1923,00:00:07.692,0.003767794056329882
1924,00:00:07.696,-0.01298256882000714
1925,00:00:07.7,-0.01809775456786153
1926,00:00:07.704,0.0024575045681558575
1927,00:00:07.708,0.021484558717929803
1928,00:00:07.712,0.006274014478549357
1929,00:00:07.716,-0.0058060806477442375
1930,00:00:07.72,-0.01111332373693589
1931,00:00:07.724,0.004539477755315599
1932,00:00:07.728,0.0015643488441128201
1933,00:00:07.732,-0.01516308332793415
1934,00:00:07.736,-0.001940760077559389
1935,00:00:07.74,0.037032636115327436
1936,00:00:07.744,0.00301255517842947
1937,00:00:07.748,-0.020041523122927143
1938,00:00:07.752,-0.011142719013150785
1939,00:00:07.756,-0.0029622986912727287
1940,00:00:07.76,0.0004523367388173899
1941,00:00:07.764,0.00030305666859930874
1942,00:00:07.768,0.007240252394694833
1943,00:00:07.772,0.00048627567593938773
1944,00:00:07.776,0.014823791279923157
1945,00:00:07.78,0.00810938235372305
1946,00:00:07.784,-0.015415509544254738
1947,00:00:07.788,-0.02459920504770709
1948,00:00:07.792,0.009381415322422981
1949,00:00:07.796,0.01402970938943326
1950,00:00:07.8,-0.0016060882480815129
1951,00:00:07.804,-0.008171086927177383
1952,00:00:07.808,0.00011407188139855699
1953,00:00:07.812,0.0038758260780014085
1954,00:00:07.816,0.0015472325030714297
1955,00:00:07.82,0.009650810970924802
1956,00:00:07.824,0.005406123353168367
1957,00:00:07.828,-0.02053106497623961
1958,00:00:07.832,-0.00730117346392944
1959,00:00:07.836,0.007135258230846382
1960,00:00:07.84,0.007135254913009704
1961,00:00:07.844,0.0046923588815843634
1962,00:00:07.848,-0.017743270902428776
1963,00:00:07.852,0.011550284863915317
1964,00:00:07.856,0.0030247054237406705
1965,00:00:07.86,0.007785741703628452
1966,00:00:07.864,-0.0052338720124680575
1967,00:00:07.868,-0.011760325396608103
1968,00:00:07.872,-0.006680761220195565
1969,00:00:07.876,0.009082079166546459
1970,00:00:07.88,0.00371364742750302
1971,00:00:07.884,-0.0003442346642259484
1972,00:00:07.888,0.01289571909001097
1973,00:00:07.892,-0.01068051450420171
1974,00:00:07.896,-0.013174944208003626
1975,00:00:07.9,0.00904652522876859
1976,00:00:07.904,0.018210843380074965
1977,00:00:07.908,-0.013170306425308802
1978,00:00:07.912,-0.012265394441783425
1979,00:00:07.916,-0.00649186875671149
1980,00:00:07.92,0.01111978408880531
1981,00:00:07.924,0.01649278262630107
1982,00:00:07.928,-0.0026155880768783356
1983,00:00:07.932,-0.009572271781507876
1984,00:00:07.936,-0.007501649379264563
1985,00:00:07.94,0.004272751219104975
1986,00:00:07.944,0.0029687266796827303
1987,00:00:07.948,0.006057205435354264
1988,00:00:07.952,0.0008918854873627396
1989,00:00:07.956,-0.0013415892608463708
1990,00:00:07.96,-0.008345410984475173
1991,00:00:07.964,-0.010571989245363515
1992,00:00:07.968,0.0008508117171004428
1993,00:00:07.972,0.01278523541986943
1994,00:00:07.976,0.015373402275145099
1995,00:00:07.98,-0.00037792678085679996
1996,00:00:07.984,-0.0005149922508280731
1997,00:00:07.988,-0.021150351181859102
1998,00:00:07.992,-0.02186227519996468
1999,00:00:07.996,0.01665223413147031
2000,00:00:08,0.016379314532969147
2001,00:00:08.004,0.019697333686053708
2002,00:00:08.008,-0.015426653786562342
2003,00:00:08.012,-0.024042616481892754
2004,00:00:08.016,0.0027978576254099703
2005,00:00:08.02,0.00628735614009202
2006,00:00:08.024,0.02623368171043694
2007,00:00:08.028,-0.00438241381198168
2008,00:00:08.032,-0.01953020284418018
2009,00:00:08.036,-0.010159962410398292
2010,00:00:08.04,0.01035116636194289
2011,00:00:08.044,0.0044538186630234105
2012,00:00:08.048,-0.0007888013496994918
2013,00:00:08.052,0.001694061560556293
2014,00:00:08.056,0.00081736809806899
2015,00:00:08.06,-0.002649478032253679
2016,00:00:08.064,-0.0013516626931959802
2017,00:00:08.068,0.017057958306395418
2018,00:00:08.072,-0.01664427854120731
2019,00:00:08.076,-0.01432537427172066
2020,00:00:08.08,0.010684428620152179
2021,00:00:08.084,0.0018641462593222916
2022,00:00:08.088,0.008335543854627751
2023,00:00:08.092,0.007281189202331009
2024,00:00:08.096,-0.012840565061196681
2025,00:00:08.1,-0.00645120895933359
2026,00:00:08.104,-0.0015718309441581405
2027,00:00:08.108,0.00803514895960689
2028,00:00:08.112,0.018073087092489032
2029,00:00:08.116,-0.015522604808211351
2030,00:00:08.12,-0.012922020978294313
2031,00:00:08.124,0.00897560408338905
2032,00:00:08.128,-0.0014011289458721896
2033,00:00:08.132,-0.00048274406799464313
2034,00:00:08.136,0.0020130617776885637
2035,00:00:08.14,0.004810223821550606
2036,00:00:08.144,-0.002350726746954031
2037,00:00:08.148,0.00457029044628141
2038,00:00:08.152,0.010962585220113395
2039,00:00:08.156,-0.01957120653241872
2040,00:00:08.16,-0.012803394696675234
2041,00:00:08.164,0.009492188517469911
2042,00:00:08.168,0.003434423852013423
2043,00:00:08.172,0.00286954082548619
2044,00:00:08.176,-0.003789171198150146
2045,00:00:08.18,0.01745141483843331
2046,00:00:08.184,0.0009278492070734505
2047,00:00:08.188,-0.016977588180452606
2048,00:00:08.192,-0.0015742611140012706
2049,00:00:08.196,-0.00466435623820871
2050,00:00:08.2,0.0006966823711991297
2051,00:00:08.204,0.011021681479178369
2052,00:00:08.208,0.007472439727280289
2053,00:00:08.212,-0.010061090833914928
2054,00:00:08.216,-0.0009302952676080215
2055,00:00:08.22,-0.008040765998885039
2056,00:00:08.224,0.0033717032347340154
2057,00:00:08.228,0.00570665975101291
2058,00:00:08.232,-0.008992497430881485
2059,00:00:08.236,0.02250927896238866
2060,00:00:08.24,0.010645220056176194
2061,00:00:08.244,-0.02951498143374915
2062,00:00:08.248,-0.009373757049615955
2063,00:00:08.252,0.00523606408387422
2064,00:00:08.256,-0.00065705401357263
2065,00:00:08.26,0.01047189603559673
2066,00:00:08.264,0.009309963206760589
2067,00:00:08.268,-0.0034958816831931433
2068,00:00:08.272,0.002654269133927298
2069,00:00:08.276,-0.011279722413746644
2070,00:00:08.28,-0.004970043897628741
2071,00:00:08.284,0.000676686468068512
2072,00:00:08.288,0.005516214201634279
2073,00:00:08.292,0.0014222948375390873
2074,00:00:08.296,-0.0019107775297015914
2075,00:00:08.3,0.018451211333740555
2076,00:00:08.304,-0.012269186438061276
2077,00:00:08.308,-0.021357856108806982
2078,00:00:08.312,-0.014766657142899929
2079,00:00:08.316,0.03027155937161297
2080,00:00:08.32,0.03051812347257512
2081,00:00:08.324,-0.004057938684127288
2082,00:00:08.328,-0.02643526485189797
2083,00:00:08.332,-0.016404689464252435
2084,00:00:08.336,-0.00456361274700612
2085,00:00:08.34,0.01732242410071194
2086,00:00:08.344,0.022079013870097704
2087,00:00:08.348,-0.0088460232364014
2088,00:00:08.352,-0.015569346840493367
2089,00:00:08.356,-0.0026809971313923593
2090,00:00:08.36,0.01543057803064587
2091,00:00:08.364,0.0006191510474309299
2092,00:00:08.368,0.0018618309404701
2093,00:00:08.372,-0.011885181011166451
2094,00:00:08.376,-0.008564301155274737
2095,00:00:08.38,0.01610102714039386
2096,00:00:08.384,-0.006456897302996369
2097,00:00:08.388,-0.00442554277833551
2098,00:00:08.392,0.01032546488568186
2099,00:00:08.396,0.00137140136212109
2100,00:00:08.4,0.00816454668529331
2101,00:00:08.404,-0.010352276149205862
2102,00:00:08.408,-0.015771722595673058
2103,00:00:08.412,-0.0008050220785662497
2104,00:00:08.416,0.007845081971026962
2105,00:00:08.42,0.016954173101112212
2106,00:00:08.424,-0.005258305376628418
2107,00:00:08.428,-0.00046446977648883993
2108,00:00:08.432,-0.00394352688454092
2109,00:00:08.436,-0.0011146137258037933
2110,00:00:08.44,-0.0009183801012113807
2111,00:00:08.444,-0.0007769570220261905
2112,00:00:08.448,-0.004404448205605149
2113,00:00:08.452,0.00014025474229129096
2114,00:00:08.456,0.01621547830291096
2115,00:00:08.46,-0.01605368067976084
2116,00:00:08.464,0.00021340418606996992
2117,00:00:08.468,0.01984016940696161
2118,00:00:08.472,0.00686913053505123
2119,00:00:08.476,-0.038871733238920535
2120,00:00:08.48,-0.01035553170368079
2121,00:00:08.484,0.03653706191107633
2122,00:00:08.488,0.00654961529653519
2123,00:00:08.492,-0.01949712831992656
2124,00:00:08.496,-0.0012913242680952
2125,00:00:08.5,0.010744267376139762
2126,00:00:08.504,0.00204171391669661
2127,00:00:08.508,-0.0057462702970951796
2128,00:00:08.512,-0.00903002335689962
2129,00:00:08.516,-0.0015036110999062603
2130,00:00:08.52,0.004634852753952137
2131,00:00:08.524,0.012181901314761488
2132,00:00:08.528,-0.00017670635133982008
2133,00:00:08.532,-0.0065192458350793485
2134,00:00:08.536,0.00627165241166949
2135,00:00:08.54,-0.001797868579160421
2136,00:00:08.544,-0.012008315708953884
2137,00:00:08.548,-0.00929349486250431
2138,00:00:08.552,0.004998975630769566
2139,00:00:08.556,0.014045901829376818
2140,00:00:08.56,0.00349527434445917
2141,00:00:08.564,0.0009557935118209571
2142,00:00:08.568,-0.0003752363845706025
2143,00:00:08.572,-0.007871070731198419
2144,00:00:08.576,0.013916553754825107
2145,00:00:08.58,-0.015537873900029794
2146,00:00:08.584,-0.011673745233565552
2147,00:00:08.588,0.008327211136929689
2148,00:00:08.592,-0.00449296121951198
2149,00:00:08.596,0.003659993919427502
2150,00:00:08.6,0.011370256310328848
2151,00:00:08.604,0.005710507044568659
2152,00:00:08.608,-0.00371306051965803
2153,00:00:08.612,-0.005557191791012892
2154,00:00:08.616,-0.00987689639441669
2155,00:00:08.62,0.013331300346180758
2156,00:00:08.624,0.008427186810877169
2157,00:00:08.628,-0.01843905751593411
2158,00:00:08.632,-0.004195966583210973
2159,00:00:08.636,-0.00093260954599828
2160,00:00:08.64,0.006886803079396488
2161,00:00:08.644,0.0087421964854002
2162,00:00:08.648,0.002970493515022097
2163,00:00:08.652,-0.006580972083611407
2164,00:00:08.656,-0.0026391576102469108
2165,00:00:08.66,0.00996353832306341
2166,00:00:08.664,-0.01348282815888524
2167,00:00:08.668,-0.0015000967614469157
2168,00:00:08.672,0.004993727372493595
2169,00:00:08.676,0.005282033103867439
2170,00:00:08.68,-0.006079112878069289
2171,00:00:08.684,-0.00562129238096531
2172,00:00:08.688,0.00523287244141104
2173,00:00:08.692,0.0031654441700084113
2174,00:00:08.696,0.001551546913105991
2175,00:00:08.7,0.002182736279792156
2176,00:00:08.704,-0.004901929045445289
2177,00:00:08.708,-0.0008093753131106518
2178,00:00:08.712,0.00264659430831671
2179,00:00:08.716,0.004864856920903551
2180,00:00:08.72,-0.00527600920759142
2181,00:00:08.724,0.0010920248460024643
2182,00:00:08.728,-0.013648789841681719
2183,00:00:08.732,-0.005677238048519942
2184,00:00:08.736,0.008830772596411398
2185,00:00:08.74,0.03017668938264252
2186,00:00:08.744,-0.004838364431634549
2187,00:00:08.748,-0.02462026919238266
2188,00:00:08.752,0.00168560340534896
2189,00:00:08.756,0.003674584499094644
2190,00:00:08.76,0.006553514627739789
2191,00:00:08.764,0.0029141680570319304
2192,00:00:08.768,-0.017978082410991202
2193,00:00:08.772,-0.006412928225472561
2194,00:00:08.776,0.01931697712279856
2195,00:00:08.78,0.012020168942399328
2196,00:00:08.784,-0.007378704729489989
2197,00:00:08.788,-0.010915342485532165
2198,00:00:08.792,-0.008134892326779669
2199,00:00:08.796,0.01891761180013416
2200,00:00:08.8,0.0004973425529897221
2201,00:00:08.804,-0.003462899592705074
2202,00:00:08.808,-0.017045640095602742
2203,00:00:08.812,0.0004964713007211711
2204,00:00:08.816,0.02340904553420844
2205,00:00:08.82,0.011321804428007471
2206,00:00:08.824,-0.015214097686111929
2207,00:00:08.828,-0.0254629021510482
2208,00:00:08.832,-0.01213352149352431
2209,00:00:08.836,0.02317844424396758
2210,00:00:08.84,0.037375706946477266
2211,00:00:08.844,-0.0013312163064256202
2212,00:00:08.848,-0.033149388269521254
2213,00:00:08.852,-0.016425551846623462
2214,00:00:08.856,0.0048385557020083
2215,00:00:08.86,0.01855306769721207
2216,00:00:08.864,0.012302435585297651
2217,00:00:08.868,-0.00924906157888472
2218,00:00:08.872,-0.009042643010616311
2219,00:00:08.876,0.005694722407497469
2220,00:00:08.88,-0.00544653786346316
2221,00:00:08.884,-0.006744723476003859
2222,00:00:08.888,0.003937798726838078
2223,00:00:08.892,0.019628588925115757
2224,00:00:08.896,0.001409245422109961
2225,00:00:08.9,-0.02099260408431291
2226,00:00:08.904,0.0024554685296607212
2227,00:00:08.908,0.00899911229498685
2228,00:00:08.912,-0.0026997345266863643
2229,00:00:08.916,-0.01119164237752557
2230,00:00:08.92,-0.002931524417363111
2231,00:00:08.924,-0.007371722254902119
2232,00:00:08.928,0.02548913477221507
2233,00:00:08.932,0.03175645275041469
2234,00:00:08.936,-0.026717490749433654
2235,00:00:08.94,-0.021725605241954292
2236,00:00:08.944,-0.00909189600497484
2237,00:00:08.948,0.006682469393126671
2238,00:00:08.952,0.004498175883782104
2239,00:00:08.956,0.007183803711086511
2240,00:00:08.96,0.023235352127812758
2241,00:00:08.964,-0.006587627052795138
2242,00:00:08.968,-0.011820210558653363
2243,00:00:08.972,-0.01352718204725534
2244,00:00:08.976,-0.0037738880200777264
2245,00:00:08.98,0.006726834806613629
2246,00:00:08.984,0.00962641342266579
2247,00:00:08.988,0.004081956925801931
2248,00:00:08.992,0.0005435222992673568
2249,00:00:08.996,-0.016364685085136443
2250,00:00:09,0.0006163620855659203
2251,00:00:09.004,0.01676009630318728
2252,00:00:09.008,-0.00251344521529973
2253,00:00:09.012,-0.01677361642941833
2254,00:00:09.016,0.0040606423281133106
2255,00:00:09.02,0.014279807452112431
2256,00:00:09.024,0.006902695517055698
2257,00:00:09.028,-0.006774927111109717
2258,00:00:09.032,-0.020104189636185762
2259,00:00:09.036,-0.00857654795981944
2260,00:00:09.04,0.013249525683932051
2261,00:00:09.044,0.02809823118150237
2262,00:00:09.048,-0.004122289130464191
2263,00:00:09.052,-0.0279408760834485
2264,00:00:09.056,0.005887156818062059
2265,00:00:09.06,0.004700392171798738
2266,00:00:09.064,-0.005927617428824309
2267,00:00:09.068,0.006168425024952744
2268,00:00:09.072,0.016076423460617634
2269,00:00:09.076,-0.008596368483267725
2270,00:00:09.08,-0.010474410664755851
2271,00:00:09.084,-0.002159606665372846
2272,00:00:09.088,-0.006429885557736279
2273,00:00:09.092,0.01695544470567259
2274,00:00:09.096,0.0026720566092990347
2275,00:00:09.1,-0.0076679114717990195
2276,00:00:09.104,0.0038639432750642304
2277,00:00:09.108,-0.009241147665306941
2278,00:00:09.112,-0.007488257484510541
2279,00:00:09.116,0.02647212473675612
2280,00:00:09.12,-0.0019957131007686244
2281,00:00:09.124,-0.01597062626387924
2282,00:00:09.128,-0.00111222453415394
2283,00:00:09.132,0.0034067826345563004
2284,00:00:09.136,-0.003206345078069717
2285,00:00:09.14,0.007072369444358623
2286,00:00:09.144,0.00659822917077691
2287,00:00:09.148,-0.010770509776193645
2288,00:00:09.152,-0.005425285373348739
2289,00:00:09.156,0.019182610179996094
2290,00:00:09.16,0.006777157890610395
2291,00:00:09.164,-0.020123093156144023
2292,00:00:09.168,-0.01514489157125354
2293,00:00:09.172,0.006740668090060349
2294,00:00:09.176,0.01260898052714765
2295,00:00:09.18,-0.006165739847347135
2296,00:00:09.184,0.004628027149010449
2297,00:00:09.188,0.013207915704697341
2298,00:00:09.192,-0.00871128635480998
2299,00:00:09.196,-0.0066005450789816695
2300,00:00:09.2,0.008097220794297753
2301,00:00:09.204,-0.006797331385314459
2302,00:00:09.208,-0.00794502766802907
2303,00:00:09.212,0.0034494260326027783
2304,00:00:09.216,0.004935175180435181
2305,00:00:09.22,-0.0015653464943170595
2306,00:00:09.224,0.0018280926742591007
2307,00:00:09.228,-0.006571295321919031
2308,00:00:09.232,0.0082829191815108
2309,00:00:09.236,0.012024088064208632
2310,00:00:09.24,-0.006386549444869159
2311,00:00:09.244,-0.0008966299646999751
2312,00:00:09.248,-0.01289326965343208
2313,00:00:09.252,-0.01265752245672048
2314,00:00:09.256,0.006261580449063333
2315,00:00:09.26,0.01163803390227254
2316,00:00:09.264,0.010328183649107809
2317,00:00:09.268,0.006287498108576988
2318,00:00:09.272,-0.004088826535735279
2319,00:00:09.276,-0.01755863765720278
2320,00:00:09.28,-0.00827047554776072
2321,00:00:09.284,0.0030677225440740594
2322,00:00:09.288,0.014543531346134841
2323,00:00:09.292,0.011678672744892541
2324,00:00:09.296,-0.005601503187790508
2325,00:00:09.3,-0.017856663398561057
2326,00:00:09.304,0.005871387373190379
2327,00:00:09.308,-0.00044544728007167605
2328,00:00:09.312,-0.002126869279891254
2329,00:00:09.316,0.0013333575261640356
2330,00:00:09.32,-0.000700544129358602
2331,00:00:09.324,0.009034219750901722
2332,00:00:09.328,0.01904346291848929
2333,00:00:09.332,-0.024021432960580607
2334,00:00:09.336,-0.014844980791167459
2335,00:00:09.34,0.0047111039166338724
2336,00:00:09.344,0.028143169824033986
2337,00:00:09.348,-0.011375163987395305
2338,00:00:09.352,-0.01552328560501335
2339,00:00:09.356,-0.00605346343945712
2340,00:00:09.36,0.01811484445352105
2341,00:00:09.364,-0.0018324292032048106
2342,00:00:09.368,0.0017060425598174323
2343,00:00:09.372,-0.003068863908993078
2344,00:00:09.376,0.007510247785830868
2345,00:00:09.38,0.008081856518401764
2346,00:00:09.384,-0.008206408150726936
2347,00:00:09.388,-0.015035685151815418
2348,00:00:09.392,-0.01865308545529844
2349,00:00:09.396,0.02558975690044464
2350,00:00:09.4,0.011739843263057988
2351,00:00:09.404,-0.012864446209277956
2352,00:00:09.408,-0.00473724189214408
2353,00:00:09.412,-0.0009519419982098071
2354,00:00:09.416,0.03252750320825726
2355,00:00:09.42,0.002020661966525949
2356,00:00:09.424,-0.04136015544645488
2357,00:00:09.428,-0.00682132877409458
2358,00:00:09.432,0.011758630687836578
2359,00:00:09.436,0.01232494390569627
2360,00:00:09.44,0.0161532086785883
2361,00:00:09.444,-0.014801352750509979
2362,00:00:09.448,-0.012534801964648042
2363,00:00:09.452,-0.004005586524726826
2364,00:00:09.456,0.0074004995403811405
2365,00:00:09.46,0.014677900820970542
2366,00:00:09.464,0.00042200507596135053
2367,00:00:09.468,0.002982369856908919
2368,00:00:09.472,-0.015294796787202318
2369,00:00:09.476,-0.0010612354381009897
2370,00:00:09.48,-0.0007870544213801643
2371,00:00:09.484,-0.009941833355696894
2372,00:00:09.488,0.00302626052871347
2373,00:00:09.492,0.028185185859911137
2374,00:00:09.496,0.0008940445259213508
2375,00:00:09.5,-0.021493345266208098
2376,00:00:09.504,-0.017791441176086668
2377,00:00:09.508,0.016736567820771608
2378,00:00:09.512,0.02105522342026237
2379,00:00:09.516,-0.00708935281727464
2380,00:00:09.52,-0.01502927800174803
2381,00:00:09.524,0.0027690799906849796
2382,00:00:09.528,0.004275517771020529
2383,00:00:09.532,0.0011350401910021892
2384,00:00:09.536,-0.0014038720401003924
2385,00:00:09.54,-0.010288604011293506
2386,00:00:09.544,0.00259340391494334
2387,00:00:09.548,0.004331791424192488
2388,00:00:09.552,0.012837613467127081
2389,00:00:09.556,-0.0032070942688733318
2390,00:00:09.56,-0.00018052395898848013
2391,00:00:09.564,-0.0119738943176344
2392,00:00:09.568,-0.0055610251147299936
2393,00:00:09.572,0.004715895556728353
2394,00:00:09.576,0.014708711241837591
2395,00:00:09.58,-1.2875767424708716e-05
2396,00:00:09.584,-0.01854292489588256
2397,00:00:09.588,-0.0021624693181365702
2398,00:00:09.592,0.027775576836575083
2399,00:00:09.596,0.0007039685733616309
2400,00:00:09.6,-0.019903995329514194
2401,00:00:09.604,-0.020050326245836882
2402,00:00:09.608,0.009087453174288386
2403,00:00:09.612,0.01496735739056024
2404,00:00:09.616,0.017460952512919903
2405,00:00:09.62,-0.004882687702775
2406,00:00:09.624,-0.015040350379422298
2407,00:00:09.628,-0.005972918123006821
2408,00:00:09.632,0.00311918661464005
2409,00:00:09.636,0.008340724976733334
2410,00:00:09.64,0.00034417997812852524
2411,00:00:09.644,-0.00520237779710442
2412,00:00:09.648,-0.011402389733120803
2413,00:00:09.652,0.006153853784780951
2414,00:00:09.656,0.012884172552730912
2415,00:00:09.66,0.008896942483261219
2416,00:00:09.664,-0.013719397975364695
2417,00:00:09.668,-0.010308899683877827
2418,00:00:09.672,-0.0009626795654185166
2419,00:00:09.676,0.015487574273720429
2420,00:00:09.68,0.0023288441225304255
2421,00:00:09.684,-0.002392356705968263
2422,00:00:09.688,-0.01147531904280186
2423,00:00:09.692,-0.006862332578748421
2424,00:00:09.696,0.009051332017406821
2425,00:00:09.7,0.010061248831334524
2426,00:00:09.704,-0.004071048722835258
2427,00:00:09.708,-0.0126566793769598
2428,00:00:09.712,0.015237699146382514
2429,00:00:09.716,0.006422115489840509
2430,00:00:09.72,-0.011821882333606488
2431,00:00:09.724,-0.007924360106699162
2432,00:00:09.728,0.004408004926517561
2433,00:00:09.732,0.007301385414393739
2434,00:00:09.736,0.002193898893892766
2435,00:00:09.74,-0.0003095715073868643
2436,00:00:09.744,-0.007845489308238031
2437,00:00:09.748,-0.01059379475191235
2438,00:00:09.752,0.008824558812193569
2439,00:00:09.756,0.0003531223628669999
2440,00:00:09.76,0.004199617775157089
2441,00:00:09.764,0.02247912832535801
2442,00:00:09.768,-0.00616576895117759
2443,00:00:09.772,-0.030034420196898247
2444,00:00:09.776,-0.001994069769352786
2445,00:00:09.78,0.012311212311033158
2446,00:00:09.784,0.002051095303613691
2447,00:00:09.788,-0.00569954910315573
2448,00:00:09.792,0.008973221003543586
2449,00:00:09.796,-0.004350720882939643
2450,00:00:09.8,0.01757454988546673
2451,00:00:09.804,-0.00218603503890336
2452,00:00:09.808,-0.016522837802767767
2453,00:00:09.812,-0.00926781399175524
2454,00:00:09.816,0.005346932855900376
2455,00:00:09.82,0.00292700761929154
2456,00:00:09.824,0.0035266726627014595
2457,00:00:09.828,0.007237144978716961
2458,00:00:09.832,0.005763717228546731
2459,00:00:09.836,-0.00952782190870493
2460,00:00:09.84,-0.004176238231593741
2461,00:00:09.844,-0.0019800680602202227
2462,00:00:09.848,-0.010805485828313978
2463,00:00:09.852,-0.005969608901068561
2464,00:00:09.856,0.029507499770261403
2465,00:00:09.86,0.01342512876726687
2466,00:00:09.864,-0.007260932470671831
2467,00:00:09.868,-0.02818021690472962
2468,00:00:09.872,0.007934812922030687
2469,00:00:09.876,0.0025846415665000655
2470,00:00:09.88,0.00487519457237795
2471,00:00:09.884,-0.005612524924799809
2472,00:00:09.888,-0.00496780779212714
2473,00:00:09.892,0.005711016728355393
2474,00:00:09.896,0.011663062497973439
2475,00:00:09.9,-0.012609440600499509
2476,00:00:09.904,-0.000671685440465805
2477,00:00:09.908,0.003236487740650779
2478,00:00:09.912,0.004767894453834747
2479,00:00:09.916,0.00286470085848122
2480,00:00:09.92,-0.008595715335104614
2481,00:00:09.924,-0.0008971578208729601
2482,00:00:09.928,0.0010768897336674874
2483,00:00:09.932,-0.00324458978138864
2484,00:00:09.936,0.0021792155166622212
2485,00:00:09.94,0.011400474584661417
2486,00:00:09.944,-0.002023495451567211
2487,00:00:09.948,-0.010555114829912782
2488,00:00:09.952,-0.007185192371252924
2489,00:00:09.956,0.007865000923629843
2490,00:00:09.96,0.0026699051959440095
2491,00:00:09.964,-0.002869804040528831
2492,00:00:09.968,-0.003695842460729183
2493,00:00:09.972,0.02160197147168223
2494,00:00:09.976,0.011095257126726208
2495,00:00:09.98,-0.0278757312335074
2496,00:00:09.984,-0.018631079467013482
2497,00:00:09.988,0.01278678595554084
2498,00:00:09.992,-0.0001293142267968445
2499,00:00:09.996,0.013020526414038617
2500,00:00:10,-0.004223781637847419
2501,00:00:10.004,-0.005357027868740269
2502,00:00:10.008,0.011162362177856266
2503,00:00:10.012,0.0131815574131906
2504,00:00:10.016,-0.020026586193125716
2505,00:00:10.02,-0.014345068950206041
2506,00:00:10.024,0.012192664202302693
2507,00:00:10.028,0.00700543762650341
2508,00:00:10.032,-0.006314513942925267
2509,00:00:10.036,-0.004029236792121088
2510,00:00:10.04,0.0010249696206301481
2511,00:00:10.044,-0.0004942359282722516
2512,00:00:10.048,0.01346071914304047
2513,00:00:10.052,0.006982117309235041
2514,00:00:10.056,-0.01931442611385135
2515,00:00:10.06,-0.00238603132311255
2516,00:00:10.064,0.007390931772533801
2517,00:00:10.068,-0.0006492449610959743
2518,00:00:10.072,-0.00803867204740527
2519,00:00:10.076,0.005357009242288765
2520,00:00:10.08,0.009767085663042968
2521,00:00:10.084,-0.00644280039705336
2522,00:00:10.088,-0.0031026229262352094
2523,00:00:10.092,0.002068705100100487
2524,00:00:10.096,0.003624650191341066
2525,00:00:10.1,-4.040008570881753e-05
2526,00:00:10.104,-0.0026556111406534897
2527,00:00:10.108,-0.00695322989486158
2528,00:00:10.112,-0.00570924161002044
2529,00:00:10.116,0.013569500762969249
2530,00:00:10.12,0.0020834049209952307
2531,00:00:10.124,-0.0035182089777663784
2532,00:00:10.128,0.00862837012391537
2533,00:00:10.132,0.0011638165451586277
2534,00:00:10.136,-0.02068634680472318
2535,00:00:10.14,6.119236059021682e-05
2536,00:00:10.144,0.006862892449134961
2537,00:00:10.148,0.00590925250435248
2538,00:00:10.152,0.00016059831250459064
2539,00:00:10.156,0.001034476212225854
2540,00:00:10.16,0.007618933304911472
2541,00:00:10.164,-0.016012094449251894
2542,00:00:10.168,-0.006603450136026366
2543,00:00:10.172,0.005183270754059772
2544,00:00:10.176,0.009247756664990447
2545,00:00:10.18,0.0104898246495395
2546,00:00:10.184,0.0010769447908387571
2547,00:00:10.188,-0.02716696530114863
2548,00:00:10.192,-0.00289932894520462
2549,00:00:10.196,0.02280029491521421
2550,00:00:10.2,-0.006718419783283025
2551,00:00:10.204,-0.006703483522869641
2552,00:00:10.208,0.008561038208426906
2553,00:00:10.212,-0.001209930749610069
2554,00:00:10.216,-0.0018486033659428302
2555,00:00:10.22,-0.0002043568529188698
2556,00:00:10.224,0.0050636653322726505
2557,00:00:10.228,-0.0009172278223559259
2558,00:00:10.232,-0.01112150409608148
2559,00:00:10.236,0.01610950869508088
2560,00:00:10.24,0.010582003407762382
2561,00:00:10.244,-0.031105731788556953
2562,00:00:10.248,-0.011015556519851092
2563,00:00:10.252,0.009747653035447008
2564,00:00:10.256,0.02282664552330969
2565,00:00:10.26,0.0035241098012193136
2566,00:00:10.264,-0.004987730178982029
2567,00:00:10.268,0.0019451866392046122
2568,00:00:10.272,-0.014062723028473549
2569,00:00:10.276,0.004760312964208419
2570,00:00:10.28,-0.01613997528329491
2571,00:00:10.284,0.009185495306155594
2572,00:00:10.288,0.016754310752730865
2573,00:00:10.292,-0.006232572981389235
2574,00:00:10.296,-0.003175499849021441
2575,00:00:10.3,0.0023436180781572996
2576,00:00:10.304,-0.019267169293016202
2577,00:00:10.308,0.0064473543316125904
2578,00:00:10.312,0.01980792137328534
2579,00:00:10.316,0.002936887496616693
2580,00:00:10.32,-0.010429578891489658
2581,00:00:10.324,-0.01004771678708493
2582,00:00:10.328,-0.0016830259701237
2583,00:00:10.332,0.01688988832756877
2584,00:00:10.336,0.0021476552356034504
2585,00:00:10.34,-0.01217162632383406
2586,00:00:10.344,-0.00507197293336503
2587,00:00:10.348,-0.0009702172828838303
2588,00:00:10.352,0.0016992867749650012
2589,00:00:10.356,0.013280896848300475
2590,00:00:10.36,0.00530152533610817
2591,00:00:10.364,-0.01214359991718084
2592,00:00:10.368,-0.003713621292263271
2593,00:00:10.372,-0.005675346561474723
2594,00:00:10.376,0.00369661557488143
2595,00:00:10.38,0.018794073606841266
2596,00:00:10.384,-0.009626332670450212
2597,00:00:10.388,0.00742836459539831
2598,00:00:10.392,-0.002654389420058574
2599,00:00:10.396,-0.02082242001779374
2600,00:00:10.4,-0.00577451358549297
2601,00:00:10.404,0.006860638939542698
2602,00:00:10.408,0.01082173269242048
2603,00:00:10.412,0.01190661662258208
2604,00:00:10.416,0.002283453242853282
2605,00:00:10.42,-0.00968808056495618
2606,00:00:10.424,-0.00785632728366181
2607,00:00:10.428,0.008196641050744802
2608,00:00:10.432,-0.01190965965361102
2609,00:00:10.436,-0.00077213591430337
2610,00:00:10.44,0.017422409669961822
2611,00:00:10.444,-0.002348767768125978
2612,00:00:10.448,-0.01310184854082766
2613,00:00:10.452,0.0036765122640645114
2614,00:00:10.456,0.00262042239774018
2615,00:00:10.46,-0.0030426912708208
2616,00:00:10.464,-0.00022963978699408602
2617,00:00:10.468,0.0025482308119535446
2618,00:00:10.472,0.00914428778924048
2619,00:00:10.476,-0.0044232169166207305
2620,00:00:10.48,-0.00104465731419624
2621,00:00:10.484,0.000371370857465077
2622,00:00:10.488,-0.00405605928972364
2623,00:00:10.492,-0.0050757666758727326
2624,00:00:10.496,-0.004574426915496591
2625,00:00:10.5,0.00505883595906198
2626,00:00:10.504,0.01327445125207301
2627,00:00:10.508,-0.0037188266869634407
2628,00:00:10.512,0.0036309785209596196
2629,00:00:10.516,-0.00505364802666009
2630,00:00:10.52,-0.0009393008076585901
2631,00:00:10.524,-0.005891841312404729
2632,00:00:10.528,-0.006468014500569548
2633,00:00:10.532,0.014139222446829084
2634,00:00:10.536,-0.003050734754651779
2635,00:00:10.54,-0.00543882069177926
2636,00:00:10.544,0.006392753450199958
2637,00:00:10.548,0.00848424783907831
2638,00:00:10.552,-0.00447615957818926
2639,00:00:10.556,-0.00869807635899633
2640,00:00:10.56,-0.005852136790053923
2641,00:00:10.564,0.003564527403796094
2642,00:00:10.568,-0.002666817512363195
2643,00:00:10.572,0.01982689113356171
2644,00:00:10.576,0.005493276519700889
2645,00:00:10.58,-0.009138471505139025
2646,00:00:10.584,-0.019199456321075548
2647,00:00:10.588,-0.00420338404364884
2648,00:00:10.592,0.006422749887860843
2649,00:00:10.596,0.0153821188723668
2650,00:00:10.6,-0.001839171512983739
2651,00:00:10.604,0.00046614441089332136
2652,00:00:10.608,-0.0010741983205662105
2653,00:00:10.612,-0.0023719308665022224
2654,00:00:10.616,0.0018782656406983798
2655,00:00:10.62,-0.0072163197910413085
2656,00:00:10.624,0.00080212031025439
2657,00:00:10.628,-0.0019660774851217896
2658,00:00:10.632,0.005207934009376917
2659,00:00:10.636,0.0034121807839255776
2660,00:00:10.64,0.001980974207981491
2661,00:00:10.644,-0.01657491805963219
2662,00:00:10.648,0.01212647196371109
2663,00:00:10.652,0.004573430051095791
2664,00:00:10.656,0.0028650109888986096
2665,00:00:10.66,-0.00956578960176558
2666,00:00:10.664,-0.0021318402141333086
2667,00:00:10.668,-0.012094388715922832
2668,00:00:10.672,0.004502862168010328
2669,00:00:10.676,0.0165600476320833
2670,00:00:10.68,0.01021846057847142
2671,00:00:10.684,-0.00860435888171197
2672,00:00:10.688,-0.0053990168380551075
2673,00:00:10.692,-0.00807926035486161
2674,00:00:10.696,0.001922586932778362
2675,00:00:10.7,0.009499765303189637
2676,00:00:10.704,-0.010450111702084541
2677,00:00:10.708,-0.00727337889838964
2678,00:00:10.712,0.00530060357414186
2679,00:00:10.716,0.016901995288208137
2680,00:00:10.72,0.006014021667397179
2681,00:00:10.724,-0.00332669354975223
2682,00:00:10.728,-0.0157430116087198
2683,00:00:10.732,-0.011186225456185635
2684,00:00:10.736,-0.00354076409712434
2685,00:00:10.74,0.009772966368473131
2686,00:00:10.744,0.03023962625593411
2687,00:00:10.748,-0.007173156074713911
2688,00:00:10.752,-0.016608199570327997
2689,00:00:10.756,0.0015650461282348226
2690,00:00:10.76,-0.019391341716982428
2691,00:00:10.764,0.0013920966594014267
2692,00:00:10.768,0.0315988974180073
2693,00:00:10.772,0.011496171733597292
2694,00:00:10.776,-0.012324980110861361
2695,00:00:10.78,-0.023954763775691352
2696,00:00:10.784,-0.011155846994370226
2697,00:00:10.788,0.01011057919822633
2698,00:00:10.792,0.02413693675771358
2699,00:00:10.796,0.00033669953700154564
2700,00:00:10.8,-0.011551861185580489
2701,00:00:10.804,-0.002577005623606968
2702,00:00:10.808,0.004779286275152112
2703,00:00:10.812,-0.011153057675983291
2704,00:00:10.816,0.0052205557440174735
2705,00:00:10.82,0.016632130376820032
2706,00:00:10.824,-0.011887050699442622
2707,00:00:10.828,0.0003899375442415593
2708,00:00:10.832,-0.012724595144391103
2709,00:00:10.836,0.0032413864973932505
2710,00:00:10.84,0.011188215459696949
2711,00:00:10.844,-0.0034385338876745716
2712,00:00:10.848,0.0035471421142574426
2713,00:00:10.852,0.01569893211126328
2714,00:00:10.856,-0.020054781285580248
2715,00:00:10.86,-0.01694724895060066
2716,00:00:10.864,-0.002567908843047911
2717,00:00:10.868,0.010269980761222536
2718,00:00:10.872,0.035904937889426974
2719,00:00:10.876,-0.0011912759509869015
2720,00:00:10.88,-0.024907360901124796
2721,00:00:10.884,-0.017933374911081053
2722,00:00:10.888,-0.0006722650723531899
2723,00:00:10.892,0.0143965024035424
2724,00:00:10.896,0.015824360976694127
2725,00:00:10.9,0.00358318164944649
2726,00:00:10.904,-0.010452385991811707
2727,00:00:10.908,-0.009221077605616301
2728,00:00:10.912,-0.0030690518906339895
2729,00:00:10.916,-0.008332483237609262
2730,00:00:10.92,0.015958237432641922
2731,00:00:10.924,0.01986317080445589
2732,00:00:10.928,-0.005198464845307171
2733,00:00:10.932,-0.014966606162488422
2734,00:00:10.936,-0.01594583387486637
2735,00:00:10.94,0.006900850683450711
2736,00:00:10.944,-0.0007339359726756811
2737,00:00:10.948,0.008493354434904172
2738,00:00:10.952,0.015869859256781613
2739,00:00:10.956,-0.00122440699487925
2740,00:00:10.96,-0.01669164595659825
2741,00:00:10.964,-0.004030946089187634
2742,00:00:10.968,0.013210347155109051
2743,00:00:10.972,-0.0012484138133004301
2744,00:00:10.976,-0.00916185975074768
2745,00:00:10.98,0.002702425321331244
2746,00:00:10.984,-0.005215899436734613
2747,00:00:10.988,0.006395194912329321
2748,00:00:10.992,-0.00095775909721851
2749,00:00:10.996,0.004656146425986661
2750,00:00:11,0.004537624219665306
2751,00:00:11.004,-0.00709962961263955
2752,00:00:11.008,0.0016268953477265311
2753,00:00:11.012,0.013118476083036507
2754,00:00:11.016,-0.0217169434763491
2755,00:00:11.02,-0.008316630897752477
2756,00:00:11.024,0.012254602974280729
2757,00:00:11.028,0.0009422639850527017
2758,00:00:11.032,0.00477313261944801
2759,00:00:11.036,-0.00410813500639051
2760,00:00:11.04,-0.0014763604849576976
2761,00:00:11.044,0.01022852701134981
2762,00:00:11.048,-0.003005274440511128
2763,00:00:11.052,-0.006926926900632661
2764,00:00:11.056,0.0036951664369553397
2765,00:00:11.06,0.018704510875977548
2766,00:00:11.064,-0.01710702758282423
2767,00:00:11.068,-0.02209688350558279
2768,00:00:11.072,-0.005834432202391328
2769,00:00:11.076,0.02327715931460267
2770,00:00:11.08,0.012253069435246287
2771,00:00:11.084,-0.004897313425317414
2772,00:00:11.088,-0.001163217413704847
2773,00:00:11.092,0.004856093088164927
2774,00:00:11.096,-0.00788621301762759
2775,00:00:11.1,-0.014984329929575319
2776,00:00:11.104,0.00023834320018068
2777,00:00:11.108,0.02957932377466934
2778,00:00:11.112,0.0017223469913005903
2779,00:00:11.116,-0.030109076527878607
2780,00:00:11.12,0.010159686906263189
2781,00:00:11.124,-0.0010099530918523596
2782,00:00:11.128,-0.0030504968017339698
2783,00:00:11.132,0.0033740650396794124
2784,00:00:11.136,0.0020985973533243
2785,00:00:11.14,-1.782795879988995e-05
2786,00:00:11.144,0.009518910490442033
2787,00:00:11.148,0.0020470310701057306
2788,00:00:11.152,-0.009477399289608
2789,00:00:11.156,-0.00743020640220493
2790,00:00:11.16,0.004659343423554682
2791,00:00:11.164,-0.0010622670997690886
2792,00:00:11.168,-0.009095815999899061
2793,00:00:11.172,0.01493385655339807
2794,00:00:11.176,-0.0018446640169713603
2795,00:00:11.18,-0.00712391594424845
2796,00:00:11.184,0.001687472919002174
2797,00:00:11.188,0.02147061889991162
2798,00:00:11.192,0.00025295605883001154
2799,00:00:11.196,-0.02223723963834344
2800,00:00:11.2,-0.016984597255941487
2801,00:00:11.204,0.005611502565443521
2802,00:00:11.208,0.01911660854239016
2803,00:00:11.212,0.008083065913524475
2804,00:00:11.216,-0.007872616319218656
2805,00:00:11.22,-0.01471905107609927
2806,00:00:11.224,0.019293167977593808
2807,00:00:11.228,0.01373797515407209
2808,00:00:11.232,-0.02202474675141277
2809,00:00:11.236,-0.0118682263419032
2810,00:00:11.24,-0.006674048083368688
2811,00:00:11.244,0.01197915361262858
2812,00:00:11.248,0.01383802446071059
2813,00:00:11.252,0.00885082071181387
2814,00:00:11.256,-0.003332226304337385
2815,00:00:11.26,-0.024255931159132136
2816,00:00:11.264,0.00099437378230505
2817,00:00:11.268,0.01595320960041131
2818,00:00:11.272,-0.00637499010190368
2819,00:00:11.276,-0.007332117093028504
2820,00:00:11.28,0.0028464441420510403
2821,00:00:11.284,0.00186715403106063
2822,00:00:11.288,0.01236666948534548
2823,00:00:11.292,0.01678247831296176
2824,00:00:11.296,-0.014298636233434081
2825,00:00:11.3,-0.02585931669455023
2826,00:00:11.304,-0.013056461975793356
2827,00:00:11.308,0.011636336974333975
2828,00:00:11.312,0.029532508575357497
2829,00:00:11.316,0.00941830221563578
2830,00:00:11.32,-0.01804879284463822
2831,00:00:11.324,-0.01198461547028273
2832,00:00:11.328,-0.0023572822974529148
2833,00:00:11.332,0.003957921755500134
2834,00:00:11.336,-0.004930469614919272
2835,00:00:11.34,0.032163237687200315
2836,00:00:11.344,-0.0005085075390525093
2837,00:00:11.348,-0.02521857898682354
2838,00:00:11.352,-0.00829975669330452
2839,00:00:11.356,-9.64754726737703e-05
2840,00:00:11.36,-0.0004247518954798627
2841,00:00:11.364,0.004437485389644284
2842,00:00:11.368,0.031647257856093326
2843,00:00:11.372,0.00028749089688063275
2844,00:00:11.376,-0.02510965801775456
2845,00:00:11.38,-0.01740734503255223
2846,00:00:11.384,0.010798663017340008
2847,00:00:11.388,0.0116622889181599
2848,00:00:11.392,-0.00216203567106276
2849,00:00:11.396,-0.00686350301839411
2850,00:00:11.4,0.001777467608917505
2851,00:00:11.404,0.015130477026104941
2852,00:00:11.408,0.008103438129182905
2853,00:00:11.412,-0.019352402538061093
2854,00:00:11.416,-0.020127949072048113
2855,00:00:11.42,0.011215729755349449
2856,00:00:11.424,0.01062397542409598
2857,00:00:11.428,-0.0017165490680781698
2858,00:00:11.432,0.0028733019717037695
2859,00:00:11.436,-0.0007233384530991298
2860,00:00:11.44,0.01746938168071211
2861,00:00:11.444,-0.018531187204644122
2862,00:00:11.448,-0.01918388064950701
2863,00:00:11.452,0.00652252628060524
2864,00:00:11.456,0.009059804491698721
2865,00:00:11.46,-0.006025074748322361
2866,00:00:11.464,0.01804150162206495
2867,00:00:11.468,0.01899462344590574
2868,00:00:11.472,-0.02098514931276441
2869,00:00:11.476,-0.017392965615726997
2870,00:00:11.48,-0.011476218351162979
2871,00:00:11.484,0.01243902090936899
2872,00:00:11.488,0.010861791583010923
2873,00:00:11.492,0.007180552580393854
2874,00:00:11.496,-0.0023556186351925096
2875,00:00:11.5,-0.015341116581112138
2876,00:00:11.504,0.00201130146160722
2877,00:00:11.508,0.03788944144616833
2878,00:00:11.512,-0.01874057808890935
2879,00:00:11.516,-0.034001969674136476
2880,00:00:11.52,-0.00990353082306683
2881,00:00:11.524,0.014382194582140068
2882,00:00:11.528,0.031866986537352225
2883,00:00:11.532,0.02098528470378373
2884,00:00:11.536,-0.028058064286597052
2885,00:00:11.54,-0.02534130797721441
2886,00:00:11.544,-0.0004632867348846109
2887,00:00:11.548,0.029310275742318554
2888,00:00:11.552,-0.0009082094766199604
2889,00:00:11.556,-0.01550511398818341
2890,00:00:11.56,-0.002941772054327883
2891,00:00:11.564,0.0013547303969971831
2892,00:00:11.568,0.002408247906714681
2893,00:00:11.572,0.006329444237053397
2894,00:00:11.576,0.018280216259881868
2895,00:00:11.58,-0.01402205828344449
2896,00:00:11.584,-0.01416428701486439
2897,00:00:11.588,-0.004249179735779762
2898,00:00:11.592,0.001929231220856309
2899,00:00:11.596,0.01084475545212627
2900,00:00:11.6,0.010974208300467577
2901,00:00:11.604,0.004574841044814095
2902,00:00:11.608,-0.015064410894410657
2903,00:00:11.612,-0.011367327533662342
2904,00:00:11.616,-0.005859592260094366
2905,00:00:11.62,0.006922904838575051
2906,00:00:11.624,0.007683498493861407
2907,00:00:11.628,0.016506651008967282
2908,00:00:11.632,-0.0032117828086484263
2909,00:00:11.636,-0.0048953101504593715
2910,00:00:11.64,-0.01296621828805655
2911,00:00:11.644,-0.007699999550823117
2912,00:00:11.648,0.017155679001007236
2913,00:00:11.652,-0.007920253963675355
2914,00:00:11.656,0.00390777888242155
2915,00:00:11.66,0.003816837561316791
2916,00:00:11.664,0.002543804159358841
2917,00:00:11.668,-0.01017321401741355
2918,00:00:11.672,0.0018573233392089599
2919,00:00:11.676,0.0011956038069911266
2920,00:00:11.68,-0.0009635032329242688
2921,00:00:11.684,0.0006929589435458305
2922,00:00:11.688,0.003884935111273086
2923,00:00:11.692,0.00992183899506926
2924,00:00:11.696,-0.01107165950816125
2925,00:00:11.7,-0.01724675530567766
2926,00:00:11.704,0.008921370725147421
2927,00:00:11.708,0.01308475539553906
2928,00:00:11.712,0.006637986196437854
2929,00:00:11.716,-0.0012505947961471955
2930,00:00:11.72,-0.02025465795304628
2931,00:00:11.724,-0.010806035657878939
2932,00:00:11.728,0.02577177924104037
2933,00:00:11.732,0.0009637532057240599
2934,00:00:11.736,-0.011840058257803328
2935,00:00:11.74,0.01424169616075229
2936,00:00:11.744,-0.005630375817418102
2937,00:00:11.748,-0.011866171844303641
2938,00:00:11.752,-0.003310061184492949
2939,00:00:11.756,0.0067180661062593554
2940,00:00:11.76,-0.0011401600204408156
2941,00:00:11.764,0.01332480530254543
2942,00:00:11.768,0.01017739181406796
2943,00:00:11.772,-0.005470864940434739
2944,00:00:11.776,-0.0172992895822972
2945,00:00:11.78,-0.0066963592544198106
2946,00:00:11.784,6.932590622454231e-05
2947,00:00:11.788,0.00588735670316965
2948,00:00:11.792,0.01312199188396335
2949,00:00:11.796,-0.00586178200319409
2950,00:00:11.8,-0.006668408284895129
2951,00:00:11.804,0.0170074335765093
2952,00:00:11.808,0.0075928362784907204
2953,00:00:11.812,-0.02021666849032042
2954,00:00:11.816,-0.02252868306823079
2955,00:00:11.82,0.0072431969456374905
2956,00:00:11.824,0.031208657601382528
2957,00:00:11.828,-0.00796933809760959
2958,00:00:11.832,-0.009123992640525101
2959,00:00:11.836,-0.0033801940735429504
2960,00:00:11.84,0.01199004030786454
2961,00:00:11.844,-0.00851611769758165
2962,00:00:11.848,-0.0036067637120140716
2963,00:00:11.852,0.00566870154580101
2964,00:00:11.856,-0.0003664828836917912
2965,00:00:11.86,0.00579011696390808
2966,00:00:11.864,-0.001236229378264401
2967,00:00:11.868,-0.00800231145694852
2968,00:00:11.872,-0.0033090072683990106
2969,00:00:11.876,-0.0020724529895233008
2970,00:00:11.88,0.01028119900729507
2971,00:00:11.884,0.008811161853373049
2972,00:00:11.888,-0.004148643114604062
2973,00:00:11.892,-0.0018785490246955357
2974,00:00:11.896,0.00518171244766563
2975,00:00:11.9,-0.017317387100774777
2976,00:00:11.904,-0.01272752950899303
2977,00:00:11.908,0.018428776762448258
2978,00:00:11.912,0.0033672689460217888
2979,00:00:11.916,0.000565735157579178
2980,00:00:11.92,0.017279784864513214
2981,00:00:11.924,-0.0048779847566038405
2982,00:00:11.928,-0.021060653380118328
2983,00:00:11.932,-0.010331536032026635
2984,00:00:11.936,0.0011550991330295805
2985,00:00:11.94,0.01593711343593893
2986,00:00:11.944,0.014828633895376689
2987,00:00:11.948,-0.0070924885803833595
2988,00:00:11.952,-0.004612293788341049
2989,00:00:11.956,-0.00971462926827371
2990,00:00:11.96,-0.004376173194032162
2991,00:00:11.964,0.01455635530874134
2992,00:00:11.968,-0.00025332576478831427
2993,00:00:11.972,-0.00248832313809544
2994,00:00:11.976,0.01148679666221146
2995,00:00:11.98,-0.003063467796891928
2996,00:00:11.984,-0.0106629969086498
2997,00:00:11.988,-0.00896016508340836
2998,00:00:11.992,-0.01715503179002555
2999,00:00:11.996,0.021165605608985064
3000,00:00:12,0.03405647748149929
3001,00:00:12.004,-0.010525216654059477
3002,00:00:12.008,-0.01564601261634376
3003,00:00:12.012,-0.013713330146856599
3004,00:00:12.016,0.0025368126807734414
3005,00:00:12.02,0.013369972584769092
3006,00:00:12.024,0.0015904594911262456
3007,00:00:12.028,-0.009272931551095095
3008,00:00:12.032,0.0006579202745342553
3009,00:00:12.036,0.01168296625837683
3010,00:00:12.04,-0.013806284056045072
3011,00:00:12.044,0.0017563237342983495
3012,00:00:12.048,0.0027921881992369903
3013,00:00:12.052,0.00674996222369373
3014,00:00:12.056,-0.006805804761825126
3015,00:00:12.06,0.0025656246580183484
3016,00:00:12.064,0.012325111776590344
3017,00:00:12.068,-0.014753527822904264
3018,00:00:12.072,-0.002274688362376764
3019,00:00:12.076,-0.00554484513122589
3020,00:00:12.08,-0.00165325531270355
3021,00:00:12.084,0.01114040450192988
3022,00:00:12.088,-0.0010076642502099302
3023,00:00:12.092,0.0038393826689571094
3024,00:00:12.096,0.01657909504137931
3025,00:00:12.1,-0.012730236048810184
3026,00:00:12.104,-0.01611087995115664
3027,00:00:12.108,-0.007467402436304836
3028,00:00:12.112,0.010535925102885806
3029,00:00:12.116,0.011950942222028962
3030,00:00:12.12,-0.0027975302655249903
3031,00:00:12.124,-0.006059798412024982
3032,00:00:12.128,0.0069304475327953705
3033,00:00:12.132,-0.0033148226357298015
3034,00:00:12.136,-0.00939705548807978
3035,00:00:12.14,0.015910511137917614
3036,00:00:12.144,0.006952298339456322
3037,00:00:12.148,-0.011599933553952725
3038,00:00:12.152,-0.016652119345962977
3039,00:00:12.156,-0.00317353699938394
3040,00:00:12.16,0.010025683091953388
3041,00:00:12.164,0.016955517057795078
3042,00:00:12.168,-0.0027059221174567903
3043,00:00:12.172,-0.009826818364672354
3044,00:00:12.176,0.015483029943425253
3045,00:00:12.18,0.0018729405128397006
3046,00:00:12.184,-0.021633581898640807
3047,00:00:12.188,-0.013597333134384826
3048,00:00:12.192,0.00726680224761367
3049,00:00:12.196,0.02483082516118882
3050,00:00:12.2,-0.005599186639301481
3051,00:00:12.204,-0.006134682847914515
3052,00:00:12.208,0.00791486370144412
3053,00:00:12.212,-0.011275930097326636
3054,00:00:12.216,-0.0064494999824091835
3055,00:00:12.22,0.002102770007695658
3056,00:00:12.224,0.01669982774183154
3057,00:00:12.228,0.0018641065107658466
3058,00:00:12.232,-0.00991405069362372
3059,00:00:12.236,-0.004724118876765719
3060,00:00:12.24,0.0016148631257237838
3061,00:00:12.244,-0.00637282512616366
3062,00:00:12.248,0.0064902134472504276
3063,00:00:12.252,0.00408392993267626
3064,00:00:12.256,-0.0004839622415602298
3065,00:00:12.26,0.014010552957188347
3066,00:00:12.264,-0.0033569639199413385
3067,00:00:12.268,-0.02736993227154015
3068,00:00:12.272,0.004735900380183015
3069,00:00:12.276,0.012047625219565825
3070,00:00:12.28,-0.0070932828821241795
3071,00:00:12.284,0.00795470020966604
3072,00:00:12.288,-0.00127822568174452
3073,00:00:12.292,-0.005723653826862575
3074,00:00:12.296,0.01024271916685393
3075,00:00:12.3,0.0024901235010474903
3076,00:00:12.304,-0.011846896377392082
3077,00:00:12.308,0.00274819089099765
3078,00:00:12.312,0.0031390698568429824
3079,00:00:12.316,7.420836482197068e-05
3080,00:00:12.32,-0.01022230391390622
3081,00:00:12.324,0.0017760576447471998
3082,00:00:12.328,0.01173117049620487
3083,00:00:12.332,0.010675062949303541
3084,00:00:12.336,-0.019837399246171082
3085,00:00:12.34,-0.01606268435716626
3086,00:00:12.344,0.014592904422897894
3087,00:00:12.348,0.02386676310561602
3088,00:00:12.352,-0.006626350979786363
3089,00:00:12.356,-0.014936710242182048
3090,00:00:12.36,-0.01409393732319582
3091,00:00:12.364,-0.0034599059727043013
3092,00:00:12.368,0.03296560165472329
3093,00:00:12.372,0.008792137232376299
