,Elapsed Time,EMG
0,00:00:00,5.5153477191924996
1,00:00:00.004,-5.24635589122772
2,00:00:00.008,-4.34204995632172
3,00:00:00.012,-0.495837524533272
4,00:00:00.016,2.214579820632934
5,00:00:00.02,2.732632160186768
6,00:00:00.024,1.700453877449036
7,00:00:00.028,0.2400434911251068
8,00:00:00.032,-0.799891799688339
9,00:00:00.036,-1.112010598182678
10,00:00:00.04,-0.811644107103348
11,00:00:00.044,-0.2989441528916363
12,00:00:00.048,0.12814643979072582
13,00:00:00.052,0.322377301752568
14,00:00:00.056,0.29938558489084277
15,00:00:00.06,0.15083897486329081
16,00:00:00.064,0.009546463959850371
17,00:00:00.068,-0.08513977006077761
18,00:00:00.072,-0.10508015751838691
19,00:00:00.076,-0.0625263899564743
20,00:00:00.08,-0.01902369922026991
21,00:00:00.084,0.01141184079460799
22,00:00:00.088,0.03163053561002016
23,00:00:00.092,0.03089494258165356
24,00:00:00.096,0.008159393699315844
25,00:00:00.1,-0.010714585150708441
26,00:00:00.104,0.01001789094880223
27,00:00:00.108,0.01766117988154287
28,00:00:00.112,-0.03117151465266942
29,00:00:00.116,-0.035235882503911825
30,00:00:00.12,0.00188545649871231
31,00:00:00.124,0.0337405069731176
32,00:00:00.128,0.031797106843441704
33,00:00:00.132,-0.028258651524083682
34,00:00:00.136,-0.028023293241858472
35,00:00:00.14,0.006776842870749539
36,00:00:00.144,0.014287428522948183
37,00:00:00.148,0.00480671599507332
38,00:00:00.152,0.004978952580131579
39,00:00:00.156,-0.0028978625778108896
40,00:00:00.16,-0.0007718632696196506
41,00:00:00.164,-0.0033599582675378813
42,00:00:00.168,-0.006308171898126601
43,00:00:00.172,-0.00695564819034189
44,00:00:00.176,0.0072977389208972515
45,00:00:00.18,0.008735682000406093
46,00:00:00.184,-0.002234237326774753
47,00:00:00.188,-0.0036609876624424907
48,00:00:00.192,-0.007888886568252932
49,00:00:00.196,0.0022151814773678793
50,00:00:00.2,0.01234534860122949
51,00:00:00.204,0.00721464189700781
52,00:00:00.208,-0.01141432998701927
53,00:00:00.212,-0.01277062320150436
54,00:00:00.216,0.01756486995145677
55,00:00:00.22,0.00395232683513314
56,00:00:00.224,-0.016137761078425683
57,00:00:00.228,-1.387714291927112e-06
58,00:00:00.232,-0.0006377384706865953
59,00:00:00.236,-0.006147941225208349
60,00:00:00.24,0.0073113512771669775
61,00:00:00.244,0.01957357814535499
62,00:00:00.248,0.013598940800875429
63,00:00:00.252,-0.03072499670088296
64,00:00:00.256,-0.011357478331774421
65,00:00:00.26,-0.00428000907413661
66,00:00:00.264,0.00915328739210963
67,00:00:00.268,0.01764019136317077
68,00:00:00.272,0.004967717686668041
69,00:00:00.276,-5.765235982831997e-05
70,00:00:00.28,-0.00704938545823102
71,00:00:00.284,-0.010693895164877128
72,00:00:00.288,-0.007545346044935281
73,00:00:00.292,-0.003343896474689239
74,00:00:00.296,0.007911346940090921
75,00:00:00.3,0.009565583430230621
76,00:00:00.304,0.0054760458006057906
77,00:00:00.308,0.0023056119680404698
78,00:00:00.312,0.0010798239381983898
79,00:00:00.316,-0.007312581699807199
80,00:00:00.32,-0.0158849487197585
81,00:00:00.324,-0.006074467761209238
82,00:00:00.328,0.02132881351280962
83,00:00:00.332,0.0060475715436041294
84,00:00:00.336,0.0015802434063516531
85,00:00:00.34,-0.00701919919811189
86,00:00:00.344,-0.009137953980825838
87,00:00:00.348,-0.0032744021154940198
88,00:00:00.352,0.00027113454416393843
89,00:00:00.356,-0.0017152502841781877
90,00:00:00.36,0.027840867929626235
91,00:00:00.364,-0.003517638426274062
92,00:00:00.368,-0.03079929249361152
93,00:00:00.372,0.0027633346617221893
94,00:00:00.376,0.031058292835950848
95,00:00:00.38,-0.008696590550243903
96,00:00:00.384,-0.00860134139657022
97,00:00:00.388,-0.00257367081940171
98,00:00:00.392,-0.004475967691632837
99,00:00:00.396,0.0024414199870080415
100,00:00:00.4,0.012363654561340743
101,00:00:00.404,-0.005167777795577421
102,00:00:00.408,-0.00802361126989131
103,00:00:00.412,-0.0037925934884697208
104,00:00:00.416,0.0013375100679695693
105,00:00:00.42,0.01658207783475518
106,00:00:00.424,0.00675873551517728
107,00:00:00.428,-0.008922800538130105
108,00:00:00.432,-0.00962408713530749
109,00:00:00.436,-0.004326838767156001
110,00:00:00.44,-0.003160681138979272
111,00:00:00.444,0.0055183763615786995
112,00:00:00.448,0.006703807506710288
113,00:00:00.452,-0.0004106842243345359
114,00:00:00.456,0.00607623998075724
115,00:00:00.46,0.013570036273449671
116,00:00:00.464,-0.019886695663444653
117,00:00:00.468,-0.01940493669826536
118,00:00:00.472,0.0087714530527592
119,00:00:00.476,0.021829619072377678
120,00:00:00.48,-0.004761759424582131
121,00:00:00.484,-0.0177074754610658
122,00:00:00.488,0.0029540338437072933
123,00:00:00.492,0.013382053701207049
124,00:00:00.496,-0.009938991628587239
125,00:00:00.5,-0.005074510350823408
126,00:00:00.504,0.01384099852293728
127,00:00:00.508,-0.0009017509873956394
128,00:00:00.512,0.0032114579807966904
129,00:00:00.516,-0.003096447209827596
130,00:00:00.52,-0.00648260267917067
131,00:00:00.524,0.0033586976060178443
132,00:00:00.528,-0.006859747227281328
133,00:00:00.532,7.380265742564646e-06
134,00:00:00.536,0.007827797642676191
135,00:00:00.54,-0.0022434687707572603
136,00:00:00.544,0.0005784538516309095
137,00:00:00.548,0.013516483828425411
138,00:00:00.552,-0.00937692157458515
139,00:00:00.556,-0.01014159910846502
140,00:00:00.56,-0.009610294713638728
141,00:00:00.564,0.012709814589470618
142,00:00:00.568,0.007973470957949761
143,00:00:00.572,-0.0091084034065716
144,00:00:00.576,0.0027764847618527754
145,00:00:00.58,-0.00826006964780391
146,00:00:00.584,0.005077952664578335
147,00:00:00.588,0.03728988874354397
148,00:00:00.592,0.022839260753244117
149,00:00:00.596,-0.06042664952110502
150,00:00:00.6,-0.048075706406962126
151,00:00:00.604,0.007092879852280023
152,00:00:00.608,0.03410442965105178
153,00:00:00.612,0.02921222848817707
154,00:00:00.616,-0.0014733751304447694
155,00:00:00.62,-0.004084902291651819
156,00:00:00.624,0.0002573895035311701
157,00:00:00.628,-0.011479225009679787
158,00:00:00.632,-0.01868709980044518
159,00:00:00.636,0.010588143835775561
160,00:00:00.64,0.015953938942402598
161,00:00:00.644,0.008372053969651464
162,00:00:00.648,-0.01186804613098499
163,00:00:00.652,-0.02241389057599006
164,00:00:00.656,-0.01130118011496961
165,00:00:00.66,0.028501630993559963
166,00:00:00.664,0.02170662069693208
167,00:00:00.668,0.0006092768162488608
168,00:00:00.672,-0.014941940549761059
169,00:00:00.676,-0.026801260653883142
170,00:00:00.68,0.00760270352475346
171,00:00:00.684,0.005421177658718079
172,00:00:00.688,-0.0032186326570808887
173,00:00:00.692,0.011582210281630983
174,00:00:00.696,0.007984232011949649
175,00:00:00.7,-0.004057781217852611
176,00:00:00.704,-0.0010762859601527478
177,00:00:00.708,0.001687813841272146
178,00:00:00.712,-0.013317202770849695
179,00:00:00.716,-0.005785921588540084
180,00:00:00.72,0.024516822188161324
181,00:00:00.724,-0.001660101814195518
182,00:00:00.728,-0.018116316117811972
183,00:00:00.732,-0.009955422603525221
184,00:00:00.736,0.016749532311223447
185,00:00:00.74,0.013779727101791652
186,00:00:00.744,-0.018405578099191168
187,00:00:00.748,-0.005073378153610975
188,00:00:00.752,0.01962838973850008
189,00:00:00.756,0.0021982866746839093
190,00:00:00.76,-0.010360704618506132
191,00:00:00.764,-0.007169704942498353
192,00:00:00.768,0.0014553774963133018
193,00:00:00.772,-0.006740313721820706
194,00:00:00.776,0.014555381727404892
195,00:00:00.78,0.00902398396283391
196,00:00:00.784,-0.00548562733456488
197,00:00:00.788,0.0114044463261962
198,00:00:00.792,-0.01951361540704968
199,00:00:00.796,-0.022865221370011617
200,00:00:00.8,0.01327900274191051
201,00:00:00.804,0.00480056065134704
202,00:00:00.808,0.005343529162928459
203,00:00:00.812,0.009277646153350366
204,00:00:00.816,0.002867092436645181
205,00:00:00.82,-0.00766564975492655
206,00:00:00.824,-0.006124166953668464
207,00:00:00.828,0.012974313693121072
208,00:00:00.832,-0.0038077896460891195
209,00:00:00.836,-0.014720339793711928
210,00:00:00.84,0.002348579524550578
211,00:00:00.844,0.0002495562657713708
212,00:00:00.848,-0.0003003007732331792
213,00:00:00.852,-0.005601877113804219
214,00:00:00.856,0.005570472741965201
215,00:00:00.86,0.011081257776822919
216,00:00:00.864,0.0143229275709018
217,00:00:00.868,0.003647031437139962
218,00:00:00.872,-0.017199647380039092
219,00:00:00.876,-0.013519059051759581
220,00:00:00.88,-0.013728798454394557
221,00:00:00.884,-0.000554489146452397
222,00:00:00.888,0.009609361470211299
223,00:00:00.892,0.02419793698936702
224,00:00:00.896,0.01040893304161727
225,00:00:00.9,0.005103755975142121
226,00:00:00.904,-0.018033588654361672
227,00:00:00.908,-0.03723041620105503
228,00:00:00.912,-0.0009860450954875023
229,00:00:00.916,0.033086352050304385
230,00:00:00.92,0.001318511785939331
231,00:00:00.924,-0.00221163453534246
232,00:00:00.928,-0.003774365992285317
233,00:00:00.932,-0.0007558737161161926
234,00:00:00.936,0.00557493197266013
235,00:00:00.94,0.01014983514323833
236,00:00:00.944,-0.0020260531455278397
237,00:00:00.948,-0.030837076075840703
238,00:00:00.952,-0.0024087113561108643
239,00:00:00.956,0.02403013384900987
240,00:00:00.96,0.004888804804068056
241,00:00:00.964,-0.0030072582885623
242,00:00:00.968,0.0018793564231600634
243,00:00:00.972,-0.01070851960685104
244,00:00:00.976,-0.005559830402489753
245,00:00:00.98,0.0060489908792078495
246,00:00:00.984,0.00362559035420417
247,00:00:00.988,-0.00042709300760179997
248,00:00:00.992,0.006215800065547224
249,00:00:00.996,-0.00519850098498864
250,00:00:01,-7.47705344110801e-05
251,00:00:01.004,0.0060379771166481164
252,00:00:01.008,-0.01728950405959042
253,00:00:01.012,-0.0023189757484942714
254,00:00:01.016,0.004842445137910549
255,00:00:01.02,0.01232189219444991
256,00:00:01.024,0.016783591605417293
257,00:00:01.028,-0.00912993284873663
258,00:00:01.032,-0.011549083516001708
259,00:00:01.036,-0.0036352279130369702
260,00:00:01.04,-0.007983823801623659
261,00:00:01.044,0.0011890744790434902
262,00:00:01.048,-0.0007896088063716897
263,00:00:01.052,0.00495483493432402
264,00:00:01.056,0.009433884901227424
265,00:00:01.06,0.00942417955957354
266,00:00:01.064,0.001758525409968566
267,00:00:01.068,-0.01740507222712037
268,00:00:01.072,-0.012001896509900689
269,00:00:01.076,0.020061427028849752
270,00:00:01.08,0.014060402521863583
271,00:00:01.084,-0.021473787281138322
272,00:00:01.088,-0.01939328573644159
273,00:00:01.092,0.0019573844292608547
274,00:00:01.096,0.02107433974742893
275,00:00:01.1,0.014762409962713729
276,00:00:01.104,-0.012793033383786682
277,00:00:01.108,0.00020131492055952462
278,00:00:01.112,-0.01084136427380145
279,00:00:01.116,-0.001319402013905338
280,00:00:01.12,0.010803806013427671
281,00:00:01.124,0.009823952626902614
282,00:00:01.128,-0.007682835217565301
283,00:00:01.132,-0.00444622745271773
284,00:00:01.136,-0.009451292629819367
285,00:00:01.14,-0.006021286229952239
286,00:00:01.144,0.01506073903874494
287,00:00:01.148,0.01644865446723998
288,00:00:01.152,-0.01619407394900914
289,00:00:01.156,-0.009374147630296651
290,00:00:01.16,0.006980476318858562
291,00:00:01.164,0.012575521133840079
292,00:00:01.168,-0.013056967174634337
293,00:00:01.172,-0.00999856565613299
294,00:00:01.176,0.01871486264280975
295,00:00:01.18,0.0075143606518395245
296,00:00:01.184,-0.01064985734410583
297,00:00:01.188,-0.011391960724722589
298,00:00:01.192,-0.002381110069109127
299,00:00:01.196,0.0067817255621776
300,00:00:01.2,0.0066144424490630705
301,00:00:01.204,0.0006955312564969097
302,00:00:01.208,0.00524107669480145
303,00:00:01.212,-0.00702064111828804
304,00:00:01.216,-0.005678751011146231
305,00:00:01.22,0.00530743252602406
306,00:00:01.224,-0.003534638672135766
307,00:00:01.228,-0.0018522692225815306
308,00:00:01.232,0.007616397593665173
309,00:00:01.236,0.00309366593137383
310,00:00:01.24,-0.00867456989362836
311,00:00:01.244,-0.0006572925485670529
312,00:00:01.248,-0.0047098202630877495
313,00:00:01.252,0.0009745522838784409
314,00:00:01.256,0.0133745102211833
315,00:00:01.26,0.001244964310899382
316,00:00:01.264,0.00628505810163916
317,00:00:01.268,-0.00606739311479031
318,00:00:01.272,-0.024791204254142968
319,00:00:01.276,-0.007868459215387699
320,00:00:01.28,0.01774004311300815
321,00:00:01.284,0.00939837939222343
322,00:00:01.288,0.006519741786178202
323,00:00:01.292,0.0047345098573714495
324,00:00:01.296,0.0006320464017335302
325,00:00:01.3,-0.007713110768236222
326,00:00:01.304,-0.01619342603953554
327,00:00:01.308,-0.01079042267519981
328,00:00:01.312,0.007830839196685705
329,00:00:01.316,0.0055775607470423
330,00:00:01.32,0.01560118458291981
331,00:00:01.324,0.010550748731475322
332,00:00:01.328,-0.00794056021550204
333,00:00:01.332,-0.0179977501975372
334,00:00:01.336,-0.00566183752380311
335,00:00:01.34,0.007720636785961679
336,00:00:01.344,0.00697892520111054
337,00:00:01.348,0.0021673040464520402
338,00:00:01.352,-0.00162769970484078
339,00:00:01.356,-0.009109290142077958
340,00:00:01.36,0.0037972649588482532
341,00:00:01.364,-0.003988450072938577
342,00:00:01.368,0.006984113249927761
343,00:00:01.372,0.009216504229698327
344,00:00:01.376,0.004470831598155188
345,00:00:01.38,-0.016357405809685633
346,00:00:01.384,-0.016767034190706947
347,00:00:01.388,0.008444749168120321
348,00:00:01.392,0.03271627728827299
349,00:00:01.396,-0.021776204695925082
350,00:00:01.4,-0.015091818077962635
351,00:00:01.404,0.01292181317694486
352,00:00:01.408,0.00593305740039793
353,00:00:01.412,-0.008132223680149766
354,00:00:01.416,0.0031944380607456004
355,00:00:01.42,0.0037041933974251203
356,00:00:01.424,0.004938834827044046
357,00:00:01.428,-0.007665793353226032
358,00:00:01.432,-0.00779072591103613
359,00:00:01.436,0.005688397097401325
360,00:00:01.44,0.00482209876645356
361,00:00:01.444,0.0005417559295892605
362,00:00:01.448,-0.00021904427558182976
363,00:00:01.452,-0.010877217631787069
364,00:00:01.456,0.0007450885605066994
365,00:00:01.46,0.0005592125089606298
366,00:00:01.464,0.00997328769881278
367,00:00:01.468,0.00480835093185305
368,00:00:01.472,-0.0040282610098074665
369,00:00:01.476,-0.005225999921094633
370,00:00:01.48,-0.0008367616101168081
371,00:00:01.484,-2.544652670622132e-05
372,00:00:01.488,6.204449164213741e-06
373,00:00:01.492,-0.004058537335367878
374,00:00:01.496,0.0042200407769996725
375,00:00:01.5,-0.00047876802273095044
376,00:00:01.504,0.004676743948948566
377,00:00:01.508,-0.002308272523805492
378,00:00:01.512,0.00440990016795695
379,00:00:01.516,-0.005826702341437347
380,00:00:01.52,-0.007948942249640819
381,00:00:01.524,0.012733862065942937
382,00:00:01.528,0.00652356445789338
383,00:00:01.532,-0.0134667360689491
384,00:00:01.536,-0.0036806371062994003
385,00:00:01.54,0.00408469804096967
386,00:00:01.544,0.003750078889424912
387,00:00:01.548,-0.00509962427895516
388,00:00:01.552,0.0008582733571529397
389,00:00:01.556,0.00731949461624026
390,00:00:01.56,0.008928497787564991
391,00:00:01.564,-0.0125308008864522
392,00:00:01.568,-0.015740563976578387
393,00:00:01.572,0.00516145618166775
394,00:00:01.576,0.020280016702599834
395,00:00:01.58,-0.0014643734320998174
396,00:00:01.584,-0.011406223056837911
397,00:00:01.588,0.0007481838110834299
398,00:00:01.592,0.01042100565973669
399,00:00:01.596,-0.011597095988690848
400,00:00:01.6,-0.00764882448129356
401,00:00:01.604,0.0012921624129376185
402,00:00:01.608,0.00836385716684163
403,00:00:01.612,0.010294965475054596
404,00:00:01.616,-0.0006011546211084429
405,00:00:01.62,-0.007591119792778048
406,00:00:01.624,-0.01164013892412186
407,00:00:01.628,0.006993616931140421
408,00:00:01.632,0.004994537688617121
409,00:00:01.636,-0.00037916563451289957
410,00:00:01.64,0.003256659212638621
411,00:00:01.644,-0.002098412194754933
412,00:00:01.648,-0.00502346432767809
413,00:00:01.652,-0.0017513643251732
414,00:00:01.656,-0.0005576220137299991
415,00:00:01.66,0.008808068349026144
416,00:00:01.664,0.005905900776269847
417,00:00:01.668,-0.01055798324523494
418,00:00:01.672,-0.00685709062963724
419,00:00:01.676,0.00886067358078436
420,00:00:01.68,0.00721031019929796
421,00:00:01.684,-0.005524879481527017
422,00:00:01.688,-0.014685309783089864
423,00:00:01.692,0.00532698421739042
424,00:00:01.696,0.01608037715777759
425,00:00:01.7,-0.00839285319671039
426,00:00:01.704,-0.009569971589371574
427,00:00:01.708,0.0015078852884471495
428,00:00:01.712,0.001651302562095227
429,00:00:01.716,0.01290458627045155
430,00:00:01.72,0.005074556000181472
431,00:00:01.724,-0.00812774235964753
432,00:00:01.728,-0.0015849920455366336
433,00:00:01.732,-0.01299101859331131
434,00:00:01.736,0.0024932646192610194
435,00:00:01.74,0.008106170203973306
436,00:00:01.744,0.0020565991289913602
437,00:00:01.748,-0.0029040449298918217
438,00:00:01.752,-0.0016463888168800594
439,00:00:01.756,0.004593693593051281
440,00:00:01.76,-0.006707301246933651
441,00:00:01.764,0.0038795442087575863
442,00:00:01.768,0.007505098590627306
443,00:00:01.772,0.0002993761445395652
444,00:00:01.776,-0.009290811256505549
445,00:00:01.78,-0.010069649666547779
446,00:00:01.784,0.001958370557986193
447,00:00:01.788,0.00902138906531037
448,00:00:01.792,0.00406543328426778
449,00:00:01.796,0.0007977737113833432
450,00:00:01.8,0.005098875379189851
451,00:00:01.804,-0.001486482200562028
452,00:00:01.808,-0.016498628072440628
453,00:00:01.812,-0.010567175166215775
454,00:00:01.816,0.013134024455212053
455,00:00:01.82,0.02742535726792993
456,00:00:01.824,-0.009395984321599821
457,00:00:01.828,-0.008271519822301343
458,00:00:01.832,-0.015197010478004761
459,00:00:01.836,-0.004024718422442681
460,00:00:01.84,0.012434945936547594
461,00:00:01.844,0.009628120169509206
462,00:00:01.848,-0.0064040395081974575
463,00:00:01.852,0.00016643904382362962
464,00:00:01.856,0.007652887317817652
465,00:00:01.86,-0.001287923767449688
466,00:00:01.864,-0.009532298601698177
467,00:00:01.868,-0.01118782558478415
468,00:00:01.872,0.011305925453598336
469,00:00:01.876,0.013642142235767096
470,00:00:01.88,-0.00452873925678432
471,00:00:01.884,-0.009552660747431219
472,00:00:01.888,0.002110290981363502
473,00:00:01.892,-0.006256790176848886
474,00:00:01.896,-0.002823318922310132
475,00:00:01.9,0.00449791189748793
476,00:00:01.904,0.01339156192261726
477,00:00:01.908,0.011534500867128379
478,00:00:01.912,-0.00337339239194989
479,00:00:01.916,-0.024495651945471767
480,00:00:01.92,-0.003489583134069113
481,00:00:01.924,0.0005968709301669185
482,00:00:01.928,0.00345798255875706
483,00:00:01.932,0.010630781995132569
484,00:00:01.936,-0.00027253568987362
485,00:00:01.94,0.00947432487737388
486,00:00:01.944,-0.0012892078229924655
487,00:00:01.948,-0.013400475610978901
488,00:00:01.952,-0.00101980415638536
489,00:00:01.956,-0.000422270502895122
490,00:00:01.96,0.0031526590464636705
491,00:00:01.964,-0.0021766287973150693
492,00:00:01.968,0.00199344905558974
493,00:00:01.972,-0.0018400528933852907
494,00:00:01.976,0.004971572197973732
495,00:00:01.98,0.005040202493546529
496,00:00:01.984,-0.006761815777281296
497,00:00:01.988,0.0017562137218192205
498,00:00:01.992,-0.001417567895259712
499,00:00:01.996,-0.0037896019639447305
500,00:00:02,0.003340126946568493
501,00:00:02.004,-0.0020493463380262308
502,00:00:02.008,-0.002749239880358797
503,00:00:02.012,0.00333117460832
504,00:00:02.016,0.00569219142198563
505,00:00:02.02,0.0036432912456803045
506,00:00:02.024,-0.0062797716818749965
507,00:00:02.028,-0.007255348085891455
508,00:00:02.032,0.002956840442493556
509,00:00:02.036,0.00779893790604547
510,00:00:02.04,-0.006775190937332814
511,00:00:02.044,-0.0021397208620328413
512,00:00:02.048,0.0013536193291656682
513,00:00:02.052,0.004537064232863486
514,00:00:02.056,0.0018670217832550302
515,00:00:02.06,0.0009605436061974598
516,00:00:02.064,-0.0022509055779664743
517,00:00:02.068,-0.003440691143623557
518,00:00:02.072,-0.00654805218800903
519,00:00:02.076,-0.0027363253757357606
520,00:00:02.08,0.00821086042560637
521,00:00:02.084,0.00888530514203012
522,00:00:02.088,-0.0002765682147582919
523,00:00:02.092,-0.010146523505682127
524,00:00:02.096,-0.008176361850928519
525,00:00:02.1,0.023386462125927203
526,00:00:02.104,0.007318253628909586
527,00:00:02.108,-0.02068891178350898
528,00:00:02.112,-0.011573185794986741
529,00:00:02.116,-0.0016373847320210193
530,00:00:02.12,0.01326449261978268
531,00:00:02.124,0.007249399088323118
532,00:00:02.128,0.00104098953306676
533,00:00:02.132,0.0014505806248053012
534,00:00:02.136,-0.0095508361700922
535,00:00:02.14,-0.005769397830590611
536,00:00:02.144,0.006770502310246229
537,00:00:02.148,-0.00600289250724018
538,00:00:02.152,0.007265602704137561
539,00:00:02.156,0.0050109581789001875
540,00:00:02.16,-0.004554150451440368
541,00:00:02.164,-0.007930887222755697
542,00:00:02.168,0.003409334283787764
543,00:00:02.172,0.0028370024811010816
544,00:00:02.176,0.008456748677417613
545,00:00:02.18,0.007506435917719052
546,00:00:02.184,-0.010883211845794003
547,00:00:02.188,-0.01949614495970311
548,00:00:02.192,-0.00267683691345155
549,00:00:02.196,0.008465909515507516
550,00:00:02.2,0.01467757183127106
551,00:00:02.204,0.010794316069222987
552,00:00:02.208,-0.0041727045318111795
553,00:00:02.212,-0.0159828627947718
554,00:00:02.216,-0.006086156819947058
555,00:00:02.22,-0.00017081887926906
556,00:00:02.224,0.011358005402144052
557,00:00:02.228,0.00846819556318223
558,00:00:02.232,-0.00705658871447667
559,00:00:02.236,-0.0024598116433480685
560,00:00:02.24,-0.005593736190348857
561,00:00:02.244,-0.0073368516750633795
562,00:00:02.248,0.004657154684537087
563,00:00:02.252,0.01899974897969515
564,00:00:02.256,0.008731211069971321
565,00:00:02.26,-0.0145742121967487
566,00:00:02.264,-0.01507561665493995
567,00:00:02.268,-0.008011614496354015
568,00:00:02.272,0.023711287183687122
569,00:00:02.276,0.01193353650160134
570,00:00:02.28,-0.015206835058052124
571,00:00:02.284,-0.021066307090222853
572,00:00:02.288,0.0014494702918455052
573,00:00:02.292,0.013768400298431523
574,00:00:02.296,0.01105283224023879
575,00:00:02.3,0.003266054758569224
576,00:00:02.304,0.0010668613540474325
577,00:00:02.308,-0.009449553908780219
578,00:00:02.312,-0.00569084193557501
579,00:00:02.316,0.002000079664867371
580,00:00:02.32,-0.00125904951710255
581,00:00:02.324,-0.00947116827592254
582,00:00:02.328,-0.002312798314960677
583,00:00:02.332,0.015609395995852492
584,00:00:02.336,0.020685940515250002
585,00:00:02.34,-0.003544880863046271
586,00:00:02.344,-0.02453930140472944
587,00:00:02.348,-0.013000979119624397
588,00:00:02.352,0.004764277226058771
589,00:00:02.356,0.010818841168656931
590,00:00:02.36,0.010596908978186551
591,00:00:02.364,-0.0010827129590325058
592,00:00:02.368,0.0006331320910248891
593,00:00:02.372,-0.002296836726600306
594,00:00:02.376,-0.003961929585784683
595,00:00:02.38,-0.0032473553437739593
596,00:00:02.384,-0.001235349496710114
597,00:00:02.388,0.0006529254605993652
598,00:00:02.392,-0.0046337927651620685
599,00:00:02.396,0.007448660326190291
600,00:00:02.4,0.0037079991016071337
601,00:00:02.404,0.008846988203004
602,00:00:02.408,-0.0051024812273681094
603,00:00:02.412,-0.016522594029083838
604,00:00:02.416,0.0006688648136332614
605,00:00:02.42,0.01211335451807827
606,00:00:02.424,-0.009432812104932967
607,00:00:02.428,0.000506544136442251
608,00:00:02.432,0.009118699468672267
609,00:00:02.436,0.0025427076034247806
610,00:00:02.44,0.002506919012830621
611,00:00:02.444,-0.000782948547566775
612,00:00:02.448,-0.011659576557576658
613,00:00:02.452,-0.006284247559960932
614,00:00:02.456,0.0014317577006295302
615,00:00:02.46,0.007563002151073302
616,00:00:02.464,0.00532176019623875
617,00:00:02.468,-0.001080583810107776
618,00:00:02.472,0.0020171761570963983
619,00:00:02.476,-0.005240225509624001
620,00:00:02.48,-0.005616624199319627
621,00:00:02.484,-0.00220886018360034
622,00:00:02.488,0.013908894034102566
623,00:00:02.492,0.006020943168550729
624,00:00:02.496,-0.00804529362358153
625,00:00:02.5,-0.012243926874361929
626,00:00:02.504,0.0029957019214634805
627,00:00:02.508,-0.005385870754253122
628,00:00:02.512,0.00814191892277449
629,00:00:02.516,0.011871713097207257
630,00:00:02.52,-0.0015136490983422833
631,00:00:02.524,0.0007960954681038804
632,00:00:02.528,-0.0039709345437586325
633,00:00:02.532,-0.01442367583513259
634,00:00:02.536,0.0034997997572645567
635,00:00:02.54,0.0014615251857321729
636,00:00:02.544,-0.00383596739266068
637,00:00:02.548,0.0023914304329082305
638,00:00:02.552,0.012646325281821191
639,00:00:02.556,0.0037758379476144953
640,00:00:02.56,-0.0028022400802001314
641,00:00:02.564,0.0010372670731157952
642,00:00:02.568,-0.0038797316083218946
643,00:00:02.572,-0.018774777301587133
644,00:00:02.576,0.0051563332453952145
645,00:00:02.58,0.004605040725436992
646,00:00:02.584,0.002363068939303047
647,00:00:02.588,0.00494157779030502
648,00:00:02.592,0.002466876205289744
649,00:00:02.596,0.0013459339970722738
650,00:00:02.6,-0.00238269518013112
651,00:00:02.604,-0.008155931252986191
652,00:00:02.608,-0.0012109820672776544
653,00:00:02.612,0.008423578692600135
654,00:00:02.616,-0.0011130460916319888
655,00:00:02.62,-0.011440588103141636
656,00:00:02.624,0.00612335768528283
657,00:00:02.628,0.010876252839807423
658,00:00:02.632,0.002195942448452118
659,00:00:02.636,-0.01131168543361125
660,00:00:02.64,-0.004981108962056172
661,00:00:02.644,0.0026133037172257796
662,00:00:02.648,-0.004991565641830672
663,00:00:02.652,0.005387847719248384
664,00:00:02.656,0.00424848485272378
665,00:00:02.66,0.00698427180759609
666,00:00:02.664,-0.0010999703681591221
667,00:00:02.668,-0.00627465709112585
668,00:00:02.672,0.00030560337472707077
669,00:00:02.676,0.004174876492470511
670,00:00:02.68,-0.007154658436775209
671,00:00:02.684,-0.00882474763784558
672,00:00:02.688,-0.0016728730406612101
673,00:00:02.692,0.01498186844401061
674,00:00:02.696,0.011200913460925221
675,00:00:02.7,0.0014309701946331188
676,00:00:02.704,-0.009907351923175153
677,00:00:02.708,-0.01198693132027984
678,00:00:02.712,-0.0066620472352951704
679,00:00:02.716,0.004642075189622113
680,00:00:02.72,0.00540129898581654
681,00:00:02.724,0.00303164154320257
682,00:00:02.728,0.0028471528494264983
683,00:00:02.732,-0.00236395979300141
684,00:00:02.736,0.006105122563894836
685,00:00:02.74,0.010385007481090721
686,00:00:02.744,-0.0046509806707035785
687,00:00:02.748,-0.009035365656018257
688,00:00:02.752,-0.01715062966104598
689,00:00:02.756,-0.008966216526459899
690,00:00:02.76,0.008840024878736585
691,00:00:02.764,0.00993747706525027
692,00:00:02.768,0.01799934776499862
693,00:00:02.772,0.007982518462085867
694,00:00:02.776,-0.008112391689792312
695,00:00:02.78,-0.01646885555237534
696,00:00:02.784,-0.01076619978994131
697,00:00:02.788,0.00710740918293595
698,00:00:02.792,0.005963929346762594
699,00:00:02.796,0.009477122803218635
700,00:00:02.8,-0.0011988063633907604
701,00:00:02.804,-0.01202839089091871
702,00:00:02.808,-0.003346325247548527
703,00:00:02.812,0.0027342744288034763
704,00:00:02.816,0.004586233029840509
705,00:00:02.82,0.0012482975143939222
706,00:00:02.824,0.0008417605422437304
707,00:00:02.828,0.0026535626093391346
708,00:00:02.832,0.002182221651310104
709,00:00:02.836,-0.004074551514349878
710,00:00:02.84,-0.0020969458128092845
711,00:00:02.844,-0.00373600807506592
712,00:00:02.848,-0.01972082443535323
713,00:00:02.852,-0.0014068287673580952
714,00:00:02.856,0.059853640617802774
715,00:00:02.86,0.03968005790375171
716,00:00:02.864,-0.05444619851186869
717,00:00:02.868,-0.07116739405319092
718,00:00:02.872,-0.014031887636519969
719,00:00:02.876,0.03374846035148949
720,00:00:02.88,0.036080304416827864
721,00:00:02.884,0.01429310650564728
722,00:00:02.888,0.013913193251937631
723,00:00:02.892,-0.0114025081275031
724,00:00:02.896,-0.013488625030731775
725,00:00:02.9,-0.01838274230249227
726,00:00:02.904,-0.002808039600495257
727,00:00:02.908,0.006597868690732857
728,00:00:02.912,0.01023120689205826
729,00:00:02.916,-0.0013496775645762795
730,00:00:02.92,-0.005697262124158439
731,00:00:02.924,-0.00204793305601925
732,00:00:02.928,-0.0002566940383985617
733,00:00:02.932,0.0072691239183768595
734,00:00:02.936,-1.9812363461824676e-05
735,00:00:02.94,0.001170532894320779
736,00:00:02.944,-0.0022232405754039003
737,00:00:02.948,-0.0014553111977875304
738,00:00:02.952,0.006183721277920993
739,00:00:02.956,-0.001077073218766596
740,00:00:02.96,-0.012365517788566649
741,00:00:02.964,0.00451788041391411
742,00:00:02.968,0.0033868767786771007
743,00:00:02.972,0.003613706910982728
744,00:00:02.976,0.00840344943571836
745,00:00:02.98,-0.00814478006213904
746,00:00:02.984,-0.01524909812724219
747,00:00:02.988,-0.0018327776924706993
748,00:00:02.992,0.00647304541780613
749,00:00:02.996,0.01200328313279897
750,00:00:03,0.0028605766710825308
751,00:00:03.004,-0.008865993935614831
752,00:00:03.008,-0.004511252802330997
753,00:00:03.012,-0.0005570580251514901
754,00:00:03.016,0.01646013604477049
755,00:00:03.02,0.00747117749415338
756,00:00:03.024,-0.016929720703046776
757,00:00:03.028,-0.0105772812385112
758,00:00:03.032,-0.005489286151714631
759,00:00:03.036,0.00853701774030924
760,00:00:03.04,0.01739894470665606
761,00:00:03.044,-0.009970800485462
762,00:00:03.048,-0.0056269089109264245
763,00:00:03.052,0.006872737314552078
764,00:00:03.056,0.00812164240051062
765,00:00:03.06,-0.005338873947039245
766,00:00:03.064,-0.015624429099261749
767,00:00:03.068,-0.0001160095853265377
768,00:00:03.072,0.012913506041513756
769,00:00:03.076,0.00476457347394899
770,00:00:03.08,-0.00375439692288637
771,00:00:03.084,-0.004270711680874221
772,00:00:03.088,0.00019422422337811375
773,00:00:03.092,0.0005470305331982638
774,00:00:03.096,-0.00623593921773136
775,00:00:03.1,0.003539399360306563
776,00:00:03.104,0.008758895826758864
777,00:00:03.108,-0.003907319507561624
778,00:00:03.112,-0.0018632019637152587
779,00:00:03.116,0.0014639915898442299
780,00:00:03.12,0.0022198314545676104
781,00:00:03.124,-0.00739571242593229
782,00:00:03.128,-0.007468062336556608
783,00:00:03.132,0.008171002613380551
784,00:00:03.136,0.011958321556448938
785,00:00:03.14,0.0004251321661286082
786,00:00:03.144,-0.009625548846088353
787,00:00:03.148,-0.008067662536632275
788,00:00:03.152,0.002036178892012688
789,00:00:03.156,0.011442408605944365
790,00:00:03.16,-0.001962835720405561
791,00:00:03.164,-0.00168178486637772
792,00:00:03.168,-0.00359964335802943
793,00:00:03.172,-0.0031669902382418526
794,00:00:03.176,0.0053124366095289605
795,00:00:03.18,0.014119840547209623
796,00:00:03.184,-0.01400203572120517
797,00:00:03.188,-0.00652234698645771
798,00:00:03.192,0.002018989587668326
799,00:00:03.196,-0.0008181696612155074
800,00:00:03.2,0.003800651291385288
801,00:00:03.204,-0.000723945675417782
802,00:00:03.208,0.003065736906137316
803,00:00:03.212,0.00654315273277461
804,00:00:03.216,0.002538054570322852
805,00:00:03.22,-0.01266118232160807
806,00:00:03.224,-0.0030601499602198627
807,00:00:03.228,-0.0005069623002782499
808,00:00:03.232,0.008887313306331638
809,00:00:03.236,-0.000270726304734125
810,00:00:03.24,0.001765233697369699
811,00:00:03.244,-0.00962273735785856
812,00:00:03.248,-0.003586664923204805
813,00:00:03.252,0.01179295324254781
814,00:00:03.256,0.00639459362719208
815,00:00:03.26,-0.0018575411850179058
816,00:00:03.264,-0.007958655885886425
817,00:00:03.268,-0.00943079759599641
818,00:00:03.272,-0.0007279790734173732
819,00:00:03.276,0.007819971680873998
820,00:00:03.28,0.004800800234079359
821,00:00:03.284,-0.001820743005737311
822,00:00:03.288,0.008173333946615456
823,00:00:03.292,-1.1345720849936878e-05
824,00:00:03.296,-0.004678885641624225
825,00:00:03.3,-0.0070799695386085685
826,00:00:03.304,-0.00489443767582997
827,00:00:03.308,0.011809272022219378
828,00:00:03.312,-0.013234573096269736
829,00:00:03.316,0.01881942944601178
830,00:00:03.32,0.01468758459668603
831,00:00:03.324,-0.024788816168438678
832,00:00:03.328,-0.02399681881070137
833,00:00:03.332,0.009666281752288348
834,00:00:03.336,0.011530830059200532
835,00:00:03.34,0.011062410689191848
836,00:00:03.344,0.003842954058200109
837,00:00:03.348,-0.004753382469061769
838,00:00:03.352,-0.0034500776673667068
839,00:00:03.356,-0.00298957503400743
840,00:00:03.36,0.002232533879578099
841,00:00:03.364,-0.002373182709561656
842,00:00:03.368,-0.00878213963005692
843,00:00:03.372,0.0030525562506227245
844,00:00:03.376,0.00782212632475421
845,00:00:03.38,0.00591743487166241
846,00:00:03.384,-0.00911945616826416
847,00:00:03.388,-0.0051784941460937305
848,00:00:03.392,0.005636937654344373
849,00:00:03.396,0.011093932698713616
850,00:00:03.4,-0.0029629592318087816
851,00:00:03.404,-0.011030585272237648
852,00:00:03.408,-0.00297245944966562
853,00:00:03.412,6.910958063598778e-05
854,00:00:03.416,0.005678709654603152
855,00:00:03.42,0.004404360108310361
856,00:00:03.424,0.005235732241999358
857,00:00:03.428,-0.005407569828093979
858,00:00:03.432,-0.0034911054681288083
859,00:00:03.436,-0.014432701282203201
860,00:00:03.44,0.01761261140927675
861,00:00:03.444,0.01704864155180985
862,00:00:03.448,-0.02080399625992872
863,00:00:03.452,-0.01681782910600306
864,00:00:03.456,0.00243256683461369
865,00:00:03.46,0.011207498304429462
866,00:00:03.464,0.01636077906005084
867,00:00:03.468,0.00868633086793125
868,00:00:03.472,-0.008042700399528258
869,00:00:03.476,-0.02114747150335459
870,00:00:03.48,-0.005181289685424414
871,00:00:03.484,0.0001412295023328628
872,00:00:03.488,0.01095079991500824
873,00:00:03.492,0.004295875318348409
874,00:00:03.496,0.008105422020889822
875,00:00:03.5,0.006861872505396589
876,00:00:03.504,-0.017635390802752268
877,00:00:03.508,-0.013925102655775888
878,00:00:03.512,0.01033395575359464
879,00:00:03.516,0.01343084836844355
880,00:00:03.52,-0.0063219071598723505
881,00:00:03.524,-0.007009340588410856
882,00:00:03.528,0.00020641135051847046
883,00:00:03.532,0.0024658587353769703
884,00:00:03.536,0.00209475168958307
885,00:00:03.54,-0.0033177652512676936
886,00:00:03.544,0.0016269286861643202
887,00:00:03.548,0.00037861727469134577
888,00:00:03.552,0.0011346524115651794
889,00:00:03.556,0.0012609647528734026
890,00:00:03.56,0.0005751776043325702
891,00:00:03.564,0.0017694846319500357
892,00:00:03.568,0.0013266876339912419
893,00:00:03.572,-0.004408994445839197
894,00:00:03.576,0.00021283933892845695
895,00:00:03.58,-0.005169011652469636
896,00:00:03.584,-7.419522444251995e-05
897,00:00:03.588,-0.0002635556083987517
898,00:00:03.592,0.00175165710970759
899,00:00:03.596,0.00262032461614581
900,00:00:03.6,0.001944836578331889
901,00:00:03.604,-0.0015127910301089302
902,00:00:03.608,0.003441941458731895
903,00:00:03.612,-0.0014413151657208852
904,00:00:03.616,-0.002428347623208543
905,00:00:03.62,-0.0035788631648756577
906,00:00:03.624,-0.0002878497471101663
907,00:00:03.628,0.00014006620040162574
908,00:00:03.632,0.00871548918075859
909,00:00:03.636,0.007461935998435367
910,00:00:03.64,-0.01099847466684878
911,00:00:03.644,-0.014941144618205759
912,00:00:03.648,-0.0035818975884467415
913,00:00:03.652,0.0375781478360295
914,00:00:03.656,0.0027531970408745093
915,00:00:03.66,-0.024966603668872243
916,00:00:03.664,-0.022186392394360203
917,00:00:03.668,0.003969874698668711
918,00:00:03.672,0.02702125883661209
919,00:00:03.676,0.006981513462960722
920,00:00:03.68,-0.008680964587256309
921,00:00:03.684,-0.020399636683578186
922,00:00:03.688,0.0010157576762139901
923,00:00:03.692,0.034016551682725576
924,00:00:03.696,0.007322989171370869
925,00:00:03.7,-0.015108897816389771
926,00:00:03.704,-0.026257332414388622
927,00:00:03.708,-0.012252880260348311
928,00:00:03.712,0.010475537506863477
929,00:00:03.716,0.01924264233093707
930,00:00:03.72,0.00361437757965177
931,00:00:03.724,-0.005772523931227615
932,00:00:03.728,-0.0006529703387059243
933,00:00:03.732,0.0033610205864533704
934,00:00:03.736,0.005170511605683709
935,00:00:03.74,0.004650190356187523
936,00:00:03.744,-0.011812226555775848
937,00:00:03.748,-0.014627269149059433
938,00:00:03.752,0.0009781451663002402
939,00:00:03.756,0.002482983400113882
940,00:00:03.76,0.005849758279509841
941,00:00:03.764,0.0017978417454287401
942,00:00:03.768,0.00925313169136643
943,00:00:03.772,0.01158983469940723
944,00:00:03.776,-0.00927156326361
945,00:00:03.78,-0.014652517857030046
946,00:00:03.784,-0.017542699933983375
947,00:00:03.788,0.013408518570940976
948,00:00:03.792,0.012167968205176304
949,00:00:03.796,-0.0032643505364831067
950,00:00:03.8,0.004461727337911732
951,00:00:03.804,0.016679337728419286
952,00:00:03.808,-0.011420598253607753
953,00:00:03.812,-0.008677178440848367
954,00:00:03.816,-0.015413635381264643
955,00:00:03.82,-0.003890412393957371
956,00:00:03.824,0.004755113724968393
957,00:00:03.828,0.010139589663594972
958,00:00:03.832,0.00892186770215631
959,00:00:03.836,0.007985002652276309
960,00:00:03.84,-0.00314716482535005
961,00:00:03.844,-0.015507663425523767
962,00:00:03.848,-0.00013866910012439067
963,00:00:03.852,0.012309125879255587
964,00:00:03.856,-0.002856284554582086
965,00:00:03.86,-0.005830212845467026
966,00:00:03.864,-0.0074114016024395815
967,00:00:03.868,0.002079678772133777
968,00:00:03.872,0.005421423382358628
969,00:00:03.876,0.012622543552424762
970,00:00:03.88,0.008095118100754922
971,00:00:03.884,-0.019304175861179773
972,00:00:03.888,-0.012077086605131633
973,00:00:03.892,0.00510841270443052
974,00:00:03.896,-0.006296459003351627
975,00:00:03.9,0.001922853989526632
976,00:00:03.904,0.01281972019933164
977,00:00:03.908,0.002588624309282757
978,00:00:03.912,0.008934349054470651
979,00:00:03.916,0.00047726347111166066
980,00:00:03.92,-0.013064418919384518
981,00:00:03.924,-0.00023258739383891252
982,00:00:03.928,-0.0021269816206768103
983,00:00:03.932,-0.005910374311497432
984,00:00:03.936,0.003727909759618341
985,00:00:03.94,0.00650936726015061
986,00:00:03.944,-0.006179807416629047
987,00:00:03.948,0.00188118149526418
988,00:00:03.952,0.007382900686934589
989,00:00:03.956,-0.0023372430950985264
990,00:00:03.96,-0.007796526022502809
991,00:00:03.964,9.063788456842314e-05
992,00:00:03.968,0.005516914883628481
993,00:00:03.972,0.0115686813660432
994,00:00:03.976,-0.0061239746282808465
995,00:00:03.98,-0.006713052745908509
996,00:00:03.984,-0.008677066129166631
997,00:00:03.988,-0.0013461700873449401
998,00:00:03.992,0.00047453679144382997
999,00:00:03.996,0.010000771377235651
1000,00:00:04,0.003094600629992781
1001,00:00:04.004,0.00507448735879734
1002,00:00:04.008,2.80060339718927e-06
1003,00:00:04.012,-0.00200861121993512
1004,00:00:04.016,-0.010935505037195975
1005,00:00:04.02,-0.0006848030607216034
1006,00:00:04.024,0.0026356630260124803
1007,00:00:04.028,0.004595598438754669
1008,00:00:04.032,0.001311891770455983
1009,00:00:04.036,-0.0036244114162400426
1010,00:00:04.04,-0.004515955690294508
1011,00:00:04.044,-0.0021537473076023213
1012,00:00:04.048,0.0029728424269705998
1013,00:00:04.052,0.007000097422860566
1014,00:00:04.056,0.0077731122437398915
1015,00:00:04.06,0.0014878433430567408
1016,00:00:04.064,-0.014486146625131358
1017,00:00:04.068,-0.008571403624955575
1018,00:00:04.072,0.007187557639554146
1019,00:00:04.076,0.00444872525986284
1020,00:00:04.08,0.00975776190171019
1021,00:00:04.084,-0.00013534631580114885
1022,00:00:04.088,-0.01779033092316244
1023,00:00:04.092,-0.008385496330447498
1024,00:00:04.096,0.0017436806228943212
1025,00:00:04.1,0.01134132943116133
1026,00:00:04.104,0.017877313308417804
1027,00:00:04.108,-0.00048198550939560023
1028,00:00:04.112,-0.004511377308517689
1029,00:00:04.116,-0.01661667646840214
1030,00:00:04.12,-0.0097777305636555
1031,00:00:04.124,0.005033509456552565
1032,00:00:04.128,0.013835829216986891
1033,00:00:04.132,0.00945664604660124
1034,00:00:04.136,-0.005037288356106731
1035,00:00:04.14,-0.011345242615789179
1036,00:00:04.144,0.001994314923649654
1037,00:00:04.148,-0.000963783415500075
1038,00:00:04.152,0.00274527142755687
1039,00:00:04.156,0.00837708520703018
1040,00:00:04.16,-0.0055195785826072105
1041,00:00:04.164,-0.0016265707090497
1042,00:00:04.168,-0.0077307117171585595
1043,00:00:04.172,0.0107993243727833
1044,00:00:04.176,-0.0036260950146243002
1045,00:00:04.18,-0.012394548422889784
1046,00:00:04.184,-0.0009395114029757723
1047,00:00:04.188,0.01456856785807754
1048,00:00:04.192,0.005745816859416662
1049,00:00:04.196,0.006592333971639165
1050,00:00:04.2,0.00406498747179285
1051,00:00:04.204,-0.005389169127738567
1052,00:00:04.208,-0.022427611052989918
1053,00:00:04.212,-0.0087930274894461
1054,00:00:04.216,0.00401281926315278
1055,00:00:04.22,0.0034245397182530697
1056,00:00:04.224,0.01022778404876589
1057,00:00:04.228,0.012713597039692109
1058,00:00:04.232,0.00935616868082434
1059,00:00:04.236,-0.013305150408996278
1060,00:00:04.24,-0.0172034177230671
1061,00:00:04.244,-0.003011873341165485
1062,00:00:04.248,0.00764565402641893
1063,00:00:04.252,0.009499933716142547
1064,00:00:04.256,0.0052867089398205315
1065,00:00:04.26,-0.008591823250753805
1066,00:00:04.264,-0.00015228940173983032
1067,00:00:04.268,-0.0023598768748342895
1068,00:00:04.272,-0.0015933195245452243
1069,00:00:04.276,0.0020948594901710757
1070,00:00:04.28,-0.0008280954207293713
1071,00:00:04.284,-0.004414695897139609
1072,00:00:04.288,0.0047099450603127506
1073,00:00:04.292,0.006476064212620259
1074,00:00:04.296,-0.00498170242644847
1075,00:00:04.3,-0.0033349774312228
1076,00:00:04.304,0.0047150203026831115
1077,00:00:04.308,0.008974103024229409
1078,00:00:04.312,-0.004709655913757162
1079,00:00:04.316,-0.015819897875189823
1080,00:00:04.32,-0.0027999435551464497
1081,00:00:04.324,0.01023161341436208
1082,00:00:04.328,0.0019026510999538022
1083,00:00:04.332,0.011930469270737348
1084,00:00:04.336,0.00855056138243527
1085,00:00:04.34,-0.01677171717165037
1086,00:00:04.344,-0.0161097103846259
1087,00:00:04.348,-0.003217192162992424
1088,00:00:04.352,0.0088317475747317
1089,00:00:04.356,0.009468355863646173
1090,00:00:04.36,0.004808604251593351
1091,00:00:04.364,-0.006482146098278461
1092,00:00:04.368,0.00279305479489266
1093,00:00:04.372,-0.000582150787522551
1094,00:00:04.376,0.004564465401927006
1095,00:00:04.38,-0.007296803290955721
1096,00:00:04.384,-0.00549477292224764
1097,00:00:04.388,0.0016802015197754398
1098,00:00:04.392,-0.0010515725007280638
1099,00:00:04.396,0.0038675909163430285
1100,00:00:04.4,0.007745778362732376
1101,00:00:04.404,0.003547537373378878
1102,00:00:04.408,-0.0142135766800493
1103,00:00:04.412,-0.0051881442777812516
1104,00:00:04.416,0.01315520098432898
1105,00:00:04.42,-0.002071055932901799
1106,00:00:04.424,-0.01197714067529887
1107,00:00:04.428,0.023469341802410778
1108,00:00:04.432,0.0003560862969607128
1109,00:00:04.436,-0.014230730244889862
1110,00:00:04.44,-0.014017041306942708
1111,00:00:04.444,-0.005314324982464318
1112,00:00:04.448,0.01620364637346941
1113,00:00:04.452,0.002749036531895401
1114,00:00:04.456,0.000460240291431541
1115,00:00:04.46,0.013409354374744
1116,00:00:04.464,0.005879439595446453
1117,00:00:04.468,-0.0085040673147887
1118,00:00:04.472,-0.009513826284091916
1119,00:00:04.476,-0.005142410285770901
1120,00:00:04.48,-0.00459094881080091
1121,00:00:04.484,-0.006257036759052421
1122,00:00:04.488,0.0053225009469315375
1123,00:00:04.492,0.013284380314871641
1124,00:00:04.496,0.00481441547162831
1125,00:00:04.5,-0.00338934850879013
1126,00:00:04.504,-0.00404070597141982
1127,00:00:04.508,-1.6813573893163097e-05
1128,00:00:04.512,-2.9813556466249985e-05
1129,00:00:04.516,-0.00274540169630199
1130,00:00:04.52,-0.00089826963085215
1131,00:00:04.524,0.003195317578502004
1132,00:00:04.528,0.01020706677809357
1133,00:00:04.532,-0.004000330867711452
1134,00:00:04.536,-0.020223499741405238
1135,00:00:04.54,0.000492831268275033
1136,00:00:04.544,0.008873415179550648
1137,00:00:04.548,0.01650212053209544
1138,00:00:04.552,-0.004400772391818469
1139,00:00:04.556,-0.007620511576533319
1140,00:00:04.56,-0.006139976729173217
1141,00:00:04.564,0.00414502120111138
1142,00:00:04.568,0.0019613855984062017
1143,00:00:04.572,-0.00949301820946858
1144,00:00:04.576,0.01835788437165321
1145,00:00:04.58,0.01456155297091752
1146,00:00:04.584,-0.02204837172757834
1147,00:00:04.588,-0.01070188591256736
1148,00:00:04.592,-0.0013980697840452246
1149,00:00:04.596,-0.0023222229210659784
1150,00:00:04.6,0.006878336193040011
1151,00:00:04.604,0.00830301304813474
1152,00:00:04.608,0.00478230824228376
1153,00:00:04.612,0.006418703414965419
1154,00:00:04.616,-0.006675321492366489
1155,00:00:04.62,-0.014543929370120171
1156,00:00:04.624,-0.0006500083545688468
1157,00:00:04.628,0.00900817045476288
1158,00:00:04.632,0.007072946056723595
1159,00:00:04.636,-0.011075270362198358
1160,00:00:04.64,0.002557266532676299
1161,00:00:04.644,0.0009236019104719199
1162,00:00:04.648,0.006266878568567337
1163,00:00:04.652,-0.004086746395387307
1164,00:00:04.656,-0.01952760014683009
1165,00:00:04.66,0.007596770301461229
1166,00:00:04.664,0.01013994030654431
1167,00:00:04.668,0.01071997010149061
1168,00:00:04.672,0.005571221940044778
1169,00:00:04.676,-0.007625618018209929
1170,00:00:04.68,-0.014677215629490089
1171,00:00:04.684,-0.01307244831696152
1172,00:00:04.688,0.01638811710290611
1173,00:00:04.692,0.00772627373225987
1174,00:00:04.696,-0.01019796216860413
1175,00:00:04.7,0.0022580928634852097
1176,00:00:04.704,0.01899215590674426
1177,00:00:04.708,-0.00954044107493246
1178,00:00:04.712,-0.01612411811947824
1179,00:00:04.716,-0.007121579255908723
1180,00:00:04.72,0.00514364044647664
1181,00:00:04.724,0.010216986614977943
1182,00:00:04.728,0.018384868628345447
1183,00:00:04.732,-0.0011050219982280379
1184,00:00:04.736,-0.008049849653616551
1185,00:00:04.74,-0.013869061076547961
1186,00:00:04.744,-0.012717204153886994
1187,00:00:04.748,0.007871426641941067
1188,00:00:04.752,0.01729977782815692
1189,00:00:04.756,0.002436236798530441
1190,00:00:04.76,-0.00658390030730516
1191,00:00:04.764,-0.003398150656721558
1192,00:00:04.768,-0.005585358710959553
1193,00:00:04.772,0.0018000111449509898
1194,00:00:04.776,0.008030732118641026
1195,00:00:04.78,-0.0032425407553091676
1196,00:00:04.784,0.0035445727407932295
1197,00:00:04.788,-0.003554290335159749
1198,00:00:04.792,-0.0007972799940034708
1199,00:00:04.796,0.001886152487713844
1200,00:00:04.8,-0.002067326684482391
1201,00:00:04.804,-0.0037128227704670237
1202,00:00:04.808,-0.0022169680742081185
1203,00:00:04.812,0.006658409722149348
1204,00:00:04.816,0.013013619463890779
1205,00:00:04.82,-0.0013825282221659992
1206,00:00:04.824,-0.01714696409180762
1207,00:00:04.828,-0.004589824238792069
1208,00:00:04.832,0.0007018541218712904
1209,00:00:04.836,0.0008082876447588205
1210,00:00:04.84,-0.0009703104151412871
1211,00:00:04.844,0.01428351877257227
1212,00:00:04.848,0.02950963075272738
1213,00:00:04.852,-0.02069572731852535
1214,00:00:04.856,-0.021090494410600503
1215,00:00:04.86,-0.012936836108565332
1216,00:00:04.864,0.004720086290035396
1217,00:00:04.868,0.009339762211311574
1218,00:00:04.872,0.011396168687497259
1219,00:00:04.876,0.011538730177562668
1220,00:00:04.88,0.00102971721207723
1221,00:00:04.884,-0.017682989360764612
1222,00:00:04.888,-0.00983275834005326
1223,00:00:04.892,0.001334269101789686
1224,00:00:04.896,0.0006441309815272689
1225,00:00:04.9,0.0059516415931284514
1226,00:00:04.904,0.00919217243790627
1227,00:00:04.908,-0.006334611854981638
1228,00:00:04.912,0.00372710346709936
1229,00:00:04.916,0.007028165913652625
1230,00:00:04.92,-0.017316971730906506
1231,00:00:04.924,-0.00937773572513833
1232,00:00:04.928,0.005238497455138707
1233,00:00:04.932,0.009375765570439398
1234,00:00:04.936,0.0065756568219512805
1235,00:00:04.94,-0.00054071110207587
1236,00:00:04.944,0.003806524444371466
1237,00:00:04.948,0.00024890995700844017
1238,00:00:04.952,-0.00571411807322875
1239,00:00:04.956,-0.01326519227586687
1240,00:00:04.96,-0.00657576175581199
1241,00:00:04.964,0.01060971326660365
1242,00:00:04.968,0.00968679011566564
1243,00:00:04.972,-0.0010210352484136837
1244,00:00:04.976,0.003765349712921309
1245,00:00:04.98,-0.00913366978056729
1246,00:00:04.984,0.0034179058857262204
1247,00:00:04.988,-8.104369044303937e-05
1248,00:00:04.992,0.00042702630162239053
1249,00:00:04.996,-0.007553662173449988
1250,00:00:05,0.0019091618014499597
1251,00:00:05.004,0.0036372786853462497
1252,00:00:05.008,0.0021193579304963394
1253,00:00:05.012,-0.001945109688676891
1254,00:00:05.016,-0.00944476381846471
1255,00:00:05.02,0.012400319857988541
1256,00:00:05.024,0.009858274890575553
1257,00:00:05.028,-0.011854699871037178
1258,00:00:05.032,0.0017187423072755365
1259,00:00:05.036,-0.0059289339114911846
1260,00:00:05.04,-0.0009747303556650903
1261,00:00:05.044,-0.006852979306131611
1262,00:00:05.048,0.00572585524059833
1263,00:00:05.052,0.01398969208821654
1264,00:00:05.056,-0.0016535349423065808
1265,00:00:05.06,-0.0030127654536045165
1266,00:00:05.064,-0.0053884453373029785
1267,00:00:05.068,0.005905698984861374
1268,00:00:05.072,-0.0008758030598983249
1269,00:00:05.076,-0.012338876025751242
1270,00:00:05.08,-0.001725201262161133
1271,00:00:05.084,0.007349842868279667
1272,00:00:05.088,0.006617948587518181
1273,00:00:05.092,0.00029426225228234583
1274,00:00:05.096,-0.0014565306482836595
1275,00:00:05.1,0.00276057748124003
1276,00:00:05.104,0.00354459715890698
1277,00:00:05.108,-0.005229393747868013
1278,00:00:05.112,-0.00866112997755409
1279,00:00:05.116,-0.007775853038765493
1280,00:00:05.12,-0.0003829551251328667
1281,00:00:05.124,0.01990348752588034
1282,00:00:05.128,0.0033194122370332393
1283,00:00:05.132,-0.01045218319632114
1284,00:00:05.136,-0.0015212318394333107
1285,00:00:05.14,0.0015804737340658912
1286,00:00:05.144,0.0036512486112769763
1287,00:00:05.148,0.002678603632375591
1288,00:00:05.152,-0.00810415658634159
1289,00:00:05.156,-0.00227892294060439
1290,00:00:05.16,-0.0005816468583361733
1291,00:00:05.164,0.0025394484400749215
1292,00:00:05.168,0.011784443428041384
1293,00:00:05.172,0.0006250420119613513
1294,00:00:05.176,-0.010057409992441535
1295,00:00:05.18,-0.012866517412476236
1296,00:00:05.184,0.007711396552622321
1297,00:00:05.188,0.010783930600155147
1298,00:00:05.192,0.00537143740803003
1299,00:00:05.196,-0.00943400675896555
1300,00:00:05.2,-0.00934059242717922
1301,00:00:05.204,-0.003126572264591237
1302,00:00:05.208,0.01101317582651973
1303,00:00:05.212,0.005645394616294652
1304,00:00:05.216,0.002518388209864497
1305,00:00:05.22,-0.006588994219782764
1306,00:00:05.224,0.0014380052452906997
1307,00:00:05.228,-0.004449583124369379
1308,00:00:05.232,-0.00687121797818691
1309,00:00:05.236,0.0023403458180837377
1310,00:00:05.24,0.0075510351452976405
1311,00:00:05.244,0.006366696034092458
1312,00:00:05.248,-0.00020567385945468274
1313,00:00:05.252,0.0017557835817569871
1314,00:00:05.256,-0.0024163230991689523
1315,00:00:05.26,-0.025788900151383173
1316,00:00:05.264,-0.00753480824641884
1317,00:00:05.268,0.017486855620518327
1318,00:00:05.272,0.02361006604041904
1319,00:00:05.276,0.0012013856030534983
1320,00:00:05.28,-0.007667145982850342
1321,00:00:05.284,-0.005898819043068216
1322,00:00:05.288,0.001944930758327244
1323,00:00:05.292,-0.0016878342721611277
1324,00:00:05.296,-0.012721134582534429
1325,00:00:05.3,-0.004044488039653507
1326,00:00:05.304,0.007340816897340119
1327,00:00:05.308,0.006527363322675232
1328,00:00:05.312,0.006664085900411011
1329,00:00:05.316,0.003753445416805336
1330,00:00:05.32,-0.0004446523380465771
1331,00:00:05.324,-0.009696486056782298
1332,00:00:05.328,-0.006605066402698874
1333,00:00:05.332,-0.0027404446736909475
1334,00:00:05.336,0.00940213678404689
1335,00:00:05.34,0.003809134243056181
1336,00:00:05.344,-0.006637024460360408
1337,00:00:05.348,-0.0025144842074951205
1338,00:00:05.352,0.008815658977255222
1339,00:00:05.356,0.006615530117414899
1340,00:00:05.36,-0.010006140742916609
1341,00:00:05.364,-0.010921625296759885
1342,00:00:05.368,0.024982128408737515
1343,00:00:05.372,0.00239060004241765
1344,00:00:05.376,-0.0275849385652691
1345,00:00:05.38,-0.00878593884408474
1346,00:00:05.384,0.006479949777713051
1347,00:00:05.388,0.015860077925026382
1348,00:00:05.392,0.01315940078347921
1349,00:00:05.396,-0.014710124552948406
1350,00:00:05.4,-0.009600187673640907
1351,00:00:05.404,0.01148433797061443
1352,00:00:05.408,0.01758442015852781
1353,00:00:05.412,-0.009388402570039029
1354,00:00:05.416,-0.03098902851343152
1355,00:00:05.42,-0.004878936582827008
1356,00:00:05.424,0.024965091142803448
1357,00:00:05.428,0.014279959490522742
1358,00:00:05.432,0.008443191662081517
1359,00:00:05.436,-0.01581462565809489
1360,00:00:05.44,-0.023453120491467378
1361,00:00:05.444,0.0024180327309295613
1362,00:00:05.448,0.00975354807451368
1363,00:00:05.452,0.0013332210655789798
1364,00:00:05.456,0.004277767206076534
1365,00:00:05.46,0.00946864811703563
1366,00:00:05.464,0.0029724931810051203
1367,00:00:05.468,-0.01025462453253567
1368,00:00:05.472,-0.01133174845017493
1369,00:00:05.476,-0.00947345630265772
1370,00:00:05.48,0.007580683100968601
1371,00:00:05.484,0.013005552813410759
1372,00:00:05.488,0.008834057734929956
1373,00:00:05.492,-0.009057801013113934
1374,00:00:05.496,-0.000737200462026519
1375,00:00:05.5,0.012068871874362239
1376,00:00:05.504,-0.0029286784119904293
1377,00:00:05.508,-0.02345988573506474
1378,00:00:05.512,-0.00821151211857796
1379,00:00:05.516,0.005900671007111629
1380,00:00:05.52,0.005088886362500482
1381,00:00:05.524,0.01282671722583472
1382,00:00:05.528,0.01429664576426144
1383,00:00:05.532,0.00056273629888892
1384,00:00:05.536,-0.011661063006613391
1385,00:00:05.54,-0.01127410633489489
1386,00:00:05.544,-0.011362049379386008
1387,00:00:05.548,0.00282279774546623
1388,00:00:05.552,0.0069682114990427995
1389,00:00:05.556,0.016199581092223518
1390,00:00:05.56,0.005372002022340899
1391,00:00:05.564,-0.001296995556913315
1392,00:00:05.568,-0.015323673957027491
1393,00:00:05.572,-0.010323813941795377
1394,00:00:05.576,-0.0029496545903384707
1395,00:00:05.58,0.003228908317396412
1396,00:00:05.584,0.010138338431715974
1397,00:00:05.588,0.013871884788386524
1398,00:00:05.592,0.0002026128349825703
1399,00:00:05.596,-0.013474991777911777
1400,00:00:05.6,-0.008077482227236036
1401,00:00:05.604,0.00037670689198421596
1402,00:00:05.608,0.005078582442365585
1403,00:00:05.612,0.0072391611465718615
1404,00:00:05.616,0.006833400053437807
1405,00:00:05.62,0.004588600713759659
1406,00:00:05.624,-0.012721393723040778
1407,00:00:05.628,-0.01973729324527086
1408,00:00:05.632,-0.00393031269777566
1409,00:00:05.636,0.019818854518234678
1410,00:00:05.64,0.005006630497518929
1411,00:00:05.644,0.00856552051845938
1412,00:00:05.648,0.005667020799592129
1413,00:00:05.652,-0.02361772814765571
1414,00:00:05.656,-0.01748488959856331
1415,00:00:05.66,0.00891324796248227
1416,00:00:05.664,0.01878089859383177
1417,00:00:05.668,0.01563508796971287
1418,00:00:05.672,-0.003665948752313856
1419,00:00:05.676,-0.01448145089671019
1420,00:00:05.68,-0.01937874290160835
1421,00:00:05.684,-0.00134457554668188
1422,00:00:05.688,0.013786017894744871
1423,00:00:05.692,0.00915673456620426
1424,00:00:05.696,0.00732015585526824
1425,00:00:05.7,-0.00751262594712898
1426,00:00:05.704,-0.004839721019379801
1427,00:00:05.708,0.0022174646146595495
1428,00:00:05.712,-0.00376502983272076
1429,00:00:05.716,-0.004214987391605969
1430,00:00:05.72,0.004824310395633805
1431,00:00:05.724,-0.008426290587522095
1432,00:00:05.728,0.025022369809448712
1433,00:00:05.732,0.0005283665377646698
1434,00:00:05.736,-0.01279205735772848
1435,00:00:05.74,-0.02101870113983751
1436,00:00:05.744,0.002533437218517071
1437,00:00:05.748,0.01306503196246923
1438,00:00:05.752,0.01148645137436688
1439,00:00:05.756,6.426090840250037e-05
1440,00:00:05.76,-0.006983391642279459
1441,00:00:05.764,-0.005080272792838507
1442,00:00:05.768,-0.001082538045011465
1443,00:00:05.772,-0.00040901894681156007
1444,00:00:05.776,0.00225209991913289
1445,00:00:05.78,0.007264248677529389
1446,00:00:05.784,-0.00397577829426155
1447,00:00:05.788,0.00727797951549292
1448,00:00:05.792,-0.0014429304283112275
1449,00:00:05.796,-0.012124419998144736
1450,00:00:05.8,-0.005581018165685233
1451,00:00:05.804,0.00465951894875615
1452,00:00:05.808,0.008451169385807592
1453,00:00:05.812,0.0059592383913695795
1454,00:00:05.816,-0.003129222546704109
1455,00:00:05.82,-0.00723500002641231
1456,00:00:05.824,0.004872010793405936
1457,00:00:05.828,0.00138995668385179
1458,00:00:05.832,-0.01760225603356958
1459,00:00:05.836,-0.004790690261870622
1460,00:00:05.84,0.01890080654993653
1461,00:00:05.844,0.01282620429992673
1462,00:00:05.848,-0.0016655345680192096
1463,00:00:05.852,-0.0074636427452787705
1464,00:00:05.856,-0.008825627824990084
1465,00:00:05.86,-0.0052483052713796444
1466,00:00:05.864,0.01026267884299159
1467,00:00:05.868,0.0040077671874314495
1468,00:00:05.872,-0.00948492449242622
1469,00:00:05.876,-0.0014830494765192296
1470,00:00:05.88,0.00791264860890806
1471,00:00:05.884,0.006838999455794692
1472,00:00:05.888,-0.008778966672252867
1473,00:00:05.892,-0.0034345019375905403
1474,00:00:05.896,-0.0031633171020075705
1475,00:00:05.9,0.014909894962329414
1476,00:00:05.904,0.007851096190279344
1477,00:00:05.908,-0.00717419455759227
1478,00:00:05.912,-0.01292141492012888
1479,00:00:05.916,-0.013226727256551388
1480,00:00:05.92,0.0025123808300122697
1481,00:00:05.924,0.00996271640178748
1482,00:00:05.928,0.005056912224972624
1483,00:00:05.932,0.010247316909953952
1484,00:00:05.936,0.0066865212866105165
1485,00:00:05.94,-0.010835012013558298
1486,00:00:05.944,-0.00432393266237341
1487,00:00:05.948,-0.00992828205926344
1488,00:00:05.952,-0.005125281051732601
1489,00:00:05.956,0.0037549331318587
1490,00:00:05.96,0.009932348737493157
1491,00:00:05.964,0.006575170438736681
1492,00:00:05.968,0.011242878856137358
1493,00:00:05.972,-0.00878832256421447
1494,00:00:05.976,-0.02449325309135024
1495,00:00:05.98,-0.0011452365724835532
1496,00:00:05.984,0.01572660356760025
1497,00:00:05.988,0.008013207581825561
1498,00:00:05.992,0.00638462998904288
1499,00:00:05.996,-0.012058017193339769
1500,00:00:06,-0.017729279512423084
1501,00:00:06.004,0.004362581763416531
1502,00:00:06.008,0.01055661661666818
1503,00:00:06.012,0.003380671114427974
1504,00:00:06.016,0.007760446402244269
1505,00:00:06.02,0.0028249800670892
1506,00:00:06.024,0.0010517854534555153
1507,00:00:06.028,-0.0015731807798147202
1508,00:00:06.032,-0.02265320415608589
1509,00:00:06.036,-0.013993365573696818
1510,00:00:06.04,0.0013100881769787529
1511,00:00:06.044,0.015090303728356961
1512,00:00:06.048,0.01430468191392719
1513,00:00:06.052,0.008527814643457508
1514,00:00:06.056,0.002756920352112503
1515,00:00:06.06,-0.011232592281885445
1516,00:00:06.064,-0.021221811533905593
1517,00:00:06.068,0.00108513207965189
1518,00:00:06.072,0.01970226643607018
1519,00:00:06.076,0.00247596460394561
1520,00:00:06.08,-0.00889002676558448
1521,00:00:06.084,-0.0033459714613854902
1522,00:00:06.088,-0.001516361255198711
1523,00:00:06.092,0.010304966475814609
1524,00:00:06.096,-0.00037950288970024
1525,00:00:06.1,-0.008048094052355726
1526,00:00:06.104,0.0070064415922388495
1527,00:00:06.108,-0.0015399987751152358
1528,00:00:06.112,-0.01400294899940491
1529,00:00:06.116,0.0035282567841932195
1530,00:00:06.12,0.014283885364420717
1531,00:00:06.124,0.0016281676944345262
1532,00:00:06.128,-0.001761919062118977
1533,00:00:06.132,-0.008350841002538797
1534,00:00:06.136,-0.004088813433554607
1535,00:00:06.14,0.00333618093281984
1536,00:00:06.144,-0.00024060673968051712
1537,00:00:06.148,0.005793464893940838
1538,00:00:06.152,0.005080330651253459
1539,00:00:06.156,-0.0133460487704724
1540,00:00:06.16,0.001082342088920993
1541,00:00:06.164,0.013403553748503329
1542,00:00:06.168,0.00604774570092559
1543,00:00:06.172,-0.01592135638929903
1544,00:00:06.176,-0.014724907698109753
1545,00:00:06.18,0.002128309744875876
1546,00:00:06.184,0.014074305770918765
1547,00:00:06.188,0.02171236601134295
1548,00:00:06.192,-0.002751450520008811
1549,00:00:06.196,-0.02659042365849017
1550,00:00:06.2,-0.00935543840751056
1551,00:00:06.204,-0.00011107549653388798
1552,00:00:06.208,0.015242107445374128
1553,00:00:06.212,0.01100157189648598
1554,00:00:06.216,-0.0023163313744589704
1555,00:00:06.22,-0.002687737578526141
1556,00:00:06.224,-0.00086572323925793
1557,00:00:06.228,-0.006311531848041337
1558,00:00:06.232,0.00555000873282552
1559,00:00:06.236,-0.0063912735786289
1560,00:00:06.24,0.002998523530550301
1561,00:00:06.244,0.000253593665547669
1562,00:00:06.248,-0.0003558956668712216
1563,00:00:06.252,-0.006311427801847459
1564,00:00:06.256,-0.002090340014547115
1565,00:00:06.26,0.01325793610885739
1566,00:00:06.264,0.0053581995889544504
1567,00:00:06.268,0.000283419445622709
1568,00:00:06.272,-0.00279086304362863
1569,00:00:06.276,-0.00586791255045682
1570,00:00:06.28,-0.00943922461010516
1571,00:00:06.284,-0.0024457072140648996
1572,00:00:06.288,0.006075688637793061
1573,00:00:06.292,0.00826116208918393
1574,00:00:06.296,-0.005317548057064419
1575,00:00:06.3,0.0038775440771132708
1576,00:00:06.304,0.0005667603109031898
1577,00:00:06.308,0.00122552487300709
1578,00:00:06.312,-0.0010266674507874959
1579,00:00:06.316,-0.00442731683142483
1580,00:00:06.32,-0.01044528465718031
1581,00:00:06.324,0.002399656455963851
1582,00:00:06.328,0.004218263085931536
1583,00:00:06.332,0.021540559595450707
1584,00:00:06.336,0.02715279045514764
1585,00:00:06.34,-0.028811845113523298
1586,00:00:06.344,-0.03875865554437044
1587,00:00:06.348,-0.003767273738048976
1588,00:00:06.352,0.018867212362238244
1589,00:00:06.356,0.004523197188973433
1590,00:00:06.36,-0.0004943888634443303
1591,00:00:06.364,0.00799085746984929
1592,00:00:06.368,0.001727433802443556
1593,00:00:06.372,0.0002932521747425189
1594,00:00:06.376,0.005812382325530039
1595,00:00:06.38,-0.0028651419561356315
1596,00:00:06.384,-0.004117442133974693
1597,00:00:06.388,-0.006951066141482443
1598,00:00:06.392,-0.005510703776963059
1599,00:00:06.396,-0.001330091501586139
1600,00:00:06.4,0.01498305867426098
1601,00:00:06.404,0.011062473233323546
1602,00:00:06.408,-0.01770501327700913
1603,00:00:06.412,-0.01153059490025044
1604,00:00:06.416,0.007369251106865702
1605,00:00:06.42,0.01271907705813646
1606,00:00:06.424,-0.00043681799434125304
1607,00:00:06.428,-0.00873311678878963
1608,00:00:06.432,-0.0039512609364464905
1609,00:00:06.436,0.003898365874192677
1610,00:00:06.44,0.004335589750553482
1611,00:00:06.444,0.0018351841717958407
1612,00:00:06.448,-0.000655502924928441
1613,00:00:06.452,0.002307814662344749
1614,00:00:06.456,-0.00980661995708942
1615,00:00:06.46,-0.00225930276792496
1616,00:00:06.464,0.00702267303131521
1617,00:00:06.468,0.008493593428283928
1618,00:00:06.472,-0.00223979097791016
1619,00:00:06.476,-0.01236324873752892
1620,00:00:06.48,-0.005099726316984747
1621,00:00:06.484,0.007377477595582602
1622,00:00:06.488,0.004747128332382994
1623,00:00:06.492,1.3717799447461685e-06
1624,00:00:06.496,0.003930926322937009
1625,00:00:06.5,0.0045650961692445
1626,00:00:06.504,-0.004740176489576699
1627,00:00:06.508,-0.006739029427990315
1628,00:00:06.512,-0.012398418301017953
1629,00:00:06.516,-0.0027645900263451035
1630,00:00:06.52,0.008372001611860469
1631,00:00:06.524,0.023806231562048218
1632,00:00:06.528,0.014132619486190379
1633,00:00:06.532,-0.01420949725434184
1634,00:00:06.536,-0.02723250444978476
1635,00:00:06.54,-0.01131007194021549
1636,00:00:06.544,0.007782530505210161
1637,00:00:06.548,0.0152599619468674
1638,00:00:06.552,0.0054338778718374635
1639,00:00:06.556,0.0030585105414502297
1640,00:00:06.56,-0.0011309244437143241
1641,00:00:06.564,-0.0036316805926617205
1642,00:00:06.568,0.00047292892850237054
1643,00:00:06.572,-0.00816056528128684
1644,00:00:06.576,0.0025538332993164633
1645,00:00:06.58,-0.001724046887829899
1646,00:00:06.584,0.0019236687803641003
1647,00:00:06.588,0.0018854490481317009
1648,00:00:06.592,0.0007096843328327001
1649,00:00:06.596,-0.000286699767457323
1650,00:00:06.6,-0.004823980212677266
1651,00:00:06.604,0.007559871068224309
1652,00:00:06.608,0.00329476303886622
1653,00:00:06.612,-0.010911409044638271
1654,00:00:06.616,-0.009414074011147019
1655,00:00:06.62,0.012774102156981831
1656,00:00:06.624,0.005472813936648894
1657,00:00:06.628,0.00043621985241771005
1658,00:00:06.632,-0.004178919713012872
1659,00:00:06.636,-0.004687675856985156
1660,00:00:06.64,0.010169795015826828
1661,00:00:06.644,0.0012288966681808203
1662,00:00:06.648,-0.004800400347448888
1663,00:00:06.652,-0.01390084996819496
1664,00:00:06.656,-0.001328730722889299
1665,00:00:06.66,0.010659654362825675
1666,00:00:06.664,0.005734839709475636
1667,00:00:06.668,0.0012083589099347698
1668,00:00:06.672,-0.003723201341927059
1669,00:00:06.676,-0.0026170671917498103
1670,00:00:06.68,0.005838411925651606
1671,00:00:06.684,0.0033282522199442593
1672,00:00:06.688,-0.007568733068183059
1673,00:00:06.692,-0.01049351913388818
1674,00:00:06.696,-0.00571953610051423
1675,00:00:06.7,0.011629498330876231
1676,00:00:06.704,0.01676317444071168
1677,00:00:06.708,0.00359781838778872
1678,00:00:06.712,-0.01365188416093587
1679,00:00:06.716,-0.012627165298908921
1680,00:00:06.72,-0.00841700646560639
1681,00:00:06.724,0.019768994679907323
1682,00:00:06.728,0.012626465177163482
1683,00:00:06.732,-0.00924197502899915
1684,00:00:06.736,-0.01730692852288484
1685,00:00:06.74,0.007528588059358295
1686,00:00:06.744,0.01972120511345566
1687,00:00:06.748,-0.008627453258668587
1688,00:00:06.752,0.001917931425850842
1689,00:00:06.756,-0.015560828149318702
1690,00:00:06.76,-0.011542030202690515
1691,00:00:06.764,0.005578030599281189
1692,00:00:06.768,0.01610442763194446
1693,00:00:06.772,0.005353906075470151
1694,00:00:06.776,-0.01073387273936532
1695,00:00:06.78,0.03191276994766671
1696,00:00:06.784,0.004176725167781119
1697,00:00:06.788,-0.0385667239897885
1698,00:00:06.792,-0.02709676744416359
1699,00:00:06.796,6.204203236848008e-05
1700,00:00:06.8,0.017231602221727392
1701,00:00:06.804,0.02113553801609672
1702,00:00:06.808,0.01517368000349962
1703,00:00:06.812,-0.006825598364230243
1704,00:00:06.816,-0.011053726135287432
1705,00:00:06.82,-0.0072090965477400685
1706,00:00:06.824,0.0003285953571321512
1707,00:00:06.828,0.008276406311779286
1708,00:00:06.832,-0.0044432164359022855
1709,00:00:06.836,-0.006532184861498536
1710,00:00:06.84,-0.002916080309660173
1711,00:00:06.844,0.0035669872304424696
1712,00:00:06.848,-0.0001516832344350404
1713,00:00:06.852,0.0020770713454112367
1714,00:00:06.856,0.022239437210373587
1715,00:00:06.86,0.014156106335576627
1716,00:00:06.864,-0.1265615050215276
1717,00:00:06.868,0.05147715771454389
1718,00:00:06.872,0.3072527335025367
1719,00:00:06.876,-0.16207467333879327
1720,00:00:06.88,-0.22443650201603346
1721,00:00:06.884,-0.06460099481046203
1722,00:00:06.888,0.07017125748097901
1723,00:00:06.892,0.10845364141277969
1724,00:00:06.896,0.07815038016997279
1725,00:00:06.9,0.01336708036251366
1726,00:00:06.904,-0.022254897747188758
1727,00:00:06.908,-0.042021405417472145
1728,00:00:06.912,-0.03454075031913812
1729,00:00:06.916,-0.01253198133781553
1730,00:00:06.92,0.0038459610659629198
1731,00:00:06.924,0.011542393825948247
1732,00:00:06.928,0.013378553921938836
1733,00:00:06.932,0.0025022804620675717
1734,00:00:06.936,-0.000611078226938844
1735,00:00:06.94,0.001011831685900687
1736,00:00:06.944,0.001318513415753841
1737,00:00:06.948,-0.004121934995055206
1738,00:00:06.952,-0.01207538624294102
1739,00:00:06.956,0.01074011888704262
1740,00:00:06.96,0.0117805718909949
1741,00:00:06.964,-0.01078255998436362
1742,00:00:06.968,-0.006805497891036794
1743,00:00:06.972,0.0033432422205805796
1744,00:00:06.976,0.0010914495796896584
1745,00:00:06.98,-0.005751075845182643
1746,00:00:06.984,0.010479148506419731
1747,00:00:06.988,-0.0028168212302262
1748,00:00:06.992,-0.006880324392113833
1749,00:00:06.996,0.004202530137263241
1750,00:00:07,0.007317730443901389
1751,00:00:07.004,0.004312702396418903
1752,00:00:07.008,-0.0004493397027545171
1753,00:00:07.012,-0.02029744675382972
1754,00:00:07.016,-0.00512629444710911
1755,00:00:07.02,0.01766027091071012
1756,00:00:07.024,0.02149126376025378
1757,00:00:07.028,-0.010599874833133079
1758,00:00:07.032,-0.0198167579364963
1759,00:00:07.036,-0.00657974125351757
1760,00:00:07.04,-0.002633898286148904
1761,00:00:07.044,0.023750283173285452
1762,00:00:07.048,0.005295111681334679
1763,00:00:07.052,-0.01125731668435036
1764,00:00:07.056,-0.013881886377930629
1765,00:00:07.06,0.00784409185871482
1766,00:00:07.064,0.007220460101962079
1767,00:00:07.068,0.01379742589779198
1768,00:00:07.072,-0.0040555930463597265
1769,00:00:07.076,-0.020799578633159368
1770,00:00:07.08,-0.00453355745412409
1771,00:00:07.084,0.009501278786046893
1772,00:00:07.088,0.003768713533645497
1773,00:00:07.092,-0.004360499733593311
1774,00:00:07.096,0.008764214464463299
1775,00:00:07.1,0.008999318204587325
1776,00:00:07.104,-0.007843083993066106
1777,00:00:07.108,-0.004451084445463497
1778,00:00:07.112,-0.0053911900613457
1779,00:00:07.116,-0.003939782327506693
1780,00:00:07.12,-0.00474229874089361
1781,00:00:07.124,0.010516213878872796
1782,00:00:07.128,0.013372470973990807
1783,00:00:07.132,-0.02215342153795061
1784,00:00:07.136,0.0301789122167975
1785,00:00:07.14,0.04527360713109378
1786,00:00:07.144,-0.07327380077913408
1787,00:00:07.148,-0.03465787222376092
1788,00:00:07.152,0.006152996444143351
1789,00:00:07.156,0.01106634316965937
1790,00:00:07.16,0.027079261490143797
1791,00:00:07.164,0.02370751602575187
1792,00:00:07.168,0.00446090125478804
1793,00:00:07.172,-0.014795803814195093
1794,00:00:07.176,-0.013160881702788209
1795,00:00:07.18,-0.00556675938423722
1796,00:00:07.184,-0.007630761945620183
1797,00:00:07.188,0.0091062638675794
1798,00:00:07.192,0.0010239132564038328
1799,00:00:07.196,0.00499737309291959
1800,00:00:07.2,0.004026015289127829
1801,00:00:07.204,0.009023711085319526
1802,00:00:07.208,-0.016292318003252163
1803,00:00:07.212,-0.018439868465065953
1804,00:00:07.216,-0.0012348121963441402
1805,00:00:07.22,0.01542111474554985
1806,00:00:07.224,0.021580085856840042
1807,00:00:07.228,-0.0014178582787280928
1808,00:00:07.232,-0.01381529145874083
1809,00:00:07.236,-0.0025302029680460683
1810,00:00:07.24,-0.0044469180284068
1811,00:00:07.244,0.0015343537088483498
1812,00:00:07.248,0.0007938083144836157
1813,00:00:07.252,-0.000194626081793109
1814,00:00:07.256,0.0061527576181106235
1815,00:00:07.26,0.005077681038528679
1816,00:00:07.264,0.0008880021632649076
1817,00:00:07.268,-0.0047690083156339885
1818,00:00:07.272,-0.010317321866750722
1819,00:00:07.276,-0.006096944154705851
1820,00:00:07.28,0.0026649510255083494
1821,00:00:07.284,0.00716765763354487
1822,00:00:07.288,0.004286244846298355
1823,00:00:07.292,0.0046939876629039645
1824,00:00:07.296,-0.0013249842450022693
1825,00:00:07.3,-0.011025302985217445
1826,00:00:07.304,0.02448010858279303
1827,00:00:07.308,0.01067451405833713
1828,00:00:07.312,-0.044128340436145636
1829,00:00:07.316,-0.01264254690613597
1830,00:00:07.32,0.00861213076859712
1831,00:00:07.324,0.015371399582363679
1832,00:00:07.328,0.009468035073950859
1833,00:00:07.332,0.0036382670514285504
1834,00:00:07.336,0.011286564287729558
1835,00:00:07.34,-0.009334212867543061
1836,00:00:07.344,-0.019625602406449633
1837,00:00:07.348,-0.00012693507596849875
1838,00:00:07.352,-0.0019644630374386894
1839,00:00:07.356,-0.00338647176977247
1840,00:00:07.36,0.0178483024938032
1841,00:00:07.364,0.00806469202507287
1842,00:00:07.368,-0.00421364465728403
1843,00:00:07.372,-0.01114926424634177
1844,00:00:07.376,0.005488634516950699
1845,00:00:07.38,-0.001642360788537189
1846,00:00:07.384,-0.005035628521000035
1847,00:00:07.388,-0.003603189077693962
1848,00:00:07.392,-0.002189782317145728
1849,00:00:07.396,0.004654293035855512
1850,00:00:07.4,0.007259196921950208
1851,00:00:07.404,0.013361709192395162
1852,00:00:07.408,0.02208179200533774
1853,00:00:07.412,-0.03450778638944027
1854,00:00:07.416,-0.02920437185093762
1855,00:00:07.42,0.0005700394976884092
1856,00:00:07.424,0.01882050209678709
1857,00:00:07.428,0.01504371303599325
1858,00:00:07.432,-0.0016319721471518352
1859,00:00:07.436,0.00020687170763267378
1860,00:00:07.44,-0.0018084548064507529
1861,00:00:07.444,-0.001115990802645678
1862,00:00:07.448,-0.004805780015885828
1863,00:00:07.452,-0.007155188504839314
1864,00:00:07.456,-0.002288933317345249
1865,00:00:07.46,0.011103744560386982
1866,00:00:07.464,0.011616003932431342
1867,00:00:07.468,-0.0037326477468013807
1868,00:00:07.472,-0.01174758491106331
1869,00:00:07.476,0.000816620886325835
1870,00:00:07.48,0.002252879872685294
1871,00:00:07.484,-0.0035137363011017494
1872,00:00:07.488,-0.0008578349370509516
1873,00:00:07.492,0.00014223494508769298
1874,00:00:07.496,0.005052692838944493
1875,00:00:07.5,0.00780365196987987
1876,00:00:07.504,0.0027516749687492795
1877,00:00:07.508,-0.01310455810744316
1878,00:00:07.512,-0.007788740913383663
1879,00:00:07.516,0.007231021765619521
1880,00:00:07.52,0.008162406564224515
1881,00:00:07.524,-0.0009667640551924692
1882,00:00:07.528,-0.01033025188371539
1883,00:00:07.532,-0.007718116859905418
1884,00:00:07.536,0.00968821230344474
1885,00:00:07.54,0.01987756532616916
1886,00:00:07.544,0.0015885874163359404
1887,00:00:07.548,-0.018532051850343165
1888,00:00:07.552,-0.012079087784513831
1889,00:00:07.556,0.0017874678596854104
1890,00:00:07.56,0.00289600645191967
1891,00:00:07.564,0.01015964383259416
1892,00:00:07.568,0.0018600706825964183
1893,00:00:07.572,0.001659308269154274
1894,00:00:07.576,0.003389471836271695
1895,00:00:07.58,-0.00845022895373404
1896,00:00:07.584,-0.0017409140709787599
1897,00:00:07.588,-0.0021752489265054395
1898,00:00:07.592,-4.384084604679671e-06
1899,00:00:07.596,0.00374793336959556
1900,00:00:07.6,0.012439906655345105
1901,00:00:07.604,-0.008123180203256196
1902,00:00:07.608,-0.01378443441353739
1903,00:00:07.612,0.00011670053936540994
1904,00:00:07.616,0.0010267875622957893
1905,00:00:07.62,0.00462718063499778
1906,00:00:07.624,0.00741784754791297
1907,00:00:07.628,0.0012330987665336549
1908,00:00:07.632,-0.0014235888374969398
1909,00:00:07.636,7.534545147791071e-06
1910,00:00:07.64,-0.005677702254615721
1911,00:00:07.644,0.005761717329733078
1912,00:00:07.648,-0.0024566207430325457
1913,00:00:07.652,-0.00555697293020785
1914,00:00:07.656,0.00047331549285445297
1915,00:00:07.66,0.006447645675507374
1916,00:00:07.664,-0.004143609316088265
1917,00:00:07.668,-0.00473038374911994
1918,00:00:07.672,0.009151856182143096
1919,00:00:07.676,0.0005342337244655929
1920,00:00:07.68,-0.00646236515603959
1921,00:00:07.684,-0.002286181785166269
1922,00:00:07.688,0.010583732044324279
1923,00:00:07.692,0.006233099993551151
1924,00:00:07.696,-0.013890287838876251
1925,00:00:07.7,-0.002289729687618093
1926,00:00:07.704,-0.004684902844019229
1927,00:00:07.708,0.003689362929435447
1928,00:00:07.712,0.001692906953394409
1929,00:00:07.716,0.01199060422368348
1930,00:00:07.72,0.00211355905048549
1931,00:00:07.724,-0.004461260105017571
1932,00:00:07.728,-0.008023700007470333
1933,00:00:07.732,-0.00606844096910209
1934,00:00:07.736,0.004805729302461261
1935,00:00:07.74,0.01117863762192428
1936,00:00:07.744,-2.3382075596599036e-05
1937,00:00:07.748,-0.003622580203227698
1938,00:00:07.752,-0.02209719922393564
1939,00:00:07.756,-0.0006422626174753567
1940,00:00:07.76,0.01994508714415133
1941,00:00:07.764,0.01899827783927318
1942,00:00:07.768,-0.012017595348879691
1943,00:00:07.772,-0.014856213150778784
1944,00:00:07.776,-0.00021048693452029987
1945,00:00:07.78,0.017101828008890152
1946,00:00:07.784,-0.005759340187069053
1947,00:00:07.788,-0.01244280394166713
1948,00:00:07.792,-0.0076987756183371
1949,00:00:07.796,0.012843206775869528
1950,00:00:07.8,0.0107523025944829
1951,00:00:07.804,0.0022882946068420998
1952,00:00:07.808,0.00217405357398093
1953,00:00:07.812,-0.020024539320729673
1954,00:00:07.816,0.0010194354690611423
1955,00:00:07.82,0.005080599396023903
1956,00:00:07.824,0.002954110881546514
1957,00:00:07.828,-0.006099037243984638
1958,00:00:07.832,-0.0016383726760977849
1959,00:00:07.836,0.005367923644371331
1960,00:00:07.84,0.00885202968493104
1961,00:00:07.844,0.0036155253183096626
1962,00:00:07.848,-0.00863325758837164
1963,00:00:07.852,-0.013972454471513681
1964,00:00:07.856,0.0013974737375974638
1965,00:00:07.86,0.006835285457782448
1966,00:00:07.864,0.012010643316898502
1967,00:00:07.868,-0.0016594872577115841
1968,00:00:07.872,-0.005825676489621408
1969,00:00:07.876,-0.01075823418796063
1970,00:00:07.88,0.0003429752905503872
1971,00:00:07.884,0.014101411681622272
1972,00:00:07.888,0.006072570569813249
1973,00:00:07.892,-0.007696186192333695
1974,00:00:07.896,-0.01180929807014763
1975,00:00:07.9,-0.0008935030200518669
1976,00:00:07.904,0.008946945512434456
1977,00:00:07.908,0.001366991273243912
1978,00:00:07.912,0.001708185664028865
1979,00:00:07.916,0.003947879828047007
1980,00:00:07.92,-0.0013951859436929196
1981,00:00:07.924,-0.00897249463014305
1982,00:00:07.928,-0.01086975610814989
1983,00:00:07.932,0.0030272491276264178
1984,00:00:07.936,0.01730826566927139
1985,00:00:07.94,0.001797391625586898
1986,00:00:07.944,0.0005129902274347918
1987,00:00:07.948,-0.00779757392592728
1988,00:00:07.952,-0.009487024275586009
1989,00:00:07.956,0.0054718903702450925
1990,00:00:07.96,0.01005829393398016
1991,00:00:07.964,-0.004174048081040381
1992,00:00:07.968,-0.00493839773116633
1993,00:00:07.972,-0.003581737575586883
1994,00:00:07.976,0.009622912068152805
1995,00:00:07.98,0.00431193941039965
1996,00:00:07.984,-0.011042989892303016
1997,00:00:07.988,-0.005954837430181221
1998,00:00:07.992,0.0040203046519309334
1999,00:00:07.996,0.009994430118240421
2000,00:00:08,0.0036355073098093297
2001,00:00:08.004,-0.007030860055238009
2002,00:00:08.008,-0.00550403853412718
2003,00:00:08.012,-0.0050997345242649195
2004,00:00:08.016,0.01239305641502142
2005,00:00:08.02,0.00648838269989937
2006,00:00:08.024,-0.006572705664439134
2007,00:00:08.028,-0.00881800753995776
2008,00:00:08.032,-0.00043662392999977047
2009,00:00:08.036,0.0010462397476658316
2010,00:00:08.04,0.00521633634343744
2011,00:00:08.044,0.0033503576996736176
2012,00:00:08.048,-0.0018684031674638397
2013,00:00:08.052,-0.0019026082009077098
2014,00:00:08.056,-0.00267309136688709
2015,00:00:08.06,0.004428678541444239
2016,00:00:08.064,0.010676520789274939
2017,00:00:08.068,-0.010961521707940843
2018,00:00:08.072,-0.011315081501379599
2019,00:00:08.076,-0.0014457560027949564
2020,00:00:08.08,0.01619897154159844
2021,00:00:08.084,0.0035253535024821793
2022,00:00:08.088,-0.018103397858794834
2023,00:00:08.092,0.004577505460474642
2024,00:00:08.096,0.012207706749904896
2025,00:00:08.1,0.008173716953024261
2026,00:00:08.104,-0.003927047655452043
2027,00:00:08.108,-0.020376691361889254
2028,00:00:08.112,-0.004809448932064692
2029,00:00:08.116,0.0027710477261280253
2030,00:00:08.12,0.00741087249480188
2031,00:00:08.124,0.013148390200512923
2032,00:00:08.128,0.0015548884985037087
2033,00:00:08.132,-0.0072947019361890835
2034,00:00:08.136,-0.010570025668130253
2035,00:00:08.14,0.001647808370762508
2036,00:00:08.144,0.00032442924566567074
2037,00:00:08.148,0.006926049536559728
2038,00:00:08.152,0.0017404758837073998
2039,00:00:08.156,0.007451985497027632
2040,00:00:08.16,-0.0074738365947268955
2041,00:00:08.164,-0.00782673992216588
2042,00:00:08.168,-0.0008170645451173156
2043,00:00:08.172,-0.006542285205796361
2044,00:00:08.176,0.007873238762840629
2045,00:00:08.18,0.01196207804605365
2046,00:00:08.184,-0.0012364513240754698
2047,00:00:08.188,-0.007163596863392747
2048,00:00:08.192,-0.004073742253240196
2049,00:00:08.196,0.00023077355581336168
2050,00:00:08.2,0.00045762723311782707
2051,00:00:08.204,0.01695023453794417
2052,00:00:08.208,-0.004844894167035811
2053,00:00:08.212,-0.022133262362331138
2054,00:00:08.216,0.010000355134252457
2055,00:00:08.22,0.0012562666379380958
2056,00:00:08.224,0.0027631071861833403
2057,00:00:08.228,0.0016306829638779187
2058,00:00:08.232,-6.888847565278953e-06
2059,00:00:08.236,-0.0010209401589236188
2060,00:00:08.24,-0.005318097479175777
2061,00:00:08.244,0.003221349237719555
2062,00:00:08.248,0.013519694563001401
2063,00:00:08.252,-0.011326933745294848
2064,00:00:08.256,-0.011669133673422045
2065,00:00:08.26,0.0029613913502544104
2066,00:00:08.264,0.00653631391469389
2067,00:00:08.268,-0.0017799343404476492
2068,00:00:08.272,0.00892701267730444
2069,00:00:08.276,0.001379262364935132
2070,00:00:08.28,-0.005490869516506796
2071,00:00:08.284,0.001734579913318159
2072,00:00:08.288,0.005266665597446265
2073,00:00:08.292,-0.0197179932147264
2074,00:00:08.296,-0.0023429018328897633
2075,00:00:08.3,0.010500209231395273
2076,00:00:08.304,-0.0027526452031452248
2077,00:00:08.308,0.004846577649004761
2078,00:00:08.312,0.006915548467077315
2079,00:00:08.316,-0.0003728172741830336
2080,00:00:08.32,-0.0010428893147036394
2081,00:00:08.324,-0.0029041379893897093
2082,00:00:08.328,0.0009969449602067497
2083,00:00:08.332,-0.005830648355185991
2084,00:00:08.336,0.00276740407571197
2085,00:00:08.34,-0.007339349365793161
2086,00:00:08.344,-0.00821802439168096
2087,00:00:08.348,0.00999576086178421
2088,00:00:08.352,0.010822073323652152
2089,00:00:08.356,0.014900410780683162
2090,00:00:08.36,-0.005416133417384117
2091,00:00:08.364,-0.025159031152725237
2092,00:00:08.368,-0.0022657389636151514
2093,00:00:08.372,0.0064356021975981986
2094,00:00:08.376,0.00461076727697218
2095,00:00:08.38,0.00743494695052505
2096,00:00:08.384,-0.0003831903450191125
2097,00:00:08.388,-0.0034151796135120102
2098,00:00:08.392,-0.00523119186982513
2099,00:00:08.396,0.004674519179388881
2100,00:00:08.4,-1.7957907402881164e-05
2101,00:00:08.404,-0.0019107283005723702
2102,00:00:08.408,-0.00576181442011148
2103,00:00:08.412,-0.004761354764923455
2104,00:00:08.416,0.0076693465816788375
2105,00:00:08.42,0.009843679494224496
2106,00:00:08.424,0.0051474756328389075
2107,00:00:08.428,0.00111767766065896
2108,00:00:08.432,-0.012953597586601969
2109,00:00:08.436,-0.01133078103885056
2110,00:00:08.44,0.0008445293351542239
2111,00:00:08.444,0.006088870257372033
2112,00:00:08.448,0.007908611791208392
2113,00:00:08.452,-0.00324049417395145
2114,00:00:08.456,5.54264697711911e-05
2115,00:00:08.46,0.007316500064916907
2116,00:00:08.464,-0.00322236563079059
2117,00:00:08.468,-0.00507556484080851
2118,00:00:08.472,-0.007047551451250909
2119,00:00:08.476,0.003881864482536909
2120,00:00:08.48,0.0070057698758319
2121,00:00:08.484,0.0002793087624013389
2122,00:00:08.488,0.0061648212140426005
2123,00:00:08.492,-0.014052710495889187
2124,00:00:08.496,-0.009707064833492048
2125,00:00:08.5,0.006633441895246509
2126,00:00:08.504,0.003052812186069791
2127,00:00:08.508,0.021503741387277838
2128,00:00:08.512,0.00752999633550644
2129,00:00:08.516,-0.028893074253574
2130,00:00:08.52,-0.015114075969904621
2131,00:00:08.524,0.012860715854913
2132,00:00:08.528,0.013975824229419249
2133,00:00:08.532,-0.00723143364302814
2134,00:00:08.536,0.000560585423954768
2135,00:00:08.54,-0.0012005715361738203
2136,00:00:08.544,-0.0006113331764936399
2137,00:00:08.548,-0.00387753162067384
2138,00:00:08.552,0.002548934891819958
2139,00:00:08.556,0.009966789200916534
2140,00:00:08.56,0.0003132139390800161
2141,00:00:08.564,-0.0027554394328035362
2142,00:00:08.568,-0.01121301250532269
2143,00:00:08.572,-0.0044306524796411395
2144,00:00:08.576,0.005227468995144589
2145,00:00:08.58,0.01045756353414618
2146,00:00:08.584,-0.004727299965452407
2147,00:00:08.588,0.002714783651754262
2148,00:00:08.592,-0.011450797406723721
2149,00:00:08.596,0.0038323450135067105
2150,00:00:08.6,0.03791406354866922
2151,00:00:08.604,-0.019667846674565236
2152,00:00:08.608,-0.04126149415969846
2153,00:00:08.612,0.00577431661076847
2154,00:00:08.616,0.02385007217526434
2155,00:00:08.62,-0.001854354515671769
2156,00:00:08.624,0.00581760657951237
2157,00:00:08.628,0.004172045330051338
2158,00:00:08.632,-0.008836083579808477
2159,00:00:08.636,-0.004381452105008068
2160,00:00:08.64,0.001494416334026028
2161,00:00:08.644,-0.002559572283644227
2162,00:00:08.648,0.00011880809324793843
2163,00:00:08.652,0.000476453482406218
2164,00:00:08.656,0.00686076865531504
2165,00:00:08.66,0.00737870601005853
2166,00:00:08.664,-0.009619089716579762
2167,00:00:08.668,-0.00307893136050553
2168,00:00:08.672,0.0017489392485003957
2169,00:00:08.676,-0.0013205239083617945
2170,00:00:08.68,0.0012345631839707541
2171,00:00:08.684,0.002583311375929049
2172,00:00:08.688,-0.00239725108258426
2173,00:00:08.692,-0.008528564678272229
2174,00:00:08.696,-0.0008170283981599
2175,00:00:08.7,0.00766675476916134
2176,00:00:08.704,0.015003475127741688
2177,00:00:08.708,0.004641616542357946
2178,00:00:08.712,-0.026549420203082288
2179,00:00:08.716,-0.01276298938319091
2180,00:00:08.72,0.018183479551225908
2181,00:00:08.724,0.02276286133565009
2182,00:00:08.728,-0.0037318692775443188
2183,00:00:08.732,-0.021205855067819322
2184,00:00:08.736,-0.0024664835073053898
2185,00:00:08.74,-0.000974004709860314
2186,00:00:08.744,-0.001098627457395199
2187,00:00:08.748,0.0107849114574492
2188,00:00:08.752,0.004995864699594678
2189,00:00:08.756,1.7554571968508934e-05
2190,00:00:08.76,0.003569422035070601
2191,00:00:08.764,-0.010989746078848839
2192,00:00:08.768,-0.0027444361185189263
2193,00:00:08.772,-0.005423964001238338
2194,00:00:08.776,0.0014816401235293588
2195,00:00:08.78,0.01232454564888031
2196,00:00:08.784,0.00617945741396397
2197,00:00:08.788,-0.010243456868920477
2198,00:00:08.792,0.00199359108228237
2199,00:00:08.796,0.0054042665578890635
2200,00:00:08.8,-0.007657642359845349
2201,00:00:08.804,-0.006124406194430774
2202,00:00:08.808,-0.0007028101972537117
2203,00:00:08.812,0.00106114766094835
2204,00:00:08.816,0.00798757886514067
2205,00:00:08.82,-0.004018150619231161
2206,00:00:08.824,0.002890022151404995
2207,00:00:08.828,0.015278989420039593
2208,00:00:08.832,-0.013509427430108186
2209,00:00:08.836,-0.0073557286010554924
2210,00:00:08.84,0.006857907166704541
2211,00:00:08.844,-0.00782046653330325
2212,00:00:08.848,-0.007717326770944052
2213,00:00:08.852,0.01115733874030412
2214,00:00:08.856,0.01551574142649771
2215,00:00:08.86,-0.0062302823644131405
2216,00:00:08.864,-0.006683218816760929
2217,00:00:08.868,-0.01022611558437347
2218,00:00:08.872,-0.005177115090191366
2219,00:00:08.876,0.01627540879417211
2220,00:00:08.88,0.01499453233554959
2221,00:00:08.884,-0.010268410958815368
2222,00:00:08.888,-0.002021740248892456
2223,00:00:08.892,0.0036022560670971896
2224,00:00:08.896,-0.01551269087940459
2225,00:00:08.9,-0.011655303416773673
2226,00:00:08.904,0.011932721477933231
2227,00:00:08.908,0.008388042013393712
2228,00:00:08.912,0.00265811255667359
2229,00:00:08.916,0.01124620670452714
2230,00:00:08.92,-0.003852308538625944
2231,00:00:08.924,-0.013098423776682461
2232,00:00:08.928,-0.005058818613179033
2233,00:00:08.932,-0.00111197785008698
2234,00:00:08.936,0.0014495932264253532
2235,00:00:08.94,0.009011292539071297
2236,00:00:08.944,0.01558493985794485
2237,00:00:08.948,-0.01037725049536675
2238,00:00:08.952,-0.014039997709915049
2239,00:00:08.956,-0.0027906802133657012
2240,00:00:08.96,0.007894658629084006
2241,00:00:08.964,-0.000762437179218983
2242,00:00:08.968,0.004321013577282432
2243,00:00:08.972,-0.003957834327593446
2244,00:00:08.976,-0.0010954861063510206
2245,00:00:08.98,0.00645104772411287
2246,00:00:08.984,0.007414622683427294
2247,00:00:08.988,-0.00325669314770494
2248,00:00:08.992,-0.008907988318242141
2249,00:00:08.996,-0.00729692948516458
2250,00:00:09,-0.002064917833195075
2251,00:00:09.004,0.01719895051792264
2252,00:00:09.008,0.0033602818148210575
2253,00:00:09.012,-0.00884216741542332
2254,00:00:09.016,-0.00849633407779038
2255,00:00:09.02,-0.0007540209917351495
2256,00:00:09.024,0.010894504172028972
2257,00:00:09.028,0.0016152240714291158
2258,00:00:09.032,-0.0016974384780041912
2259,00:00:09.036,-0.001979894819669426
2260,00:00:09.04,-0.0011000686718034536
2261,00:00:09.044,-0.006375011203999748
2262,00:00:09.048,0.008399720376473848
2263,00:00:09.052,0.001362187264021487
2264,00:00:09.056,0.007385965815046804
2265,00:00:09.06,-0.0007255375385284421
2266,00:00:09.064,-0.01512980600818992
2267,00:00:09.068,-0.0032980331452563444
2268,00:00:09.072,0.0008878874359652404
2269,00:00:09.076,0.00652928766794503
2270,00:00:09.08,0.00699949346017093
2271,00:00:09.084,-0.0007103760726749999
2272,00:00:09.088,-0.0052032793173566495
2273,00:00:09.092,-0.00888466864125804
2274,00:00:09.096,0.006512729451060301
2275,00:00:09.1,0.011196128674782813
2276,00:00:09.104,-0.003630627703387291
2277,00:00:09.108,-0.003110049932729448
2278,00:00:09.112,-0.002159974188543861
2279,00:00:09.116,-0.0030114973196759803
2280,00:00:09.12,0.006233029504073792
2281,00:00:09.124,-0.0037240770761854955
2282,00:00:09.128,-0.006649715476669373
2283,00:00:09.132,0.0026627956540323794
2284,00:00:09.136,0.01189139252528549
2285,00:00:09.14,0.010589796224394377
2286,00:00:09.144,-0.005553313763812179
2287,00:00:09.148,-0.02607741486281158
2288,00:00:09.152,-0.0011805593967437818
2289,00:00:09.156,0.010810233012307439
2290,00:00:09.16,0.002569435164332389
2291,00:00:09.164,0.01069684070535
2292,00:00:09.168,-0.0011923166457563595
2293,00:00:09.172,-0.00495045550633221
2294,00:00:09.176,-0.0019889844115823425
2295,00:00:09.18,-0.0035253721289336694
2296,00:00:09.184,-0.007274500909261399
2297,00:00:09.188,0.003142226429190492
2298,00:00:09.192,0.01526233274489641
2299,00:00:09.196,0.00779366178903728
2300,00:00:09.2,-0.01080471451859921
2301,00:00:09.204,-0.012503808597102772
2302,00:00:09.208,-0.005776013247668742
2303,00:00:09.212,0.007944804383441804
2304,00:00:09.216,0.014400009182281792
2305,00:00:09.22,0.00161250587552786
2306,00:00:09.224,-0.014165980275720351
2307,00:00:09.228,-0.0030844282009638846
2308,00:00:09.232,0.0025318197440356
2309,00:00:09.236,0.00787377671804278
2310,00:00:09.24,-0.0015371384797617767
2311,00:00:09.244,-0.004884419904556121
2312,00:00:09.248,0.0007290049688890507
2313,00:00:09.252,-5.33181591890813e-05
2314,00:00:09.256,0.0032318780722562163
2315,00:00:09.26,-0.0003711695899255578
2316,00:00:09.264,0.005604236899216634
2317,00:00:09.268,0.00016861804760992007
2318,00:00:09.272,-0.012768182234140125
2319,00:00:09.276,0.00287837639916688
2320,00:00:09.28,0.003896911570336673
2321,00:00:09.284,-0.005255699390545484
2322,00:00:09.288,-0.005706424766685822
2323,00:00:09.292,0.0027367129223421207
2324,00:00:09.296,0.02186936489306392
2325,00:00:09.3,0.008998658217024063
2326,00:00:09.304,-0.0231046978733502
2327,00:00:09.308,-0.02224069589283318
2328,00:00:09.312,0.011536210076883449
2329,00:00:09.316,0.02457252261228857
2330,00:00:09.32,-0.00810614251531661
2331,00:00:09.324,-0.01046702172607183
2332,00:00:09.328,-0.0012580672046169597
2333,00:00:09.332,0.0050469147390685976
2334,00:00:09.336,-0.0006945687928237011
2335,00:00:09.34,0.01043365569785237
2336,00:00:09.344,-0.00021907250629738385
2337,00:00:09.348,-0.01879756688140336
2338,00:00:09.352,-0.007012605783529578
2339,00:00:09.356,0.01455962099134922
2340,00:00:09.36,0.01145421247929334
2341,00:00:09.364,-0.00013727729674429005
2342,00:00:09.368,-0.006986168852563427
2343,00:00:09.372,-0.0028610241097339908
2344,00:00:09.376,0.00539080845192075
2345,00:00:09.38,-0.003666742821224035
2346,00:00:09.384,-0.008379388833418492
2347,00:00:09.388,0.00041112245526164033
2348,00:00:09.392,0.006468968407716607
2349,00:00:09.396,0.002268713433295489
2350,00:00:09.4,-0.003766370704397561
2351,00:00:09.404,0.005568624939769505
2352,00:00:09.408,0.0005848648725077501
2353,00:00:09.412,-0.0019249843899160693
2354,00:00:09.416,-0.00639459109515883
2355,00:00:09.42,0.0026257809804519604
2356,00:00:09.424,0.013497124426066862
2357,00:00:09.428,-0.010999504709616309
2358,00:00:09.432,-0.00712954270420591
2359,00:00:09.436,0.0013390779495239186
2360,00:00:09.44,0.001338726433459673
2361,00:00:09.444,-0.0017782915383577405
2362,00:00:09.448,0.004181401462119542
2363,00:00:09.452,0.008559975714888424
2364,00:00:09.456,0.002037936355918651
2365,00:00:09.46,0.00021783960983157939
2366,00:00:09.464,-0.015842183027416468
2367,00:00:09.468,-0.005399744026362901
2368,00:00:09.472,0.00348872773247422
2369,00:00:09.476,0.006743000471033155
2370,00:00:09.48,0.01977843418717385
2371,00:00:09.484,-0.007904172452981584
2372,00:00:09.488,-0.01874099299311642
2373,00:00:09.492,-0.005092087376397108
2374,00:00:09.496,0.006994187133386735
2375,00:00:09.5,0.008006736752577131
2376,00:00:09.504,0.00615429936442524
2377,00:00:09.508,-0.0022245352884056073
2378,00:00:09.512,-0.0063962761778384395
2379,00:00:09.516,0.0009833945368882288
2380,00:00:09.52,0.0008650828385725698
2381,00:00:09.524,-0.0005993848026264471
2382,00:00:09.528,-0.007436701096594339
2383,00:00:09.532,-0.0011273021518718443
2384,00:00:09.536,0.01080475287744775
2385,00:00:09.54,0.010165687010157862
2386,00:00:09.544,-0.005206813948461789
2387,00:00:09.548,-0.012482995196478401
2388,00:00:09.552,-0.0032216652762144696
2389,00:00:09.556,-0.0014755662996321897
2390,00:00:09.56,0.008359976665815335
2391,00:00:09.564,0.008586322132032361
2392,00:00:09.568,-0.0026909780572168555
2393,00:00:09.572,-0.002136187162250283
2394,00:00:09.576,-0.0021052356314612535
2395,00:00:09.58,0.006764763034880161
2396,00:00:09.584,-0.00849214868503623
2397,00:00:09.588,-0.00838686584029347
2398,00:00:09.592,0.01025868440046911
2399,00:00:09.596,-0.004287216666853063
2400,00:00:09.6,-0.00613504170905798
2401,00:00:09.604,0.01691502158064399
2402,00:00:09.608,-0.0002728824038058502
2403,00:00:09.612,-0.011039216507924717
2404,00:00:09.616,0.00646323279943317
2405,00:00:09.62,0.006220869487151507
2406,00:00:09.624,-0.01191424438729883
2407,00:00:09.628,-0.004442484019818946
2408,00:00:09.632,0.004405218292959034
2409,00:00:09.636,0.000837040075566619
2410,00:00:09.64,0.00830025970935821
2411,00:00:09.644,0.002886131056584409
2412,00:00:09.648,-0.007224732078611851
2413,00:00:09.652,-0.001275827322388072
2414,00:00:09.656,-0.004747989136376413
2415,00:00:09.66,0.00734887560247444
2416,00:00:09.664,0.0009176990133710155
2417,00:00:09.668,-0.011050700355554005
2418,00:00:09.672,0.0007308891508728309
2419,00:00:09.676,0.007070051040500401
2420,00:00:09.68,0.006444543221732607
2421,00:00:09.684,-0.004020848311483851
2422,00:00:09.688,-0.00844276649877429
2423,00:00:09.692,0.00045023896382190396
2424,00:00:09.696,0.00832578050903976
2425,00:00:09.7,0.003921412921044979
2426,00:00:09.704,-0.003761886560823771
2427,00:00:09.708,-0.00016997609054669694
2428,00:00:09.712,-0.008053903235122553
2429,00:00:09.716,-0.0009623212972655901
2430,00:00:09.72,0.006997381977271289
2431,00:00:09.724,-0.0047039817482072985
2432,00:00:09.728,0.0006178738549351692
2433,00:00:09.732,0.0030764468247070987
2434,00:00:09.736,0.004713344096671798
2435,00:00:09.74,0.0030157272703945585
2436,00:00:09.744,0.0018979845335707112
2437,00:00:09.748,-0.01498994149733334
2438,00:00:09.752,-0.0075526739819906895
2439,00:00:09.756,0.015301126521080708
2440,00:00:09.76,0.002137802657671271
2441,00:00:09.764,-0.00698016304522753
2442,00:00:09.768,-0.001117189938668165
2443,00:00:09.772,-0.00015354173956439073
2444,00:00:09.776,0.00222738372394815
2445,00:00:09.78,0.017345052270684374
2446,00:00:09.784,-0.010061470093205568
2447,00:00:09.788,-0.011352903093211346
2448,00:00:09.792,-0.00597645808011294
2449,00:00:09.796,0.008889862161595374
2450,00:00:09.8,0.0009014405659399992
2451,00:00:09.804,0.00720138312317431
2452,00:00:09.808,-0.006151354580651972
2453,00:00:09.812,0.0006560308975167644
2454,00:00:09.816,-0.0004927839981974094
2455,00:00:09.82,0.006551425729412577
2456,00:00:09.824,-0.003031189342436842
2457,00:00:09.828,-0.00836845743469895
2458,00:00:09.832,0.00193500332534313
2459,00:00:09.836,0.005763236695202064
2460,00:00:09.84,-0.002058703685179351
2461,00:00:09.844,0.00439054332673549
2462,00:00:09.848,-0.001642177085159351
2463,00:00:09.852,-0.009668427250289824
2464,00:00:09.856,0.00145666816388257
2465,00:00:09.86,0.0002459288516547529
2466,00:00:09.864,0.0029268470534589116
2467,00:00:09.868,0.01625841227360066
2468,00:00:09.872,-0.0011472847545519402
2469,00:00:09.876,-0.0155064465943724
2470,00:00:09.88,-0.0027839922986458952
2471,00:00:09.884,-0.003015344293089576
2472,00:00:09.888,0.003575351438485084
2473,00:00:09.892,-0.0038652969169561415
2474,00:00:09.896,0.004262385016772891
2475,00:00:09.9,0.016968879383057404
2476,00:00:09.904,0.002655600532307288
2477,00:00:09.908,-0.01159037626348439
2478,00:00:09.912,-0.01384107978083194
2479,00:00:09.916,0.005293044843710959
2480,00:00:09.92,0.004082504834514117
2481,00:00:09.924,-0.00031075847800821294
2482,00:00:09.928,-0.00426734215579927
2483,00:00:09.932,0.0005558115663006802
2484,00:00:09.936,0.01859621587209406
2485,00:00:09.94,-0.0056691289646550996
2486,00:00:09.944,-0.003350444836542011
2487,00:00:09.948,-0.01515696011483669
2488,00:00:09.952,-0.00892757670953869
2489,00:00:09.956,0.0139810019172728
2490,00:00:09.96,0.017056835698895146
2491,00:00:09.964,4.8153364332395414e-05
2492,00:00:09.968,-0.002595274650957438
2493,00:00:09.972,-0.01465771300718189
2494,00:00:09.976,-0.002543866168707611
2495,00:00:09.98,0.005218076956225565
2496,00:00:09.984,0.00217112503014505
2497,00:00:09.988,-0.0010719830170273798
2498,00:00:09.992,0.0023747793165966903
2499,00:00:09.996,0.0016231639456236741
2500,00:00:10,-9.783121640794196e-05
2501,00:00:10.004,0.000885144807398315
2502,00:00:10.008,-0.0053524941613431985
2503,00:00:10.012,-0.00458143593277782
2504,00:00:10.016,0.00948213180527091
2505,00:00:10.02,0.00902615441009402
2506,00:00:10.024,-0.010157925891689961
2507,00:00:10.028,-0.0169545209500939
2508,00:00:10.032,0.004323437256971379
2509,00:00:10.036,0.01849148492328821
2510,00:00:10.04,0.0013804878108203402
2511,00:00:10.044,-0.0007047958060866196
2512,00:00:10.048,-0.012920678418595347
2513,00:00:10.052,-0.005765593086834992
2514,00:00:10.056,0.011253665026742972
2515,00:00:10.06,0.0070478506222571005
2516,00:00:10.064,-0.00494832440745085
2517,00:00:10.068,-0.0010975387413054705
2518,00:00:10.072,-0.00778382958378643
2519,00:00:10.076,-0.0021165198559174292
2520,00:00:10.08,0.0014903977862559242
2521,00:00:10.084,0.005156804574653499
2522,00:00:10.088,0.011338670738041389
2523,00:00:10.092,0.0027185187209397606
2524,00:00:10.096,-0.005248827335890389
2525,00:00:10.1,-0.005490043549798439
2526,00:00:10.104,-0.009247688649338674
2527,00:00:10.108,-0.0029174048977438404
2528,00:00:10.112,-0.0008513177344866524
2529,00:00:10.116,0.009571250935550779
2530,00:00:10.12,0.009729796089231971
2531,00:00:10.124,0.01032345392741258
2532,00:00:10.128,-0.01615779672283681
2533,00:00:10.132,-0.012546028709039068
2534,00:00:10.136,0.0025531154824420914
2535,00:00:10.14,0.0018802976119331979
2536,00:00:10.144,0.01014247653074557
2537,00:00:10.148,-0.0018711572047322895
2538,00:00:10.152,-0.0006203141529113054
2539,00:00:10.156,-0.00466655637137592
2540,00:00:10.16,0.00746591750066727
2541,00:00:10.164,0.000815403182059527
2542,00:00:10.168,-0.005271071131573994
2543,00:00:10.172,-0.0058429049095139
2544,00:00:10.176,0.0015460522845387502
2545,00:00:10.18,0.00554507563356309
2546,00:00:10.184,0.00255760364234448
2547,00:00:10.188,-0.005070547864306722
2548,00:00:10.192,-0.0026588190230540953
2549,00:00:10.196,0.0051635435083880995
2550,00:00:10.2,0.0007908649276942006
2551,00:00:10.204,-0.0030754706822335703
2552,00:00:10.208,-0.0012903237948194077
2553,00:00:10.212,0.00503591040614992
2554,00:00:10.216,0.008105741697363559
2555,00:00:10.22,-0.009882169077172868
2556,00:00:10.224,-0.01653095730580393
2557,00:00:10.228,0.004548492492176588
2558,00:00:10.232,0.014357776672113685
2559,00:00:10.236,0.009399858070537443
2560,00:00:10.24,-0.0035293750697746895
2561,00:00:10.244,-0.00975536834448575
2562,00:00:10.248,-0.005942532501649117
2563,00:00:10.252,-0.002356220429646779
2564,00:00:10.256,0.007253281888552013
2565,00:00:10.26,0.0033774779876694105
2566,00:00:10.264,0.002877233840990816
2567,00:00:10.268,-0.002644472406245769
2568,00:00:10.272,-0.004877055878750975
2569,00:00:10.276,-0.0012372912606224405
2570,00:00:10.28,0.008151573987561282
2571,00:00:10.284,-0.0052491092064883595
2572,00:00:10.288,-0.0011822340893559119
2573,00:00:10.292,0.0034081976045854433
2574,00:00:10.296,0.003978238848503678
2575,00:00:10.3,0.0016380141023546492
2576,00:00:10.304,-0.007376716006547209
2577,00:00:10.308,-0.0050844607176259195
2578,00:00:10.312,-0.00437398278154432
2579,00:00:10.316,0.006871989578939969
2580,00:00:10.32,0.010822454583831137
2581,00:00:10.324,-0.0036198239540681204
2582,00:00:10.328,-0.00478834414388984
2583,00:00:10.332,0.0002699743490666132
2584,00:00:10.336,0.005114713931106959
2585,00:00:10.34,-0.0015933315153233661
2586,00:00:10.344,-0.0014633079408667943
2587,00:00:10.348,-0.012702691834419966
2588,00:00:10.352,0.003815693205979183
2589,00:00:10.356,0.009518745442619549
2590,00:00:10.36,0.006875615254102736
2591,00:00:10.364,-0.00501660234294832
2592,00:00:10.368,-0.0076908793998882105
2593,00:00:10.372,-0.00031235131064022426
2594,00:00:10.376,0.002467217273078857
2595,00:00:10.38,0.0002720573102123991
2596,00:00:10.384,0.0009330995671916801
2597,00:00:10.388,0.00130608538165689
2598,00:00:10.392,0.0029205733444541693
2599,00:00:10.396,0.00011966795136686611
2600,00:00:10.4,-8.33203666843552e-05
2601,00:00:10.404,-0.004505228891503063
2602,00:00:10.408,-0.0031386406044475695
2603,00:00:10.412,-0.0002882404951378679
2604,00:00:10.416,0.003751953488972507
2605,00:00:10.42,0.00427803362254053
2606,00:00:10.424,-0.004186764077530833
2607,00:00:10.428,-0.00933017418719832
2608,00:00:10.432,0.0018313849577680202
2609,00:00:10.436,0.015020576305687428
2610,00:00:10.44,0.01026716898195446
2611,00:00:10.444,-0.0122750320006162
2612,00:00:10.448,-0.018012038897722966
2613,00:00:10.452,-0.002004928304813801
2614,00:00:10.456,0.01603518798947333
2615,00:00:10.46,0.013683191762538646
2616,00:00:10.464,-0.01108059613034131
2617,00:00:10.468,-0.00810322375036776
2618,00:00:10.472,-0.004202005675324477
2619,00:00:10.476,0.002072659379336982
2620,00:00:10.48,0.0071036329027265
2621,00:00:10.484,0.014740213926415894
2622,00:00:10.488,-0.007699674577452251
2623,00:00:10.492,-0.01687725400552151
2624,00:00:10.496,-0.003564870567061007
2625,00:00:10.5,0.007513367629144337
2626,00:00:10.504,0.0076887523755431175
2627,00:00:10.508,0.001344699499895793
2628,00:00:10.512,-0.0009068139770533829
2629,00:00:10.516,-0.0013833192060701618
2630,00:00:10.52,0.00717937923036516
2631,00:00:10.524,-0.00646619603503496
2632,00:00:10.528,-0.01082491734996437
2633,00:00:10.532,0.005914131004828961
2634,00:00:10.536,0.003213279240299015
2635,00:00:10.54,-0.0036257531028240893
2636,00:00:10.544,0.0010108592687174634
2637,00:00:10.548,0.00010502105578780001
2638,00:00:10.552,-0.002830943267326808
2639,00:00:10.556,0.009806522750295692
2640,00:00:10.56,0.01694756594952192
2641,00:00:10.564,-0.0208633372094482
2642,00:00:10.568,-0.01400984521023929
2643,00:00:10.572,0.0030152034014463425
2644,00:00:10.576,0.00512036401778459
2645,00:00:10.58,0.007099504407960921
2646,00:00:10.584,0.003088678698986759
2647,00:00:10.588,-0.00521537894383073
2648,00:00:10.592,-0.0031880366150289696
2649,00:00:10.596,0.0045570900547318195
2650,00:00:10.6,0.002415840805042532
2651,00:00:10.604,-0.007328050793148591
2652,00:00:10.608,-0.0009442908922210305
2653,00:00:10.612,0.004549468168988831
2654,00:00:10.616,0.007082190306391569
2655,00:00:10.62,-0.0019490306731313484
2656,00:00:10.624,-0.00920067145489156
2657,00:00:10.628,-0.00408726034220308
2658,00:00:10.632,0.00611575401853771
2659,00:00:10.636,0.0027341143359080845
2660,00:00:10.64,0.000653272261843085
2661,00:00:10.644,-0.0025256290100514923
2662,00:00:10.648,0.0053361805039457925
2663,00:00:10.652,-0.005024410813348364
2664,00:00:10.656,-0.0014244558842619862
2665,00:00:10.66,-0.00161082245176658
2666,00:00:10.664,0.00714464986231178
2667,00:00:10.668,-0.0036088782662773156
2668,00:00:10.672,-0.00916944199707358
2669,00:00:10.676,0.008196975803002712
2670,00:00:10.68,0.02368691144511103
2671,00:00:10.684,-0.01479184353229356
2672,00:00:10.688,-0.02271329308859999
2673,00:00:10.692,0.0002475930377841104
2674,00:00:10.696,0.011041109915822718
2675,00:00:10.7,0.0021849901240784744
2676,00:00:10.704,0.003931234066840268
2677,00:00:10.708,0.010559060727246099
2678,00:00:10.712,-0.01026500132866204
2679,00:00:10.716,-0.0044735914925695406
2680,00:00:10.72,0.002955955453217021
2681,00:00:10.724,-0.0075824921368621324
2682,00:00:10.728,-0.002366990403970698
2683,00:00:10.732,0.016170298680663078
2684,00:00:10.736,0.0020996415987610865
2685,00:00:10.74,-0.00765287119429559
2686,00:00:10.744,-0.01488233776763081
2687,00:00:10.748,0.00388137016125256
2688,00:00:10.752,0.006262681446969509
2689,00:00:10.756,0.013725012770919425
2690,00:00:10.76,-0.009560313759720888
2691,00:00:10.764,-0.0010329411597922496
2692,00:00:10.768,0.004648704198189081
2693,00:00:10.772,-0.006165973551105702
2694,00:00:10.776,-0.00621111260261386
2695,00:00:10.78,0.00655850092880427
2696,00:00:10.784,0.0049068306107074
2697,00:00:10.788,0.0022270102053880596
2698,00:00:10.792,-0.00682913663331419
2699,00:00:10.796,-0.0026600926648825403
2700,00:00:10.8,-0.006305207149125639
2701,00:00:10.804,0.007104921445716181
2702,00:00:10.808,0.0021508492063731
2703,00:00:10.812,-0.0008084378205239699
2704,00:00:10.816,0.013226726208813492
2705,00:00:10.82,-0.0018068409990519415
2706,00:00:10.824,-0.01859880005940795
2707,00:00:10.828,-0.00770806020591408
2708,00:00:10.832,0.013234623707830911
2709,00:00:10.836,0.016612913575954732
2710,00:00:10.84,-0.00638220336986705
2711,00:00:10.844,-0.005315259506460276
2712,00:00:10.848,-0.01278659584932029
2713,00:00:10.852,-0.0111290420172736
2714,00:00:10.856,0.02234439738094806
2715,00:00:10.86,0.021674376039300128
2716,00:00:10.864,-0.007931527681648731
2717,00:00:10.868,-0.022687368327751752
2718,00:00:10.872,0.0008340750937350129
2719,00:00:10.876,0.005372825544327501
2720,00:00:10.88,0.005217085941694669
2721,00:00:10.884,-0.010099299906869419
2722,00:00:10.888,-0.007520007089624418
2723,00:00:10.892,0.01279870001599193
2724,00:00:10.896,0.01072015147656202
2725,00:00:10.9,0.0083630287554115
2726,00:00:10.904,-0.01236677984707057
2727,00:00:10.908,-0.011198844382306514
2728,00:00:10.912,-0.0012581067858263863
2729,00:00:10.916,-0.0010318614076823005
2730,00:00:10.92,0.00967578595736995
2731,00:00:10.924,0.0035285580670461
2732,00:00:10.928,-0.0029314252315089115
2733,00:00:10.932,0.001430374089977707
2734,00:00:10.936,0.0015126792713999798
2735,00:00:10.94,-0.006445745588280259
2736,00:00:10.944,-0.006181150733027614
2737,00:00:10.948,-0.0018703080277191458
2738,00:00:10.952,0.00853796559385955
2739,00:00:10.956,0.010718894656747581
2740,00:00:10.96,0.003506181121338163
2741,00:00:10.964,-0.011860474245622752
2742,00:00:10.968,-0.008959503553342072
2743,00:00:10.972,0.000672194088110699
2744,00:00:10.976,-0.000166521116625517
2745,00:00:10.98,0.005427062686067078
2746,00:00:10.984,0.006901870234287346
2747,00:00:10.988,-0.0043796581885544505
2748,00:00:10.992,0.00126726290909573
2749,00:00:10.996,-0.001258332806173712
2750,00:00:11,0.00113164738286287
2751,00:00:11.004,-2.342573134228186e-05
2752,00:00:11.008,-0.0032836815807968404
2753,00:00:11.012,0.0026711326208896935
2754,00:00:11.016,-0.0011026527499780102
2755,00:00:11.02,0.0006343786371871764
2756,00:00:11.024,-0.006601973800570699
2757,00:00:11.028,0.00277568423189223
2758,00:00:11.032,0.006032000295817853
2759,00:00:11.036,0.006146080180769789
2760,00:00:11.04,-0.00378201296553016
2761,00:00:11.044,-0.014712645730469369
2762,00:00:11.048,-0.0025507720420137056
2763,00:00:11.052,0.0077251346083357895
2764,00:00:11.056,-0.0050221025594510225
2765,00:00:11.06,0.01486607315018771
2766,00:00:11.064,0.023247990451636735
2767,00:00:11.068,-0.02206983859650785
2768,00:00:11.072,-0.013459042704198553
2769,00:00:11.076,0.006477483955677602
2770,00:00:11.08,-0.005106099852127951
2771,00:00:11.084,-0.00925636931788176
2772,00:00:11.088,-0.00271582056302577
2773,00:00:11.092,0.02116746036335829
2774,00:00:11.096,0.01065440149977803
2775,00:00:11.1,-0.0014613450621254738
2776,00:00:11.104,-0.00777242745971307
2777,00:00:11.108,-0.01390777342021466
2778,00:00:11.112,-0.0042651819530874525
2779,00:00:11.116,0.00891355378553272
2780,00:00:11.12,0.010028171120211489
2781,00:00:11.124,0.002618935715872791
2782,00:00:11.128,-0.00556916417554021
2783,00:00:11.132,-0.00540710717905313
2784,00:00:11.136,-9.004081948660385e-05
2785,00:00:11.14,-0.0011554466764209753
2786,00:00:11.144,-0.005698361375834795
2787,00:00:11.148,0.005627610022202141
2788,00:00:11.152,0.01282739965245128
2789,00:00:11.156,0.009528473136015235
2790,00:00:11.16,-0.01348407287150621
2791,00:00:11.164,-0.01719247200526297
2792,00:00:11.168,-0.010843202529940758
2793,00:00:11.172,0.01217895210720599
2794,00:00:11.176,0.02493855683133003
2795,00:00:11.18,0.00167495547793806
2796,00:00:11.184,-0.010785566759295758
2797,00:00:11.188,-0.01142037962563336
2798,00:00:11.192,-0.0013505595270544295
2799,00:00:11.196,0.009607794626390389
2800,00:00:11.2,-0.006105311913415791
2801,00:00:11.204,-0.0027693383162841257
2802,00:00:11.208,0.002888444112613801
2803,00:00:11.212,0.01327812112867832
2804,00:00:11.216,0.0059855930230696686
2805,00:00:11.22,-0.011645672959275549
2806,00:00:11.224,-0.012415457633323971
2807,00:00:11.228,-0.005199592182179912
2808,00:00:11.232,0.006467126193456352
2809,00:00:11.236,0.010491363587789241
2810,00:00:11.24,0.009221683430951083
2811,00:00:11.244,-0.0029914884362369793
2812,00:00:11.248,-0.01160328893456608
2813,00:00:11.252,-0.004121413869142998
2814,00:00:11.256,-0.0010053903024527249
2815,00:00:11.26,0.00930104893632233
2816,00:00:11.264,0.0046766458544880134
2817,00:00:11.268,-0.009870648034848271
2818,00:00:11.272,-0.00066466326825321
2819,00:00:11.276,0.004722093392047098
2820,00:00:11.28,0.00048208504449576107
2821,00:00:11.284,-0.00900564924813807
2822,00:00:11.288,0.005205054127145561
2823,00:00:11.292,0.01662497839424759
2824,00:00:11.296,-0.001323953678365798
2825,00:00:11.3,-0.009391095838509502
2826,00:00:11.304,-0.014854491222649811
2827,00:00:11.308,-0.00597768370062113
2828,00:00:11.312,0.014167842222377661
2829,00:00:11.316,0.01096280937781557
2830,00:00:11.32,-0.004283316142391413
2831,00:00:11.324,-0.0025619763764552776
2832,00:00:11.328,-0.00310155958868563
2833,00:00:11.332,-0.0022780763101764045
2834,00:00:11.336,0.005832785318489183
2835,00:00:11.34,0.009902595775201911
2836,00:00:11.344,-0.008438595454208556
2837,00:00:11.348,-0.00990245456341654
2838,00:00:11.352,0.0022380694717867348
2839,00:00:11.356,0.01284019416198135
2840,00:00:11.36,-0.005214931559748951
2841,00:00:11.364,-0.010518209310248489
2842,00:00:11.368,-0.00011290959082542896
2843,00:00:11.372,0.007142487447708844
2844,00:00:11.376,0.005219649407081302
2845,00:00:11.38,0.000909452239284296
2846,00:00:11.384,-0.002147121907910336
2847,00:00:11.388,-0.0008538553374819429
2848,00:00:11.392,-0.003997569685452619
2849,00:00:11.396,-0.0021883954195800483
2850,00:00:11.4,0.01079773367382586
2851,00:00:11.404,-0.01215510367183016
2852,00:00:11.408,-0.008607412280980498
2853,00:00:11.412,0.011416686000302434
2854,00:00:11.416,0.01585171953774989
2855,00:00:11.42,-0.00822115765186026
2856,00:00:11.424,-0.00275686763052363
2857,00:00:11.428,-0.00866679998580367
2858,00:00:11.432,-0.0025133793678833163
2859,00:00:11.436,0.003512139126542024
2860,00:00:11.44,0.009556689939927313
2861,00:00:11.444,-0.00017273004050365887
2862,00:00:11.448,-0.004497292748055775
2863,00:00:11.452,0.0064240756910294294
2864,00:00:11.456,0.0034422723110765097
2865,00:00:11.46,-0.01035253517329693
2866,00:00:11.464,-0.0073968889191746694
2867,00:00:11.468,-0.00461605428426992
2868,00:00:11.472,0.003917582973372187
2869,00:00:11.476,0.01002636819612235
2870,00:00:11.48,0.012760636396706083
2871,00:00:11.484,0.0009666216246841906
2872,00:00:11.488,-0.014193173905368896
2873,00:00:11.492,-0.011810484051238749
2874,00:00:11.496,0.011403143755160269
2875,00:00:11.5,-0.003486110101221127
2876,00:00:11.504,-0.002302626438904551
2877,00:00:11.508,0.00180256844032557
2878,00:00:11.512,0.005779850995168089
2879,00:00:11.516,0.013404200435616099
2880,00:00:11.52,-0.006383897271007301
2881,00:00:11.524,-0.021024705318268392
2882,00:00:11.528,-0.0029002237133681713
2883,00:00:11.532,0.00941586820408701
2884,00:00:11.536,0.011094853398390118
2885,00:00:11.54,0.005883927689865229
2886,00:00:11.544,-0.0068598190555349105
2887,00:00:11.548,-0.011220044223591689
2888,00:00:11.552,-0.0009785834263311714
2889,00:00:11.556,0.006290855555562305
2890,00:00:11.56,0.01096435240469873
2891,00:00:11.564,-0.005021542776376007
2892,00:00:11.568,-0.010898553999140859
2893,00:00:11.572,0.000901966617675497
2894,00:00:11.576,0.004092855262570082
2895,00:00:11.58,0.00508367078145966
2896,00:00:11.584,-0.001211272676300721
2897,00:00:11.588,-0.002533215068979187
2898,00:00:11.592,0.00670793757308275
2899,00:00:11.596,-0.010196164716035131
2900,00:00:11.6,-0.0018504649924580019
2901,00:00:11.604,-0.00018699752399697813
2902,00:00:11.608,0.00039126141928136
2903,00:00:11.612,0.0051921876147389395
2904,00:00:11.616,0.0037850483786314696
2905,00:00:11.62,0.0005969194717181396
2906,00:00:11.624,-0.0017374672752339395
2907,00:00:11.628,-0.004456334601854904
2908,00:00:11.632,0.0023434641771018405
2909,00:00:11.636,0.001190987939480691
2910,00:00:11.64,-0.0009830093658820252
2911,00:00:11.644,-0.00801404309459031
2912,00:00:11.648,0.0026240947190672103
2913,00:00:11.652,0.004678896541008729
2914,00:00:11.656,0.004837484011659397
2915,00:00:11.66,0.004400044912472369
2916,00:00:11.664,-0.00696006568614394
2917,00:00:11.668,-0.01296464430924971
2918,00:00:11.672,-0.0005530943162739277
2919,00:00:11.676,0.010492565867025409
2920,00:00:11.68,0.007056711066979924
2921,00:00:11.684,0.0026316444855183294
2922,00:00:11.688,-0.005551007576286789
2923,00:00:11.692,-0.01207779673859478
2924,00:00:11.696,-0.00300756131764501
2925,00:00:11.7,0.011394172965083275
2926,00:00:11.704,0.0056294005480594985
2927,00:00:11.708,-0.001914093445520848
2928,00:00:11.712,-0.000826114381197846
2929,00:00:11.716,0.0026616378454491444
2930,00:00:11.72,-0.0014926752774044897
2931,00:00:11.724,-0.008354092453373601
2932,00:00:11.728,-0.00802037758694496
2933,00:00:11.732,0.0057422515383223054
2934,00:00:11.736,0.00981529674027115
2935,00:00:11.74,0.004354216813226227
2936,00:00:11.744,-0.0036094212719035485
2937,00:00:11.748,-0.00848931795917451
2938,00:00:11.752,0.0017516324296593688
2939,00:00:11.756,0.001295558176934717
2940,00:00:11.76,0.00571527215652168
2941,00:00:11.764,0.00765786133706569
2942,00:00:11.768,-0.010663180932169777
2943,00:00:11.772,-0.006735930219292641
2944,00:00:11.776,-0.003449784242548052
2945,00:00:11.78,0.0022152664605528095
2946,00:00:11.784,0.0049493982442072575
2947,00:00:11.788,0.004246019292622801
2948,00:00:11.792,-0.00238218298181891
2949,00:00:11.796,0.009563010404235687
2950,00:00:11.8,-0.0024141110479831696
2951,00:00:11.804,-0.010450644011143593
2952,00:00:11.808,-0.005013042478822173
2953,00:00:11.812,0.0058309952146373654
2954,00:00:11.816,0.0029391210409812564
2955,00:00:11.82,0.005189460731344295
2956,00:00:11.824,-0.008242661227996
2957,00:00:11.828,-0.00622822460718453
2958,00:00:11.832,0.014399887877516448
2959,00:00:11.836,0.0026982754934579195
2960,00:00:11.84,-0.010251728584989912
2961,00:00:11.844,0.00479997118236497
2962,00:00:11.848,-0.002207923564128582
2963,00:00:11.852,-0.005133652710355827
2964,00:00:11.856,0.0007321982411667673
2965,00:00:11.86,0.0044437284232117305
2966,00:00:11.864,-0.0021994159324094705
2967,00:00:11.868,-0.005213424330577256
2968,00:00:11.872,0.0029795755399391064
2969,00:00:11.876,0.009247733702068208
2970,00:00:11.88,0.009665701945777984
2971,00:00:11.884,-0.01289734267629683
2972,00:00:11.888,-0.012468200548028104
2973,00:00:11.892,0.00663520605303348
2974,00:00:11.896,0.0044332940597087145
2975,00:00:11.9,-0.0008178796560969238
2976,00:00:11.904,-0.0009312652691733107
2977,00:00:11.908,-0.0019577422644942943
2978,00:00:11.912,0.004784360615303739
2979,00:00:11.916,-0.0038211978098843225
2980,00:00:11.92,0.006861083849798885
2981,00:00:11.924,-0.0018918296555057207
2982,00:00:11.928,0.004777632697368975
2983,00:00:11.932,-0.00991853140294552
2984,00:00:11.936,-0.00659080233890563
2985,00:00:11.94,-0.003700108296470714
2986,00:00:11.944,0.00862446380779148
2987,00:00:11.948,0.01025138783734291
2988,00:00:11.952,0.005163026449736206
2989,00:00:11.956,-0.007296923839021481
2990,00:00:11.96,-0.003040290554054082
2991,00:00:11.964,-0.00670473696663975
2992,00:00:11.968,-0.0062205431459006
2993,00:00:11.972,0.00441591872368007
2994,00:00:11.976,0.00735362654086202
2995,00:00:11.98,0.0070971988607198
2996,00:00:11.984,0.00319259961543139
2997,00:00:11.988,-0.0034353138180449588
2998,00:00:11.992,-0.004180602438282223
2999,00:00:11.996,-0.006900300213601444
3000,00:00:12,-0.007467317744158208
3001,00:00:12.004,0.002897271755500701
3002,00:00:12.008,0.0003089299425482739
3003,00:00:12.012,0.01942348491866143
3004,00:00:12.016,0.00925575208384548
3005,00:00:12.02,-0.01487847825046634
3006,00:00:12.024,-0.02198818186298008
3007,00:00:12.028,-0.0025742399448063255
3008,00:00:12.032,0.014061018009670044
3009,00:00:12.036,0.014146933914162264
3010,00:00:12.04,0.0018865768506657315
3011,00:00:12.044,-0.008774505346082158
3012,00:00:12.048,0.00022391951642930649
3013,00:00:12.052,0.001702229725196962
3014,00:00:12.056,0.002187816891819241
3015,00:00:12.06,-0.013929233187809593
3016,00:00:12.064,-0.010501855867914849
3017,00:00:12.068,0.00770617893431336
3018,00:00:12.072,0.01563746482133865
3019,00:00:12.076,0.013531493546906853
3020,00:00:12.08,-0.006125180749222633
3021,00:00:12.084,-0.01586937881074846
3022,00:00:12.088,-0.010621276160236452
3023,00:00:12.092,-0.001178777791210453
3024,00:00:12.096,0.013840363710187369
3025,00:00:12.1,0.011846088804304596
3026,00:00:12.104,-0.006976562202908111
3027,00:00:12.108,-0.002290655276738111
3028,00:00:12.112,0.003148831659927965
3029,00:00:12.116,-0.0067285960540175395
3030,00:00:12.12,0.0044534423504956015
3031,00:00:12.124,-0.002704691665712752
3032,00:00:12.128,-0.009043026948347686
3033,00:00:12.132,0.0032830284326337326
3034,00:00:12.136,0.012374446843750761
3035,00:00:12.14,-0.004024590482003985
3036,00:00:12.144,-0.002366106350564224
3037,00:00:12.148,0.0035125446738675297
3038,00:00:12.152,-0.0015286566922441099
3039,00:00:12.156,-0.00884624337777495
3040,00:00:12.16,0.006436803145334127
3041,00:00:12.164,-0.0012415356759447552
3042,00:00:12.168,-0.0003609282430261406
3043,00:00:12.172,0.001521270933153569
3044,00:00:12.176,0.004037666571093721
3045,00:00:12.18,0.0011984029533778067
3046,00:00:12.184,0.0024834561918396555
3047,00:00:12.188,-0.002464311663061378
3048,00:00:12.192,-0.01129166362807159
3049,00:00:12.196,-0.002275243983604011
3050,00:00:12.2,0.00557790708262473
3051,00:00:12.204,0.005029941690736449
3052,00:00:12.208,-0.0023391298163915027
3053,00:00:12.212,0.0030631266999989796
3054,00:00:12.216,0.0013291150025906981
3055,00:00:12.22,0.0008156941621564324
3056,00:00:12.224,-0.012602810427779327
3057,00:00:12.228,-0.001771910232491788
3058,00:00:12.232,0.013817977975122612
3059,00:00:12.236,0.0029177822871133702
3060,00:00:12.24,-0.0025936114834621575
3061,00:00:12.244,-0.0058689446887001395
3062,00:00:12.248,0.001521507976576685
3063,00:00:12.252,0.013588207657448951
3064,00:00:12.256,-0.01658288366161292
3065,00:00:12.26,-0.00928860972635448
3066,00:00:12.264,-0.000886597734279349
3067,00:00:12.268,0.010906009352765979
3068,00:00:12.272,0.00850970472674817
3069,00:00:12.276,-0.0042016547522507625
3070,00:00:12.28,-0.0010991954914061348
3071,00:00:12.284,0.0003302843542769562
3072,00:00:12.288,0.004520268645137541
3073,00:00:12.292,4.108509165235731e-05
3074,00:00:12.296,-0.0016106973635032701
3075,00:00:12.3,-0.006109007401391859
3076,00:00:12.304,-0.008034407568629826
3077,00:00:12.308,-0.00024450109049212795
3078,00:00:12.312,0.005577427917160101
3079,00:00:12.316,0.01262043038150293
3080,00:00:12.32,-0.00016037005843826937
3081,00:00:12.324,-0.00464597204700113
3082,00:00:12.328,-8.112794603221075e-05
3083,00:00:12.332,-0.007927104365080588
3084,00:00:12.336,0.0010553022148087595
3085,00:00:12.34,0.0027795506175607495
3086,00:00:12.344,-0.0024418239481747202
3087,00:00:12.348,-0.0020242594910087073
3088,00:00:12.352,0.01068982289871201
3089,00:00:12.356,0.002590838434116451
