,Elapsed Time,EMG
0,00:00:00,4.143257021903991
1,00:00:00.004,-3.963501393795016
2,00:00:00.008,-3.228703498840336
3,00:00:00.012,-0.3417692482471461
4,00:00:00.016,1.58310642838478
5,00:00:00.02,2.0692934393882747
6,00:00:00.024,1.360336393117904
7,00:00:00.028,0.0804844200611115
8,00:00:00.032,-0.604053393006325
9,00:00:00.036,-0.7182261720299721
10,00:00:00.04,-0.626361802220345
11,00:00:00.044,-0.27323754876852024
12,00:00:00.048,0.061680335551500404
13,00:00:00.052,0.1904853102751073
14,00:00:00.056,0.2428366169333459
15,00:00:00.06,0.1457265242934226
16,00:00:00.064,0.05444707511924209
17,00:00:00.068,-0.0293100867420434
18,00:00:00.072,-0.1135613806545735
19,00:00:00.076,-0.02237355057150134
20,00:00:00.08,-0.024536428041756195
21,00:00:00.084,-0.027623458765447164
22,00:00:00.088,-0.024323930963873898
23,00:00:00.092,0.013860277831554402
24,00:00:00.096,0.04650494293309747
25,00:00:00.1,-0.0017077636439353887
26,00:00:00.104,0.043216971680521965
27,00:00:00.108,0.007913507084595038
28,00:00:00.112,0.022563658712897464
29,00:00:00.116,-0.06924182828515774
30,00:00:00.12,-0.077026266604662
31,00:00:00.124,0.0922258312348276
32,00:00:00.128,-0.02528028399683535
33,00:00:00.132,-0.02162547782063487
34,00:00:00.136,0.057582269655540544
35,00:00:00.14,0.05943110398948189
36,00:00:00.144,-0.035271579399704926
37,00:00:00.148,-0.11720091942697759
38,00:00:00.152,-0.03655485692434018
39,00:00:00.156,0.07649546267930418
40,00:00:00.16,0.07676341128535569
41,00:00:00.164,-0.0196489281952381
42,00:00:00.168,-0.0090232780203223
43,00:00:00.172,-0.00910819182172419
44,00:00:00.176,-0.0005354592576623032
45,00:00:00.18,0.04234241973608732
46,00:00:00.184,-0.028234563302248748
47,00:00:00.188,-0.0789947351440788
48,00:00:00.192,-0.014336096122860898
49,00:00:00.196,0.05109381675720214
50,00:00:00.2,0.043912728317081894
51,00:00:00.204,0.053153535351157195
52,00:00:00.208,-0.060906905680894886
53,00:00:00.212,-0.08916303887963298
54,00:00:00.216,0.027616735780611693
55,00:00:00.22,0.10593629162758593
56,00:00:00.224,-0.0014739893376826895
57,00:00:00.228,-0.08797791739925742
58,00:00:00.232,-0.040124708786606796
59,00:00:00.236,0.09587884694337845
60,00:00:00.24,0.00030486285686480083
61,00:00:00.244,0.024258681572973714
62,00:00:00.248,-0.0656903549097479
63,00:00:00.252,-0.06292759091593321
64,00:00:00.256,0.013103599194437331
65,00:00:00.26,0.06738952081650487
66,00:00:00.264,0.054637406021356597
67,00:00:00.268,0.00634106341749433
68,00:00:00.272,-0.02210816391743715
69,00:00:00.276,-0.08743772289017218
70,00:00:00.28,-0.0036202070768922307
71,00:00:00.284,0.04830987239256497
72,00:00:00.288,0.01728820928838105
73,00:00:00.292,-0.03657896723598242
74,00:00:00.296,-0.022825901396572573
75,00:00:00.3,0.042310127522796406
76,00:00:00.304,0.047992183826863696
77,00:00:00.308,0.01356494845822453
78,00:00:00.312,-0.007887840038165471
79,00:00:00.316,-0.0942685455083847
80,00:00:00.32,-0.0331243555992842
81,00:00:00.324,0.08120646001771083
82,00:00:00.328,0.01970436051487931
83,00:00:00.332,-0.045903192833066
84,00:00:00.336,-0.01259934832341968
85,00:00:00.34,-0.0029653920792043417
86,00:00:00.344,0.02636276278644794
87,00:00:00.348,0.03904306143522264
88,00:00:00.352,-0.02321037650108336
89,00:00:00.356,0.06139984913170341
90,00:00:00.36,-0.030662938952446022
91,00:00:00.364,-0.047665190882980726
92,00:00:00.368,-0.03573167975991959
93,00:00:00.372,0.0053529697470367
94,00:00:00.376,-0.006301063112914597
95,00:00:00.38,0.01367443799972535
96,00:00:00.384,0.1273890566080807
97,00:00:00.388,-0.03765298239886755
98,00:00:00.392,-0.12378107476979529
99,00:00:00.396,0.07350488146767023
100,00:00:00.4,0.012639259388379297
101,00:00:00.404,0.0165737518109381
102,00:00:00.408,-0.03176015522331002
103,00:00:00.412,-0.06215988053008908
104,00:00:00.416,0.02550223493017251
105,00:00:00.42,0.010992612340487515
106,00:00:00.424,0.02242769859731193
107,00:00:00.428,0.024773058015853163
108,00:00:00.432,0.01468090480193499
109,00:00:00.436,-0.04304494312964381
110,00:00:00.44,-0.015750788908917464
111,00:00:00.444,0.017876476515084498
112,00:00:00.448,0.0030292478622868397
113,00:00:00.452,-0.012617604952538383
114,00:00:00.456,0.00746986106969417
115,00:00:00.46,0.026101691881194693
116,00:00:00.464,-0.0411392436362803
117,00:00:00.468,-0.010669033275917174
118,00:00:00.472,0.06089997277013022
119,00:00:00.476,-0.013699824456125491
120,00:00:00.48,-0.022762752618291405
121,00:00:00.484,-0.009703523479402022
122,00:00:00.488,-0.009145857067778651
123,00:00:00.492,-0.004414328373968627
124,00:00:00.496,0.02811677660793066
125,00:00:00.5,0.041164170484989944
126,00:00:00.504,0.04066469857934863
127,00:00:00.508,-0.09655983280390502
128,00:00:00.512,-0.0677409805357456
129,00:00:00.516,0.07170672793290583
130,00:00:00.52,0.035057556815445375
131,00:00:00.524,-0.06318086618557563
132,00:00:00.528,-0.004414682305650784
133,00:00:00.532,0.11285597179085011
134,00:00:00.536,-0.0285524660721422
135,00:00:00.54,-0.0705060251639225
136,00:00:00.544,-0.027861662209033897
137,00:00:00.548,0.05218999355565756
138,00:00:00.552,0.013403911376371914
139,00:00:00.556,0.0329858190380036
140,00:00:00.56,0.025111844763159804
141,00:00:00.564,-0.07419923879206179
142,00:00:00.568,-0.09324018051847814
143,00:00:00.572,0.08344231406226754
144,00:00:00.576,0.08408896438777438
145,00:00:00.58,-0.07575640175491573
146,00:00:00.584,-0.07887863134965303
147,00:00:00.588,0.12201783712953368
148,00:00:00.592,0.07162538357079024
149,00:00:00.596,-0.08616440558034809
150,00:00:00.6,-0.0966941402293737
151,00:00:00.604,0.04627091530710458
152,00:00:00.608,0.05071624321863057
153,00:00:00.612,-0.04564539517741653
154,00:00:00.616,-0.02380338485818357
155,00:00:00.62,0.05229349760338668
156,00:00:00.624,0.046291944570839405
157,00:00:00.628,0.008730244415346446
158,00:00:00.632,-0.04823524039238697
159,00:00:00.636,-0.050261185271665454
160,00:00:00.64,0.011528717121109328
161,00:00:00.644,0.02747618965804576
162,00:00:00.648,-0.029062747955322217
163,00:00:00.652,0.06533677839615848
164,00:00:00.656,0.03712928481400017
165,00:00:00.66,-0.0872450806200504
166,00:00:00.664,-0.0572217740118503
167,00:00:00.668,0.028633540496230105
168,00:00:00.672,0.059753098990768215
169,00:00:00.676,-0.0009870556241367019
170,00:00:00.68,0.00919907051138576
171,00:00:00.684,-0.0110840713605285
172,00:00:00.688,0.009833923308178831
173,00:00:00.692,-0.0060843368992209886
174,00:00:00.696,-0.0404590712860227
175,00:00:00.7,-0.02307628095149993
176,00:00:00.704,0.0294951548567042
177,00:00:00.708,0.020169187977444363
178,00:00:00.712,0.005399280227720721
179,00:00:00.716,0.0353176890639588
180,00:00:00.72,-0.07308288523927328
181,00:00:00.724,0.027608970180153874
182,00:00:00.728,0.09145750943571326
183,00:00:00.732,-0.10385942086577465
184,00:00:00.736,-0.075961334630847
185,00:00:00.74,0.035111699253320645
186,00:00:00.744,0.05001943133538592
187,00:00:00.748,0.05638159718364481
188,00:00:00.752,0.01102343900129198
189,00:00:00.756,-0.07165815914049742
190,00:00:00.76,-0.029920965083874825
191,00:00:00.764,0.0303742331452667
192,00:00:00.768,0.020366829354316027
193,00:00:00.772,-0.007441084831952998
194,00:00:00.776,-0.0022140042856336126
195,00:00:00.78,-0.00380351243074987
196,00:00:00.784,0.00646452791988854
197,00:00:00.788,-0.02202091854996975
198,00:00:00.792,0.02125712740235037
199,00:00:00.796,-0.012053460814058703
200,00:00:00.8,0.011487477459013504
201,00:00:00.804,0.023747343104332675
202,00:00:00.808,-0.0283351792022586
203,00:00:00.812,-0.05799120943993327
204,00:00:00.816,0.01689157693181188
205,00:00:00.82,0.1659290865063664
206,00:00:00.824,0.0035101445391774195
207,00:00:00.828,-0.2049104049801825
208,00:00:00.832,-0.030821504071354894
209,00:00:00.836,0.008705629035830519
210,00:00:00.84,0.09439970800303848
211,00:00:00.844,0.05772974062711002
212,00:00:00.848,-0.00530067039653662
213,00:00:00.852,-0.040316374273970786
214,00:00:00.856,0.04502526205033064
215,00:00:00.86,-0.03001012303866453
216,00:00:00.864,-0.0652302876114845
217,00:00:00.868,0.02654245682060718
218,00:00:00.872,0.02055277372710409
219,00:00:00.876,-0.04141767788678407
220,00:00:00.88,0.002149759326130147
221,00:00:00.884,0.07251443387940527
222,00:00:00.888,0.01397967664524918
223,00:00:00.892,-0.047965467907488374
224,00:00:00.896,0.06322946341242643
225,00:00:00.9,-0.09211645647883421
226,00:00:00.904,-0.08089292515069246
227,00:00:00.908,0.0597475059330464
228,00:00:00.912,0.05189497070387007
229,00:00:00.916,0.03435393050312992
230,00:00:00.92,-0.003096378408372389
231,00:00:00.924,0.006713309332553825
232,00:00:00.928,-0.05183362824027425
233,00:00:00.932,0.00943899911362678
234,00:00:00.936,-0.008236627792939547
235,00:00:00.94,-0.02380270417779692
236,00:00:00.944,-0.027679418504703825
237,00:00:00.948,0.05003001634031541
238,00:00:00.952,0.07157204020768401
239,00:00:00.956,-0.022181733977049617
240,00:00:00.96,-0.03898110380396248
241,00:00:00.964,-0.06638571550138292
242,00:00:00.968,0.00451601459644734
243,00:00:00.972,0.11224250065424751
244,00:00:00.976,0.10628893598914171
245,00:00:00.98,-0.10127648897469074
246,00:00:00.984,-0.1540765184909102
247,00:00:00.988,-0.015028265304863401
248,00:00:00.992,0.0974797257222239
249,00:00:00.996,0.028802040033042348
250,00:00:01,-0.04558367840945718
251,00:00:01.004,0.016937395688728426
252,00:00:01.008,0.026636297465302022
253,00:00:01.012,0.042029275558888926
254,00:00:01.016,-0.00390842161141336
255,00:00:01.02,-0.039818798657506635
256,00:00:01.024,-0.026306232961360386
257,00:00:01.028,0.010859589383471755
258,00:00:01.032,-0.01391626591794194
259,00:00:01.036,-0.011952231172472263
260,00:00:01.04,-0.007648909930139731
261,00:00:01.044,0.01893617864698174
262,00:00:01.048,-0.0023859145585447446
263,00:00:01.052,0.19038854166865304
264,00:00:01.056,0.034492736216634526
265,00:00:01.06,-0.240769144147635
266,00:00:01.064,-0.15419159270823038
267,00:00:01.068,0.011198421008884896
268,00:00:01.072,0.1139972209930423
269,00:00:01.076,0.0990358714479953
270,00:00:01.08,0.10707926517352453
271,00:00:01.084,-0.02894857025239613
272,00:00:01.088,-0.08817199361510578
273,00:00:01.092,-0.06070357933640479
274,00:00:01.096,-0.004929126676870451
275,00:00:01.1,-0.0049867415800690295
276,00:00:01.104,0.043932639062404605
277,00:00:01.108,0.0327361328527331
278,00:00:01.112,0.00157129089348018
279,00:00:01.116,-0.0012852058280259301
280,00:00:01.12,-0.012682749889791001
281,00:00:01.124,-0.08689110912382593
282,00:00:01.128,-0.020915212633553896
283,00:00:01.132,0.09290747437626132
284,00:00:01.136,0.0732570085674524
285,00:00:01.14,0.025915107689797837
286,00:00:01.144,-0.089421878568828
287,00:00:01.148,0.009307010099291798
288,00:00:01.152,-0.08583944803103805
289,00:00:01.156,0.0325579270720482
290,00:00:01.16,-0.0073227020911872795
291,00:00:01.164,-0.018807487562298802
292,00:00:01.168,0.06570999138057226
293,00:00:01.172,0.06581245921552178
294,00:00:01.176,-0.04148088395595546
295,00:00:01.18,-0.023592616431415123
296,00:00:01.184,-0.01834507007151844
297,00:00:01.188,0.008343434892594828
298,00:00:01.192,-0.007786394096910952
299,00:00:01.196,0.030088642146438405
300,00:00:01.2,0.030947949911933344
301,00:00:01.204,-0.0801696884445846
302,00:00:01.208,-0.03058840869925916
303,00:00:01.212,0.00768940779380505
304,00:00:01.216,0.07170997792854912
305,00:00:01.22,0.03424435039050872
306,00:00:01.224,-0.089248096570373
307,00:00:01.228,0.06868259049952036
308,00:00:01.232,0.07955003902316088
309,00:00:01.236,-0.08978383103385534
310,00:00:01.24,-0.109251119196415
311,00:00:01.244,0.05081814993172888
312,00:00:01.248,0.019084919244051
313,00:00:01.252,-0.00776711083017291
314,00:00:01.256,0.019694220274686803
315,00:00:01.26,0.00476609170436859
316,00:00:01.264,-0.0018876288086176404
317,00:00:01.268,0.020393836195580682
318,00:00:01.272,0.01525037456303835
319,00:00:01.276,-0.02503308607265358
320,00:00:01.28,0.0011891252361237977
321,00:00:01.284,0.014197033364325751
322,00:00:01.288,-0.011310293804854193
323,00:00:01.292,-0.018103910610079738
324,00:00:01.296,-0.05304402299225332
325,00:00:01.3,-0.017529949662275588
326,00:00:01.304,0.03873268497409301
327,00:00:01.308,0.04967284295707941
328,00:00:01.312,0.10048489738255734
329,00:00:01.316,-0.00041997991502290034
330,00:00:01.32,-0.1646209522150458
331,00:00:01.324,0.0075743980705739004
332,00:00:01.328,0.12871006270870586
333,00:00:01.332,-0.0596449486911297
334,00:00:01.336,-0.14273289241828035
335,00:00:01.34,-0.02883934415876871
336,00:00:01.344,0.11735823052003967
337,00:00:01.348,0.1149579947814345
338,00:00:01.352,0.01140922121703624
339,00:00:01.356,-0.0429153230506927
340,00:00:01.36,-0.05518475085409594
341,00:00:01.364,-0.03813428082503387
342,00:00:01.368,0.011276955017819999
343,00:00:01.372,0.00391269463580101
344,00:00:01.376,-0.002113532973453429
345,00:00:01.38,0.05420389445498586
346,00:00:01.384,0.02931740158237509
347,00:00:01.388,-0.01911370526067912
348,00:00:01.392,-0.08989900257438418
349,00:00:01.396,0.01423656009137632
350,00:00:01.4,0.03269211831502617
351,00:00:01.404,-0.0021686348063667503
352,00:00:01.408,0.006066059344448101
353,00:00:01.412,0.038049012888222905
354,00:00:01.416,0.00471921823918816
355,00:00:01.42,-0.04500051261857155
356,00:00:01.424,-0.020003827754408135
357,00:00:01.428,0.0405877493321896
358,00:00:01.432,-0.046623270958662
359,00:00:01.436,-0.030526748858392298
360,00:00:01.44,0.08264019212219868
361,00:00:01.444,0.046677483245730345
362,00:00:01.448,-0.051503999158740106
363,00:00:01.452,-0.03975847992114727
364,00:00:01.456,-0.012836023233830898
365,00:00:01.46,-0.0015877457335591889
366,00:00:01.464,-0.02469546778593213
367,00:00:01.468,0.10528950020670894
368,00:00:01.472,0.08724067732691758
369,00:00:01.476,-0.1090590632520616
370,00:00:01.48,-0.08463470451533796
371,00:00:01.484,0.013393383938819179
372,00:00:01.488,0.03044778166804464
373,00:00:01.492,0.01075009582564233
374,00:00:01.496,0.0020968855824321404
375,00:00:01.5,0.021086256951093688
376,00:00:01.504,0.03958132784464394
377,00:00:01.508,0.0009513380355201625
378,00:00:01.512,-0.050577440299093696
379,00:00:01.516,-0.025266875745728612
380,00:00:01.52,-0.058557346463203375
381,00:00:01.524,0.028041540645062882
382,00:00:01.528,0.06707352539524432
383,00:00:01.532,0.0245740907266736
384,00:00:01.536,-0.01448499900288882
385,00:00:01.54,-0.03652162943035368
386,00:00:01.544,-0.01697919692378491
387,00:00:01.548,0.03037001960910852
388,00:00:01.552,0.002464067423716141
389,00:00:01.556,0.00498548615723851
390,00:00:01.56,-0.0015399674884974818
391,00:00:01.564,0.0021984213963150727
392,00:00:01.568,-0.0036145623744233066
393,00:00:01.572,-0.02161761606112122
394,00:00:01.576,-0.00871611339971422
395,00:00:01.58,0.006388626876287161
396,00:00:01.584,-0.02258713589981199
397,00:00:01.588,-0.0059610150055959795
398,00:00:01.592,0.14347718143835703
399,00:00:01.596,-0.01670136023312807
400,00:00:01.6,-0.11956220399588349
401,00:00:01.604,0.05042888969182966
402,00:00:01.608,0.04245166014879944
403,00:00:01.612,-0.0661357536446303
404,00:00:01.616,-0.13769959181081529
405,00:00:01.62,0.05936762643978004
406,00:00:01.624,0.1497459970414638
407,00:00:01.628,0.0008019876840990019
408,00:00:01.632,-0.024828861933201513
409,00:00:01.636,-0.030169464880600554
410,00:00:01.64,-0.018554453272372474
411,00:00:01.644,-0.016504321713000543
412,00:00:01.648,-0.007515680976211992
413,00:00:01.652,0.0688065162394196
414,00:00:01.656,0.001085997675545531
415,00:00:01.66,-0.02857213607057929
416,00:00:01.664,-0.014003673801198609
417,00:00:01.668,0.019879495201166743
418,00:00:01.672,-0.032790022843983004
419,00:00:01.676,-0.03209569116006601
420,00:00:01.68,0.059789014980196904
421,00:00:01.684,0.07235551625490191
422,00:00:01.688,-0.09064158331602815
423,00:00:01.692,-0.008452919311821499
424,00:00:01.696,0.06759411073289812
425,00:00:01.7,-0.04889254097361112
426,00:00:01.704,-0.10100381309166503
427,00:00:01.708,0.08661146624945103
428,00:00:01.712,0.12116224691271785
429,00:00:01.716,-0.0980907483026385
430,00:00:01.72,-0.05655733635649081
431,00:00:01.724,-0.003324420773424207
432,00:00:01.728,0.05447062640450897
433,00:00:01.732,0.034469666890799985
434,00:00:01.736,0.024949342594482032
435,00:00:01.74,-0.046125730033963905
436,00:00:01.744,-0.041757706901989815
437,00:00:01.748,0.001945129595696959
438,00:00:01.752,0.00415313651319594
439,00:00:01.756,0.01776553923264148
440,00:00:01.76,0.01500448724254963
441,00:00:01.764,-0.019749556202441492
442,00:00:01.768,0.0013096979819237691
443,00:00:01.772,0.01524548244196925
444,00:00:01.776,0.005160605069249811
445,00:00:01.78,-0.0387919214554131
446,00:00:01.784,0.13244408974424043
447,00:00:01.788,-0.008108044974505901
448,00:00:01.792,-0.20023970183683582
449,00:00:01.796,-0.00626874272711575
450,00:00:01.8,0.05401888024061919
451,00:00:01.804,0.045469426957424744
452,00:00:01.808,0.03171718167141077
453,00:00:01.812,-0.000592980009969328
454,00:00:01.816,0.0020454281475394986
455,00:00:01.82,0.0116566540673375
456,00:00:01.824,-0.02189435996115208
457,00:00:01.828,-0.0314263727050275
458,00:00:01.832,-0.0027429331094026583
459,00:00:01.836,0.025292932055890546
460,00:00:01.84,0.01024626661092044
461,00:00:01.844,-0.02775525674223898
462,00:00:01.848,-0.01613394357264042
463,00:00:01.852,0.014453924726694777
464,00:00:01.856,0.01342297601513565
465,00:00:01.86,0.023042215034365723
466,00:00:01.864,-0.0035286509664729238
467,00:00:01.868,0.000448079546913492
468,00:00:01.872,-0.057276959065347896
469,00:00:01.876,-0.0014752519200555985
470,00:00:01.88,0.03270871506538242
471,00:00:01.884,0.014463778585195604
472,00:00:01.888,0.06503160239662974
473,00:00:01.892,0.032720670104026794
474,00:00:01.896,-0.15160427521914208
475,00:00:01.9,-0.1225563120096921
476,00:00:01.904,0.0805056770332158
477,00:00:01.908,0.1556078474968669
478,00:00:01.912,0.01773866347502919
479,00:00:01.916,-0.032054100185632664
480,00:00:01.92,-0.07020870759151884
481,00:00:01.924,-0.035343438386917114
482,00:00:01.928,0.03157160209957514
483,00:00:01.932,0.04168892232701183
484,00:00:01.936,-0.013995321933180139
485,00:00:01.94,0.0110896893311292
486,00:00:01.944,-0.028910622932016898
487,00:00:01.948,-0.02550881588831542
488,00:00:01.952,0.02812121435999871
489,00:00:01.956,0.04729152191430322
490,00:00:01.96,-0.00013459846377369272
491,00:00:01.964,-0.0786206237971783
492,00:00:01.968,-0.011254754383116902
493,00:00:01.972,0.055217847577296156
494,00:00:01.976,0.018368331162491768
495,00:00:01.98,-0.004405358835356311
496,00:00:01.984,-0.0604411568492651
497,00:00:01.988,0.051242413697764215
498,00:00:01.992,0.06303830770775676
499,00:00:01.996,-0.02026479190681126
500,00:00:02,-0.10333296842873105
501,00:00:02.004,-0.019675161689519806
502,00:00:02.008,0.011689879000186901
503,00:00:02.012,0.05257606809027494
504,00:00:02.016,0.059469271451234804
505,00:00:02.02,-0.02347744163125751
506,00:00:02.024,-0.03914280701428653
507,00:00:02.028,0.013047274667769622
508,00:00:02.032,-0.00211008870974177
509,00:00:02.036,-0.003993456222815439
510,00:00:02.04,0.01522077992558476
511,00:00:02.044,0.008179029449820473
512,00:00:02.048,-0.04941457558015824
513,00:00:02.052,0.010318514483515189
514,00:00:02.056,-0.0017766831442713703
515,00:00:02.06,0.031025292468257228
516,00:00:02.064,0.04196507157757877
517,00:00:02.068,-0.07564301288221029
518,00:00:02.072,-0.08110548369586464
519,00:00:02.076,0.15761538036167597
520,00:00:02.08,0.07540057867299765
521,00:00:02.084,-0.08762982813641428
522,00:00:02.088,-0.13039732538163706
523,00:00:02.092,-0.03218008484691376
524,00:00:02.096,0.08952518692240126
525,00:00:02.1,0.056676966138184105
526,00:00:02.104,0.017930497415363754
527,00:00:02.108,0.0004001694032922371
528,00:00:02.112,0.00035315792774783666
529,00:00:02.116,-0.04534184560179711
530,00:00:02.12,-0.04160616593435411
531,00:00:02.124,0.01926553028170021
532,00:00:02.128,0.020371663966216116
533,00:00:02.132,0.0066476883366704395
534,00:00:02.136,-0.001274513546377371
535,00:00:02.14,-0.015982080483809127
536,00:00:02.144,0.017795790918171295
537,00:00:02.148,-0.0065607454671408345
538,00:00:02.152,0.012024296447634725
539,00:00:02.156,0.0423637684434653
540,00:00:02.16,-0.054937313310802004
541,00:00:02.164,-0.0017690192908048925
542,00:00:02.168,-0.018257521558552977
543,00:00:02.172,-0.02873383249971085
544,00:00:02.176,0.06364943645894522
545,00:00:02.18,0.03639837133232505
546,00:00:02.184,-0.06482450990006328
547,00:00:02.188,-0.013388723134994498
548,00:00:02.192,0.012428164714947358
549,00:00:02.196,0.019512056373059725
550,00:00:02.2,0.021365986627643028
551,00:00:02.204,0.01101316371932626
552,00:00:02.208,-0.009389132843352849
553,00:00:02.212,-0.0398987615481019
554,00:00:02.216,-0.01711640399298634
555,00:00:02.22,0.01717248186469081
556,00:00:02.224,0.009733612183481441
557,00:00:02.228,0.005080948583781719
558,00:00:02.232,-0.016738461330533097
559,00:00:02.236,0.032286205329001
560,00:00:02.24,0.060217549558728954
561,00:00:02.244,-0.03913938160985716
562,00:00:02.248,-0.08265917608514427
563,00:00:02.252,-0.023230440448969603
564,00:00:02.256,0.016282947501167676
565,00:00:02.26,0.04360259464010593
566,00:00:02.264,0.08732209447589406
567,00:00:02.268,-0.03924478520639238
568,00:00:02.272,-0.0390311842784286
569,00:00:02.276,0.015472062863409509
570,00:00:02.28,-0.08392995083704591
571,00:00:02.284,0.056516375247156234
572,00:00:02.288,0.030197755899280268
573,00:00:02.292,-0.03313779924064882
574,00:00:02.296,0.04801921843318271
575,00:00:02.3,0.01574581279419362
576,00:00:02.304,-0.06948603549972178
577,00:00:02.308,-0.015231594094075259
578,00:00:02.312,0.0238953791558743
579,00:00:02.316,0.024709991877898532
580,00:00:02.32,-0.01069264300167561
581,00:00:02.324,0.005183639004826598
582,00:00:02.328,-0.015774170547956604
583,00:00:02.332,-0.0181908132508397
584,00:00:02.336,0.02216393739217895
585,00:00:02.34,0.02021199115552002
586,00:00:02.344,0.034092012327164425
587,00:00:02.348,-0.03276189509779214
588,00:00:02.352,-0.044351081829518094
589,00:00:02.356,-0.02310095936991279
590,00:00:02.36,0.024999623245094
591,00:00:02.364,0.04883771087042985
592,00:00:02.368,0.033456921810284326
593,00:00:02.372,-0.03202543221414096
594,00:00:02.376,-0.05908812908455731
595,00:00:02.38,0.04280219227075573
596,00:00:02.384,-0.011477223597467003
597,00:00:02.388,-0.034341804799623815
598,00:00:02.392,0.014897502493113331
599,00:00:02.396,0.012724793516099429
600,00:00:02.4,0.031390165328048204
601,00:00:02.404,0.0259049665182828
602,00:00:02.408,-0.032043931889347774
603,00:00:02.412,0.0008695963770150965
604,00:00:02.416,-0.041384520765859564
605,00:00:02.42,-0.00276497751474376
606,00:00:02.424,0.002805327996611571
607,00:00:02.428,0.009480201813857999
608,00:00:02.432,0.0113111592363566
609,00:00:02.436,0.02279877709224824
610,00:00:02.44,0.0038555338978767013
611,00:00:02.444,-0.005733063211664521
612,00:00:02.448,0.01411080989055331
613,00:00:02.452,-0.06638662784826006
614,00:00:02.456,0.02400314947590229
615,00:00:02.46,0.03792908176546912
616,00:00:02.464,-0.009937696624547219
617,00:00:02.468,-0.033629790181294014
618,00:00:02.472,0.007069197017699479
619,00:00:02.476,-0.021457786904647953
620,00:00:02.48,0.02181033883243799
621,00:00:02.484,0.01942837517708545
622,00:00:02.488,-0.024320635013282223
623,00:00:02.492,-0.017967373598366948
624,00:00:02.496,0.051455359905958196
625,00:00:02.5,0.07954113837331538
626,00:00:02.504,-0.06516492832452064
627,00:00:02.508,-0.06714060902595523
628,00:00:02.512,-0.003565755847375839
629,00:00:02.516,0.015453036641702072
630,00:00:02.52,0.01295076403766873
631,00:00:02.524,0.012421351566445075
632,00:00:02.528,-0.006605882022995504
633,00:00:02.532,-0.005477014929056161
634,00:00:02.536,0.004809566948097182
635,00:00:02.54,0.0006803423166274504
636,00:00:02.544,0.02440811035921792
637,00:00:02.548,0.04492570273578167
638,00:00:02.552,-0.002848640142474319
639,00:00:02.556,-0.09240395389497236
640,00:00:02.56,-0.11265579983592036
641,00:00:02.564,0.09526657965034241
642,00:00:02.568,0.10444598458707303
643,00:00:02.572,0.006098791025578899
644,00:00:02.576,-0.03237757086753839
645,00:00:02.58,-0.04158924962393933
646,00:00:02.584,-0.04907071159686888
647,00:00:02.588,0.030901108868420096
648,00:00:02.592,0.04444239765871315
649,00:00:02.596,0.00950710265897215
650,00:00:02.6,-0.01720868563279513
651,00:00:02.604,-0.0033737791236489903
652,00:00:02.608,0.00146105136082042
653,00:00:02.612,-0.022116319509223072
654,00:00:02.616,0.0035268687643110795
655,00:00:02.62,0.02463603191426952
656,00:00:02.624,-0.02127143973484635
657,00:00:02.628,-0.0043951075058430815
658,00:00:02.632,0.00747071485966444
659,00:00:02.636,0.0367225874215365
660,00:00:02.64,0.004778980743139993
661,00:00:02.644,-0.05764910532161598
662,00:00:02.648,0.01710315840318799
663,00:00:02.652,0.013492353726178389
664,00:00:02.656,-0.035068493336438994
665,00:00:02.66,0.017699419870041318
666,00:00:02.664,-0.0008674827404320015
667,00:00:02.668,-0.0054693249985574895
668,00:00:02.672,0.004709402099251747
669,00:00:02.676,0.06030199397355318
670,00:00:02.68,-0.026318070711568005
671,00:00:02.684,-0.027718212688341702
672,00:00:02.688,-0.013637542258948062
673,00:00:02.692,-0.0012654276797547923
674,00:00:02.696,0.006378857418894749
675,00:00:02.7,0.004224901902489398
676,00:00:02.704,0.030923938844352992
677,00:00:02.708,-0.020234633004292832
678,00:00:02.712,-0.0025279344990849495
679,00:00:02.716,0.020441182423382963
680,00:00:02.72,-0.019044102635234598
681,00:00:02.724,0.0008322871290147495
682,00:00:02.728,-0.025772748515009908
683,00:00:02.732,0.01318873465061187
684,00:00:02.736,0.013293399475514901
685,00:00:02.74,-0.0007296798867174013
686,00:00:02.744,0.037553622387349626
687,00:00:02.748,-0.03138630336616193
688,00:00:02.752,-0.04236859403317791
689,00:00:02.756,-0.014031689788680538
690,00:00:02.76,0.01978844380937519
691,00:00:02.764,0.06642092112451789
692,00:00:02.768,0.0049518458545208
693,00:00:02.772,-0.03881273884326219
694,00:00:02.776,-0.02472896967083217
695,00:00:02.78,0.00142776034772397
696,00:00:02.784,0.050661858869716525
697,00:00:02.788,0.028785984497517323
698,00:00:02.792,-0.04657599702477455
699,00:00:02.796,-0.08821400161832575
700,00:00:02.8,0.02887856028974064
701,00:00:02.804,0.0485425917431712
702,00:00:02.808,-0.02079428918659685
703,00:00:02.812,0.010152415372431271
704,00:00:02.816,0.04345498257316653
705,00:00:02.82,0.0019848290830850506
706,00:00:02.824,-0.021695811767131142
707,00:00:02.828,0.001173060387372961
708,00:00:02.832,-0.04276266717351971
709,00:00:02.836,-0.017733860760927117
710,00:00:02.84,0.029602253169286958
711,00:00:02.844,0.03892758535221218
712,00:00:02.848,0.027352303499355912
713,00:00:02.852,-0.0898081976920366
714,00:00:02.856,-0.018883314449340126
715,00:00:02.86,0.05166817735880613
716,00:00:02.864,0.021077401936054282
717,00:00:02.868,-0.01964766648598016
718,00:00:02.872,0.06763658067211512
719,00:00:02.876,-0.012777766503859315
720,00:00:02.88,-0.06510561704635622
721,00:00:02.884,-0.050167769193649236
722,00:00:02.888,0.00654603983275592
723,00:00:02.892,0.14580704132094974
724,00:00:02.896,-0.11147915571928031
725,00:00:02.9,-0.051332661882042885
726,00:00:02.904,0.0743171814829111
727,00:00:02.908,0.04486310109496113
728,00:00:02.912,-0.0414031315594912
729,00:00:02.916,-0.009119829162955274
730,00:00:02.92,0.04345141537487506
731,00:00:02.924,0.00937752425670623
732,00:00:02.928,-0.09571553859859705
733,00:00:02.932,0.006608833442442172
734,00:00:02.936,0.023302473477087943
735,00:00:02.94,0.015480165136978032
736,00:00:02.944,0.008642017841339002
737,00:00:02.948,-0.0308103910647333
738,00:00:02.952,0.0504104597494007
739,00:00:02.956,0.052637979388237
740,00:00:02.96,-0.05593432439491154
741,00:00:02.964,-0.0808404162526131
742,00:00:02.968,0.05085354973562059
743,00:00:02.972,0.059133410512004034
744,00:00:02.976,-0.05955676990561185
745,00:00:02.98,-0.0725313341245055
746,00:00:02.984,0.060887526371516315
747,00:00:02.988,0.03163281758315867
748,00:00:02.992,-0.00907145882956684
749,00:00:02.996,0.00525837321765721
750,00:00:03,-0.00560673838481303
751,00:00:03.004,0.004931123461574342
752,00:00:03.008,0.01950885914266104
753,00:00:03.012,0.00504261255264281
754,00:00:03.016,-0.043838846962899046
755,00:00:03.02,-0.028425453463569256
756,00:00:03.024,0.07163475174456829
757,00:00:03.028,-0.047604982508346425
758,00:00:03.032,-0.011355017777532329
759,00:00:03.036,0.01419526030076669
760,00:00:03.04,0.017840510699898
761,00:00:03.044,0.011935383081436168
762,00:00:03.048,-0.03524766140617432
763,00:00:03.052,-0.011517148464918121
764,00:00:03.056,0.07945314608514309
765,00:00:03.06,0.05932683608261862
766,00:00:03.064,-0.01880202675238247
767,00:00:03.068,-0.18581060506403418
768,00:00:03.072,-0.02772090584039682
769,00:00:03.076,0.07609611429506914
770,00:00:03.08,0.0577937313355505
771,00:00:03.084,0.0017671855166555006
772,00:00:03.088,-0.00434456742368638
773,00:00:03.092,0.031348697972134694
774,00:00:03.096,-0.01496674283407624
775,00:00:03.1,-0.017299377359449898
776,00:00:03.104,-0.009754991449881349
777,00:00:03.108,0.0043441920424811525
778,00:00:03.112,-0.013760588131845001
779,00:00:03.116,0.014503165148198601
780,00:00:03.12,0.0036898236721754196
781,00:00:03.124,0.011023209663107988
782,00:00:03.128,-0.03748107561841609
783,00:00:03.132,-0.0006152810528874389
784,00:00:03.136,-0.00504452548921107
785,00:00:03.14,0.04720455594360826
786,00:00:03.144,-0.009956608992069982
787,00:00:03.148,-0.04685258981771764
788,00:00:03.152,0.0035557094961404974
789,00:00:03.156,0.13146406202577024
790,00:00:03.16,0.04472458362579343
791,00:00:03.164,-0.1353359716013073
792,00:00:03.168,-0.10566817224025722
793,00:00:03.172,-0.02423534484114495
794,00:00:03.176,0.03734447865281251
795,00:00:03.18,0.07080514938570555
796,00:00:03.184,0.07328392216004428
797,00:00:03.188,0.012677837512455829
798,00:00:03.192,-0.027384130342397846
799,00:00:03.196,-0.033502553822472664
800,00:00:03.2,-0.011693856678903027
801,00:00:03.204,-0.00195121660362926
802,00:00:03.208,-0.032052204478532104
803,00:00:03.212,0.018307022546650856
804,00:00:03.216,0.011439476977102441
805,00:00:03.22,0.0064085614867508385
806,00:00:03.224,-0.010154795250855341
807,00:00:03.228,0.02375451455009174
808,00:00:03.232,-0.0017827549017965898
809,00:00:03.236,-0.06449503917247054
810,00:00:03.24,0.019794167834334082
811,00:00:03.244,0.12159693520516154
812,00:00:03.248,-0.045184803195297774
813,00:00:03.252,-0.120241596363485
814,00:00:03.256,0.01248544128611683
815,00:00:03.26,0.16037974413484307
816,00:00:03.264,0.0015125869686016733
817,00:00:03.268,-0.12968267919495696
818,00:00:03.272,-0.06777992309071124
819,00:00:03.276,0.02817775472067299
820,00:00:03.28,0.03314422653056681
821,00:00:03.284,0.03400834044441575
822,00:00:03.288,0.062424248433671954
823,00:00:03.292,0.016879830509424237
824,00:00:03.296,-0.031165360473096367
825,00:00:03.3,-0.06509347358951346
826,00:00:03.304,-0.037737366976216394
827,00:00:03.308,0.059570804703980726
828,00:00:03.312,-0.006831116392277181
829,00:00:03.316,-0.0014363434165715703
830,00:00:03.32,-0.00728161315782927
831,00:00:03.324,0.01813192921690643
832,00:00:03.328,0.006736819894285869
833,00:00:03.332,-0.004345947061665356
834,00:00:03.336,-0.05598272243514657
835,00:00:03.34,0.020759905106388057
836,00:00:03.344,0.09982952103018751
837,00:00:03.348,0.0399929499253631
838,00:00:03.352,-0.09493424277752639
839,00:00:03.356,-0.08065222902223464
840,00:00:03.36,0.0194842587225139
841,00:00:03.364,-0.03639567177742723
842,00:00:03.368,0.013322447892278391
843,00:00:03.372,0.0932031413540245
844,00:00:03.376,0.06268432247452435
845,00:00:03.38,-0.04464757395908237
846,00:00:03.384,-0.03609796520322559
847,00:00:03.388,-0.025514474604278838
848,00:00:03.392,-0.02066425606608395
849,00:00:03.396,0.0341928689740598
850,00:00:03.4,0.057601237233029706
851,00:00:03.404,-0.05535629065707323
852,00:00:03.408,-0.026019116863608388
853,00:00:03.412,-0.012489247601479292
854,00:00:03.416,0.0440930764889345
855,00:00:03.42,0.0276012141257524
856,00:00:03.424,-0.01648722030222418
857,00:00:03.428,-0.031856845191214234
858,00:00:03.432,-0.04193296776429631
859,00:00:03.436,0.09739643079228671
860,00:00:03.44,0.065086914692074
861,00:00:03.444,-0.08090209495276239
862,00:00:03.448,-0.05856237467378374
863,00:00:03.452,-0.057399969547987
864,00:00:03.456,0.01181989605538544
865,00:00:03.46,0.08023150544613603
866,00:00:03.464,0.07008734811097381
867,00:00:03.468,-0.0019263040740042908
868,00:00:03.472,-0.036523558665067
869,00:00:03.476,-0.062280891666887286
870,00:00:03.48,0.01406331127509478
871,00:00:03.484,0.0010235388763249502
872,00:00:03.488,0.007001467049121779
873,00:00:03.492,-0.0036267380637582383
874,00:00:03.496,0.04089819872751829
875,00:00:03.5,-0.03705113055184485
876,00:00:03.504,0.00900588219519706
877,00:00:03.508,0.05066507542505868
878,00:00:03.512,-0.03436337277526032
879,00:00:03.516,-0.06459573470056054
880,00:00:03.52,0.0067929085344076295
881,00:00:03.524,0.03705377504229537
882,00:00:03.528,0.03813019115477799
883,00:00:03.532,-0.009530845098197401
884,00:00:03.536,-0.05542537663131948
885,00:00:03.54,-0.00459901336580511
886,00:00:03.544,0.07603119174018505
887,00:00:03.548,0.0037808502092956985
888,00:00:03.552,-0.0019659157842397412
889,00:00:03.556,-0.0131684322841466
890,00:00:03.56,-0.09268031502142558
891,00:00:03.564,-0.030627065571025038
892,00:00:03.568,0.06470384530257431
893,00:00:03.572,0.06419448973610994
894,00:00:03.576,-0.0056619266979396395
895,00:00:03.58,-0.006669738213531671
896,00:00:03.584,0.01356452726759021
897,00:00:03.588,-0.01225337502546609
898,00:00:03.592,-0.06701049255207185
899,00:00:03.596,0.01719107758253809
900,00:00:03.6,0.014409450057428354
901,00:00:03.604,0.019688104861870642
902,00:00:03.608,0.021534414263442162
903,00:00:03.612,-0.008048845600569619
904,00:00:03.616,-0.02811121952254329
905,00:00:03.62,-0.007743988418951669
906,00:00:03.624,-0.002282230183482159
907,00:00:03.628,-0.03210540959844367
908,00:00:03.632,0.06893123453482987
909,00:00:03.636,0.05010755965486171
910,00:00:03.64,-0.06989433011040089
911,00:00:03.644,0.05519099906086922
912,00:00:03.648,-0.014545043464750078
913,00:00:03.652,-0.1138506773859258
914,00:00:03.656,-0.02326079038903122
915,00:00:03.66,0.04998296126723288
916,00:00:03.664,0.0456055290997029
917,00:00:03.668,0.054198064812226235
918,00:00:03.672,-0.01383610209450125
919,00:00:03.676,-0.03886360587785018
920,00:00:03.68,0.01756474794819951
921,00:00:03.684,0.01486713910708203
922,00:00:03.688,-0.02010432397946718
923,00:00:03.692,-0.04347539623267953
924,00:00:03.696,-0.02194942161440854
925,00:00:03.7,0.03818093659356235
926,00:00:03.704,0.031220174394547863
927,00:00:03.708,0.03407540963962679
928,00:00:03.712,-0.06080114142969249
929,00:00:03.716,-0.03297844436019656
930,00:00:03.72,0.056601771153509596
931,00:00:03.724,0.00215067155659199
932,00:00:03.728,-0.03460902906954289
933,00:00:03.732,0.03189791738986966
934,00:00:03.736,0.08179576834663747
935,00:00:03.74,-0.0866999598219991
936,00:00:03.744,-0.11398608476156372
937,00:00:03.748,0.06694958638399842
938,00:00:03.752,0.04843602841719982
939,00:00:03.756,-0.008451146015431777
940,00:00:03.76,-0.00798956397920847
941,00:00:03.764,0.03450907766819003
942,00:00:03.768,-0.01892163668526338
943,00:00:03.772,-0.003666817632620226
944,00:00:03.776,0.0076489276252686995
945,00:00:03.78,0.0030722902156412567
946,00:00:03.784,-0.02477811224525793
947,00:00:03.788,-0.006354807410389191
948,00:00:03.792,0.036091266199946404
949,00:00:03.796,-0.03587180509930479
950,00:00:03.8,-0.021266225259751078
951,00:00:03.804,0.045355266542173873
952,00:00:03.808,-0.0024599418975413305
953,00:00:03.812,-0.04029192426241931
954,00:00:03.816,0.05161936022341247
955,00:00:03.82,0.12430583126842978
956,00:00:03.824,-0.04808774730190633
957,00:00:03.828,-0.19664572179317447
958,00:00:03.832,-0.06601691711694
959,00:00:03.836,0.06916709523648022
960,00:00:03.84,0.11573930084705349
961,00:00:03.844,0.06939854985103011
962,00:00:03.848,0.010482928366400336
963,00:00:03.852,-0.0705601510126144
964,00:00:03.856,-0.012690675444901002
965,00:00:03.86,-0.01529448945075277
966,00:00:03.864,-0.05001467629335824
967,00:00:03.868,0.028870071750134178
968,00:00:03.872,0.01641093194484712
969,00:00:03.876,-0.004781417781487151
970,00:00:03.88,0.00991321913897987
971,00:00:03.884,0.021545235533267298
972,00:00:03.888,-0.01946687125018802
973,00:00:03.892,0.011859774356707927
974,00:00:03.896,0.007199042942374992
975,00:00:03.9,-0.01271075243130323
976,00:00:03.904,0.02029017824679618
977,00:00:03.908,-0.04304821928963066
978,00:00:03.912,-0.003593383822590111
979,00:00:03.916,0.0375800457550213
980,00:00:03.92,-0.054470683448016546
981,00:00:03.924,-0.02225135313346984
982,00:00:03.928,0.047257038066163645
983,00:00:03.932,0.04662331985309723
984,00:00:03.936,0.008606925141066372
985,00:00:03.94,-0.04494015034288169
986,00:00:03.944,0.03444193769246337
987,00:00:03.948,0.014838580274954398
988,00:00:03.952,-0.07556308433413504
989,00:00:03.956,-0.028850788366980847
990,00:00:03.96,0.0186474211513996
991,00:00:03.964,0.034408277831971604
992,00:00:03.968,0.03181650117039678
993,00:00:03.972,-0.0026439119828864897
994,00:00:03.976,-0.022941805189475396
995,00:00:03.98,0.009375937283039064
996,00:00:03.984,-0.007072207750752571
997,00:00:03.988,-0.03482712013646958
998,00:00:03.992,0.0163920721970499
999,00:00:03.996,-0.004532552557066091
1000,00:00:04,0.040070774732157574
1001,00:00:04.004,0.07462816539919005
1002,00:00:04.008,-0.0823222906328738
1003,00:00:04.012,-0.08938341739121823
1004,00:00:04.016,0.011264087632298418
1005,00:00:04.02,0.044958323589526145
1006,00:00:04.024,0.04131038114428519
1007,00:00:04.028,-0.012888331431895479
1008,00:00:04.032,0.01008830103091898
1009,00:00:04.036,0.00438016699627036
1010,00:00:04.04,-0.008526064659235994
1011,00:00:04.044,-0.02009300372446888
1012,00:00:04.048,-0.004674420939409183
1013,00:00:04.052,-0.015104231133591384
1014,00:00:04.056,0.023268616525456268
1015,00:00:04.06,0.010121305473148871
1016,00:00:04.064,-0.014643982052803001
1017,00:00:04.068,0.03175492025911809
1018,00:00:04.072,-0.004840234294533702
1019,00:00:04.076,-0.05213037552312013
1020,00:00:04.08,0.030618947697803354
1021,00:00:04.084,-0.0028437410946935407
1022,00:00:04.088,-0.03386943857185539
1023,00:00:04.092,0.0455612698569894
1024,00:00:04.096,0.04151019058190287
1025,00:00:04.1,-0.0478447530185804
1026,00:00:04.104,-0.03678725846111773
1027,00:00:04.108,0.03094152105040844
1028,00:00:04.112,0.025959569204132983
1029,00:00:04.116,-0.0491293804952875
1030,00:00:04.12,-0.007302162004634799
1031,00:00:04.124,0.06685612653382116
1032,00:00:04.128,0.006824386306107041
1033,00:00:04.132,-0.014989633113145821
1034,00:00:04.136,-0.027365327347069954
1035,00:00:04.14,-0.03191129420883952
1036,00:00:04.144,-0.015138318529352539
1037,00:00:04.148,0.024932866916060396
1038,00:00:04.152,0.13024102267809237
1039,00:00:04.156,-0.03587226802483204
1040,00:00:04.16,-0.127868115901947
1041,00:00:04.164,-0.02042891315068118
1042,00:00:04.168,0.0508794067427516
1043,00:00:04.172,0.02991511474829168
1044,00:00:04.176,0.01408952986821536
1045,00:00:04.18,0.005884972284547981
1046,00:00:04.184,0.0028118004556745104
1047,00:00:04.188,-0.0042215504217892885
1048,00:00:04.192,-0.021455720241647176
1049,00:00:04.196,-0.00361277093179524
1050,00:00:04.2,0.0014579478884115802
1051,00:00:04.204,-0.016970415832474828
1052,00:00:04.208,-0.004236336797475819
1053,00:00:04.212,0.01796732959337528
1054,00:00:04.216,0.00415115721989422
1055,00:00:04.22,0.05528665520250794
1056,00:00:04.224,-0.029236587462946727
1057,00:00:04.228,-0.04874005634337662
1058,00:00:04.232,-0.01780995633453131
1059,00:00:04.236,0.052191776921972674
1060,00:00:04.24,0.02446980288368654
1061,00:00:04.244,-0.051443568430841
1062,00:00:04.248,0.02558720111846925
1063,00:00:04.252,0.01412963308393957
1064,00:00:04.256,-0.0429747672751546
1065,00:00:04.26,0.016530523425899484
1066,00:00:04.264,0.02521172713022682
1067,00:00:04.268,-0.024666786193847667
1068,00:00:04.272,-0.03685323288664219
1069,00:00:04.276,-0.00628179055638607
1070,00:00:04.28,0.04069111216813325
1071,00:00:04.284,0.04650030261836949
1072,00:00:04.288,-0.0005133867962285894
1073,00:00:04.292,-0.0104382880963385
1074,00:00:04.296,-0.045456783846020754
1075,00:00:04.3,0.0316788712516427
1076,00:00:04.304,-0.023473850043956208
1077,00:00:04.308,-0.0139995224308223
1078,00:00:04.312,-0.012791989836841862
1079,00:00:04.316,0.0268614164087921
1080,00:00:04.32,0.02297722338698801
1081,00:00:04.324,0.016413100296631428
1082,00:00:04.328,-0.09186148596927529
1083,00:00:04.332,0.0409851782023907
1084,00:00:04.336,0.1072761360555887
1085,00:00:04.34,-0.0314926337450743
1086,00:00:04.344,-0.09130160999484363
1087,00:00:04.348,-0.040099987760186195
1088,00:00:04.352,0.11367505529778968
1089,00:00:04.356,0.035989500582218205
1090,00:00:04.36,-0.11555774032603955
1091,00:00:04.364,-0.0074178837239741585
1092,00:00:04.368,0.009478000923991228
1093,00:00:04.372,0.01680035563185807
1094,00:00:04.376,0.03259733552113176
1095,00:00:04.38,0.02761608362197876
1096,00:00:04.384,-0.01025347504764801
1097,00:00:04.388,-0.01951198145980011
1098,00:00:04.392,-0.01207117200829084
1099,00:00:04.396,0.003702685935422781
1100,00:00:04.4,0.00552140595391393
1101,00:00:04.404,-0.0003093722043558994
1102,00:00:04.408,-0.029149873880669506
1103,00:00:04.412,-0.0075651223305613
1104,00:00:04.416,0.041373896296136095
1105,00:00:04.42,0.011566948611289284
1106,00:00:04.424,-0.0026944510173052593
1107,00:00:04.428,-0.0370457479730249
1108,00:00:04.432,-0.02995538765389938
1109,00:00:04.436,0.07381499884650103
1110,00:00:04.44,0.0054526710882783
1111,00:00:04.444,0.00818966806400566
1112,00:00:04.448,-0.02497671823948624
1113,00:00:04.452,-0.09453300852328539
1114,00:00:04.456,0.03241625241935251
1115,00:00:04.46,0.022690535057336068
1116,00:00:04.464,0.06347830666345547
1117,00:00:04.468,0.0907612359151246
1118,00:00:04.472,-0.11056072590872647
1119,00:00:04.476,-0.06672443635761739
1120,00:00:04.48,0.002984941005706802
1121,00:00:04.484,0.02224469662178306
1122,00:00:04.488,0.00449492409825325
1123,00:00:04.492,-0.020640727132558778
1124,00:00:04.496,0.08062093378975983
1125,00:00:04.5,0.006548034376464782
1126,00:00:04.504,-0.021041417494416247
1127,00:00:04.508,-0.03710511652752764
1128,00:00:04.512,-0.007456674124114221
1129,00:00:04.516,0.010830205719685184
1130,00:00:04.52,-0.056768608454149175
1131,00:00:04.524,0.04341303417459126
1132,00:00:04.528,0.06386128766462212
1133,00:00:04.532,0.05483019771054384
1134,00:00:04.536,-0.0759536009281874
1135,00:00:04.54,-0.08984646992757919
1136,00:00:04.544,0.0173263810575009
1137,00:00:04.548,-0.004757257178425728
1138,00:00:04.552,0.07033566082827743
1139,00:00:04.556,0.07858753763139249
1140,00:00:04.56,-0.07628193683922294
1141,00:00:04.564,-0.004546597134321971
1142,00:00:04.568,0.0028170922887511447
1143,00:00:04.572,-0.06419325600290904
1144,00:00:04.576,-0.0305567691102624
1145,00:00:04.58,0.029379874002188416
1146,00:00:04.584,0.0658622859045864
1147,00:00:04.588,0.03420801786705853
1148,00:00:04.592,0.0027641829219647554
1149,00:00:04.596,-0.030434974294621518
1150,00:00:04.6,-0.02650737343356016
1151,00:00:04.604,0.0035669612698256197
1152,00:00:04.608,-0.042778166476637125
1153,00:00:04.612,-0.0029883331153541903
1154,00:00:04.616,0.06234213325660679
1155,00:00:04.62,0.016232939902693012
1156,00:00:04.624,-0.01184955518692732
1157,00:00:04.628,-0.05481640191283073
1158,00:00:04.632,-0.0008622749592177498
1159,00:00:04.636,0.07740575622301549
1160,00:00:04.64,-0.016110194846987728
1161,00:00:04.644,-0.06523228576406839
1162,00:00:04.648,0.0065476708114146995
1163,00:00:04.652,0.04433304443955424
1164,00:00:04.656,-0.00545503129251303
1165,00:00:04.66,-0.039673213614150854
1166,00:00:04.664,0.1369718564674258
1167,00:00:04.668,-0.01764973113313316
1168,00:00:04.672,-0.16306653618812544
1169,00:00:04.676,0.010153692681342301
1170,00:00:04.68,0.01528302393853665
1171,00:00:04.684,0.02226478373631839
1172,00:00:04.688,0.0489521743729711
1173,00:00:04.692,0.01591715292306613
1174,00:00:04.696,-0.0006308206357061377
1175,00:00:04.7,0.0006105883512645578
1176,00:00:04.704,-0.03724644205067304
1177,00:00:04.708,-0.03226662089582534
1178,00:00:04.712,-0.013540245825424794
1179,00:00:04.716,0.0294540622271597
1180,00:00:04.72,0.017186786979437
1181,00:00:04.724,0.03065777954179797
1182,00:00:04.728,0.055973891750909416
1183,00:00:04.732,-0.08999859495088458
1184,00:00:04.736,-0.04983877902850514
1185,00:00:04.74,0.014169265748932932
1186,00:00:04.744,0.04510319884866474
1187,00:00:04.748,-0.01897419965825975
1188,00:00:04.752,-0.017104923725128198
1189,00:00:04.756,0.07069754600524905
1190,00:00:04.76,0.026836354751139914
1191,00:00:04.764,-0.005167901515960749
1192,00:00:04.768,-0.08339916309341788
1193,00:00:04.772,-0.04168736469000581
1194,00:00:04.776,0.02742130926344546
1195,00:00:04.78,0.004025361035019159
1196,00:00:04.784,0.01083362638019026
1197,00:00:04.788,0.03134374879300594
1198,00:00:04.792,0.00642586871981621
1199,00:00:04.796,-0.0013308925554156
1200,00:00:04.8,0.02929455984849482
1201,00:00:04.804,-0.05703670391812919
1202,00:00:04.808,-0.00453732954338189
1203,00:00:04.812,0.050350898512988344
1204,00:00:04.816,-0.02832433395087717
1205,00:00:04.82,-0.01809618808329109
1206,00:00:04.824,-0.0009528074879199505
1207,00:00:04.828,-0.007793660624884071
1208,00:00:04.832,-0.01841170433908701
1209,00:00:04.836,0.01356547418981793
1210,00:00:04.84,0.049497921951115145
1211,00:00:04.844,0.04849636182188984
1212,00:00:04.848,-0.016150264535099212
1213,00:00:04.852,-0.02526156418025497
1214,00:00:04.856,-0.07775552198290829
1215,00:00:04.86,-0.042511752806603895
1216,00:00:04.864,0.07377743697725242
1217,00:00:04.868,0.057742396369576406
1218,00:00:04.872,-0.038551203906536165
1219,00:00:04.876,-0.0202796035446227
1220,00:00:04.88,-0.024331221589818618
1221,00:00:04.884,0.03900170698761944
1222,00:00:04.888,0.08692753955256195
1223,00:00:04.892,-0.04298805911093956
1224,00:00:04.896,-0.0836638426408171
1225,00:00:04.9,0.00596626847982408
1226,00:00:04.904,0.02781979274004697
1227,00:00:04.908,0.004878112114965909
1228,00:00:04.912,0.0221823051106185
1229,00:00:04.916,0.005540864600334318
1230,00:00:04.92,-0.025200114119797952
1231,00:00:04.924,-0.0035953042097389607
1232,00:00:04.928,0.013477881031576548
1233,00:00:04.932,-0.027732998190913304
1234,00:00:04.936,-0.0001708298223093202
1235,00:00:04.94,-0.0316627188585699
1236,00:00:04.944,0.05521151120774447
1237,00:00:04.948,0.11680733505636434
1238,00:00:04.952,-0.09474990516901019
1239,00:00:04.956,-0.07746838778257378
1240,00:00:04.96,-0.005917175323702379
1241,00:00:04.964,0.08048188814427706
1242,00:00:04.968,-0.0031548982078675163
1243,00:00:04.972,-0.045332625508308404
1244,00:00:04.976,-0.014993923716247082
1245,00:00:04.98,-0.010105648354510777
1246,00:00:04.984,0.06942227529361848
1247,00:00:04.988,0.06994729209691286
1248,00:00:04.992,-0.0465599862800445
1249,00:00:04.996,-0.056459565646946444
1250,00:00:05,-0.02374980598688125
1251,00:00:05.004,0.04706037184223532
1252,00:00:05.008,-0.02452746586641297
1253,00:00:05.012,-0.015215309336781458
1254,00:00:05.016,0.006213745335117031
1255,00:00:05.02,0.02989379316568377
1256,00:00:05.024,0.03281151549890633
1257,00:00:05.028,-0.014194049057550732
1258,00:00:05.032,-0.021267773001454812
1259,00:00:05.036,-0.05795919705997213
1260,00:00:05.04,0.044097976293414776
1261,00:00:05.044,0.09304828476160777
1262,00:00:05.048,-0.057715217815712136
1263,00:00:05.052,-0.07102114916779095
1264,00:00:05.056,-0.013698049588128921
1265,00:00:05.06,0.02042600419372323
1266,00:00:05.064,0.0938276611268522
1267,00:00:05.068,0.0016780809382908094
1268,00:00:05.072,-0.03949507675133647
1269,00:00:05.076,-0.05893453583121301
1270,00:00:05.08,-0.002975975221488644
1271,00:00:05.084,0.03396127559244627
1272,00:00:05.088,0.02790787687990811
1273,00:00:05.092,0.008352101780474219
1274,00:00:05.096,-0.01147894561290735
1275,00:00:05.1,-0.0007742010056972608
1276,00:00:05.104,-0.006644940469413999
1277,00:00:05.108,-0.024342731514479937
1278,00:00:05.112,-0.026340282463934193
1279,00:00:05.116,0.05428221076726918
1280,00:00:05.12,0.01906183548271658
1281,00:00:05.124,-0.013985080877318968
1282,00:00:05.128,-0.038571503944695
1283,00:00:05.132,0.016788069100584852
1284,00:00:05.136,0.013096840729758719
1285,00:00:05.14,-0.02205194765701886
1286,00:00:05.144,-0.01578963510110046
1287,00:00:05.148,0.09518802072852851
1288,00:00:05.152,-0.01702358585316689
1289,00:00:05.156,-0.06395410618279124
1290,00:00:05.16,-0.03347026417031881
1291,00:00:05.164,0.03375397727359087
1292,00:00:05.168,0.0207145623862744
1293,00:00:05.172,0.02477045543491843
1294,00:00:05.176,-0.01886765169911091
1295,00:00:05.18,-0.02476418484002351
1296,00:00:05.184,-0.013853432377800349
1297,00:00:05.188,0.04279980389401321
1298,00:00:05.192,0.011186998803168539
1299,00:00:05.196,-0.01782403374090795
1300,00:00:05.2,-0.0031201867386698497
1301,00:00:05.204,-0.026492137287277742
1302,00:00:05.208,0.006637525046244189
1303,00:00:05.212,0.022855015587992952
1304,00:00:05.216,-0.012711579678580172
1305,00:00:05.22,0.00489877117797732
1306,00:00:05.224,0.019318569917231822
1307,00:00:05.228,-0.015618516365066192
1308,00:00:05.232,0.004358264319307637
1309,00:00:05.236,-0.00595788145437837
1310,00:00:05.24,-0.0163135014008731
1311,00:00:05.244,0.0100085251033306
1312,00:00:05.248,0.02662978228181598
1313,00:00:05.252,-0.015304862521588797
1314,00:00:05.256,-0.02475035458337519
1315,00:00:05.26,-0.01337085012346503
1316,00:00:05.264,0.02762366458773618
1317,00:00:05.268,0.036874967161566005
1318,00:00:05.272,-0.026136498898267718
1319,00:00:05.276,-0.008820580085739532
1320,00:00:05.28,0.03867851069662724
1321,00:00:05.284,-0.03362048044800758
1322,00:00:05.288,-0.027321780100464793
1323,00:00:05.292,-0.008286118740215911
1324,00:00:05.296,0.014403076085727622
1325,00:00:05.3,0.023662399500608423
1326,00:00:05.304,0.008678022073581771
1327,00:00:05.308,-0.011368608567863672
1328,00:00:05.312,-0.01850109663791956
1329,00:00:05.316,0.046912758611142594
1330,00:00:05.32,-0.004413863498484717
1331,00:00:05.324,-0.02124080201610925
1332,00:00:05.328,-0.00038906221743672826
1333,00:00:05.332,-0.019049976312089746
1334,00:00:05.336,-0.01075236324686562
1335,00:00:05.34,-0.00312854535877705
1336,00:00:05.344,-0.009762302041053722
1337,00:00:05.348,0.008921416243538299
1338,00:00:05.352,0.11825383873656398
1339,00:00:05.356,0.00476744910702115
1340,00:00:05.36,-0.11881121341139059
1341,00:00:05.364,0.0363979330286384
1342,00:00:05.368,-0.04020525189116601
1343,00:00:05.372,-0.04993633367121218
1344,00:00:05.376,0.02626336598768831
1345,00:00:05.38,0.0763061977922917
1346,00:00:05.384,0.05754957278259103
1347,00:00:05.388,-0.051576305180788
1348,00:00:05.392,-0.06198589224368334
1349,00:00:05.396,-0.023983190301805738
1350,00:00:05.4,0.02125570829957723
1351,00:00:05.404,0.07714005000889308
1352,00:00:05.408,0.00862433132715525
1353,00:00:05.412,-0.03404344752198084
1354,00:00:05.416,-0.04051478276960553
1355,00:00:05.42,0.011588882189244
1356,00:00:05.424,0.018691046396270408
1357,00:00:05.428,-0.031032918486744165
1358,00:00:05.432,0.018123262023436882
1359,00:00:05.436,0.022271200548857468
1360,00:00:05.44,-0.010350037948228382
1361,00:00:05.444,-0.02111936581786719
1362,00:00:05.448,0.01367472484707826
1363,00:00:05.452,0.006058894796296991
1364,00:00:05.456,0.019806299824267605
1365,00:00:05.46,0.0034527851676102728
1366,00:00:05.464,-0.01401158748194575
1367,00:00:05.468,-0.05980097549036145
1368,00:00:05.472,-0.034322795458137996
1369,00:00:05.476,0.07408321369439363
1370,00:00:05.48,0.07661120232660329
1371,00:00:05.484,0.0015037078410386996
1372,00:00:05.488,-0.05685389507561924
1373,00:00:05.492,-0.056585724465548964
1374,00:00:05.496,-0.03879089647671211
1375,00:00:05.5,0.03404720313847066
1376,00:00:05.504,0.06288267066702247
1377,00:00:05.508,0.009988115925807475
1378,00:00:05.512,0.01734652626328173
1379,00:00:05.516,0.04524889378808439
1380,00:00:05.52,-0.06842467142269011
1381,00:00:05.524,-0.07008911459706726
1382,00:00:05.528,-0.03839654522016646
1383,00:00:05.532,0.0283052693121136
1384,00:00:05.536,0.07041358202695845
1385,00:00:05.54,0.04015228617936367
1386,00:00:05.544,-0.0015537111321464164
1387,00:00:05.548,-0.052752512507140734
1388,00:00:05.552,-0.033233019523322596
1389,00:00:05.556,0.0018237074837088377
1390,00:00:05.56,0.08407031744718554
1391,00:00:05.564,0.019019839353859418
1392,00:00:05.568,-0.05818177328910673
1393,00:00:05.572,0.02757378621026876
1394,00:00:05.576,-0.08579334337264309
1395,00:00:05.58,-0.05036772927269341
1396,00:00:05.584,0.009348123334348191
1397,00:00:05.588,0.0909748580306769
1398,00:00:05.592,0.05384004861116416
1399,00:00:05.596,-0.024641688214614998
1400,00:00:05.6,0.01995110325515275
1401,00:00:05.604,-0.01645049313083287
1402,00:00:05.608,-0.005478787235915598
1403,00:00:05.612,-0.04717603791505097
1404,00:00:05.616,-0.04807283449918037
1405,00:00:05.62,0.0091289668343961
1406,00:00:05.624,0.06482128752395507
1407,00:00:05.628,0.01398754364345222
1408,00:00:05.632,-0.002533693826990202
1409,00:00:05.636,0.00818569841794669
1410,00:00:05.64,-0.01974861253984272
1411,00:00:05.644,-0.05312627973034985
1412,00:00:05.648,0.009015642572194331
1413,00:00:05.652,0.08940592315047989
1414,00:00:05.656,0.03208027151413258
1415,00:00:05.66,-0.09113092732150116
1416,00:00:05.664,-0.031684934045188164
1417,00:00:05.668,-0.008278568275272808
1418,00:00:05.672,-0.005068836529972037
1419,00:00:05.676,0.03981593064963818
1420,00:00:05.68,0.024240102153271437
1421,00:00:05.684,0.027415236982051276
1422,00:00:05.688,0.0018176085723098393
1423,00:00:05.692,-0.04757683724164958
1424,00:00:05.696,-0.014044237788766581
1425,00:00:05.7,0.011003146006260092
1426,00:00:05.704,0.01093990029767155
1427,00:00:05.708,0.02855667751282459
1428,00:00:05.712,-0.03422613753355109
1429,00:00:05.716,-0.03048604261130102
1430,00:00:05.72,-0.01379519002512094
1431,00:00:05.724,0.07415435716393398
1432,00:00:05.728,0.027184487320482748
1433,00:00:05.732,-0.042004199698567474
1434,00:00:05.736,-0.03683147672563797
1435,00:00:05.74,0.0009681754745543558
1436,00:00:05.744,0.0396007969975472
1437,00:00:05.748,-0.0020742160268127597
1438,00:00:05.752,-0.027986085973680006
1439,00:00:05.756,-0.00811807857826348
1440,00:00:05.76,0.015623054467141637
1441,00:00:05.764,0.027405427303165166
1442,00:00:05.768,-0.004364778753370071
1443,00:00:05.772,-0.029516382142901462
1444,00:00:05.776,0.010555008775554599
1445,00:00:05.78,0.01083789567928762
1446,00:00:05.784,-0.034290278563275864
1447,00:00:05.788,0.021581722423434303
1448,00:00:05.792,0.025194815360009674
1449,00:00:05.796,-0.0101698655635119
1450,00:00:05.8,0.03512183856219049
1451,00:00:05.804,-0.05021362705156205
1452,00:00:05.808,-0.03143885702593256
1453,00:00:05.812,0.019539420027285828
1454,00:00:05.816,-0.020714016398415004
1455,00:00:05.82,0.02191469247918574
1456,00:00:05.824,0.06302922696340833
1457,00:00:05.828,-0.02344395476393398
1458,00:00:05.832,0.01975237973965711
1459,00:00:05.836,-0.04221947677433492
1460,00:00:05.84,-0.058170720236375914
1461,00:00:05.844,0.0311150643974542
1462,00:00:05.848,0.05428331624716527
1463,00:00:05.852,-0.0317363830399699
1464,00:00:05.856,-0.02296491339802742
1465,00:00:05.86,0.03110457304865121
1466,00:00:05.864,0.0013787203934043717
1467,00:00:05.868,-0.010131553979590579
1468,00:00:05.872,0.008220325733418582
1469,00:00:05.876,0.015875282668275766
1470,00:00:05.88,0.00511832721531388
1471,00:00:05.884,-0.04004939459264279
1472,00:00:05.888,-0.013699882663786401
1473,00:00:05.892,0.022704587085172548
1474,00:00:05.896,-0.016316082328557923
1475,00:00:05.9,0.02933196783124002
1476,00:00:05.904,0.045353999244980486
1477,00:00:05.908,-0.05368027184158565
1478,00:00:05.912,-0.033466029388364384
1479,00:00:05.916,0.032879318110644845
1480,00:00:05.92,0.031194533687084934
1481,00:00:05.924,-0.046911141835153165
1482,00:00:05.928,-0.030003173276782
1483,00:00:05.932,0.08446002681739628
1484,00:00:05.936,0.0172400809824466
1485,00:00:05.94,-0.0648888712748885
1486,00:00:05.944,-0.08633171090332373
1487,00:00:05.948,0.04052339913323523
1488,00:00:05.952,0.16406125843059285
1489,00:00:05.956,-0.005155927734449509
1490,00:00:05.96,-0.10774088045582184
1491,00:00:05.964,-0.05910690105520191
1492,00:00:05.968,0.003980488516390324
1493,00:00:05.972,0.027166676241904466
1494,00:00:05.976,0.01833244925364849
1495,00:00:05.98,0.04823335167020562
1496,00:00:05.984,-0.003489879192784425
1497,00:00:05.988,0.0040411013178527294
1498,00:00:05.992,-0.028848579968325783
1499,00:00:05.996,-0.01749631762504581
1500,00:00:06,-0.0019185754354111868
1501,00:00:06.004,-0.001037292880937451
1502,00:00:06.008,0.05171542329480873
1503,00:00:06.012,-0.022127294912934303
1504,00:00:06.016,-0.04564727493561803
1505,00:00:06.02,-0.02875534445047377
1506,00:00:06.024,0.05086571164429189
1507,00:00:06.028,0.0641541206277906
1508,00:00:06.032,-0.001592811197042441
1509,00:00:06.036,-0.0674560572952032
1510,00:00:06.04,-0.0336224772036076
1511,00:00:06.044,0.01661242963746189
1512,00:00:06.048,0.026777401100844186
1513,00:00:06.052,0.000601908017415552
1514,00:00:06.056,0.044068451970815666
1515,00:00:06.06,0.06640959018841391
1516,00:00:06.064,-0.06235458014998582
1517,00:00:06.068,-0.13260619249194824
1518,00:00:06.072,-0.01721744146198037
1519,00:00:06.076,0.03518682240974159
1520,00:00:06.08,0.08089415251743047
1521,00:00:06.084,0.04884058935567735
1522,00:00:06.088,0.02029373403638603
1523,00:00:06.092,-0.05199631955474617
1524,00:00:06.096,-0.060277025680989006
1525,00:00:06.1,0.00872733257710931
1526,00:00:06.104,0.01703735254704953
1527,00:00:06.108,-0.00903621432371442
1528,00:00:06.112,0.01677154563367365
1529,00:00:06.116,-0.005321732198353861
1530,00:00:06.12,0.0007901100907474808
1531,00:00:06.124,0.05271771317347883
1532,00:00:06.128,-0.03476663585752247
1533,00:00:06.132,-0.038293197285383954
1534,00:00:06.136,-0.031384332338347996
1535,00:00:06.14,0.04889950063079592
1536,00:00:06.144,0.04747769748792052
1537,00:00:06.148,-0.008171648718416611
1538,00:00:06.152,-0.005742810200899841
1539,00:00:06.156,-0.0594138918677345
1540,00:00:06.16,-0.01790703600272535
1541,00:00:06.164,0.015359339769929679
1542,00:00:06.168,0.031166007320280194
1543,00:00:06.172,0.03143994580022995
1544,00:00:06.176,0.0006182936485856789
1545,00:00:06.18,-0.009366770740598399
1546,00:00:06.184,-0.014360159751959142
1547,00:00:06.188,-0.02619885475724009
1548,00:00:06.192,0.00273642130196094
1549,00:00:06.196,0.018946048803627512
1550,00:00:06.2,0.015161012765020118
1551,00:00:06.204,-0.0003236295888200398
1552,00:00:06.208,-0.024501345353201063
1553,00:00:06.212,-0.02154260588577016
1554,00:00:06.216,0.04441599408164619
1555,00:00:06.22,-0.004713537637144341
1556,00:00:06.224,-0.01790661201812322
1557,00:00:06.228,0.022045788355171732
1558,00:00:06.232,0.03538936004042621
1559,00:00:06.236,-0.07283672038465736
1560,00:00:06.24,-0.05776905827224249
1561,00:00:06.244,0.06758797401562336
1562,00:00:06.248,0.06695095729082826
1563,00:00:06.252,-0.04785955231636757
1564,00:00:06.256,0.0363451205193996
1565,00:00:06.26,0.02341264308779501
1566,00:00:06.264,-0.09845744585618345
1567,00:00:06.268,-0.05022569745779041
1568,00:00:06.272,0.03801820613443849
1569,00:00:06.276,0.015533158759353703
1570,00:00:06.28,0.06831292714923619
1571,00:00:06.284,0.02936437446624042
1572,00:00:06.288,-0.037762637832202
1573,00:00:06.292,-0.032287393696606194
1574,00:00:06.296,0.01324215962085881
1575,00:00:06.3,-0.015322826511692221
1576,00:00:06.304,-0.05323318531736729
1577,00:00:06.308,0.029277475085109514
1578,00:00:06.312,0.03634246997535223
1579,00:00:06.316,0.01202354137785731
1580,00:00:06.32,0.01044515275862068
1581,00:00:06.324,-0.007305161561816949
1582,00:00:06.328,-0.05656463466584689
1583,00:00:06.332,0.07231544330716139
1584,00:00:06.336,-0.09728443808853621
1585,00:00:06.34,0.060150790028274004
1586,00:00:06.344,0.0965692549943924
1587,00:00:06.348,-0.0899490038864315
1588,00:00:06.352,-0.09258231846615675
1589,00:00:06.356,0.020827001892030163
1590,00:00:06.36,0.04497573489788912
1591,00:00:06.364,0.05129547324031589
1592,00:00:06.368,0.01751243090257051
1593,00:00:06.372,0.009133668558206407
1594,00:00:06.376,-0.07896903157234186
1595,00:00:06.38,-0.0553905535489321
1596,00:00:06.384,0.07211106689646837
1597,00:00:06.388,0.06426720001036301
1598,00:00:06.392,-0.0320338271558285
1599,00:00:06.396,-0.06422184035181999
1600,00:00:06.4,-0.00892907264642417
1601,00:00:06.404,0.04778328211978076
1602,00:00:06.408,0.035080495290458195
1603,00:00:06.412,-0.03335956344380979
1604,00:00:06.416,-0.00512244109995663
1605,00:00:06.42,0.011907016392797207
1606,00:00:06.424,-0.07370043266564599
1607,00:00:06.428,0.04129236843436955
1608,00:00:06.432,0.1140708774328232
1609,00:00:06.436,-0.02409459941554817
1610,00:00:06.44,-0.12817711220122863
1611,00:00:06.444,-0.02019615087192506
1612,00:00:06.448,0.032133205560967375
1613,00:00:06.452,0.06609799514990299
1614,00:00:06.456,0.015015098266303591
1615,00:00:06.46,-0.021664139814674833
1616,00:00:06.464,-0.00793867849279192
1617,00:00:06.468,0.01007750211283567
1618,00:00:06.472,-0.004421841644216346
1619,00:00:06.476,-0.016446610214188737
1620,00:00:06.48,-0.01038731657899913
1621,00:00:06.484,0.0063027450814843
1622,00:00:06.488,-0.013456971850246179
1623,00:00:06.492,0.03997173020616178
1624,00:00:06.496,0.06521914619952435
1625,00:00:06.5,-0.0925370589829981
1626,00:00:06.504,-0.06281930115073919
1627,00:00:06.508,0.05015722103416921
1628,00:00:06.512,0.07932685501873492
1629,00:00:06.516,-0.02082339162006979
1630,00:00:06.52,-0.07273976039141411
1631,00:00:06.524,0.01954431575722996
1632,00:00:06.528,-0.0021894988603890168
1633,00:00:06.532,0.013286695786519014
1634,00:00:06.536,0.004225167795084419
1635,00:00:06.54,0.044245987897738814
1636,00:00:06.544,-0.020632134299376055
1637,00:00:06.548,-0.020484833512455218
1638,00:00:06.552,-0.007261642662342638
1639,00:00:06.556,-0.00534312706440688
1640,00:00:06.56,-0.03371532820165161
1641,00:00:06.564,0.06856838520616292
1642,00:00:06.568,0.014582673204131393
1643,00:00:06.572,-0.04113841708749536
1644,00:00:06.576,-0.009444201496080494
1645,00:00:06.58,0.02351537183858458
1646,00:00:06.584,-0.012137016499764251
1647,00:00:06.588,-0.04731048969551918
1648,00:00:06.592,0.04264786303974688
1649,00:00:06.596,0.10793217015452683
1650,00:00:06.6,-0.061018094420433
1651,00:00:06.604,-0.09320606384426355
1652,00:00:06.608,-0.03914585802704094
1653,00:00:06.612,0.04820586345158522
1654,00:00:06.616,0.10387390526011593
1655,00:00:06.62,0.024678650428540966
1656,00:00:06.624,-0.08751000068150461
1657,00:00:06.628,-0.02108215773478149
1658,00:00:06.632,-0.013380020391196009
1659,00:00:06.636,0.012352519290288903
1660,00:00:06.64,0.04704960505478087
1661,00:00:06.644,-0.00879554529092277
1662,00:00:06.648,-0.00813807011581957
1663,00:00:06.652,0.005655517452396454
1664,00:00:06.656,-0.013489338569343092
1665,00:00:06.66,0.00656162681843853
1666,00:00:06.664,-0.01641561614815149
1667,00:00:06.668,0.0011117423418909296
1668,00:00:06.672,0.024891240987926742
1669,00:00:06.676,-0.006284372182562899
1670,00:00:06.68,-0.020397458225488625
1671,00:00:06.684,0.0036523815942927987
1672,00:00:06.688,0.04100599349476398
1673,00:00:06.692,-0.029197012830991294
1674,00:00:06.696,0.0030623709317296804
1675,00:00:06.7,-0.007986068318132354
1676,00:00:06.704,-0.03363722423091533
1677,00:00:06.708,0.030926744511816654
1678,00:00:06.712,0.023165002698078793
1679,00:00:06.716,-0.02024640538729727
1680,00:00:06.72,0.0005361489020288112
1681,00:00:06.724,-0.01398440334014589
1682,00:00:06.728,0.003369462727278015
1683,00:00:06.732,0.0440469530876726
1684,00:00:06.736,-0.001720905012916771
1685,00:00:06.74,-0.026201987639069557
1686,00:00:06.744,0.0021999445743858806
1687,00:00:06.748,-0.02495835651643574
1688,00:00:06.752,-0.002798975794576105
1689,00:00:06.756,0.00596633879467846
1690,00:00:06.76,0.010013104940298966
1691,00:00:06.764,-0.024669681210070897
1692,00:00:06.768,0.00871392607223236
1693,00:00:06.772,0.19488164689391851
1694,00:00:06.776,-0.09207149734720593
1695,00:00:06.78,-0.1596704320982101
1696,00:00:06.784,-0.03936888510361316
1697,00:00:06.788,0.04100503958761696
1698,00:00:06.792,0.07483177073299885
1699,00:00:06.796,0.034771780483424615
1700,00:00:06.8,0.0453984355553984
1701,00:00:06.804,-0.01545809220988301
1702,00:00:06.808,-0.0667888415046036
1703,00:00:06.812,-0.03795683849602935
1704,00:00:06.816,0.012656549050007062
1705,00:00:06.82,0.02900500549003477
1706,00:00:06.824,0.0068957899929955775
1707,00:00:06.828,0.000514827203005587
1708,00:00:06.832,-0.013451519422233098
1709,00:00:06.836,-0.016547188162803702
1710,00:00:06.84,0.033965799724683186
1711,00:00:06.844,-0.003951149061322171
1712,00:00:06.848,0.0012040821602567996
1713,00:00:06.852,0.00943783577531577
1714,00:00:06.856,0.005399014800786979
1715,00:00:06.86,-0.03807322354987258
1716,00:00:06.864,0.006475914269685672
1717,00:00:06.868,0.02617195784114299
1718,00:00:06.872,-0.038636420853436
1719,00:00:06.876,-0.015552049037069084
1720,00:00:06.88,0.01326134405098857
1721,00:00:06.884,0.022130991215817637
1722,00:00:06.888,0.030433823354542196
1723,00:00:06.892,-0.03242090111598371
1724,00:00:06.896,0.046714239753782735
1725,00:00:06.9,0.039298506919294554
1726,00:00:06.904,-0.057747294660657617
1727,00:00:06.908,-0.0668172007426619
1728,00:00:06.912,-0.04327656701207162
1729,00:00:06.916,-0.0117916204035282
1730,00:00:06.92,0.0710736340843141
1731,00:00:06.924,0.07581678032875064
1732,00:00:06.928,0.04370634607039396
1733,00:00:06.932,-0.03653819870669399
1734,00:00:06.936,-0.08462153421714907
1735,00:00:06.94,-0.01125228832825087
1736,00:00:06.944,0.03618797240778802
1737,00:00:06.948,0.004390745656564832
1738,00:00:06.952,0.0007283313898369702
1739,00:00:06.956,-0.016238093041465645
1740,00:00:06.96,-0.0006449642824008991
1741,00:00:06.964,0.024426089134067318
1742,00:00:06.968,-0.02385247801430525
1743,00:00:06.972,0.04063659696839753
1744,00:00:06.976,0.00936636282131076
1745,00:00:06.98,-0.06923435605131084
1746,00:00:06.984,0.01909528076066634
1747,00:00:06.988,0.017075158655643505
1748,00:00:06.992,0.029509131156373776
1749,00:00:06.996,0.05928265396505597
1750,00:00:07,-0.11304115183884302
1751,00:00:07.004,-0.06665307749062771
1752,00:00:07.008,-0.006230142898857571
1753,00:00:07.012,0.044881283072754755
1754,00:00:07.016,0.09727919262149957
1755,00:00:07.02,0.03332396328914912
1756,00:00:07.024,-0.039681230671703906
1757,00:00:07.028,-0.030937699717469538
1758,00:00:07.032,-0.01023657526820891
1759,00:00:07.036,-0.011878921650350089
1760,00:00:07.04,-0.02238501270767303
1761,00:00:07.044,0.0011503936257213406
1762,00:00:07.048,0.04809295386075968
1763,00:00:07.052,0.01401892513968051
1764,00:00:07.056,-0.022800352657213828
1765,00:00:07.06,-0.02674249885603783
1766,00:00:07.064,0.006380677921697508
1767,00:00:07.068,0.021880371263250733
1768,00:00:07.072,-0.024294051574543105
1769,00:00:07.076,0.05130111501784995
1770,00:00:07.08,0.00834998022764925
1771,00:00:07.084,-0.06813477433752271
1772,00:00:07.088,-0.036878620740026194
1773,00:00:07.092,0.04972566524520521
1774,00:00:07.096,0.048944456968456534
1775,00:00:07.1,0.009548089466988999
1776,00:00:07.104,-0.037202294683083836
1777,00:00:07.108,-0.05166343506425619
1778,00:00:07.112,0.00523289432749152
1779,00:00:07.116,0.03191477246582509
1780,00:00:07.12,0.003605234902352099
1781,00:00:07.124,0.017624115571379672
1782,00:00:07.128,-0.00437843345571308
1783,00:00:07.132,-0.005446246243081978
1784,00:00:07.136,-0.00015575363067910682
1785,00:00:07.14,0.001889377017505461
1786,00:00:07.144,0.00669958861544728
1787,00:00:07.148,-0.0036915852688252896
1788,00:00:07.152,-0.047463120237807715
1789,00:00:07.156,-0.01693014008924365
1790,00:00:07.16,0.05726975668221714
1791,00:00:07.164,0.06825045961886647
1792,00:00:07.168,-0.039096516091376564
1793,00:00:07.172,-0.09232335863634937
1794,00:00:07.176,0.032542268745601136
1795,00:00:07.18,0.026907364721409945
1796,00:00:07.184,0.033956566359847784
1797,00:00:07.188,-0.023336978163570173
1798,00:00:07.192,-0.039605583064258196
1799,00:00:07.196,-0.04625706910155719
1800,00:00:07.2,0.07585627841763198
1801,00:00:07.204,0.1545414347201588
1802,00:00:07.208,-0.0596294091083109
1803,00:00:07.212,-0.16281558386981443
1804,00:00:07.216,-0.06086093280464414
1805,00:00:07.22,0.03969688573852184
1806,00:00:07.224,0.10707879671826931
1807,00:00:07.228,0.05777275469154122
1808,00:00:07.232,-0.023193888075184108
1809,00:00:07.236,-0.04422316141426567
1810,00:00:07.24,-0.03544684709049758
1811,00:00:07.244,-0.008611821453087
1812,00:00:07.248,0.028551981085911383
1813,00:00:07.252,0.008843791787512604
1814,00:00:07.256,0.011201317567611143
1815,00:00:07.26,0.013524339941795895
1816,00:00:07.264,-0.0105250442866236
1817,00:00:07.268,-0.02641390392091121
1818,00:00:07.272,-0.0027806661091744895
1819,00:00:07.276,-0.03141244128346445
1820,00:00:07.28,0.012829268875066194
1821,00:00:07.284,0.06883066100999713
1822,00:00:07.288,0.00804444425739347
1823,00:00:07.292,-0.04629986383952205
1824,00:00:07.296,-0.01805023709312078
1825,00:00:07.3,-0.01466658129356803
1826,00:00:07.304,0.017810051795095157
1827,00:00:07.308,0.03886205283924937
1828,00:00:07.312,0.01902166614308949
1829,00:00:07.316,0.0019369339570402908
1830,00:00:07.32,-0.03829250065609813
1831,00:00:07.324,-0.03487561852671198
1832,00:00:07.328,-0.02473529241979118
1833,00:00:07.332,0.010334260761737806
1834,00:00:07.336,0.03202538564801215
1835,00:00:07.34,0.03595726890489455
1836,00:00:07.344,-0.00927436887286604
1837,00:00:07.348,-0.0013284124433994293
1838,00:00:07.352,-0.01154115214012564
1839,00:00:07.356,2.6775058358909434e-05
1840,00:00:07.36,0.03602349013090131
1841,00:00:07.364,-0.02229706919752062
1842,00:00:07.368,-0.06066134292632347
1843,00:00:07.372,0.009339905140222978
1844,00:00:07.376,0.052621238282881684
1845,00:00:07.38,-0.00791107257828118
1846,00:00:07.384,-0.00649188517127192
1847,00:00:07.388,-0.04181556683033703
1848,00:00:07.392,0.01697172154672443
1849,00:00:07.396,0.045468930504284716
1850,00:00:07.4,0.02378940104972571
1851,00:00:07.404,-0.034910300513729446
1852,00:00:07.408,-0.009330904576927498
1853,00:00:07.412,0.014218938304111358
1854,00:00:07.416,-0.015272994925908303
1855,00:00:07.42,-0.04357098834589122
1856,00:00:07.424,0.00520343682728708
1857,00:00:07.428,0.025190057698637244
1858,00:00:07.432,0.00993504398502407
1859,00:00:07.436,-0.043220097490120644
1860,00:00:07.44,0.038817040331196054
1861,00:00:07.444,0.07846435252577068
1862,00:00:07.448,0.008440765552222762
1863,00:00:07.452,-0.08908546390011911
1864,00:00:07.456,-0.046260230476036716
1865,00:00:07.46,0.005391641927417366
1866,00:00:07.464,0.05656682932749384
1867,00:00:07.468,0.006747860927134749
1868,00:00:07.472,0.015434403205290388
1869,00:00:07.476,-0.011990262195467939
1870,00:00:07.48,-0.07799020363017917
1871,00:00:07.484,0.03957907960284496
1872,00:00:07.488,0.055541486479342
1873,00:00:07.492,-0.04555419657845048
1874,00:00:07.496,0.06151067593600601
1875,00:00:07.5,0.03849153965711592
1876,00:00:07.504,-0.11061326321214439
1877,00:00:07.508,-0.10842010937631137
1878,00:00:07.512,0.041020313743501874
1879,00:00:07.516,0.0924581401050091
1880,00:00:07.52,0.051876689307391595
1881,00:00:07.524,0.00933377631008625
1882,00:00:07.528,-0.04062181548215445
1883,00:00:07.532,-0.08859114069491625
1884,00:00:07.536,0.0432751525659114
1885,00:00:07.54,0.06311379582621152
1886,00:00:07.544,-0.02061706114909613
1887,00:00:07.548,-0.007083239965140829
1888,00:00:07.552,0.0007222374551929517
1889,00:00:07.556,-0.030675049885758216
1890,00:00:07.56,-0.03585546725662423
1891,00:00:07.564,0.007382120471447701
1892,00:00:07.568,0.02177483745617791
1893,00:00:07.572,0.03605266357772057
1894,00:00:07.576,0.03386415401473644
1895,00:00:07.58,0.01280396629590541
1896,00:00:07.584,-0.0543925957754255
1897,00:00:07.588,-0.00530989642720668
1898,00:00:07.592,-0.019306077621877152
1899,00:00:07.596,-0.003435242913838024
1900,00:00:07.6,-0.02866891818121079
1901,00:00:07.604,0.030756734311580675
1902,00:00:07.608,0.022248215973377203
1903,00:00:07.612,0.008462065015919552
1904,00:00:07.616,0.01665233052335679
1905,00:00:07.62,-0.0200114334002138
1906,00:00:07.624,-0.011923889629542871
1907,00:00:07.628,-0.025471622939221502
1908,00:00:07.632,0.04949642578139902
1909,00:00:07.636,0.006681198952719571
1910,00:00:07.64,-0.02318365097744393
1911,00:00:07.644,-0.00525782629847526
1912,00:00:07.648,0.00572976795956493
1913,00:00:07.652,-0.026659906841814573
1914,00:00:07.656,-0.00810227938927705
1915,00:00:07.66,0.018998700543306785
1916,00:00:07.664,0.03637679198436667
1917,00:00:07.668,0.018011531326919752
1918,00:00:07.672,-0.07229310972616072
1919,00:00:07.676,-0.016220075543969835
1920,00:00:07.68,0.09677144279703495
1921,00:00:07.684,-0.011429602745920451
1922,00:00:07.688,-0.06989054521545762
1923,00:00:07.692,0.01801456086104734
1924,00:00:07.696,0.015240076929330798
1925,00:00:07.7,-0.02608044771477581
1926,00:00:07.704,-0.02082942891865972
1927,00:00:07.708,0.05643557757139209
1928,00:00:07.712,0.06305175879970196
1929,00:00:07.716,-0.0976671725511551
1930,00:00:07.72,-0.026422223076224403
1931,00:00:07.724,0.0804788330569863
1932,00:00:07.728,-0.006130581721663399
1933,00:00:07.732,-0.03159407153725623
1934,00:00:07.736,0.03378104034345594
1935,00:00:07.74,-0.03953983634710308
1936,00:00:07.744,0.0010143477702513283
1937,00:00:07.748,-0.02320469962432985
1938,00:00:07.752,-0.00798260699957612
1939,00:00:07.756,0.03446263307705513
1940,00:00:07.76,0.0420961268146129
1941,00:00:07.764,0.01749062823364513
1942,00:00:07.768,-0.05105226929299535
1943,00:00:07.772,-0.027434158837422742
1944,00:00:07.776,0.02936723211314528
1945,00:00:07.78,0.0020100572146475298
1946,00:00:07.784,-0.01489502703770998
1947,00:00:07.788,-0.0138496858999134
1948,00:00:07.792,0.025830392725765712
1949,00:00:07.796,0.02290847292169932
1950,00:00:07.8,-0.01575094973668456
1951,00:00:07.804,-0.046194858383387265
1952,00:00:07.808,0.01533266040496525
1953,00:00:07.812,0.04510153993032874
1954,00:00:07.816,0.015545225469395508
1955,00:00:07.82,-0.028993193060159725
1956,00:00:07.824,-0.033992452081292826
1957,00:00:07.828,-0.01000651880167428
1958,00:00:07.832,0.01737707154825329
1959,00:00:07.836,0.029169978428399176
1960,00:00:07.84,0.03062078729271893
1961,00:00:07.844,-0.01552701951004561
1962,00:00:07.848,-0.08842466678470377
1963,00:00:07.852,0.037800559410243253
1964,00:00:07.856,0.11201652396994177
1965,00:00:07.86,-0.07544700708240275
1966,00:00:07.864,-0.060162726789712975
1967,00:00:07.868,0.00705448258668185
1968,00:00:07.872,0.0058068872895092015
1969,00:00:07.876,0.03441543970257049
1970,00:00:07.88,0.006818398833274841
1971,00:00:07.884,0.02062046551145617
1972,00:00:07.888,-0.02511122357100252
1973,00:00:07.892,0.00687283230945464
1974,00:00:07.896,0.0029118964303052335
1975,00:00:07.9,0.008307124953716969
1976,00:00:07.904,-0.02740551345050335
1977,00:00:07.908,-0.03269985923543576
1978,00:00:07.912,0.014518602518364739
1979,00:00:07.916,0.0279890897218138
1980,00:00:07.92,-0.00176324555650353
1981,00:00:07.924,0.016550207510590588
1982,00:00:07.928,0.00939390953863039
1983,00:00:07.932,-0.02045631664805115
1984,00:00:07.936,-0.02526465701521377
1985,00:00:07.94,0.00770122278481722
1986,00:00:07.944,0.009776134742423889
1987,00:00:07.948,-0.005005655344575649
1988,00:00:07.952,-0.016830711625516442
1989,00:00:07.956,0.031197255360893874
1990,00:00:07.96,0.008743496611714363
1991,00:00:07.964,-0.016770141199231228
1992,00:00:07.968,-0.015526141040027168
1993,00:00:07.972,0.008043864043429492
1994,00:00:07.976,0.010042055044323168
1995,00:00:07.98,0.0020423942478373595
1996,00:00:07.984,-0.00804913300089537
1997,00:00:07.988,0.005230650362136656
1998,00:00:07.992,0.015436022426001731
1999,00:00:07.996,-0.013642492820508757
2000,00:00:08,-0.00555531657300886
2001,00:00:08.004,-0.01637954730540514
2002,00:00:08.008,-0.00489044049754739
2003,00:00:08.012,0.0030693542212247796
2004,00:00:08.016,0.0032099076779559684
2005,00:00:08.02,0.03661650093272328
2006,00:00:08.024,0.05968398321419952
2007,00:00:08.028,-0.040637650527060046
2008,00:00:08.032,-0.06115054106339813
2009,00:00:08.036,-0.060431670397520065
2010,00:00:08.04,0.00938013009726997
2011,00:00:08.044,0.07556628249585629
2012,00:00:08.048,0.07959958026185637
2013,00:00:08.052,-0.039708083495497704
2014,00:00:08.056,-0.043429731857031584
2015,00:00:08.06,-0.0153906885534526
2016,00:00:08.064,-0.011770891025662429
2017,00:00:08.068,0.00454346183687448
2018,00:00:08.072,0.00182925001718111
2019,00:00:08.076,0.013104944417136725
2020,00:00:08.08,0.038958904333412724
2021,00:00:08.084,0.023287240182980947
2022,00:00:08.088,-0.04102467559278012
2023,00:00:08.092,-0.03796988725662233
2024,00:00:08.096,-0.014037296525202688
2025,00:00:08.1,0.024694660678505908
2026,00:00:08.104,0.03552487259730697
2027,00:00:08.108,-0.02021234226413074
2028,00:00:08.112,-0.01300923619419337
2029,00:00:08.116,0.01851678494131189
2030,00:00:08.12,0.028942347969859873
2031,00:00:08.124,-0.025927337148459597
2032,00:00:08.128,-0.0320918587967753
2033,00:00:08.132,-0.012307313736528193
2034,00:00:08.136,0.022253031842410568
2035,00:00:08.14,0.029948371928185225
2036,00:00:08.144,-0.0037250999012030626
2037,00:00:08.148,-0.025074640288949002
2038,00:00:08.152,0.019591958262026327
2039,00:00:08.156,0.0275613963603973
2040,00:00:08.16,-0.05272672401042655
2041,00:00:08.164,-0.017664948478341068
2042,00:00:08.168,0.061229776591062574
2043,00:00:08.172,-0.01562534365803001
2044,00:00:08.176,-0.041641341987997266
2045,00:00:08.18,0.026927862316370038
2046,00:00:08.184,0.016078776679933102
2047,00:00:08.188,-0.01189570687711242
2048,00:00:08.192,-0.01704906928353011
2049,00:00:08.196,0.027157613774761582
2050,00:00:08.2,-0.0032743250485510085
2051,00:00:08.204,-0.029059243155643327
2052,00:00:08.208,0.021894537378102576
2053,00:00:08.212,0.013351827103178952
2054,00:00:08.216,0.010385977104306148
2055,00:00:08.22,-0.003116716165095571
2056,00:00:08.224,-0.038706895080395085
2057,00:00:08.228,-0.004905062611214815
2058,00:00:08.232,-0.0006858144770376432
2059,00:00:08.236,0.023421002202667393
2060,00:00:08.24,0.0006789026665501288
2061,00:00:08.244,0.004030645228340288
2062,00:00:08.248,-0.01194223971106109
2063,00:00:08.252,0.019531376892700788
2064,00:00:08.256,0.00486974301747978
2065,00:00:08.26,0.01394642074592415
2066,00:00:08.264,-0.02997150970622891
2067,00:00:08.268,-0.021492257248610314
2068,00:00:08.272,0.0006896550767124185
2069,00:00:08.276,0.0032547541195526693
2070,00:00:08.28,0.013284892425872427
2071,00:00:08.284,0.016284758370602486
2072,00:00:08.288,-0.0488520917133428
2073,00:00:08.292,0.02728500217199321
2074,00:00:08.296,0.0821299594826996
2075,00:00:08.3,-0.049009331036359086
2076,00:00:08.304,-0.014220723882317508
2077,00:00:08.308,-0.04425851348787552
2078,00:00:08.312,-0.02229486778378489
2079,00:00:08.316,0.03532428329344843
2080,00:00:08.32,0.03499625867698345
2081,00:00:08.324,0.01576779689639807
2082,00:00:08.328,-0.01818823604844513
2083,00:00:08.332,-0.004126828513108161
2084,00:00:08.336,-0.004589557094732289
2085,00:00:08.34,-0.01810801122337585
2086,00:00:08.344,0.0182696030242369
2087,00:00:08.348,-0.015304386615753202
2088,00:00:08.352,0.0044689970090984995
2089,00:00:08.356,0.039490560535341494
2090,00:00:08.36,-0.03512928803684185
2091,00:00:08.364,-0.051997039001435014
2092,00:00:08.368,0.04039516346529125
2093,00:00:08.372,0.054491632618010086
2094,00:00:08.376,-0.00921646272763612
2095,00:00:08.38,-0.03511990886181593
2096,00:00:08.384,-0.015571747906506098
2097,00:00:08.388,0.047460353001952206
2098,00:00:08.392,-0.0020814356394112093
2099,00:00:08.396,-0.03903713414911179
2100,00:00:08.4,-0.02656563464552165
2101,00:00:08.404,0.0033755749464034895
2102,00:00:08.408,0.03179992531659085
2103,00:00:08.412,0.02459412341704597
2104,00:00:08.416,0.01870700251311067
2105,00:00:08.42,-0.00745010143145918
2106,00:00:08.424,-0.061644190922379424
2107,00:00:08.428,0.004713150672614579
2108,00:00:08.432,0.04847222051466816
2109,00:00:08.436,-0.01891560736112296
2110,00:00:08.44,0.0021024855086579893
2111,00:00:08.444,-0.01280734618194397
2112,00:00:08.448,-0.011850197974126793
2113,00:00:08.452,0.01590506965294476
2114,00:00:08.456,-0.016090064716991044
2115,00:00:08.46,0.01942041073925788
2116,00:00:08.464,0.05851097498089081
2117,00:00:08.468,-0.03231176966801287
2118,00:00:08.472,-0.04662155208643526
2119,00:00:08.476,0.005160259548574681
2120,00:00:08.48,-0.0008988103363662902
2121,00:00:08.484,-0.02696270495653155
2122,00:00:08.488,0.0437846599379554
2123,00:00:08.492,0.03625181457027797
2124,00:00:08.496,-0.021134929091203958
2125,00:00:08.5,-0.014129582792520561
2126,00:00:08.504,0.01597608439624302
2127,00:00:08.508,-0.03313800517935302
2128,00:00:08.512,-0.014242422301322239
2129,00:00:08.516,0.015083224046975329
2130,00:00:08.52,0.02701986522879455
2131,00:00:08.524,0.0062566281994805
2132,00:00:08.528,-0.00874112837482248
2133,00:00:08.532,0.006332844030112039
2134,00:00:08.536,-0.013182486873120071
2135,00:00:08.54,-0.038026849972084144
2136,00:00:08.544,0.014764812774956228
2137,00:00:08.548,0.03101122390944515
2138,00:00:08.552,-0.020749157294631036
2139,00:00:08.556,0.0228062612004578
2140,00:00:08.56,0.02422072156332438
2141,00:00:08.564,-0.04177011549472806
2142,00:00:08.568,-0.0493966648355126
2143,00:00:08.572,0.03943878086283807
2144,00:00:08.576,0.09437666833400725
2145,00:00:08.58,-0.0598470810800791
2146,00:00:08.584,-0.08468347787857049
2147,00:00:08.588,0.08013912290334699
2148,00:00:08.592,0.030459492933005084
2149,00:00:08.596,-0.08753900806186721
2150,00:00:08.6,-0.00795137148816139
2151,00:00:08.604,0.0544315036386251
2152,00:00:08.608,0.010045612696558239
2153,00:00:08.612,-0.0058673213934525795
2154,00:00:08.616,-0.01594494646997194
2155,00:00:08.62,0.028656031470745757
2156,00:00:08.624,0.0011969886945735215
2157,00:00:08.628,-0.012210999149829121
2158,00:00:08.632,-0.006847836542874583
2159,00:00:08.636,-0.046268408186733695
2160,00:00:08.64,0.022292176727205508
2161,00:00:08.644,0.02541639003902674
2162,00:00:08.648,-0.0014615522231906635
2163,00:00:08.652,-0.01381575450068339
2164,00:00:08.656,0.012100895517505738
2165,00:00:08.66,0.02290907152928411
2166,00:00:08.664,-0.002584211993962529
2167,00:00:08.668,-0.011290233582258101
2168,00:00:08.672,-0.04147559683769933
2169,00:00:08.676,-0.02353572857100512
2170,00:00:08.68,0.07780689792707565
2171,00:00:08.684,0.03060852864291521
2172,00:00:08.688,-0.04166453750804071
2173,00:00:08.692,-0.01754373055882753
2174,00:00:08.696,-0.028526867041364312
2175,00:00:08.7,-0.02538902033120389
2176,00:00:08.704,0.04626341676339509
2177,00:00:08.708,0.07584933750331399
2178,00:00:08.712,-0.04766006037243645
2179,00:00:08.716,-0.015114631969481662
2180,00:00:08.72,0.0042096669785678985
2181,00:00:08.724,-0.014969621581258252
2182,00:00:08.728,-0.00245178677141669
2183,00:00:08.732,0.00084758689627055
2184,00:00:08.736,-0.00809108698740597
2185,00:00:08.74,0.037964079529047
2186,00:00:08.744,-0.0018323573167435547
2187,00:00:08.748,0.01744416449218989
2188,00:00:08.752,-0.0380631545558571
2189,00:00:08.756,-0.03557421732693912
2190,00:00:08.76,0.01942754199262712
2191,00:00:08.764,0.0337963560596108
2192,00:00:08.768,0.0210033062612638
2193,00:00:08.772,-0.02424661404802467
2194,00:00:08.776,-0.027100803563371332
2195,00:00:08.78,-0.04869130750012121
2196,00:00:08.784,0.06128751137293871
2197,00:00:08.788,0.0996463960036636
2198,00:00:08.792,-0.08652148512192068
2199,00:00:08.796,-0.04691948927938942
2200,00:00:08.8,0.018973446451127564
2201,00:00:08.804,-0.005357347894459999
2202,00:00:08.808,0.0595366796478629
2203,00:00:08.812,0.0033895384403877862
2204,00:00:08.816,-0.0616579912602902
2205,00:00:08.82,-0.0042979705613106906
2206,00:00:08.824,0.031068410287844045
2207,00:00:08.828,0.002108501736074686
2208,00:00:08.832,-0.004554671933874533
2209,00:00:08.836,-0.00909584388136863
2210,00:00:08.84,-0.006457148119807199
2211,00:00:08.844,0.01006329990923408
2212,00:00:08.848,0.02183754835277799
2213,00:00:08.852,0.02441867883317171
2214,00:00:08.856,-0.020916594192385674
2215,00:00:08.86,-0.04299707477912311
2216,00:00:08.864,-0.03124476037919522
2217,00:00:08.868,0.03297237493097787
2218,00:00:08.872,0.02362176659516994
2219,00:00:08.876,0.020767892012372634
2220,00:00:08.88,0.010265832592267541
2221,00:00:08.884,-0.0030807352159172405
2222,00:00:08.888,-0.03906406951136889
2223,00:00:08.892,-0.03583444515243175
2224,00:00:08.896,0.013464264222420776
2225,00:00:08.9,0.03228318528272211
2226,00:00:08.904,0.024663444142788638
2227,00:00:08.908,-0.006139225442893811
2228,00:00:08.912,-0.032437892048619674
2229,00:00:08.916,-0.0006520597962662591
2230,00:00:08.92,0.015068432549014642
2231,00:00:08.924,-0.011187250842340297
2232,00:00:08.928,0.0070627929526381195
2233,00:00:08.932,0.02826589974574743
2234,00:00:08.936,-0.01981627743225548
2235,00:00:08.94,-0.02545432098850142
2236,00:00:08.944,0.022149412194266912
2237,00:00:08.948,-0.00793039053678512
2238,00:00:08.952,-0.014148484449833632
2239,00:00:08.956,0.020837284624576548
2240,00:00:08.96,-0.0068051947746426205
2241,00:00:08.964,-0.00422176602296532
2242,00:00:08.968,0.01582553703337911
2243,00:00:08.972,0.05495759611949326
2244,00:00:08.976,-0.02692010719329121
2245,00:00:08.98,-0.06662081647664306
2246,00:00:08.984,-0.045967573300003985
2247,00:00:08.988,0.047984235920012074
2248,00:00:08.992,0.06379463477060202
2249,00:00:08.996,0.01095418655313554
2250,00:00:09,-0.022398806497221847
2251,00:00:09.004,-0.0556724663474597
2252,00:00:09.008,3.736722283066013e-05
2253,00:00:09.012,0.029674841091036838
2254,00:00:09.016,0.03256078151753174
2255,00:00:09.02,-0.02211273135617379
2256,00:00:09.024,-0.013550990959629411
2257,00:00:09.028,-0.0007498704362660703
2258,00:00:09.032,-0.008546424825908604
2259,00:00:09.036,0.0010929894633590707
2260,00:00:09.04,0.04823815415147686
2261,00:00:09.044,-0.001124897098634396
2262,00:00:09.048,-0.060107066296041
2263,00:00:09.052,0.01826156675815578
2264,00:00:09.056,0.0204837992787361
2265,00:00:09.06,0.0008827927522361495
2266,00:00:09.064,-0.022018061950802803
2267,00:00:09.068,-0.02895339392125602
2268,00:00:09.072,0.014526233542710541
2269,00:00:09.076,0.01591863553039733
2270,00:00:09.08,0.04629612364806234
2271,00:00:09.084,0.02464648592285815
2272,00:00:09.088,-0.0387697108089924
2273,00:00:09.092,-0.02218072442337873
2274,00:00:09.096,-0.03972093691118065
2275,00:00:09.1,-0.011819069273769902
2276,00:00:09.104,0.0034849883959395802
2277,00:00:09.108,0.04433972667902708
2278,00:00:09.112,0.04094963031820956
2279,00:00:09.116,0.00027253385633231033
2280,00:00:09.12,-0.00949121220037338
2281,00:00:09.124,-0.016575338144321033
2282,00:00:09.128,-0.05071201827377082
2283,00:00:09.132,0.0001432024873792891
2284,00:00:09.136,0.02592855086550113
2285,00:00:09.14,0.023654824122786557
2286,00:00:09.144,-0.01949570933356885
2287,00:00:09.148,0.019797848362941337
2288,00:00:09.152,-0.00600673398002982
2289,00:00:09.156,0.02627343265339736
2290,00:00:09.16,-0.00424343242775648
2291,00:00:09.164,-0.06646494888991591
2292,00:00:09.168,-0.009420961956493556
2293,00:00:09.172,0.04444191139191388
2294,00:00:09.176,0.00712120532989503
2295,00:00:09.18,0.03582859411835672
2296,00:00:09.184,0.0070305354893206995
2297,00:00:09.188,-0.062246413435787004
2298,00:00:09.192,-0.07806971855461595
2299,00:00:09.196,0.0426927208900452
2300,00:00:09.2,0.17123049870133442
2301,00:00:09.204,-0.02778918924741451
2302,00:00:09.208,-0.10857568588107824
2303,00:00:09.212,-0.07400507002603261
2304,00:00:09.216,-0.027046299946960013
2305,00:00:09.22,0.0847122990526259
2306,00:00:09.224,0.1382149392738942
2307,00:00:09.228,-0.013018541038036352
2308,00:00:09.232,-0.06400526827201251
2309,00:00:09.236,-0.057883723638951695
2310,00:00:09.24,-0.02491965168155725
2311,00:00:09.244,0.013425471086520625
2312,00:00:09.248,0.0074741244316101005
2313,00:00:09.252,0.03890477353706964
2314,00:00:09.256,0.044424417428672314
2315,00:00:09.26,0.004742656368762262
2316,00:00:09.264,-0.04680053144693373
2317,00:00:09.268,-0.04175202082842586
2318,00:00:09.272,0.008911827870178973
2319,00:00:09.276,0.00601559272035955
2320,00:00:09.28,0.006766946054995049
2321,00:00:09.284,0.00902551366016268
2322,00:00:09.288,0.00955787766724827
2323,00:00:09.292,0.057276560575701276
2324,00:00:09.296,-0.03733651293441656
2325,00:00:09.3,-0.06358898372855035
2326,00:00:09.304,0.019431422930210863
2327,00:00:09.308,0.014299939619377271
2328,00:00:09.312,-0.02019796799868346
2329,00:00:09.316,0.003609466832131169
2330,00:00:09.32,0.04076936491765086
2331,00:00:09.324,-0.01347512332722546
2332,00:00:09.328,0.004506281111389404
2333,00:00:09.332,-0.017557977174874416
2334,00:00:09.336,-0.0062070153653621795
2335,00:00:09.34,0.00831768312491479
2336,00:00:09.344,0.01828999817371365
2337,00:00:09.348,-0.009459738619625568
2338,00:00:09.352,0.0020048317965120103
2339,00:00:09.356,-0.012997891288250681
2340,00:00:09.36,-0.01314226631075144
2341,00:00:09.364,0.00398466410115365
2342,00:00:09.368,0.005327096674591301
2343,00:00:09.372,0.02198677742853765
2344,00:00:09.376,0.023468340747058402
2345,00:00:09.38,-0.03444623190443964
2346,00:00:09.384,-0.0059469677507877515
2347,00:00:09.388,0.00030321581289175035
2348,00:00:09.392,0.012668407864111941
2349,00:00:09.396,-0.012089837167877707
2350,00:00:09.4,-0.05330424779094756
2351,00:00:09.404,0.06825567362830041
2352,00:00:09.408,0.02758695720694964
2353,00:00:09.412,-0.08233358804136509
2354,00:00:09.416,0.06307259877212346
2355,00:00:09.42,0.009053754120031923
2356,00:00:09.424,-0.01829393662046645
2357,00:00:09.428,-0.03339583240449431
2358,00:00:09.432,0.01388294843491171
2359,00:00:09.436,-0.006515801418572662
2360,00:00:09.44,0.00793889025226236
2361,00:00:09.444,0.008234594482928521
2362,00:00:09.448,0.0036227479577064306
2363,00:00:09.452,0.026309312495868608
2364,00:00:09.456,-0.02833820413798093
2365,00:00:09.46,-0.00304048741236329
2366,00:00:09.464,-0.010730665177106899
2367,00:00:09.468,-0.010881390815484336
2368,00:00:09.472,0.00505413534119725
2369,00:00:09.476,0.0369287905850797
2370,00:00:09.48,-0.005114080384373651
2371,00:00:09.484,-0.0066781882196664906
2372,00:00:09.488,-0.02792599634267395
2373,00:00:09.492,0.04586949149961583
2374,00:00:09.496,-0.023145937360823123
2375,00:00:09.5,-0.022090687780291766
2376,00:00:09.504,0.04317418346181512
2377,00:00:09.508,-0.02995203668251632
2378,00:00:09.512,-0.047167409211397116
2379,00:00:09.516,0.020147237926721517
2380,00:00:09.52,0.06580840656533835
2381,00:00:09.524,0.0232175523415208
2382,00:00:09.528,-0.04129232058767225
2383,00:00:09.532,-0.043218356557190446
2384,00:00:09.536,0.00740288780070838
2385,00:00:09.54,0.03033600701019171
2386,00:00:09.544,0.020127216819673777
2387,00:00:09.548,-0.0239183902740478
2388,00:00:09.552,-0.0404694685712457
2389,00:00:09.556,0.00612124614417549
2390,00:00:09.56,0.022118370048701798
2391,00:00:09.564,0.02627559332177037
2392,00:00:09.568,-0.001705306582152859
2393,00:00:09.572,-0.02085644809994851
2394,00:00:09.576,0.0008986589964479199
2395,00:00:09.58,-0.0060559685807675435
2396,00:00:09.584,0.01966419676318765
2397,00:00:09.588,0.02997402520850304
2398,00:00:09.592,-0.035721424035728
2399,00:00:09.596,-0.03746573394164446
2400,00:00:09.6,-0.010847730096429562
2401,00:00:09.604,0.03564434486906979
2402,00:00:09.608,-0.00634605437517162
2403,00:00:09.612,0.02781368372961874
2404,00:00:09.616,0.025327186100184945
2405,00:00:09.62,-0.04014254402136431
2406,00:00:09.624,0.01826995098963376
2407,00:00:09.628,0.0341024305671453
2408,00:00:09.632,-0.05873594933655122
2409,00:00:09.636,-0.08673880062997333
2410,00:00:09.64,0.0357364341616631
2411,00:00:09.644,0.06834073411300783
2412,00:00:09.648,0.032718464732170084
2413,00:00:09.652,0.0012925952905789094
2414,00:00:09.656,-0.03998262714594608
2415,00:00:09.66,-0.0240884425584227
2416,00:00:09.664,0.008545098826289212
2417,00:00:09.668,0.020036368397995795
2418,00:00:09.672,0.00756977475248281
2419,00:00:09.676,-0.00323567725718022
2420,00:00:09.68,-0.057912318035960295
2421,00:00:09.684,0.0276180892251432
2422,00:00:09.688,0.031007967423647673
2423,00:00:09.692,-0.0011001795064657476
2424,00:00:09.696,-0.01974930195137855
2425,00:00:09.7,0.015409510873723773
2426,00:00:09.704,-0.026263768784701803
2427,00:00:09.708,0.004225856624543672
2428,00:00:09.712,0.044700939237373
2429,00:00:09.716,-0.017676535993814482
2430,00:00:09.72,-0.01213573617860671
2431,00:00:09.724,-0.018080665264278657
2432,00:00:09.728,-0.009492642246186737
2433,00:00:09.732,0.03367334452923384
2434,00:00:09.736,-0.0049689086154103
2435,00:00:09.74,-0.01081896387040615
2436,00:00:09.744,0.0394968846812845
2437,00:00:09.748,0.01362979807890952
2438,00:00:09.752,-0.042257575318217194
2439,00:00:09.756,-0.04819808178581296
2440,00:00:09.76,-0.02166313235647978
2441,00:00:09.764,0.03444644948467615
2442,00:00:09.768,0.036795582622289644
2443,00:00:09.772,0.05322006717324255
2444,00:00:09.776,0.002550300298025882
2445,00:00:09.78,-0.031177494674921008
2446,00:00:09.784,-0.05044671101495622
2447,00:00:09.788,-0.01148530608043075
2448,00:00:09.792,-0.0010119164362550016
2449,00:00:09.796,0.006548194214701651
2450,00:00:09.8,0.04199424013495448
2451,00:00:09.804,0.012407651171088269
2452,00:00:09.808,0.0010711385402828403
2453,00:00:09.812,-0.046784256584942285
2454,00:00:09.816,-0.027202080003917224
2455,00:00:09.82,0.10230253357440235
2456,00:00:09.824,0.027786162216216354
2457,00:00:09.828,-0.11341325368266517
2458,00:00:09.832,-0.04418021393939852
2459,00:00:09.836,0.01248622150160368
2460,00:00:09.84,0.03945858572842549
2461,00:00:09.844,0.04649892187444489
2462,00:00:09.848,0.02985817845910794
2463,00:00:09.852,-0.0056288202758878495
2464,00:00:09.856,-0.03948729299008839
2465,00:00:09.86,-0.04912771296221754
2466,00:00:09.864,0.02395583048928528
2467,00:00:09.868,0.005609494750387962
2468,00:00:09.872,0.02131193690001967
2469,00:00:09.876,0.002490893937647341
2470,00:00:09.88,-0.02253621630370616
2471,00:00:09.884,-0.00782897626049816
2472,00:00:09.888,0.012157971650594884
2473,00:00:09.892,-0.009774315447430085
2474,00:00:09.896,0.022928579710423926
2475,00:00:09.9,0.05683078337460759
2476,00:00:09.904,-0.0513101136311889
2477,00:00:09.908,-0.04524157755076885
2478,00:00:09.912,-0.029375260695815003
2479,00:00:09.916,0.00458346842788161
2480,00:00:09.92,0.08881970297079532
2481,00:00:09.924,0.07551372423768049
2482,00:00:09.928,-0.06787545140832661
2483,00:00:09.932,-0.1054343022406101
2484,00:00:09.936,0.0124761210754513
2485,00:00:09.94,0.0404475694522262
2486,00:00:09.944,0.01330126170068981
2487,00:00:09.948,0.01791156642138957
2488,00:00:09.952,0.002757000271230961
2489,00:00:09.956,-0.020184784625598657
2490,00:00:09.96,-0.02170633128844206
2491,00:00:09.964,0.009117727575357979
2492,00:00:09.968,0.009286212560255105
2493,00:00:09.972,0.02734279492869969
2494,00:00:09.976,0.01153397327288986
2495,00:00:09.98,-0.043501742184162126
2496,00:00:09.984,-0.05904387973714618
2497,00:00:09.988,0.031024781521409722
2498,00:00:09.992,0.07031592400744555
2499,00:00:09.996,-0.0033948896452784495
2500,00:00:10,-0.01722820928262076
2501,00:00:10.004,-0.04452985129319133
2502,00:00:10.008,0.01785893540363758
2503,00:00:10.012,0.02253240509890017
2504,00:00:10.016,-0.0006283670663833306
2505,00:00:10.02,-0.031252854503691155
2506,00:00:10.024,0.00431220093742014
2507,00:00:10.028,0.09614789811894289
2508,00:00:10.032,-0.055396700277924565
2509,00:00:10.036,-0.09832429885864252
2510,00:00:10.04,0.004344898276031011
2511,00:00:10.044,0.08416822250001135
2512,00:00:10.048,0.026268469460774165
2513,00:00:10.052,-0.01843963912688193
2514,00:00:10.056,-0.00426186667755246
2515,00:00:10.06,-0.03172291349619631
2516,00:00:10.064,-0.0272756346967071
2517,00:00:10.068,0.020331042353063798
2518,00:00:10.072,0.01987887267023329
2519,00:00:10.076,0.0193225855473429
2520,00:00:10.08,0.01623982237651945
2521,00:00:10.084,0.0043269889429212016
2522,00:00:10.088,-0.07081919396296144
2523,00:00:10.092,-0.01002287492156024
2524,00:00:10.096,0.03227047325344756
2525,00:00:10.1,0.014050651807337992
2526,00:00:10.104,-0.0021856508683413206
2527,00:00:10.108,0.01904774550348523
2528,00:00:10.112,-0.0021072991658002086
2529,00:00:10.116,-0.02427676832303409
2530,00:00:10.12,-0.00989789055893202
2531,00:00:10.124,0.005750298034399779
2532,00:00:10.128,0.0009121526964008782
2533,00:00:10.132,-0.00911853346042335
2534,00:00:10.136,-0.0041768242372199876
2535,00:00:10.14,0.05178648344008254
2536,00:00:10.144,0.03178909409325568
2537,00:00:10.148,-0.01779990679642648
2538,00:00:10.152,-0.11828929465264078
2539,00:00:10.156,0.0036575008998624946
2540,00:00:10.16,0.0432555619627237
2541,00:00:10.164,0.07468897104263307
2542,00:00:10.168,0.017035149852745242
2543,00:00:10.172,-0.031939062057062984
2544,00:00:10.176,-0.05858565738890323
2545,00:00:10.18,-0.034854192286729896
2546,00:00:10.184,0.01757658994756639
2547,00:00:10.188,0.029502829536795578
2548,00:00:10.192,0.047944245161488735
2549,00:00:10.196,0.00824283342808485
2550,00:00:10.2,-0.00498158848495219
2551,00:00:10.204,-0.056106433534296236
2552,00:00:10.208,-0.0018279298674314694
2553,00:00:10.212,0.01780463033355772
2554,00:00:10.216,0.002820971421897387
2555,00:00:10.22,-0.02520752325654031
2556,00:00:10.224,0.017538788728415883
2557,00:00:10.228,0.04485190100967886
2558,00:00:10.232,-0.0414785398170352
2559,00:00:10.236,-0.03221017960458993
2560,00:00:10.24,0.0431998188432772
2561,00:00:10.244,0.007740726112388052
2562,00:00:10.248,-0.01702439971268178
2563,00:00:10.252,0.02627731300890446
2564,00:00:10.256,-0.022390872123651193
2565,00:00:10.26,-0.013116531074047073
2566,00:00:10.264,-0.00226626079529524
2567,00:00:10.268,0.042127294465899495
2568,00:00:10.272,-0.05592440767213705
2569,00:00:10.276,-0.0157494489103556
2570,00:00:10.28,0.023044767905957962
2571,00:00:10.284,0.0352101735770702
2572,00:00:10.288,0.03302510781213642
2573,00:00:10.292,-0.002005442045629029
2574,00:00:10.296,-0.057024053880013616
2575,00:00:10.3,-0.02340978931169958
2576,00:00:10.304,-0.0007388128433376601
2577,00:00:10.308,0.049143111333251104
2578,00:00:10.312,-0.00011686934158208068
2579,00:00:10.316,-0.00936629530042404
2580,00:00:10.32,-0.040619421750307055
2581,00:00:10.324,0.01674198592081666
2582,00:00:10.328,0.0934901824221019
2583,00:00:10.332,-0.0566994296386839
2584,00:00:10.336,-0.04362330399453639
2585,00:00:10.34,0.06525851367041467
2586,00:00:10.344,-0.03362652845680711
2587,00:00:10.348,-0.06835863110609351
2588,00:00:10.352,0.01607663719914853
2589,00:00:10.356,0.0222160117700696
2590,00:00:10.36,0.0249607199802995
2591,00:00:10.364,0.050474819901864997
2592,00:00:10.368,-0.02280009081005121
2593,00:00:10.372,-0.03172823414206508
2594,00:00:10.376,0.011131823994219352
2595,00:00:10.38,-0.020051145576871973
2596,00:00:10.384,0.018315011635422727
2597,00:00:10.388,0.01053041382692754
2598,00:00:10.392,-0.031392326112836606
2599,00:00:10.396,-0.0023787259124219513
2600,00:00:10.4,-0.00350034493021667
2601,00:00:10.404,-0.0017531135817989204
2602,00:00:10.408,0.03003773139789704
2603,00:00:10.412,0.05195352621376513
2604,00:00:10.416,-0.03284370340406891
2605,00:00:10.42,-0.07695716806483686
2606,00:00:10.424,0.04541229596361518
2607,00:00:10.428,0.07767462986521423
2608,00:00:10.432,-0.0987403411418202
2609,00:00:10.436,-0.025650122130173283
2610,00:00:10.44,0.02012617234140634
2611,00:00:10.444,0.021739531541243202
2612,00:00:10.448,0.0336080467095599
2613,00:00:10.452,0.01056410965975374
2614,00:00:10.456,-0.027975481236353534
2615,00:00:10.46,-0.02011558227241043
2616,00:00:10.464,0.02246355824172494
2617,00:00:10.468,-0.012869692640379099
2618,00:00:10.472,-0.011289944639429431
2619,00:00:10.476,0.020802173996344212
2620,00:00:10.48,0.021316029597073842
2621,00:00:10.484,-0.04330411413684489
2622,00:00:10.488,0.01019486878067256
2623,00:00:10.492,0.01701763208257039
2624,00:00:10.496,-0.030986617784947112
2625,00:00:10.5,0.0018947259522974803
2626,00:00:10.504,0.02518172725103798
2627,00:00:10.508,-0.0033029783517121896
2628,00:00:10.512,0.004312198492698378
2629,00:00:10.516,0.005309236934408592
2630,00:00:10.52,-0.0029670591466129017
2631,00:00:10.524,0.014937927015125741
2632,00:00:10.528,-0.037154070567339686
2633,00:00:10.532,-0.00907768588513132
2634,00:00:10.536,-0.014889973215758823
2635,00:00:10.54,0.02368147624656561
2636,00:00:10.544,0.061268212273716906
2637,00:00:10.548,-0.03651042189449073
2638,00:00:10.552,-0.04882117174565791
2639,00:00:10.556,0.043196340673603145
2640,00:00:10.56,0.006840552203357221
2641,00:00:10.564,0.006926604663021868
2642,00:00:10.568,-0.051593156531453195
2643,00:00:10.572,0.011997848749160801
2644,00:00:10.576,0.028632881469093277
2645,00:00:10.58,0.007728012860752641
2646,00:00:10.584,-0.01864841021597385
2647,00:00:10.588,0.005755012854933731
2648,00:00:10.592,-0.01386217400431634
2649,00:00:10.596,0.0035182357532903465
2650,00:00:10.6,0.0106355615425855
2651,00:00:10.604,-0.01913173147477209
2652,00:00:10.608,-0.01268397952662783
2653,00:00:10.612,0.0440982975997031
2654,00:00:10.616,0.07448839925928043
2655,00:00:10.62,-0.08134772814810276
2656,00:00:10.624,-0.07460190658457579
2657,00:00:10.628,-0.00033199694007639974
2658,00:00:10.632,0.08402006514370443
2659,00:00:10.636,0.027496498543769173
2660,00:00:10.64,-0.055646922904998064
2661,00:00:10.644,0.011171177960932293
2662,00:00:10.648,0.023731120862066794
2663,00:00:10.652,-0.025352688506245606
2664,00:00:10.656,-0.06088954117149112
2665,00:00:10.66,0.015869396738708012
2666,00:00:10.664,0.0656443365151062
2667,00:00:10.668,0.04017575085163113
2668,00:00:10.672,-0.03892996720969675
2669,00:00:10.676,-0.03388949390500786
2670,00:00:10.68,0.0001632515341043611
2671,00:00:10.684,0.00416727457195521
2672,00:00:10.688,0.0013758374843746493
2673,00:00:10.692,-0.004418200813233851
2674,00:00:10.696,-0.00211773370392621
2675,00:00:10.7,0.00847874558530748
2676,00:00:10.704,-0.007279277080669962
2677,00:00:10.708,-0.012920056120492511
2678,00:00:10.712,0.10387081129010771
2679,00:00:10.716,0.005568101070821318
2680,00:00:10.72,-0.10394575912505391
2681,00:00:10.724,-0.059247805736959
2682,00:00:10.728,0.05661027226597072
2683,00:00:10.732,0.02054641116410493
2684,00:00:10.736,-0.01181583455763759
2685,00:00:10.74,0.0004292544908821583
2686,00:00:10.744,-0.0019491077400743979
2687,00:00:10.748,0.028933277353644368
2688,00:00:10.752,0.01492968329694125
2689,00:00:10.756,-0.01598547445610167
2690,00:00:10.76,-0.01451304787769914
2691,00:00:10.764,-0.004869690164923669
2692,00:00:10.768,0.0022812491515651406
2693,00:00:10.772,-0.001836126204580059
2694,00:00:10.776,0.03788110474124549
2695,00:00:10.78,-0.032840276253409656
2696,00:00:10.784,-0.022532116621732698
2697,00:00:10.788,-0.0035313854459673097
2698,00:00:10.792,-0.00472122081555428
2699,00:00:10.796,0.029194691451266415
2700,00:00:10.8,0.054171230178326424
2701,00:00:10.804,-0.03944544726982714
2702,00:00:10.808,-0.01387805002741517
2703,00:00:10.812,-0.002343281870707821
2704,00:00:10.816,0.022203246131539303
2705,00:00:10.82,-0.024368439568206692
2706,00:00:10.824,-0.003633057698607396
2707,00:00:10.828,-0.0050768367946148005
2708,00:00:10.832,-0.02154708001762626
2709,00:00:10.836,0.013322659186087531
2710,00:00:10.84,0.030268778558820465
2711,00:00:10.844,0.010895255953073491
2712,00:00:10.848,-0.005638841132167734
2713,00:00:10.852,0.013145448174327673
2714,00:00:10.856,-0.02249750401824713
2715,00:00:10.86,-0.009716663509607398
2716,00:00:10.864,0.013878048397600679
2717,00:00:10.868,-0.024904712568968573
2718,00:00:10.872,-0.01479034358635542
2719,00:00:10.876,0.04639294045045971
2720,00:00:10.88,-0.0007554241456091395
2721,00:00:10.884,-0.018482491199392798
2722,00:00:10.888,-0.02313017682172355
2723,00:00:10.892,0.0007187197916209647
2724,00:00:10.896,0.0878329267725349
2725,00:00:10.9,-0.0031337798573076395
2726,00:00:10.904,-0.0773977488279342
2727,00:00:10.908,-0.038472893182188314
2728,00:00:10.912,0.02689091244246815
2729,00:00:10.916,0.02843155548907819
2730,00:00:10.92,0.051074218608846395
2731,00:00:10.924,-0.017123871482908733
2732,00:00:10.928,-0.0689236521720886
2733,00:00:10.932,0.005453901365399318
2734,00:00:10.936,0.02042879583314062
2735,00:00:10.94,0.04655254213139409
2736,00:00:10.944,0.004650842398405081
2737,00:00:10.948,-0.03603755729272959
2738,00:00:10.952,-0.021665372420102393
2739,00:00:10.956,-0.015785108553245688
2740,00:00:10.96,0.026502121239900624
2741,00:00:10.964,0.0068040192127227775
2742,00:00:10.968,0.028280400671064847
2743,00:00:10.972,-0.006515277782455109
2744,00:00:10.976,-0.05114370537921792
2745,00:00:10.98,0.028106436599046002
2746,00:00:10.984,0.01632445398718122
2747,00:00:10.988,-0.009743108879774812
2748,00:00:10.992,-0.01714608585461977
2749,00:00:10.996,-0.008105404209345551
2750,00:00:11,0.011430672049755234
2751,00:00:11.004,0.032437486574053716
2752,00:00:11.008,-0.008510967367328709
2753,00:00:11.012,-0.02149842306971546
2754,00:00:11.016,-0.01071403571404512
2755,00:00:11.02,0.035779120691586244
2756,00:00:11.024,-0.009860526770353262
2757,00:00:11.028,-0.02107137185521422
2758,00:00:11.032,-0.0018230075947940428
2759,00:00:11.036,-0.01886757835745815
2760,00:00:11.04,0.01386986967554546
2761,00:00:11.044,0.09149445616640149
2762,00:00:11.048,-0.04569877753965561
2763,00:00:11.052,-0.0225254772230982
2764,00:00:11.056,0.05174275767058134
2765,00:00:11.06,-0.05185983888804916
2766,00:00:11.064,-0.08651312161237
2767,00:00:11.068,-0.005034086294472219
2768,00:00:11.072,0.04351426800712942
2769,00:00:11.076,0.08943822816945611
2770,00:00:11.08,0.02748290344607086
2771,00:00:11.084,-0.03635597275570031
2772,00:00:11.088,-0.0504600554704667
2773,00:00:11.092,-0.00799375696806242
2774,00:00:11.096,0.015435979235917309
2775,00:00:11.1,0.0012682841625065513
2776,00:00:11.104,0.009846419910900309
2777,00:00:11.108,0.008130223257467147
2778,00:00:11.112,-0.023279153625480827
2779,00:00:11.116,0.01545471511781216
2780,00:00:11.12,-0.01588847779203211
2781,00:00:11.124,0.023493711836636066
2782,00:00:11.128,-0.01954674161970615
2783,00:00:11.132,-0.004366602748632443
2784,00:00:11.136,0.020545871462672942
2785,00:00:11.14,0.019285907183075275
2786,00:00:11.144,-0.02408797457974286
2787,00:00:11.148,-0.03915036842226982
2788,00:00:11.152,-0.0089155009482056
2789,00:00:11.156,0.05529072578065101
2790,00:00:11.16,0.06277698278427124
2791,00:00:11.164,-0.043562852311879424
2792,00:00:11.168,-0.048327889293432194
2793,00:00:11.172,-0.012210919056087729
2794,00:00:11.176,0.0008871904574335003
2795,00:00:11.18,-0.005694296211004261
2796,00:00:11.184,0.027102738153189386
2797,00:00:11.188,0.030942863551899843
2798,00:00:11.192,-0.005636959569528699
2799,00:00:11.196,0.0198442135006189
2800,00:00:11.2,-0.04872235516086219
2801,00:00:11.204,-0.014062440546695146
2802,00:00:11.208,0.0336085129529238
2803,00:00:11.212,0.0041893720335792715
2804,00:00:11.216,-0.014314034720882773
2805,00:00:11.22,-0.021343006286770102
2806,00:00:11.224,0.0209366390481592
2807,00:00:11.228,0.028928619663929532
2808,00:00:11.232,-0.01072454404493331
2809,00:00:11.236,-0.035298497183248415
2810,00:00:11.24,-0.02022031415253877
2811,00:00:11.244,0.046680685598403174
2812,00:00:11.248,-0.0012853322550654116
2813,00:00:11.252,0.0060830391012132185
2814,00:00:11.256,0.0374089982360601
2815,00:00:11.26,-0.03306221030652519
2816,00:00:11.264,-0.03828486194834115
2817,00:00:11.268,-0.018120657186955304
2818,00:00:11.272,0.0005232321564108116
2819,00:00:11.276,0.012995756696909631
2820,00:00:11.28,0.03935339418239893
2821,00:00:11.284,0.0656987829133867
2822,00:00:11.288,-0.07103278720751402
2823,00:00:11.292,-0.027772124856710437
2824,00:00:11.296,-0.014763535931706498
2825,00:00:11.3,0.04178557469276713
2826,00:00:11.304,0.019452836364507654
2827,00:00:11.308,-0.018022368371021037
2828,00:00:11.312,-0.021499871043488408
2829,00:00:11.316,0.00925033929524943
2830,00:00:11.32,0.00867103878408668
2831,00:00:11.324,0.00910898708389141
2832,00:00:11.328,-0.02668225695379085
2833,00:00:11.332,-0.0201989704510197
2834,00:00:11.336,0.015828737989068
2835,00:00:11.34,0.028866921551525565
2836,00:00:11.344,0.02391411009011793
2837,00:00:11.348,-0.00366674549877643
2838,00:00:11.352,-0.02482597646303471
2839,00:00:11.356,-0.04579614836711696
2840,00:00:11.36,0.028928692918270868
2841,00:00:11.364,0.012569965329021156
2842,00:00:11.368,-0.00820133741945033
2843,00:00:11.372,0.01777559379115701
2844,00:00:11.376,-0.02133719995617868
2845,00:00:11.38,0.025498211849480906
2846,00:00:11.384,-0.0180295426398516
2847,00:00:11.388,-0.032353135291486985
2848,00:00:11.392,0.008377095218747854
2849,00:00:11.396,0.04682780522853135
2850,00:00:11.4,0.03679498611018062
2851,00:00:11.404,-0.0478042010217904
2852,00:00:11.408,-0.028440302703529534
2853,00:00:11.412,0.01089607505127791
2854,00:00:11.416,-0.017367421649396447
2855,00:00:11.42,0.005202341968470156
2856,00:00:11.424,0.034156288485974046
2857,00:00:11.428,-0.02936787810176609
2858,00:00:11.432,0.022369153099134613
2859,00:00:11.436,0.03461608604993673
2860,00:00:11.44,-0.05588994178106073
2861,00:00:11.444,0.02787403482943775
2862,00:00:11.448,0.0015051168156787597
2863,00:00:11.452,-0.025967204011976698
2864,00:00:11.456,0.004342889413237561
2865,00:00:11.46,-0.01634734636172652
2866,00:00:11.464,-0.01218175230314958
2867,00:00:11.468,0.009896918199956427
2868,00:00:11.472,0.04180096555501224
2869,00:00:11.476,0.020578207448124868
2870,00:00:11.48,-0.013033597264438913
2871,00:00:11.484,-0.029043531045317622
2872,00:00:11.488,0.01039756205864254
2873,00:00:11.492,-0.004542443668469791
2874,00:00:11.496,-0.032857113052159506
2875,00:00:11.5,0.015295203542336799
2876,00:00:11.504,0.04333165660500524
2877,00:00:11.508,-0.026794108562171445
2878,00:00:11.512,-0.020836660754866947
2879,00:00:11.516,0.0053451571147888404
2880,00:00:11.52,0.006048689596354934
2881,00:00:11.524,0.06449838727712631
2882,00:00:11.528,-0.013249206691398261
2883,00:00:11.532,-0.0588717386126519
2884,00:00:11.536,-0.02576295146718619
2885,00:00:11.54,-0.017173756728880073
2886,00:00:11.544,0.06758969946531586
2887,00:00:11.548,0.02897673335974105
2888,00:00:11.552,-0.031583522446453495
2889,00:00:11.556,-0.017250961624085872
2890,00:00:11.56,0.08227275777608156
2891,00:00:11.564,-0.04410933004692199
2892,00:00:11.568,-0.08515862841159098
2893,00:00:11.572,-0.012023002374917258
2894,00:00:11.576,0.05365697789238773
2895,00:00:11.58,0.040094603318721056
2896,00:00:11.584,0.024551221693400294
2897,00:00:11.588,-0.0028220801614224685
2898,00:00:11.592,-0.06405683560296893
2899,00:00:11.596,0.002082038445223633
2900,00:00:11.6,0.01093799166847018
2901,00:00:11.604,-0.0021174391731620303
2902,00:00:11.608,-0.00403977150563151
2903,00:00:11.612,-0.006469918414950371
2904,00:00:11.616,0.01599971088580787
2905,00:00:11.62,0.012746961787343069
2906,00:00:11.624,0.027400670573115363
2907,00:00:11.628,-0.01625239709392192
2908,00:00:11.632,-0.026071893051266698
2909,00:00:11.636,-0.0223932736553252
2910,00:00:11.64,-0.012100314721465152
2911,00:00:11.644,0.04386498103849591
2912,00:00:11.648,0.03162581287324428
2913,00:00:11.652,0.00860994961112738
2914,00:00:11.656,-0.04828767571598289
2915,00:00:11.66,-0.02522427216172221
2916,00:00:11.664,-0.012055958271957929
2917,00:00:11.668,0.009831503964960497
2918,00:00:11.672,0.03934427071362739
2919,00:00:11.676,0.010706411732826356
2920,00:00:11.68,0.010641843080520701
2921,00:00:11.684,-0.003718562424182865
2922,00:00:11.688,-0.01571771781891583
2923,00:00:11.692,0.016857738082762842
2924,00:00:11.696,-0.03839256498031313
2925,00:00:11.7,-0.05922658974304801
2926,00:00:11.704,0.012394252116791897
2927,00:00:11.708,0.08352928038220853
2928,00:00:11.712,0.02810807246714825
2929,00:00:11.716,-0.07876984961330895
2930,00:00:11.72,0.018741936888545738
2931,00:00:11.724,0.08859699126333002
2932,00:00:11.728,-0.0678271400975063
2933,00:00:11.732,-0.054968079319223706
2934,00:00:11.736,0.014831420499831459
2935,00:00:11.74,0.00876100955065339
2936,00:00:11.744,0.0001433868892491228
2937,00:00:11.748,0.03413744585122912
2938,00:00:11.752,0.018518780590966368
2939,00:00:11.756,-0.030133108026348093
2940,00:00:11.76,-0.02554913470521577
2941,00:00:11.764,-0.02835699752904472
2942,00:00:11.768,0.0376818626536988
2943,00:00:11.772,0.03866405657026909
2944,00:00:11.776,-0.0027986341738142047
2945,00:00:11.78,0.0040171872824430205
2946,00:00:11.784,-0.013220894572441473
2947,00:00:11.788,-0.012700568011496213
2948,00:00:11.792,-0.025139132747426657
2949,00:00:11.796,-0.011991553008556411
2950,00:00:11.8,0.001086281903553751
2951,00:00:11.804,0.020844022161327344
2952,00:00:11.808,0.011790181102696804
2953,00:00:11.812,0.0587662544567138
2954,00:00:11.816,-0.00349178677424785
2955,00:00:11.82,-0.04455787502229214
2956,00:00:11.824,-0.05079138278961186
2957,00:00:11.828,-0.01583900535479188
2958,00:00:11.832,0.02669823379255831
2959,00:00:11.836,0.004319627303630161
2960,00:00:11.84,0.11173033341765405
2961,00:00:11.844,0.00517279375344511
2962,00:00:11.848,-0.14965604990720702
2963,00:00:11.852,0.005334723740816099
2964,00:00:11.856,0.047560883220285226
2965,00:00:11.86,-0.003194851800799401
2966,00:00:11.864,0.021073963667731736
2967,00:00:11.868,-0.016150127019500353
2968,00:00:11.872,0.00029722438193856976
2969,00:00:11.876,0.02235436078626666
2970,00:00:11.88,0.006998017895966791
2971,00:00:11.884,-0.03485691954847421
2972,00:00:11.888,-0.03154952172189956
2973,00:00:11.892,0.04569636285305025
2974,00:00:11.896,0.01350037497468295
2975,00:00:11.9,-0.0205583795905113
2976,00:00:11.904,-0.03121891338378188
2977,00:00:11.908,0.044886330957524534
2978,00:00:11.912,0.03609416866675017
2979,00:00:11.916,-0.051213474711403216
2980,00:00:11.92,-0.02836236357688899
2981,00:00:11.924,0.0440273217536742
2982,00:00:11.928,-0.01656953012570739
2983,00:00:11.932,-0.00800684629939499
2984,00:00:11.936,0.043996741529554136
2985,00:00:11.94,-0.04466675351432055
2986,00:00:11.944,-0.0541396976332181
2987,00:00:11.948,0.06081654131412509
2988,00:00:11.952,0.06937955133616927
2989,00:00:11.956,-0.052040790207684096
2990,00:00:11.96,-0.030211757868528408
2991,00:00:11.964,0.0200417297892272
2992,00:00:11.968,-0.007128064171411031
2993,00:00:11.972,0.014731415605638145
2994,00:00:11.976,0.006917824619449648
2995,00:00:11.98,-0.008723386912606691
2996,00:00:11.984,-0.02229657617863268
2997,00:00:11.988,-0.0240568676963448
2998,00:00:11.992,0.011036217823857485
2999,00:00:11.996,0.04854131815955048
3000,00:00:12,0.01962704001925882
3001,00:00:12.004,-0.01871375244809311
3002,00:00:12.008,-0.029651428456418192
3003,00:00:12.012,-0.02768498833756897
3004,00:00:12.016,0.034645172505406704
3005,00:00:12.02,0.03479563491418961
3006,00:00:12.024,-0.028973124688491184
3007,00:00:12.028,0.01318362168967726
3008,00:00:12.032,-0.03189475066028532
3009,00:00:12.036,0.01390803768299523
3010,00:00:12.04,-0.03978999191895125
3011,00:00:12.044,0.0031884696509223444
3012,00:00:12.048,0.05753398058004679
3013,00:00:12.052,-0.00816762353497321
3014,00:00:12.056,-0.007020864868536642
3015,00:00:12.06,0.012046060524880881
3016,00:00:12.064,0.004957208759151391
3017,00:00:12.068,-0.033056070096790846
3018,00:00:12.072,-0.0062945545651018585
3019,00:00:12.076,-0.005765110254287709
3020,00:00:12.08,0.029312897473573688
3021,00:00:12.084,0.009892605943605309
3022,00:00:12.088,-0.014572513871826284
3023,00:00:12.092,0.0005337733891792578
3024,00:00:12.096,-0.00555078475736082
3025,00:00:12.1,0.02476063976064329
3026,00:00:12.104,0.003081873874179998
3027,00:00:12.108,-0.047855903743766214
3028,00:00:12.112,-0.019250121898949094
3029,00:00:12.116,0.025025770533829924
3030,00:00:12.12,0.04471550823654974
3031,00:00:12.124,-0.023455067072063705
3032,00:00:12.128,-0.023178621311672063
3033,00:00:12.132,0.00873001338914041
3034,00:00:12.136,0.0342564368620515
3035,00:00:12.14,-0.01700145890936259
3036,00:00:12.144,0.013677384180482508
3037,00:00:12.148,0.004028348717838509
3038,00:00:12.152,-0.05551050137728445
3039,00:00:12.156,0.01843629078939564
3040,00:00:12.16,0.0064284473701263795
3041,00:00:12.164,0.0037489482201635907
3042,00:00:12.168,0.00719555816613133
3043,00:00:12.172,-0.00824526150245219
3044,00:00:12.176,-0.0052218264900148
3045,00:00:12.18,-0.01943484949879343
3046,00:00:12.184,0.0475152800790966
3047,00:00:12.188,0.040866329334676224
3048,00:00:12.192,-0.022473131306469468
3049,00:00:12.196,-0.0753364842385054
3050,00:00:12.2,-0.018708840128965697
3051,00:00:12.204,0.017267762799747288
3052,00:00:12.208,0.0989488540217281
3053,00:00:12.212,-0.012352442776318636
3054,00:00:12.216,-0.06079655094072223
3055,00:00:12.22,-0.03909176820889114
3056,00:00:12.224,0.00920413853600626
3057,00:00:12.228,0.059439755044877515
3058,00:00:12.232,0.01994941942393784
3059,00:00:12.236,-0.029276545392349324
3060,00:00:12.24,-0.003673511979286558
3061,00:00:12.244,0.016814440605230675
3062,00:00:12.248,-0.01546235848218204
3063,00:00:12.252,-0.02222094428725543
3064,00:00:12.256,0.00698000378906726
3065,00:00:12.26,0.001471696654334657
3066,00:00:12.264,-0.0023579378612339505
3067,00:00:12.268,0.0070743061369285196
3068,00:00:12.272,0.01699039433151487
3069,00:00:12.276,-0.011401757597923279
3070,00:00:12.28,-0.0031350939534605
3071,00:00:12.284,0.029015879961661988
3072,00:00:12.288,-0.020676422165706712
3073,00:00:12.292,0.027800651500001577
3074,00:00:12.296,-0.014705642359331219
3075,00:00:12.3,-0.0826426893472672
3076,00:00:12.304,0.006821601025876603
3077,00:00:12.308,0.02231800789013505
3078,00:00:12.312,0.061759988544508856
3079,00:00:12.316,0.01236527063883839
3080,00:00:12.32,-0.03033988038077953
3081,00:00:12.324,-0.027082923334091902
3082,00:00:12.328,0.012324419047217865
3083,00:00:12.332,0.0622134980512783
3084,00:00:12.336,-0.02454882627353075
3085,00:00:12.34,-0.07278057327494028
3086,00:00:12.344,-0.00284396437928081
3087,00:00:12.348,0.00948604010045524
3088,00:00:12.352,0.041531823342666085
3089,00:00:12.356,0.027217953465878908
3090,00:00:12.36,-0.00879128649830818
3091,00:00:12.364,-0.03896641277242459
3092,00:00:12.368,-0.012511206703493387
3093,00:00:12.372,0.05643496126867835
3094,00:00:12.376,-0.0297644445672631
3095,00:00:12.38,-0.026339775533415394
3096,00:00:12.384,0.032139467075467096
3097,00:00:12.388,0.002670837740879508
3098,00:00:12.392,-0.012291134335100639
3099,00:00:12.396,-0.02431414375314489
3100,00:00:12.4,0.014281667070463314
3101,00:00:12.404,0.024627347476780394
3102,00:00:12.408,0.00466113223228605
3103,00:00:12.412,-0.01105530862696465
3104,00:00:12.416,-0.00553852086886761
3105,00:00:12.42,-0.015488820645259697
3106,00:00:12.424,0.00034634768962856985
3107,00:00:12.428,0.01805563783273099
3108,00:00:12.432,0.03326054452918469
3109,00:00:12.436,-0.029238268791232223
3110,00:00:12.44,-0.04479507682844993
3111,00:00:12.444,0.03763392008841043
3112,00:00:12.448,0.022318763658404323
3113,00:00:12.452,-0.04234063951298595
3114,00:00:12.456,-0.03436996624805037
3115,00:00:12.46,0.06782949576154354
3116,00:00:12.464,0.10390235553495589
3117,00:00:12.468,-0.0932463770732283
3118,00:00:12.472,-0.09228557441383613
3119,00:00:12.476,-0.025887348689138903
3120,00:00:12.48,0.0821956084109843
3121,00:00:12.484,0.06063295993953951
3122,00:00:12.488,0.012453432354959614
3123,00:00:12.492,-0.0391991743817925
3124,00:00:12.496,-0.04793185205198828
3125,00:00:12.5,-0.0013934319722466205
3126,00:00:12.504,0.007447861833497879
3127,00:00:12.508,-0.014519460964947937
3128,00:00:12.512,0.017808526783483103
3129,00:00:12.516,0.06092850863933559
3130,00:00:12.52,-0.009593720198608973
3131,00:00:12.524,-0.01638551475480194
3132,00:00:12.528,-0.014157941404846514
