,Elapsed Time,EMG
0,00:00:00,4.71409666538238
1,00:00:00.004,-4.483881354331969
2,00:00:00.008,-3.73520636558533
3,00:00:00.012,-0.40182148665189804
4,00:00:00.016,1.925161123275756
5,00:00:00.02,2.338970482349396
6,00:00:00.024,1.4207789599895482
7,00:00:00.028,0.1658209264278412
8,00:00:00.032,-0.673520937561989
9,00:00:00.036,-0.924957871437073
10,00:00:00.04,-0.6783296912908561
11,00:00:00.044,-0.2534201219677923
12,00:00:00.048,0.08482014574110511
13,00:00:00.052,0.3000382706522945
14,00:00:00.056,0.2539273798465729
15,00:00:00.06,0.1191691048443318
16,00:00:00.064,0.006245693191885951
17,00:00:00.068,-0.0890322094783186
18,00:00:00.072,-0.09463120251894
19,00:00:00.076,-0.0531239109113813
20,00:00:00.08,0.0136688657803461
21,00:00:00.084,0.01577973749954257
22,00:00:00.088,0.013331102682968811
23,00:00:00.092,0.030465393094345917
24,00:00:00.096,0.013110637431964318
25,00:00:00.1,-0.03335674130357799
26,00:00:00.104,0.01263832766562705
27,00:00:00.108,0.00846386095508929
28,00:00:00.112,-0.02546270890161398
29,00:00:00.116,0.01711138599785048
30,00:00:00.12,-0.00857990421354772
31,00:00:00.124,-0.00993049470707774
32,00:00:00.128,-0.00025232788175344814
33,00:00:00.132,-0.0036482033319771706
34,00:00:00.136,0.015412483131513003
35,00:00:00.14,0.00411202618852257
36,00:00:00.144,0.02910978917498142
37,00:00:00.148,0.021003242116421475
38,00:00:00.152,-0.05091877328231925
39,00:00:00.156,-0.056400867179036196
40,00:00:00.16,-0.004997646901756531
41,00:00:00.164,0.04895877325907346
42,00:00:00.168,0.0326264053583145
43,00:00:00.172,0.0030103239696472896
44,00:00:00.176,-0.014959118561819171
45,00:00:00.18,-0.0025748140178621214
46,00:00:00.184,-0.01080031623132523
47,00:00:00.188,-0.014951614197343591
48,00:00:00.192,0.007902266108430919
49,00:00:00.196,-0.00175095442682507
50,00:00:00.2,0.03800748760113492
51,00:00:00.204,0.02280615852214397
52,00:00:00.208,-0.05683291936293246
53,00:00:00.212,-0.03711686446331444
54,00:00:00.216,0.014498521515633907
55,00:00:00.22,0.01945182833878791
56,00:00:00.224,0.018569076433777792
57,00:00:00.228,-0.008542637806385752
58,00:00:00.232,-0.01763044297695159
59,00:00:00.236,0.053860756335780045
60,00:00:00.24,0.01535085355862974
61,00:00:00.244,-0.016076042782515315
62,00:00:00.248,-0.033344910480082035
63,00:00:00.252,-0.05660980573156854
64,00:00:00.256,-0.008947395486757239
65,00:00:00.26,0.02044624590780587
66,00:00:00.264,0.04959497647359974
67,00:00:00.268,0.029097861144691723
68,00:00:00.272,0.0061945531051605905
69,00:00:00.276,-0.015169312653597484
70,00:00:00.28,-0.02832093602046373
71,00:00:00.284,0.00415387825341898
72,00:00:00.288,-0.0225914195179939
73,00:00:00.292,0.0006394416559487633
74,00:00:00.296,0.02291272958973418
75,00:00:00.3,-0.00983085203915836
76,00:00:00.304,0.005486551322974259
77,00:00:00.308,-0.0005543553270399397
78,00:00:00.312,-0.0011920093093067009
79,00:00:00.316,1.5169382095330843e-05
80,00:00:00.32,0.0031460565514862516
81,00:00:00.324,0.0242387708276511
82,00:00:00.328,-0.0037178909406066
83,00:00:00.332,0.004171551205217861
84,00:00:00.336,-0.04701176867820326
85,00:00:00.34,-0.02705138246528805
86,00:00:00.344,0.01209366979310291
87,00:00:00.348,0.031034922227263506
88,00:00:00.352,0.028398071415722405
89,00:00:00.356,0.01403550757095218
90,00:00:00.36,-0.011241334956139298
91,00:00:00.364,-0.012061985209584201
92,00:00:00.368,-0.025822036666795643
93,00:00:00.372,-0.014336874708533301
94,00:00:00.376,0.00400621979497377
95,00:00:00.38,0.013920131139457302
96,00:00:00.384,0.015393626876175431
97,00:00:00.388,0.01299262675456702
98,00:00:00.392,-0.018358743749558912
99,00:00:00.396,-0.013959977281047038
100,00:00:00.4,0.02373513107886542
101,00:00:00.404,0.012587560500833159
102,00:00:00.408,-0.020208744797855612
103,00:00:00.412,-0.023411707021296
104,00:00:00.416,-0.0019369126530364104
105,00:00:00.42,0.02583367656916372
106,00:00:00.424,-0.002763582393527069
107,00:00:00.428,-0.00393071444705133
108,00:00:00.432,0.007127728778868831
109,00:00:00.436,-0.002406217157840694
110,00:00:00.44,0.00414109139819629
111,00:00:00.444,0.021084725856780995
112,00:00:00.448,-0.01707717846147713
113,00:00:00.452,-0.03912065085023646
114,00:00:00.456,0.00463422993198037
115,00:00:00.46,0.007284431834705178
116,00:00:00.464,0.00708622438833114
117,00:00:00.468,0.0451647313311696
118,00:00:00.472,0.0015220928471535596
119,00:00:00.476,-0.02773764100857079
120,00:00:00.48,-0.0397459045052529
121,00:00:00.484,0.01058226311579348
122,00:00:00.488,0.0210821237415076
123,00:00:00.492,0.0003995429724455296
124,00:00:00.496,-0.0016630009049549681
125,00:00:00.5,-0.011873915325850201
126,00:00:00.504,0.011565190739929742
127,00:00:00.508,0.04835703904973346
128,00:00:00.512,-0.02680380525998773
129,00:00:00.516,-0.0440969178453088
130,00:00:00.52,-0.0025716891977936003
131,00:00:00.524,0.017472481878940058
132,00:00:00.528,0.011629173532128362
133,00:00:00.532,-0.0024891246575862607
134,00:00:00.536,-0.016658906941302107
135,00:00:00.54,0.008395454613491896
136,00:00:00.544,0.03402151865884662
137,00:00:00.548,0.00830757617950441
138,00:00:00.552,-0.04310789704322817
139,00:00:00.556,0.0007911412976681592
140,00:00:00.56,0.004156644921749829
141,00:00:00.564,-0.01115971570834518
142,00:00:00.568,-0.0013860771578038148
143,00:00:00.572,0.012559598906591451
144,00:00:00.576,0.008621821063570682
145,00:00:00.58,-0.005086199613288045
146,00:00:00.584,0.006545140640810131
147,00:00:00.588,0.013336465694010301
148,00:00:00.592,-0.010609172284603199
149,00:00:00.596,-0.030124854296445798
150,00:00:00.6,0.021375621668994406
151,00:00:00.604,0.026938641443848596
152,00:00:00.608,-0.03749890113249419
153,00:00:00.612,-0.006098327226936803
154,00:00:00.616,-0.006119144149124702
155,00:00:00.62,-0.00097807683050633
156,00:00:00.624,0.017736093839630516
157,00:00:00.628,0.040374442469328586
158,00:00:00.632,0.010637393279466755
159,00:00:00.636,-0.03856527013704187
160,00:00:00.64,-0.05480316607281573
161,00:00:00.644,0.03442931501194833
162,00:00:00.648,0.0360957849770784
163,00:00:00.652,-0.004441311582922996
164,00:00:00.656,-0.022740845801308758
165,00:00:00.66,-0.016768960747867795
166,00:00:00.664,-0.011072770692408107
167,00:00:00.668,0.02628317289054396
168,00:00:00.672,0.03296911809593441
169,00:00:00.676,-0.001860287273302709
170,00:00:00.68,-0.01760021829977633
171,00:00:00.684,-0.006139016011729839
172,00:00:00.688,-0.00878984038718045
173,00:00:00.692,-0.007769785297568887
174,00:00:00.696,-0.00013660993136000409
175,00:00:00.7,0.005885536316782241
176,00:00:00.704,0.009461351379286564
177,00:00:00.708,0.01776004955172539
178,00:00:00.712,0.023576886393129798
179,00:00:00.716,-0.04006090282928197
180,00:00:00.72,-0.042257314489688745
181,00:00:00.724,0.03031791473040353
182,00:00:00.728,0.003768887836486122
183,00:00:00.732,0.01542682200670242
184,00:00:00.736,-2.511509228497917e-05
185,00:00:00.74,-0.01497724221553654
186,00:00:00.744,-0.021134560462087372
187,00:00:00.748,0.04866683995351188
188,00:00:00.752,0.031412878073751996
189,00:00:00.756,-0.03362488048151138
190,00:00:00.76,-0.019445973652182147
191,00:00:00.764,-0.026157960295677195
192,00:00:00.768,-0.01915152324363589
193,00:00:00.772,0.010614592581987395
194,00:00:00.776,0.028730605728924306
195,00:00:00.78,0.02568562689702959
196,00:00:00.784,0.006374299060553279
197,00:00:00.788,-0.0048649804666638305
198,00:00:00.792,-0.007467077666660762
199,00:00:00.796,-0.015108967258129307
200,00:00:00.8,-0.005236066790530461
201,00:00:00.804,-0.004706207197159538
202,00:00:00.808,0.0016196285141632004
203,00:00:00.812,0.005726557224988931
204,00:00:00.816,0.00575440647662618
205,00:00:00.82,-0.011403275653719881
206,00:00:00.824,0.026356677524745492
207,00:00:00.828,0.01646628184244034
208,00:00:00.832,-0.030721370247192743
209,00:00:00.836,0.007746887393295779
210,00:00:00.84,-0.0509858429431916
211,00:00:00.844,0.01492188405245537
212,00:00:00.848,0.01833412051200866
213,00:00:00.852,0.0044473859015852196
214,00:00:00.856,0.0020349333062768503
215,00:00:00.86,0.035342783201485886
216,00:00:00.864,-0.00916600704658772
217,00:00:00.868,-0.02889258041977883
218,00:00:00.872,0.0058418493717909414
219,00:00:00.876,0.02014206815510991
220,00:00:00.88,-0.01373383123427629
221,00:00:00.884,-0.04855107422918082
222,00:00:00.888,0.0031070953118614865
223,00:00:00.892,0.02426517661660907
224,00:00:00.896,0.02025691955350342
225,00:00:00.9,0.0077030519023537705
226,00:00:00.904,-0.02163513121195141
227,00:00:00.908,0.010195962619036388
228,00:00:00.912,0.04748613201081748
229,00:00:00.916,0.0003514170530251881
230,00:00:00.92,-0.06968544126721106
231,00:00:00.924,-0.03700158884748811
232,00:00:00.928,0.005058136070147122
233,00:00:00.932,0.042621126864105394
234,00:00:00.936,0.02707690652459862
235,00:00:00.94,0.004477319336729121
236,00:00:00.944,-0.010091902713611486
237,00:00:00.948,-0.01749635161831974
238,00:00:00.952,0.00967055140063167
239,00:00:00.956,0.00825949478894467
240,00:00:00.96,-0.00702597200870514
241,00:00:00.964,-0.0218094100710005
242,00:00:00.968,0.0004403232596814294
243,00:00:00.972,-0.00495462119579315
244,00:00:00.976,0.004037325328681616
245,00:00:00.98,0.026839135316549807
246,00:00:00.984,1.5206169336971775e-05
247,00:00:00.988,-0.02690737484954299
248,00:00:00.992,0.006839033216237999
249,00:00:00.996,0.06834749178960917
250,00:00:01,0.00048643350601200105
251,00:00:01.004,-0.07862667180597784
252,00:00:01.008,-0.038800628855824464
253,00:00:01.012,0.01519942795857785
254,00:00:01.016,0.01195124897640199
255,00:00:01.02,0.03045151825062934
256,00:00:01.024,0.0179272156674415
257,00:00:01.028,0.029502115212380796
258,00:00:01.032,-0.0271372296847403
259,00:00:01.036,-0.018951825797557824
260,00:00:01.04,-0.013784056995064011
261,00:00:01.044,-0.02467544586397705
262,00:00:01.048,0.02586040063761175
263,00:00:01.052,0.02993197320029144
264,00:00:01.056,-0.00588455330580472
265,00:00:01.06,-0.020865100494120267
266,00:00:01.064,-0.013963002915261317
267,00:00:01.068,0.03449400607496505
268,00:00:01.072,0.03308046469464895
269,00:00:01.076,-0.0433862153440714
270,00:00:01.08,-0.02340942248702052
271,00:00:01.084,-0.008975751523394167
272,00:00:01.088,0.005108107812702661
273,00:00:01.092,0.02269460959360004
274,00:00:01.096,0.020684390095993918
275,00:00:01.1,-0.01915944600477817
276,00:00:01.104,-6.017722262186085e-05
277,00:00:01.108,0.02967816352611411
278,00:00:01.112,-0.004554358252789829
279,00:00:01.116,-0.02622584020718933
280,00:00:01.12,-0.02417920110747215
281,00:00:01.124,-0.0024703908711672545
282,00:00:01.128,0.02162792568560692
283,00:00:01.132,0.0084777674637735
284,00:00:01.136,0.01199529459699986
285,00:00:01.14,-0.00493197154719382
286,00:00:01.144,-0.0387889267876745
287,00:00:01.148,0.049989953171461876
288,00:00:01.152,0.03140006551984701
289,00:00:01.156,-0.053300051251426325
290,00:00:01.16,-0.033531322376802536
291,00:00:01.164,0.012179579585790619
292,00:00:01.168,0.01595786376856263
293,00:00:01.172,0.003492852207273239
294,00:00:01.176,0.008315234561450776
295,00:00:01.18,-0.0034273044439032696
296,00:00:01.184,0.003205611454177455
297,00:00:01.188,0.01892494945786896
298,00:00:01.192,-0.01243048999458557
299,00:00:01.196,0.006990428548306217
300,00:00:01.2,-0.029356437386013526
301,00:00:01.204,-0.01880166120827201
302,00:00:01.208,0.00813102873507887
303,00:00:01.212,0.010787792358314618
304,00:00:01.216,0.017034352291375388
305,00:00:01.22,0.01971058046910911
306,00:00:01.224,-0.016840952521306456
307,00:00:01.228,-0.023603515466675152
308,00:00:01.232,-1.0821968315991026e-06
309,00:00:01.236,0.029773639515042194
310,00:00:01.24,0.0385121256113051
311,00:00:01.244,-0.0185084994882346
312,00:00:01.248,-0.06894133430614598
313,00:00:01.252,-0.033174641430378
314,00:00:01.256,0.03116417932324117
315,00:00:01.26,0.021537386637646688
316,00:00:01.264,0.038341149454936344
317,00:00:01.268,0.02403175365179781
318,00:00:01.272,-0.02317212638445198
319,00:00:01.276,-0.05003295931965113
320,00:00:01.28,0.026597743853926693
321,00:00:01.284,0.029851482715457713
322,00:00:01.288,-0.007329948246479003
323,00:00:01.292,-0.0508982697501779
324,00:00:01.296,-0.0210862662643194
325,00:00:01.3,0.01182367792353035
326,00:00:01.304,0.053257236257195396
327,00:00:01.308,0.0007148990407586096
328,00:00:01.312,-0.014019531197845901
329,00:00:01.316,0.022534096613526313
330,00:00:01.32,-0.007126178767066459
331,00:00:01.324,-0.01942085078917447
332,00:00:01.328,-0.023785240016877596
333,00:00:01.332,-0.00488939345814285
334,00:00:01.336,0.02991353487595918
335,00:00:01.34,0.010635400860337544
336,00:00:01.344,-0.0007899417541921113
337,00:00:01.348,-0.015838875202462053
338,00:00:01.352,0.035666557378135594
339,00:00:01.356,-0.0118796601891518
340,00:00:01.36,-0.05664619372691961
341,00:00:01.364,0.023021388100460217
342,00:00:01.368,0.0025696312077343377
343,00:00:01.372,0.01351532433182
344,00:00:01.376,0.004832702688872811
345,00:00:01.38,0.0005923004355281607
346,00:00:01.384,-0.003678316395962612
347,00:00:01.388,-0.0003966030199080671
348,00:00:01.392,0.005789336981251811
349,00:00:01.396,-0.0173518903902732
350,00:00:01.4,-0.016971279401332164
351,00:00:01.404,0.030837533529847867
352,00:00:01.408,0.051024837885051945
353,00:00:01.412,-0.03177194693125783
354,00:00:01.416,-0.03513334877789023
355,00:00:01.42,-0.017026507761329454
356,00:00:01.424,-0.012126446468755641
357,00:00:01.428,0.0205774824135005
358,00:00:01.432,0.0163494711741805
359,00:00:01.436,0.019481407478451798
360,00:00:01.44,0.00465728261042386
361,00:00:01.444,-0.005878901574760641
362,00:00:01.448,0.0028489949181676206
363,00:00:01.452,-0.011318657547235478
364,00:00:01.456,-0.019115024013444788
365,00:00:01.46,-0.00907793102669534
366,00:00:01.464,0.01153081888332963
367,00:00:01.468,0.010267127014230937
368,00:00:01.472,0.005586876824963837
369,00:00:01.476,-0.0013997151218063126
370,00:00:01.48,-0.02324821380898353
371,00:00:01.484,0.041007061845448334
372,00:00:01.488,0.002514997264370291
373,00:00:01.492,-0.0364860356785357
374,00:00:01.496,-0.0006316127255558586
375,00:00:01.5,0.008503387682139901
376,00:00:01.504,0.00838429760187863
377,00:00:01.508,-0.01078299689106641
378,00:00:01.512,0.0086464649066329
379,00:00:01.516,-0.00680689420551062
380,00:00:01.52,0.03116727620363232
381,00:00:01.524,-0.012996670790016669
382,00:00:01.528,-0.05312628578394649
383,00:00:01.532,0.0213517490774392
384,00:00:01.536,0.03390070819295943
385,00:00:01.54,0.0006388722686097165
386,00:00:01.544,-0.008366090245544877
387,00:00:01.548,-0.01950942166149611
388,00:00:01.552,0.0026180492714046495
389,00:00:01.556,-0.002699154545553026
390,00:00:01.56,0.01284991763532162
391,00:00:01.564,0.008925314061343722
392,00:00:01.568,-0.0099166788859293
393,00:00:01.572,0.01724930293858059
394,00:00:01.576,-0.01583885576110334
395,00:00:01.58,-0.02125375624746081
396,00:00:01.584,0.02119587315246466
397,00:00:01.588,0.00770041113719344
398,00:00:01.592,-0.0025206316495314657
399,00:00:01.596,-0.020720348693430448
400,00:00:01.6,0.02770642910036257
401,00:00:01.604,-0.007707524579018391
402,00:00:01.608,-0.02042447496205572
403,00:00:01.612,0.01129576598759743
404,00:00:01.616,-0.01534833945333958
405,00:00:01.62,0.01582136098295448
406,00:00:01.624,0.0037037801230326295
407,00:00:01.628,-0.010139982914552089
408,00:00:01.632,0.03870258852839473
409,00:00:01.636,0.019888845141395016
410,00:00:01.64,-0.04103909246623512
411,00:00:01.644,-0.04756196867674592
412,00:00:01.648,-0.00514770322479308
413,00:00:01.652,0.021567021030932672
414,00:00:01.656,0.04883355530910185
415,00:00:01.66,-0.005956936161965129
416,00:00:01.664,-0.007786489324644274
417,00:00:01.668,-0.004897298960713663
418,00:00:01.672,-0.015085059334523981
419,00:00:01.676,-0.0209610937163233
420,00:00:01.68,0.0235559334978461
421,00:00:01.684,0.03210804983973503
422,00:00:01.688,-0.04392390325665482
423,00:00:01.692,0.011158882873132842
424,00:00:01.696,0.04897312540560963
425,00:00:01.7,-0.02940831892192363
426,00:00:01.704,-0.03836111165583131
427,00:00:01.708,-2.044485881924022e-05
428,00:00:01.712,0.010015309060690926
429,00:00:01.716,0.011016442964319133
430,00:00:01.72,0.00915539404377341
431,00:00:01.724,0.004227228695526718
432,00:00:01.728,0.001173422439023855
433,00:00:01.732,-0.018351142469327935
434,00:00:01.736,0.032926903106272234
435,00:00:01.74,0.0102733457461
436,00:00:01.744,-0.045810496434569324
437,00:00:01.748,-0.03476076060906051
438,00:00:01.752,0.006492891348898397
439,00:00:01.756,0.031821991549804814
440,00:00:01.76,0.02168074389919639
441,00:00:01.764,0.0037621764931827797
442,00:00:01.768,-0.02271150952583407
443,00:00:01.772,0.004989433335140341
444,00:00:01.776,0.03345678932964807
445,00:00:01.78,-0.01496860780753199
446,00:00:01.784,-0.029341200308408543
447,00:00:01.788,-0.03607340401504193
448,00:00:01.792,0.03045493410900231
449,00:00:01.796,0.02065380383282895
450,00:00:01.8,-0.0007818810991011508
451,00:00:01.804,0.0013925295788794723
452,00:00:01.808,-0.01884571556001906
453,00:00:01.812,0.03022838500328363
454,00:00:01.816,-0.0038912433665245407
455,00:00:01.82,0.018987632822245408
456,00:00:01.824,-0.02951869089156391
457,00:00:01.828,-0.03603729605674748
458,00:00:01.832,-0.0020066475262865216
459,00:00:01.836,0.01590786129236222
460,00:00:01.84,0.016122977714985647
461,00:00:01.844,0.013130031558830533
462,00:00:01.848,0.005760044907219704
463,00:00:01.852,0.02097022952511906
464,00:00:01.856,-0.015549138188362103
465,00:00:01.86,-0.01372524944599716
466,00:00:01.864,-0.03364581242203715
467,00:00:01.868,-0.012901430949568712
468,00:00:01.872,0.028925268445163976
469,00:00:01.876,0.010750628891400993
470,00:00:01.88,0.004598894331138581
471,00:00:01.884,-0.013033984112553292
472,00:00:01.888,0.02132839686237275
473,00:00:01.892,-0.013153701787814432
474,00:00:01.896,0.01430410612374545
475,00:00:01.9,0.011733658902812798
476,00:00:01.904,-0.032016692217439385
477,00:00:01.908,0.012913234531879399
478,00:00:01.912,-0.02352707786485555
479,00:00:01.916,-0.013465420342981831
480,00:00:01.92,0.00515978899784383
481,00:00:01.924,0.002806074480759023
482,00:00:01.928,0.03239828150253743
483,00:00:01.932,0.06285509793087837
484,00:00:01.936,-0.04357038578018547
485,00:00:01.94,-0.06379109947010868
486,00:00:01.944,-0.011735282139852646
487,00:00:01.948,0.05315881175920371
488,00:00:01.952,0.01367648784071204
489,00:00:01.956,-0.02085567044559864
490,00:00:01.96,-0.016467800131067648
491,00:00:01.964,-0.01237763999961317
492,00:00:01.968,0.013841760810464569
493,00:00:01.972,0.0659209406003356
494,00:00:01.976,-0.001766696688719066
495,00:00:01.98,-0.05652484390884639
496,00:00:01.984,-0.0337139195762575
497,00:00:01.988,0.01460547477472577
498,00:00:01.992,0.02103179803816597
499,00:00:01.996,0.01177584636025131
500,00:00:02,-0.0008228798396885399
501,00:00:02.004,0.001537593241664581
502,00:00:02.008,-0.017951341927982867
503,00:00:02.012,-0.02519162511453031
504,00:00:02.016,0.09071212261915206
505,00:00:02.02,0.014537077862769308
506,00:00:02.024,-0.08614097023382776
507,00:00:02.028,-0.02099031349644068
508,00:00:02.032,-0.00323334382846956
509,00:00:02.036,0.010465035680681429
510,00:00:02.04,0.02853843546472488
511,00:00:02.044,0.022811519913375378
512,00:00:02.048,0.000703572761267421
513,00:00:02.052,-0.027924287598580167
514,00:00:02.056,0.01786828460171821
515,00:00:02.06,0.01707778743002569
516,00:00:02.064,-0.02402078546583656
517,00:00:02.068,-0.01525679370388388
518,00:00:02.072,-0.01128962310031059
519,00:00:02.076,0.010915637481957629
520,00:00:02.08,0.0094687927048653
521,00:00:02.084,-0.0013055261224508485
522,00:00:02.088,0.00029263767646625985
523,00:00:02.092,-0.0034793601371347913
524,00:00:02.096,0.01289914781227708
525,00:00:02.1,-0.0103597101115156
526,00:00:02.104,0.006231109087821102
527,00:00:02.108,-0.0219540679827332
528,00:00:02.112,0.049992292653769296
529,00:00:02.116,0.047365074977278675
530,00:00:02.12,-0.06702124618459496
531,00:00:02.124,-0.0662717306986452
532,00:00:02.128,-0.01089552277699115
533,00:00:02.132,0.02445658703800293
534,00:00:02.136,0.04374195786658672
535,00:00:02.14,0.011546150781214239
536,00:00:02.144,0.030083269346505393
537,00:00:02.148,-0.011669317056657752
538,00:00:02.152,-0.013762710150331228
539,00:00:02.156,-0.024120956659317
540,00:00:02.16,-0.003940731985494489
541,00:00:02.164,0.00013644705177284777
542,00:00:02.168,-0.01782655972056091
543,00:00:02.172,0.011068676714785395
544,00:00:02.176,0.00631268601864576
545,00:00:02.18,0.01179104205220937
546,00:00:02.184,0.009003628278151132
547,00:00:02.188,0.012662861030548847
548,00:00:02.192,0.01567453471943733
549,00:00:02.196,-0.0438443357124924
550,00:00:02.2,-0.02485034707933664
551,00:00:02.204,0.011384552402887499
552,00:00:02.208,0.011961679207161069
553,00:00:02.212,-0.003908775979653
554,00:00:02.216,0.00082449277397245
555,00:00:02.22,0.0395817663520574
556,00:00:02.224,-0.012255707755684854
557,00:00:02.228,-0.0304208807647228
558,00:00:02.232,0.02225689776241784
559,00:00:02.236,-0.008667728863656469
560,00:00:02.24,-0.01243530539795754
561,00:00:02.244,0.00983643252402544
562,00:00:02.248,-0.006100533195422013
563,00:00:02.252,0.0023141875280998873
564,00:00:02.256,-0.001674986910074951
565,00:00:02.26,-0.0075345007935538775
566,00:00:02.264,0.0068716065143234655
567,00:00:02.268,0.05124675575643771
568,00:00:02.272,-0.02337350230664015
569,00:00:02.276,-0.03003016300499444
570,00:00:02.28,0.006197544746100861
571,00:00:02.284,-0.006851148558780551
572,00:00:02.288,0.0039513492956757615
573,00:00:02.292,-0.001620829571038502
574,00:00:02.296,-0.0022438859450630904
575,00:00:02.3,0.006534272746648681
576,00:00:02.304,0.007425891235470782
577,00:00:02.308,-0.00044162571430206906
578,00:00:02.312,-0.005021811462938791
579,00:00:02.316,-0.006599177955649778
580,00:00:02.32,0.04007514764089139
581,00:00:02.324,0.0011143535375594997
582,00:00:02.328,-0.03036222863011064
583,00:00:02.332,-0.011263051070272898
584,00:00:02.336,-0.023450170177966433
585,00:00:02.34,-0.0013757282868028303
586,00:00:02.344,0.010648252908140372
587,00:00:02.348,0.02408664021641015
588,00:00:02.352,0.02343554422259335
589,00:00:02.356,-0.0210568807087838
590,00:00:02.36,0.026633999892510484
591,00:00:02.364,-0.0118908591102809
592,00:00:02.368,-0.00786607665941119
593,00:00:02.372,-0.026646183803677604
594,00:00:02.376,-0.017617093399167033
595,00:00:02.38,0.027082880027592203
596,00:00:02.384,-0.0003906222409568711
597,00:00:02.388,0.01584731764160097
598,00:00:02.392,0.0027212914428673654
599,00:00:02.396,-0.015030336420750263
600,00:00:02.4,0.005711832316592339
601,00:00:02.404,-0.00624194997362789
602,00:00:02.408,-0.010515271686017482
603,00:00:02.412,0.031693538650870316
604,00:00:02.416,0.005999374669045192
605,00:00:02.42,-0.022352545522153346
606,00:00:02.424,-0.0015925318002700493
607,00:00:02.428,-0.01554309343919158
608,00:00:02.432,-0.0077450019307435305
609,00:00:02.436,0.01861112471669913
610,00:00:02.44,-0.0010798652656376778
611,00:00:02.444,0.011391532710376885
612,00:00:02.448,0.03467785798966361
613,00:00:02.452,-0.02797054813709109
614,00:00:02.456,-0.0394562287256121
615,00:00:02.46,0.021236472763121125
616,00:00:02.464,0.008763506804825707
617,00:00:02.468,-0.0006079238373786142
618,00:00:02.472,0.0023503415286541002
619,00:00:02.476,-0.014914781786501373
620,00:00:02.48,0.019536221399903332
621,00:00:02.484,0.021663845633156625
622,00:00:02.488,-0.02849419857375319
623,00:00:02.492,-0.03119890729431058
624,00:00:02.496,-0.0012009217753075063
625,00:00:02.5,0.01117200939916073
626,00:00:02.504,0.029346751980483518
627,00:00:02.508,0.01987235713750119
628,00:00:02.512,0.005934476852416918
629,00:00:02.516,-0.025787116959691124
630,00:00:02.52,-0.027158351615071193
631,00:00:02.524,0.002192998304963105
632,00:00:02.528,0.023174764588475196
633,00:00:02.532,-0.02216501859948038
634,00:00:02.536,-0.003913905442459474
635,00:00:02.54,0.01121026123291814
636,00:00:02.544,0.007701371214352529
637,00:00:02.548,0.0012121991603635245
638,00:00:02.552,-0.00241446890868247
639,00:00:02.556,0.03265954973176127
640,00:00:02.56,-0.011750253092031973
641,00:00:02.564,-0.028148019046056974
642,00:00:02.568,0.00023416872136294408
643,00:00:02.572,-0.00891515333205459
644,00:00:02.576,0.00026992037601302745
645,00:00:02.58,0.018786700675264008
646,00:00:02.584,-0.0043092202395200695
647,00:00:02.588,-0.01920933299697936
648,00:00:02.592,0.01854054210707545
649,00:00:02.596,0.048830260057002375
650,00:00:02.6,-0.012935933656990532
651,00:00:02.604,-0.047501922585070064
652,00:00:02.608,-0.012802803423255656
653,00:00:02.612,0.02187799056991932
654,00:00:02.616,0.0017940930556505892
655,00:00:02.62,-0.00924519961699847
656,00:00:02.624,-0.0075896179769188235
657,00:00:02.628,0.029064923408441252
658,00:00:02.632,0.01622611377388245
659,00:00:02.636,-0.010484417376574132
660,00:00:02.64,-0.01308982801856474
661,00:00:02.644,-0.023543778341263522
662,00:00:02.648,0.01328454772010451
663,00:00:02.652,0.007742906454950533
664,00:00:02.656,0.012059363070875411
665,00:00:02.66,-0.00927629228681332
666,00:00:02.664,0.008763929501583332
667,00:00:02.668,-0.006365652196109291
668,00:00:02.672,-0.023496317968238124
669,00:00:02.676,-0.0013416779693216103
670,00:00:02.68,0.0074069777037948405
671,00:00:02.684,0.02293085260316728
672,00:00:02.688,0.002161129523301491
673,00:00:02.692,-0.019380003679543758
674,00:00:02.696,0.03556182212196286
675,00:00:02.7,0.022102899849414794
676,00:00:02.704,-0.05850363988429314
677,00:00:02.708,-0.040911868214607294
678,00:00:02.712,0.00957375310827043
679,00:00:02.716,0.027593587059527597
680,00:00:02.72,0.010430921800434598
681,00:00:02.724,0.024938964750617718
682,00:00:02.728,-0.00799463968724012
683,00:00:02.732,-0.012113225646317002
684,00:00:02.736,0.016354557825252372
685,00:00:02.74,0.0006040958687663703
686,00:00:02.744,-0.010324158443836513
687,00:00:02.748,-0.03692995384335517
688,00:00:02.752,-0.0147217772901059
689,00:00:02.756,0.017248785472475037
690,00:00:02.76,0.02660758420825004
691,00:00:02.764,0.014002551324665543
692,00:00:02.768,0.00133934163022786
693,00:00:02.772,-0.0024229111149907203
694,00:00:02.776,-0.01865942869335408
695,00:00:02.78,-0.00757016940042381
696,00:00:02.784,0.016787827014923103
697,00:00:02.788,-0.01992038683965803
698,00:00:02.792,0.014068022603169111
699,00:00:02.796,0.017364868894219298
700,00:00:02.8,0.01469626603648071
701,00:00:02.804,-0.021460577845573398
702,00:00:02.808,-0.04891373123973611
703,00:00:02.812,0.0004379679448902607
704,00:00:02.816,0.012061296962201573
705,00:00:02.82,0.034120697993785115
706,00:00:02.824,0.015022205654531752
707,00:00:02.828,-0.022692037309752805
708,00:00:02.832,0.013232621829956801
709,00:00:02.836,0.022190166520886144
710,00:00:02.84,-0.02771164267323913
711,00:00:02.844,-0.030321807484142514
712,00:00:02.848,-0.0016794772818685012
713,00:00:02.852,0.027801323682069803
714,00:00:02.856,-0.007777515565976539
715,00:00:02.86,0.006119718076661219
716,00:00:02.864,-0.01551503501832486
717,00:00:02.868,0.00739914830774065
718,00:00:02.872,0.01010439288802445
719,00:00:02.876,-0.005875292234122799
720,00:00:02.88,0.01039985555689782
721,00:00:02.884,0.0016917577013373514
722,00:00:02.888,0.0074443860212341
723,00:00:02.892,-0.02462304616346951
724,00:00:02.896,-0.003996832994744218
725,00:00:02.9,0.0033254772424697807
726,00:00:02.904,-0.001921577262692149
727,00:00:02.908,0.0025088111869989997
728,00:00:02.912,0.001427562092430891
729,00:00:02.916,0.010892558726482059
730,00:00:02.92,0.015671690431190655
731,00:00:02.924,-0.04114361037500195
732,00:00:02.928,0.01766355067957191
733,00:00:02.932,0.0314531438052654
734,00:00:02.936,-0.01066319877281783
735,00:00:02.94,-0.041851891670376035
736,00:00:02.944,0.001861534547060722
737,00:00:02.948,0.01236422848887739
738,00:00:02.952,0.029995639342814642
739,00:00:02.956,-0.014559335315425411
740,00:00:02.96,-0.02997251413762567
741,00:00:02.964,0.01839798735454678
742,00:00:02.968,0.0007437825770466633
743,00:00:02.972,0.027059316955273933
744,00:00:02.976,-0.0023276717402040898
745,00:00:02.98,-0.03153679310344159
746,00:00:02.984,0.00020143343135718
747,00:00:02.988,-0.00708544021472331
748,00:00:02.992,0.02301948051899675
749,00:00:02.996,0.0105429701507091
750,00:00:03,-0.01806812151335181
751,00:00:03.004,-0.0021959031000733393
752,00:00:03.008,0.0007850723341107412
753,00:00:03.012,-0.007797226309776319
754,00:00:03.016,0.01438002544455231
755,00:00:03.02,0.01565930433571338
756,00:00:03.024,0.0035388352116569894
757,00:00:03.028,-0.013465460389852532
758,00:00:03.032,-0.0341203631833195
759,00:00:03.036,0.00958568579517304
760,00:00:03.04,0.005050800740718821
761,00:00:03.044,0.003055518027395062
762,00:00:03.048,0.01310119219124316
763,00:00:03.052,-0.0051624116022139805
764,00:00:03.056,0.012688578106462987
765,00:00:03.06,-0.0065466775558888895
766,00:00:03.064,0.023880684282630696
767,00:00:03.068,-0.013524485751986498
768,00:00:03.072,-0.03696421906352043
769,00:00:03.076,-0.008427263164776336
770,00:00:03.08,-0.00027295644395053994
771,00:00:03.084,0.021033199038356588
772,00:00:03.088,0.019027095238925526
773,00:00:03.092,-0.0009432830847799804
774,00:00:03.096,-0.005952428793534631
775,00:00:03.1,-0.00456504570320246
776,00:00:03.104,0.008747419808059938
777,00:00:03.108,0.0653841784223914
778,00:00:03.112,-0.0344224525615573
779,00:00:03.116,-0.0900788828730584
780,00:00:03.12,-0.03167119622230532
781,00:00:03.124,0.023971938993781798
782,00:00:03.128,0.0560174705460667
783,00:00:03.132,0.04522089241072537
784,00:00:03.136,0.010309382516425106
785,00:00:03.14,-0.03187473477737511
786,00:00:03.144,-0.029288368532434158
787,00:00:03.148,-0.003327520502352816
788,00:00:03.152,0.006298747468463262
789,00:00:03.156,0.031448497640667525
790,00:00:03.16,-0.03311162814497948
791,00:00:03.164,-0.01866731001064185
792,00:00:03.168,0.0029322612099349507
793,00:00:03.172,0.012414371129125391
794,00:00:03.176,0.01601039129309356
795,00:00:03.18,0.0001529771834612205
796,00:00:03.184,0.015441286843270091
797,00:00:03.188,0.004876503604464201
798,00:00:03.192,-0.02251488191541289
799,00:00:03.196,-0.0388875519856811
800,00:00:03.2,0.0009568124078214099
801,00:00:03.204,0.07608158281072974
802,00:00:03.208,-0.016608323901891688
803,00:00:03.212,-0.029199742944911147
804,00:00:03.216,-0.025866406969726127
805,00:00:03.22,0.010994034819304941
806,00:00:03.224,0.018363755763857653
807,00:00:03.228,0.02795883937506003
808,00:00:03.232,-0.04342271620407704
809,00:00:03.236,0.02816326590254901
810,00:00:03.24,-0.01101537951035422
811,00:00:03.244,-0.00830286531709134
812,00:00:03.248,0.02273130288813267
813,00:00:03.252,-0.006518703768961142
814,00:00:03.256,-0.01667367454501803
815,00:00:03.26,-0.01157212769612673
816,00:00:03.264,0.0009870592621155048
817,00:00:03.268,0.006995943142101169
818,00:00:03.272,0.016032509505748752
819,00:00:03.276,0.026403586263768347
820,00:00:03.28,-0.00123624212574214
821,00:00:03.284,-0.03953881561756126
822,00:00:03.288,3.1448376830664764e-05
823,00:00:03.292,0.0020173597149550603
824,00:00:03.296,0.0106645044288598
825,00:00:03.3,-0.01400336087681353
826,00:00:03.304,-0.005236227065324793
827,00:00:03.308,0.010689339222153645
828,00:00:03.312,0.01087577745784074
829,00:00:03.316,-0.01004154549445957
830,00:00:03.32,-0.00456148665398356
831,00:00:03.324,-0.004505088028963642
832,00:00:03.328,0.08744570607086638
833,00:00:03.332,-0.00579781009582799
834,00:00:03.336,-0.0949013512581586
835,00:00:03.34,-0.03789901593700055
836,00:00:03.344,0.008452148293145
837,00:00:03.348,0.03645762894302611
838,00:00:03.352,0.035728209652006626
839,00:00:03.356,0.01971799659077078
840,00:00:03.36,-7.631746120750991e-05
841,00:00:03.364,-0.03822759818285702
842,00:00:03.368,-0.025925629772245933
843,00:00:03.372,0.008417582139372829
844,00:00:03.376,0.0641521569341421
845,00:00:03.38,0.0196987439412624
846,00:00:03.384,-0.0740309059619904
847,00:00:03.388,-0.05788320116698738
848,00:00:03.392,0.016443768632598253
849,00:00:03.396,0.03618172183632854
850,00:00:03.4,0.037347786594182246
851,00:00:03.404,0.013746168464422231
852,00:00:03.408,-0.006181218486744909
853,00:00:03.412,-0.015596883953548971
854,00:00:03.416,-0.035484332591295235
855,00:00:03.42,-0.02362120983889325
856,00:00:03.424,0.040867549367249005
857,00:00:03.428,0.04961304226890207
858,00:00:03.432,0.016699820756912197
859,00:00:03.436,-0.061521722003817496
860,00:00:03.44,-0.056915558874607114
861,00:00:03.444,0.0032578082755208007
862,00:00:03.448,0.03832986438646903
863,00:00:03.452,0.03193116746842858
864,00:00:03.456,0.00900753168389198
865,00:00:03.46,-0.03778269782196728
866,00:00:03.464,0.013135845423676077
867,00:00:03.468,0.043292114612995675
868,00:00:03.472,-0.024384716991335112
869,00:00:03.476,-0.01894518919289115
870,00:00:03.48,-0.00741922110319135
871,00:00:03.484,-0.03414575289934871
872,00:00:03.488,0.004760446303407658
873,00:00:03.492,0.02366289729252459
874,00:00:03.496,0.03264522366225723
875,00:00:03.5,-0.005854611517861482
876,00:00:03.504,-0.00648718618322164
877,00:00:03.508,0.00954270455986262
878,00:00:03.512,-0.01059687323868274
879,00:00:03.516,-0.01660195551812647
880,00:00:03.52,0.0042095379903912995
881,00:00:03.524,0.008894235099432955
882,00:00:03.528,-0.0115076927468181
883,00:00:03.532,-0.011640128213912252
884,00:00:03.536,0.012059134896844622
885,00:00:03.54,0.019358976758667275
886,00:00:03.544,-0.004678332712501291
887,00:00:03.548,-0.011436251457780548
888,00:00:03.552,0.002901369822211565
889,00:00:03.556,0.01456921885255721
890,00:00:03.56,-0.010817462229169914
891,00:00:03.564,-0.0099274734966457
892,00:00:03.568,0.01268132566474378
893,00:00:03.572,0.0048172245733439905
894,00:00:03.576,-0.013604569379822348
895,00:00:03.58,-0.010979734128341079
896,00:00:03.584,-0.01194106825278145
897,00:00:03.588,0.0114683381980285
898,00:00:03.592,0.0407608337700367
899,00:00:03.596,-0.0077986837568460084
900,00:00:03.6,-0.014076853170990907
901,00:00:03.604,-0.017301182029768842
902,00:00:03.608,0.02053307555615899
903,00:00:03.612,0.007891502697020731
904,00:00:03.616,-0.027108759371913024
905,00:00:03.62,0.01262940623564649
906,00:00:03.624,0.0003897199057973878
907,00:00:03.628,-0.0011211198288946789
908,00:00:03.632,-0.014472182781901186
909,00:00:03.636,-0.0040286410476255315
910,00:00:03.64,0.019549663178622702
911,00:00:03.644,0.009304202743805948
912,00:00:03.648,-0.020269852946512377
913,00:00:03.652,0.02359488187357786
914,00:00:03.656,0.0363997528329491
915,00:00:03.66,-0.04617839353159076
916,00:00:03.664,-0.024257730459794413
917,00:00:03.668,-0.0036142542958259496
918,00:00:03.672,-0.0057266284711659
919,00:00:03.676,0.011087788734585
920,00:00:03.68,0.0336257338058204
921,00:00:03.684,0.01124015916138892
922,00:00:03.688,-0.008719694335013569
923,00:00:03.692,-0.017864831723272794
924,00:00:03.696,-0.005788633250631397
925,00:00:03.7,0.025197715149261026
926,00:00:03.704,-0.010751267720479518
927,00:00:03.708,-0.03739596181549128
928,00:00:03.712,-0.0010339599102735988
929,00:00:03.716,0.023890417884103916
930,00:00:03.72,0.018845423343009295
931,00:00:03.724,0.004944494925439371
932,00:00:03.728,-0.03481290256604552
933,00:00:03.732,-0.00031702872365712035
934,00:00:03.736,0.0503252416383475
935,00:00:03.74,0.030112608335912207
936,00:00:03.744,-0.05157902045175433
937,00:00:03.748,-0.05734777729958293
938,00:00:03.752,-0.0076147296349517515
939,00:00:03.756,0.03739848453551536
940,00:00:03.76,0.02556719677522775
941,00:00:03.764,-0.0003842920996248618
942,00:00:03.768,-0.0134601346217096
943,00:00:03.772,0.0027467100881039194
944,00:00:03.776,0.05788634205237032
945,00:00:03.78,-0.0256642587482929
946,00:00:03.784,-0.018261729826917872
947,00:00:03.788,-0.051073042210191495
948,00:00:03.792,-0.0032009584829211218
949,00:00:03.796,0.02262927847914402
950,00:00:03.8,0.01054074382409453
951,00:00:03.804,0.0194223616272211
952,00:00:03.808,0.00528595596551895
953,00:00:03.812,0.005232918774709101
954,00:00:03.816,-0.010117053054273132
955,00:00:03.82,-0.0101012236555107
956,00:00:03.824,-0.02564460597932333
957,00:00:03.828,0.011439222842454992
958,00:00:03.832,0.0018191365525126197
959,00:00:03.836,0.06355992483440791
960,00:00:03.84,-0.01651071850210431
961,00:00:03.844,-0.05755710112862293
962,00:00:03.848,-0.015164608950726749
963,00:00:03.852,-0.0003138054162264356
964,00:00:03.856,0.03839660948142414
965,00:00:03.86,0.01059396623168141
966,00:00:03.864,0.006703934632241709
967,00:00:03.868,-0.002680283971130841
968,00:00:03.872,0.004077580291777851
969,00:00:03.876,-0.03060352941974995
970,00:00:03.88,-0.0150562524795533
971,00:00:03.884,0.0435978602617979
972,00:00:03.888,-0.0029322132468223017
973,00:00:03.892,-0.013099555158987624
974,00:00:03.896,-0.016473919036798138
975,00:00:03.9,-0.007274903357028972
976,00:00:03.904,0.011803394649177802
977,00:00:03.908,0.013957253657281432
978,00:00:03.912,-0.0008237935835495598
979,00:00:03.916,0.018087947624735548
980,00:00:03.92,-0.012262669974006712
981,00:00:03.924,-0.029778690775856338
982,00:00:03.928,0.002833043079590431
983,00:00:03.932,0.059051422867923996
984,00:00:03.936,-0.005579938355367627
985,00:00:03.94,-0.037248164881020805
986,00:00:03.944,-0.03056966420263053
987,00:00:03.948,-0.00823329147533514
988,00:00:03.952,0.025558515451848528
989,00:00:03.956,0.03604915121104564
990,00:00:03.96,-0.004707950516603882
991,00:00:03.964,-0.02589546394301584
992,00:00:03.968,0.03858947567641737
993,00:00:03.972,-9.740004315998349e-06
994,00:00:03.976,-0.028461801819503363
995,00:00:03.98,-0.028830751689383705
996,00:00:03.984,0.0007293431553989621
997,00:00:03.988,0.02402255870401864
998,00:00:03.992,0.0041445731767452785
999,00:00:03.996,0.0018249166896566733
1000,00:00:04,0.01688068709336222
1001,00:00:04.004,-0.008143036160618069
1002,00:00:04.008,-0.00952459880500097
1003,00:00:04.012,-0.014378172723809306
1004,00:00:04.016,0.01893561449833214
1005,00:00:04.02,-0.0179148747120053
1006,00:00:04.024,0.007690601283684369
1007,00:00:04.028,0.007336223497986779
1008,00:00:04.032,0.01756475307047365
1009,00:00:04.036,-0.006519760936498694
1010,00:00:04.04,-0.026447647949680672
1011,00:00:04.044,-0.006556320284289515
1012,00:00:04.048,0.0112604650203139
1013,00:00:04.052,0.0070029274793341496
1014,00:00:04.056,0.0002612335374578816
1015,00:00:04.06,0.01184165896847842
1016,00:00:04.064,-0.0054406361887231495
1017,00:00:04.068,-0.021217443276327692
1018,00:00:04.072,0.0048506907187401815
1019,00:00:04.076,0.0286673670634628
1020,00:00:04.08,0.04635789012536405
1021,00:00:04.084,-0.03843333467375482
1022,00:00:04.088,-0.08211858407594262
1023,00:00:04.092,-0.004730381071567542
1024,00:00:04.096,0.03065085131674997
1025,00:00:04.1,0.039290599524974754
1026,00:00:04.104,0.018687881405639914
1027,00:00:04.108,-0.0032520067179575493
1028,00:00:04.112,-0.00607093656435609
1029,00:00:04.116,-0.01775564439594745
1030,00:00:04.12,-0.013588302768766904
1031,00:00:04.124,0.03375844424590471
1032,00:00:04.128,-0.05176585027948023
1033,00:00:04.132,0.0165408467873931
1034,00:00:04.136,0.030804496724158543
1035,00:00:04.14,-0.00401081074960535
1036,00:00:04.144,-0.01197974383831025
1037,00:00:04.148,-0.013909652072470635
1038,00:00:04.152,-0.0032440177747048433
1039,00:00:04.156,0.01635562349110838
1040,00:00:04.16,0.013565358007326698
1041,00:00:04.164,-0.0092702996917069
1042,00:00:04.168,-0.01414301083423197
1043,00:00:04.172,0.01939737331122165
1044,00:00:04.176,0.021453870926052342
1045,00:00:04.18,-0.0369134033098817
1046,00:00:04.184,-0.0212831646203995
1047,00:00:04.188,0.019940342055633657
1048,00:00:04.192,0.02342778164893381
1049,00:00:04.196,-0.01713474513962869
1050,00:00:04.2,0.002430423628538899
1051,00:00:04.204,-0.010031326906755568
1052,00:00:04.208,-0.004152297042310241
1053,00:00:04.212,0.014127985923551044
1054,00:00:04.216,-0.00894565391354263
1055,00:00:04.22,0.009773112600669341
1056,00:00:04.224,0.008656433608848603
1057,00:00:04.228,0.0406907135620713
1058,00:00:04.232,-0.02548101171851154
1059,00:00:04.236,-0.0676822718232871
1060,00:00:04.24,0.0054136556573212286
1061,00:00:04.244,0.01911568362265829
1062,00:00:04.248,0.0190235348418355
1063,00:00:04.252,0.00860591157106683
1064,00:00:04.256,-0.0010891858837567248
1065,00:00:04.26,-0.014016840374097218
1066,00:00:04.264,0.029417100129649085
1067,00:00:04.268,-0.017624817555770306
1068,00:00:04.272,-0.003544837789377203
1069,00:00:04.276,-0.0018317243084311494
1070,00:00:04.28,-0.01903885300271211
1071,00:00:04.284,-0.0028657433576881504
1072,00:00:04.288,0.007471087388694289
1073,00:00:04.292,0.014229385647922742
1074,00:00:04.296,0.019803596776910102
1075,00:00:04.3,-0.02093444694764909
1076,00:00:04.304,-0.00485697912517938
1077,00:00:04.308,0.03392602992244066
1078,00:00:04.312,-0.02980681881308558
1079,00:00:04.316,-0.006264787167310791
1080,00:00:04.32,-0.0034026342909783095
1081,00:00:04.324,-0.00869053322821854
1082,00:00:04.328,0.020700919907540048
1083,00:00:04.332,0.0005262974882498401
1084,00:00:04.336,0.0022668046876788417
1085,00:00:04.34,-0.001817990094423301
1086,00:00:04.344,-0.010213047266006508
1087,00:00:04.348,0.01111746858805422
1088,00:00:04.352,0.00872555177193136
1089,00:00:04.356,0.006251917686313439
1090,00:00:04.36,-0.01812994666397575
1091,00:00:04.364,-0.0142278005369008
1092,00:00:04.368,-0.006540374946780501
1093,00:00:04.372,0.00402577465865761
1094,00:00:04.376,0.01569887052755803
1095,00:00:04.38,0.011120050447061661
1096,00:00:04.384,-4.875205922872088e-05
1097,00:00:04.388,-0.0067515252158045795
1098,00:00:04.392,-0.019561147317290403
1099,00:00:04.396,0.00200016633607443
1100,00:00:04.4,0.04522722959518438
1101,00:00:04.404,0.008118016237858634
1102,00:00:04.408,-0.0023315073922277026
1103,00:00:04.412,-0.07386182202026245
1104,00:00:04.416,-0.02621251111850144
1105,00:00:04.42,0.031707886140793534
1106,00:00:04.424,0.02460597455501564
1107,00:00:04.428,0.026887241110671325
1108,00:00:04.432,0.015184380928985792
1109,00:00:04.436,-0.01371844299137594
1110,00:00:04.44,-0.02789074648171662
1111,00:00:04.444,-0.035979177919216454
1112,00:00:04.448,0.04796706140041359
1113,00:00:04.452,0.03656448749825351
1114,00:00:04.456,-0.017167612910270698
1115,00:00:04.46,-0.039483094587922055
1116,00:00:04.464,-0.006206926191225667
1117,00:00:04.468,-0.01636414078529927
1118,00:00:04.472,0.013628268847242019
1119,00:00:04.476,0.03764013806357985
1120,00:00:04.48,0.00887819437775761
1121,00:00:04.484,-0.00925995688885451
1122,00:00:04.488,-0.011814769823104148
1123,00:00:04.492,-0.015535185637418155
1124,00:00:04.496,0.0022814306430518592
1125,00:00:04.5,0.03563966276124115
1126,00:00:04.504,-0.016525450628250844
1127,00:00:04.508,-0.03546289075165987
1128,00:00:04.512,0.022743851877749
1129,00:00:04.516,0.03200680902227755
1130,00:00:04.52,-0.0122771142050624
1131,00:00:04.524,-0.03464744938537481
1132,00:00:04.528,-0.0034777857363224004
1133,00:00:04.532,0.00965603417716917
1134,00:00:04.536,-0.0013839629245922611
1135,00:00:04.54,0.04141961410641659
1136,00:00:04.544,-0.0063073020428419425
1137,00:00:04.548,-0.014756420394405728
1138,00:00:04.552,-0.0026259133592248206
1139,00:00:04.556,-0.0010446747764945004
1140,00:00:04.56,-0.012170559668447833
1141,00:00:04.564,-0.00651129253674298
1142,00:00:04.568,-0.012151548638939809
1143,00:00:04.572,0.0420652432367206
1144,00:00:04.576,0.00956884038168937
1145,00:00:04.58,-0.01463034952757882
1146,00:00:04.584,-0.013078834279440364
1147,00:00:04.588,0.00625477393623441
1148,00:00:04.592,-0.0007161046378314504
1149,00:00:04.596,-0.01091478858143091
1150,00:00:04.6,0.008410908980295066
1151,00:00:04.604,0.00481092417612675
1152,00:00:04.608,0.0108270711498335
1153,00:00:04.612,-0.02225565491244202
1154,00:00:04.616,-0.00890253297984597
1155,00:00:04.62,-0.0046959891915321975
1156,00:00:04.624,0.012847246602177679
1157,00:00:04.628,0.03923330479301505
1158,00:00:04.632,0.029292035382241014
1159,00:00:04.636,-0.020269131287932406
1160,00:00:04.64,-0.07269020937383179
1161,00:00:04.644,-0.027388917165808418
1162,00:00:04.648,0.02277163555845618
1163,00:00:04.652,0.03458002628758553
1164,00:00:04.656,0.02326213370542973
1165,00:00:04.66,-0.002918049925938251
1166,00:00:04.664,0.0084495088085532
1167,00:00:04.668,-0.030094902147538967
1168,00:00:04.672,-0.030660311080282603
1169,00:00:04.676,0.05981704249279575
1170,00:00:04.68,0.04224644362693654
1171,00:00:04.684,-0.062341730576008614
1172,00:00:04.688,-0.04672821052372457
1173,00:00:04.692,-0.007613664492964758
1174,00:00:04.696,0.0306563121266663
1175,00:00:04.7,0.02355679613538091
1176,00:00:04.704,0.01274503488093618
1177,00:00:04.708,0.009785373811610052
1178,00:00:04.712,-0.01186795602552593
1179,00:00:04.716,-0.00847743533086032
1180,00:00:04.72,-0.02274119178764525
1181,00:00:04.724,-0.01663447404280308
1182,00:00:04.728,0.025573704391717987
1183,00:00:04.732,0.05389020452275875
1184,00:00:04.736,0.0096748620271682
1185,00:00:04.74,-0.06138750258833167
1186,00:00:04.744,-0.04456897394265983
1187,00:00:04.748,-0.0005921141710131996
1188,00:00:04.752,0.02949180203722788
1189,00:00:04.756,0.028485071379691328
1190,00:00:04.76,0.01981557696126401
1191,00:00:04.764,0.00090136961080134
1192,00:00:04.768,-0.012093767261831088
1193,00:00:04.772,-0.02505827601999036
1194,00:00:04.776,-0.0018982632318511588
1195,00:00:04.78,0.049288483336567865
1196,00:00:04.784,-0.01942038105335087
1197,00:00:04.788,-0.04986539063975217
1198,00:00:04.792,-0.021333249449980926
1199,00:00:04.796,0.02645682031288743
1200,00:00:04.8,0.03211654350161548
1201,00:00:04.804,0.011085457226727165
1202,00:00:04.808,-0.006707004737108882
1203,00:00:04.812,-0.00835865456610918
1204,00:00:04.816,0.030812317272648174
1205,00:00:04.82,-0.00500078219920397
1206,00:00:04.824,-0.03736196784302596
1207,00:00:04.828,-0.01305131684057415
1208,00:00:04.832,0.01127470750361677
1209,00:00:04.836,-0.02710936998482795
1210,00:00:04.84,0.036731144413352054
1211,00:00:04.844,0.025693594943732034
1212,00:00:04.848,-0.010731243628924832
1213,00:00:04.852,-0.01831220579333603
1214,00:00:04.856,0.005824056919664141
1215,00:00:04.86,0.01519520301371811
1216,00:00:04.864,-0.025728472974151352
1217,00:00:04.868,-0.0010677459649741199
1218,00:00:04.872,0.008578650187700992
1219,00:00:04.876,-0.00466865976341066
1220,00:00:04.88,2.278108149766228e-05
1221,00:00:04.884,-0.007335363887250471
1222,00:00:04.888,0.01958955125883223
1223,00:00:04.892,0.03558788681402804
1224,00:00:04.896,0.004090673290193079
1225,00:00:04.9,-0.05125127476640049
1226,00:00:04.904,-0.03328090114519003
1227,00:00:04.908,-0.012628136551938922
1228,00:00:04.912,0.04253210499882699
1229,00:00:04.916,0.024664411204867103
1230,00:00:04.92,-9.839551057666518e-05
1231,00:00:04.924,-0.0003075094864470841
1232,00:00:04.928,0.0007944086100906142
1233,00:00:04.932,-0.007358526811003751
1234,00:00:04.936,-0.02091551199555394
1235,00:00:04.94,-0.005794751807115979
1236,00:00:04.944,0.0021077173878438797
1237,00:00:04.948,0.016200210840906937
1238,00:00:04.952,0.006764791876776147
1239,00:00:04.956,0.007189668365754187
1240,00:00:04.96,0.00843879231251779
1241,00:00:04.964,-0.028084320831112525
1242,00:00:04.968,-0.020592599641531685
1243,00:00:04.972,0.025578530505299596
1244,00:00:04.976,0.02987253339961168
1245,00:00:04.98,-0.019091540656518226
1246,00:00:04.984,-0.03818802768364551
1247,00:00:04.988,-0.0022985723335296
1248,00:00:04.992,0.01976901944726708
1249,00:00:04.996,0.02566550625488163
1250,00:00:05,0.0027866875752806603
1251,00:00:05.004,-0.013336697593331299
1252,00:00:05.008,-0.00459388224408032
1253,00:00:05.012,0.011878235265612599
1254,00:00:05.016,0.02406592946499593
1255,00:00:05.02,-0.03046494815498594
1256,00:00:05.024,-0.042859326116740704
1257,00:00:05.028,-0.008189566200598998
1258,00:00:05.032,0.03308043163269758
1259,00:00:05.036,0.02010953440912998
1260,00:00:05.04,0.00025890325196087317
1261,00:00:05.044,0.01743988646194338
1262,00:00:05.048,-0.0031933370046317517
1263,00:00:05.052,-0.012046291816659506
1264,00:00:05.056,-0.02386456937529142
1265,00:00:05.06,0.0037957906606607248
1266,00:00:05.064,0.00951122399419543
1267,00:00:05.068,-0.008746180683374408
1268,00:00:05.072,-0.0002598685678094539
1269,00:00:05.076,-0.006542512215673924
1270,00:00:05.08,0.02464832586701963
1271,00:00:05.084,0.009517509955912832
1272,00:00:05.088,-0.00607686518924308
1273,00:00:05.092,0.008852350525557958
1274,00:00:05.096,-0.016292155720293532
1275,00:00:05.1,-0.02662403997965153
1276,00:00:05.104,-0.0085001327097416
1277,00:00:05.108,0.02186238998547193
1278,00:00:05.112,0.01476674247533083
1279,00:00:05.116,-0.00901112810242921
1280,00:00:05.12,0.0037064859061501873
1281,00:00:05.124,0.026636812835931827
1282,00:00:05.128,0.0013769599609077011
1283,00:00:05.132,-0.0380004923790693
1284,00:00:05.136,-0.001900607778225095
1285,00:00:05.14,0.003467784263193609
1286,00:00:05.144,-0.00478006293997171
1287,00:00:05.148,-0.002282652712892735
1288,00:00:05.152,0.0029401241336017795
1289,00:00:05.156,0.02263618109282109
1290,00:00:05.16,0.012811026070266962
1291,00:00:05.164,-0.00039322162047022297
1292,00:00:05.168,-0.034061482176184654
1293,00:00:05.172,-0.01841265056282284
1294,00:00:05.176,0.035477613157127094
1295,00:00:05.18,0.02186319977045055
1296,00:00:05.184,-0.02010035027706186
1297,00:00:05.188,-0.02634773356840015
1298,00:00:05.192,-0.01281821972224861
1299,00:00:05.196,0.018194280564785
1300,00:00:05.2,0.02215099567547439
1301,00:00:05.204,-0.005074876593425851
1302,00:00:05.208,0.01870138570666311
1303,00:00:05.212,-0.0017585279420018508
1304,00:00:05.216,-0.0013423701748251984
1305,00:00:05.22,-0.0381801789626479
1306,00:00:05.224,-0.00899776583537461
1307,00:00:05.228,-0.0008245282806455603
1308,00:00:05.232,0.01839853916317221
1309,00:00:05.236,0.030966124963015314
1310,00:00:05.24,0.02593281678855424
1311,00:00:05.244,-0.039226705208420795
1312,00:00:05.248,-0.02950422069989143
1313,00:00:05.252,-0.0031125773675739704
1314,00:00:05.256,0.01385726733133198
1315,00:00:05.26,0.0141221965895966
1316,00:00:05.264,0.002779669525807547
1317,00:00:05.268,0.0033908299519680423
1318,00:00:05.272,-0.005554999770538415
1319,00:00:05.276,-0.004854031954891972
1320,00:00:05.28,0.004651016381103543
1321,00:00:05.284,-0.009159334935247902
1322,00:00:05.288,0.0131967635825277
1323,00:00:05.292,0.0108160059899091
1324,00:00:05.296,-0.01615658210357655
1325,00:00:05.3,-0.024877804331481422
1326,00:00:05.304,0.002128749620169401
1327,00:00:05.308,0.0112049295566976
1328,00:00:05.312,0.00999666086863726
1329,00:00:05.316,0.00685735745355487
1330,00:00:05.32,-0.010408720583654937
1331,00:00:05.324,0.022214081429410764
1332,00:00:05.328,0.016828452236950397
1333,00:00:05.332,-0.04455036576837307
1334,00:00:05.336,-0.0121650155633688
1335,00:00:05.34,0.015481060487218192
1336,00:00:05.344,0.014966927468776689
1337,00:00:05.348,-0.01603704923763871
1338,00:00:05.352,-0.02179182879626749
1339,00:00:05.356,0.013252725359052399
1340,00:00:05.36,0.01332398876547813
1341,00:00:05.364,0.03568802447989586
1342,00:00:05.368,0.014059327659197119
1343,00:00:05.372,-0.0863723885267974
1344,00:00:05.376,0.016397727420553572
1345,00:00:05.38,0.03705877531319855
1346,00:00:05.384,-0.0008890657918527688
1347,00:00:05.388,-0.025113869458436917
1348,00:00:05.392,-0.00636241113534198
1349,00:00:05.396,0.015191391110420258
1350,00:00:05.4,0.0025453424314036905
1351,00:00:05.404,0.0004727470222860592
1352,00:00:05.408,0.004852996440604331
1353,00:00:05.412,0.00698554096743466
1354,00:00:05.416,-0.00704898964613676
1355,00:00:05.42,-0.017342718318104768
1356,00:00:05.424,-0.007336388807743779
1357,00:00:05.428,0.033312058076262516
1358,00:00:05.432,-0.0035454120952635895
1359,00:00:05.436,-0.013950820895843201
1360,00:00:05.44,-0.01992551423609253
1361,00:00:05.444,0.006779390387237077
1362,00:00:05.448,0.0297576802549884
1363,00:00:05.452,0.00357913551852106
1364,00:00:05.456,-0.01048659882508218
1365,00:00:05.46,-0.009833370088017594
1366,00:00:05.464,-0.008173952344804999
1367,00:00:05.468,-0.007308961590751999
1368,00:00:05.472,0.06227063294500111
1369,00:00:05.476,-0.05090456875041122
1370,00:00:05.48,-0.0077231856994330605
1371,00:00:05.484,0.030059006705414466
1372,00:00:05.488,-0.0345058469101787
1373,00:00:05.492,-0.011215733364224429
1374,00:00:05.496,0.04228090913966301
1375,00:00:05.5,0.01195885718334467
1376,00:00:05.504,-0.018167978618294
1377,00:00:05.508,-0.014302778290584732
1378,00:00:05.512,-0.00034982617944483846
1379,00:00:05.516,0.016063305374700576
1380,00:00:05.52,-0.00015975348651412966
1381,00:00:05.524,-0.0033933636732399325
1382,00:00:05.528,0.00803370168432592
1383,00:00:05.532,-0.03558024251833566
1384,00:00:05.536,0.009324621430096203
1385,00:00:05.54,0.02078790636733172
1386,00:00:05.544,-0.00971674313768736
1387,00:00:05.548,0.01813977118581534
1388,00:00:05.552,-0.008788645034655922
1389,00:00:05.556,-0.014009386068209999
1390,00:00:05.56,0.00711439692167914
1391,00:00:05.564,-2.6563648134489068e-05
1392,00:00:05.568,-0.01673447620123624
1393,00:00:05.572,0.049985318444669205
1394,00:00:05.576,-0.0068238703534007905
1395,00:00:05.58,-0.031947698444128036
1396,00:00:05.584,-0.02401395887136458
1397,00:00:05.588,0.01641139073763043
1398,00:00:05.592,0.016382952919229858
1399,00:00:05.596,-0.005022754892706841
1400,00:00:05.6,0.017056231125025075
1401,00:00:05.604,-0.01573016890324652
1402,00:00:05.608,-0.005373667459934951
1403,00:00:05.612,0.021592186763882637
1404,00:00:05.616,-0.00401879730634391
1405,00:00:05.62,-0.01899678143672637
1406,00:00:05.624,-0.0035300495801493517
1407,00:00:05.628,-0.0010642555425874898
1408,00:00:05.632,0.014896293170750181
1409,00:00:05.636,0.02183418394997715
1410,00:00:05.64,-0.016291105304844684
1411,00:00:05.644,-0.022349089442286682
1412,00:00:05.648,0.00765046617016196
1413,00:00:05.652,0.003847419284284119
1414,00:00:05.656,0.01373717561364174
1415,00:00:05.66,-0.005306244827806899
1416,00:00:05.664,-0.01963680377230044
1417,00:00:05.668,0.0150791807100177
1418,00:00:05.672,0.03203324670903388
1419,00:00:05.676,-0.016261590571957647
1420,00:00:05.68,-0.048863276606425664
1421,00:00:05.684,0.0027562507893890203
1422,00:00:05.688,0.02472941740415988
1423,00:00:05.692,0.001184825028758499
1424,00:00:05.696,0.00698725366964936
1425,00:00:05.7,0.029041024856269373
1426,00:00:05.704,-0.009681145660579158
1427,00:00:05.708,-0.03479459043592205
1428,00:00:05.712,-0.0025787744671106286
1429,00:00:05.716,0.01834185258485381
1430,00:00:05.72,-0.00231096940115094
1431,00:00:05.724,-0.011042143974918872
1432,00:00:05.728,0.01293485425412658
1433,00:00:05.732,-0.011360788717866001
1434,00:00:05.736,0.0026917207287624513
1435,00:00:05.74,0.02348217274993656
1436,00:00:05.744,-0.01726793497800823
1437,00:00:05.748,0.005936843343079088
1438,00:00:05.752,-0.0044411770068109
1439,00:00:05.756,-0.009649812418501824
1440,00:00:05.76,0.00571104604750872
1441,00:00:05.764,-0.010073617100715651
1442,00:00:05.768,0.007548306777607637
1443,00:00:05.772,0.008617905725259339
1444,00:00:05.776,-0.00695930584333841
1445,00:00:05.78,0.0020142146386206085
1446,00:00:05.784,0.0268440474756062
1447,00:00:05.788,-0.03210644936189051
1448,00:00:05.792,0.00767996988724917
1449,00:00:05.796,0.018799580750055573
1450,00:00:05.8,-0.027125687338411836
1451,00:00:05.804,-0.01145126903429631
1452,00:00:05.808,-0.0033901564311236104
1453,00:00:05.812,0.00912865786813199
1454,00:00:05.816,0.002948797831777484
1455,00:00:05.82,0.017143508448498327
1456,00:00:05.824,0.014441091101616621
1457,00:00:05.828,-0.0050399829633534015
1458,00:00:05.832,0.019695579947438136
1459,00:00:05.836,-0.0015289084985851973
1460,00:00:05.84,-0.068085522390902
1461,00:00:05.844,-0.02716575236991041
1462,00:00:05.848,0.009916890645399669
1463,00:00:05.852,0.0401092711836099
1464,00:00:05.856,0.03084702463820581
1465,00:00:05.86,0.004802345123607666
1466,00:00:05.864,0.047449910081923
1467,00:00:05.868,-0.0505536822602152
1468,00:00:05.872,-0.0542494151741266
1469,00:00:05.876,-0.01265754480846226
1470,00:00:05.88,0.026108902529813335
1471,00:00:05.884,0.016094503225758672
1472,00:00:05.888,0.013257427141070373
1473,00:00:05.892,-0.005300133023411032
1474,00:00:05.896,0.005017538787797081
1475,00:00:05.9,-0.009070622269064185
1476,00:00:05.904,-0.02333533455384892
1477,00:00:05.908,0.03372762876097114
1478,00:00:05.912,0.006746605300577355
1479,00:00:05.916,0.0010615303181111813
1480,00:00:05.92,-0.02438008855096993
1481,00:00:05.924,-0.021996706724166912
1482,00:00:05.928,-0.00851598079316318
1483,00:00:05.932,0.014232288114726589
1484,00:00:05.936,0.0474434858188033
1485,00:00:05.94,-0.0012972685508430126
1486,00:00:05.944,-0.02173469122499223
1487,00:00:05.948,0.0242523243650794
1488,00:00:05.952,-0.021342443302273733
1489,00:00:05.956,-0.013886288739740798
1490,00:00:05.96,-0.0233444273471832
1491,00:00:05.964,0.0014555924572050884
1492,00:00:05.968,0.010937122628092747
1493,00:00:05.972,0.0323465196415782
1494,00:00:05.976,0.006736160255968581
1495,00:00:05.98,-0.0041985932039096995
1496,00:00:05.984,-0.0033652768470346997
1497,00:00:05.988,-0.02098285965621466
1498,00:00:05.992,0.00263614486902952
1499,00:00:05.996,0.014980403298977776
1500,00:00:06,-0.008826136763673277
1501,00:00:06.004,-0.022162427660077796
1502,00:00:06.008,0.005066164303570989
1503,00:00:06.012,0.0070291388838086295
1504,00:00:06.016,0.00964692328125239
1505,00:00:06.02,0.021999996853992308
1506,00:00:06.024,-0.019764616678003222
1507,00:00:06.028,-0.0224879896268248
1508,00:00:06.032,0.04364531254395843
1509,00:00:06.036,0.006594514474272801
1510,00:00:06.04,-0.03205130691640076
1511,00:00:06.044,0.007054591784253777
1512,00:00:06.048,-0.020515300799161196
1513,00:00:06.052,-0.020765466382727037
1514,00:00:06.056,0.007065025623887741
1515,00:00:06.06,0.021206097211688778
1516,00:00:06.064,0.023107278102543184
1517,00:00:06.068,0.004083437619556209
1518,00:00:06.072,-0.01230465108528731
1519,00:00:06.076,0.00539560301695017
1520,00:00:06.08,-0.007648479659110309
1521,00:00:06.084,-0.002557535190135239
1522,00:00:06.088,-0.02267400128766893
1523,00:00:06.092,0.02422244776971634
1524,00:00:06.096,0.015655753202736503
1525,00:00:06.1,-0.02579610073007646
1526,00:00:06.104,-0.020296986680477858
1527,00:00:06.108,0.010843142023077186
1528,00:00:06.112,0.01866625854745507
1529,00:00:06.116,0.007856580195948473
1530,00:00:06.12,-0.017507940297946327
1531,00:00:06.124,0.004359681159257889
1532,00:00:06.128,0.026183522306382663
1533,00:00:06.132,-0.004417135496623861
1534,00:00:06.136,-0.03702537110075355
1535,00:00:06.14,0.008251841180026621
1536,00:00:06.144,0.03252466511912642
1537,00:00:06.148,-0.022630403225775836
1538,00:00:06.152,-0.02227507566567511
1539,00:00:06.156,-0.00034360564313828945
1540,00:00:06.16,0.01002915203571319
1541,00:00:06.164,0.0005002486286685304
1542,00:00:06.168,0.018429985153488784
1543,00:00:06.172,0.01358629669994111
1544,00:00:06.176,0.00956302846316252
1545,00:00:06.18,-0.01183750294148923
1546,00:00:06.184,-0.02120266371639446
1547,00:00:06.188,-0.022163184359669713
1548,00:00:06.192,0.0059639844112098096
1549,00:00:06.196,0.00686869106721133
1550,00:00:06.2,0.011369609739631413
1551,00:00:06.204,-0.00045830084127374514
1552,00:00:06.208,-0.0006839279601536553
1553,00:00:06.212,0.02196515956893562
1554,00:00:06.216,0.011184745701029881
1555,00:00:06.22,-0.051231608726084205
1556,00:00:06.224,0.01005346421152353
1557,00:00:06.228,0.03155157878063621
1558,00:00:06.232,-0.026581407291814702
1559,00:00:06.236,-0.01699260575696829
1560,00:00:06.24,0.00637636019382626
1561,00:00:06.244,0.0027987125795334595
1562,00:00:06.248,-0.01165489898994566
1563,00:00:06.252,0.05707789491862058
1564,00:00:06.256,0.01311150565743448
1565,00:00:06.26,-0.004724306985735801
1566,00:00:06.264,-0.04160135588608679
1567,00:00:06.268,-0.04263524292036887
1568,00:00:06.272,-0.005757154314778729
1569,00:00:06.276,0.034803590737283195
1570,00:00:06.28,0.02080104150809345
1571,00:00:06.284,0.006602744571864611
1572,00:00:06.288,0.0032037969212979
1573,00:00:06.292,-0.0022087121615186308
1574,00:00:06.296,-0.01630098698660732
1575,00:00:06.3,-0.0214582229964435
1576,00:00:06.304,-0.00570315448567266
1577,00:00:06.308,0.08387617580592635
1578,00:00:06.312,0.007837228477001273
1579,00:00:06.316,-0.07363999215885997
1580,00:00:06.32,-0.04908050037920483
1581,00:00:06.324,0.02395278564654295
1582,00:00:06.328,0.0247635822743177
1583,00:00:06.332,0.02357127889990803
1584,00:00:06.336,-0.003258050419390208
1585,00:00:06.34,0.0014231398963602294
1586,00:00:06.344,0.011643331963568971
1587,00:00:06.348,-0.036318589467555285
1588,00:00:06.352,-0.0008866983116604385
1589,00:00:06.356,0.07607334619387988
1590,00:00:06.36,-0.04270291083958
1591,00:00:06.364,-0.053280609921785106
1592,00:00:06.368,-0.0102903482038528
1593,00:00:06.372,0.01701666854205539
1594,00:00:06.376,0.04265310568735008
1595,00:00:06.38,0.00725085893645883
1596,00:00:06.384,-0.01789899496361614
1597,00:00:06.388,-0.023037571518216258
1598,00:00:06.392,0.04603046132251622
1599,00:00:06.396,0.01381859136745333
1600,00:00:06.4,-0.03270106296986341
1601,00:00:06.404,-0.036779660265892744
1602,00:00:06.408,0.00209465413354337
1603,00:00:06.412,0.013487969990819741
1604,00:00:06.416,0.009677906986325969
1605,00:00:06.42,0.0035401184868533195
1606,00:00:06.424,0.005931973370024931
1607,00:00:06.428,0.021806061267852738
1608,00:00:06.432,-0.03326319949701427
1609,00:00:06.436,0.00796910282224422
1610,00:00:06.44,0.00045826565474274897
1611,00:00:06.444,-0.003196747042238711
1612,00:00:06.448,0.0011474587954580714
1613,00:00:06.452,-0.011134661093819893
1614,00:00:06.456,-0.0025738045806065093
1615,00:00:06.46,0.004099579149624331
1616,00:00:06.464,0.018805111059918958
1617,00:00:06.468,-0.0007145764539018299
1618,00:00:06.472,0.006887694122269771
1619,00:00:06.476,-0.009840968428761693
1620,00:00:06.48,-0.010969871422275903
1621,00:00:06.484,-0.0071654920466244195
1622,00:00:06.488,0.005222570849582549
1623,00:00:06.492,0.00622888840734958
1624,00:00:06.496,-0.011400581046473235
1625,00:00:06.5,0.01587189536076039
1626,00:00:06.504,0.005800859071314363
1627,00:00:06.508,-0.004257094580680129
1628,00:00:06.512,-0.013787229545414482
1629,00:00:06.516,0.0028055661823600487
1630,00:00:06.52,6.0108723118850946e-05
1631,00:00:06.524,0.03869905276224015
1632,00:00:06.528,-0.024769622250460144
1633,00:00:06.532,-0.02269830228760834
1634,00:00:06.536,-0.0038154600188136083
1635,00:00:06.54,0.0032858381455298505
1636,00:00:06.544,0.022093154489994028
1637,00:00:06.548,-0.01061146066058427
1638,00:00:06.552,0.019525712355971298
1639,00:00:06.556,-0.004561121982987944
1640,00:00:06.56,-0.03160787443630398
1641,00:00:06.564,0.02675518067553639
1642,00:00:06.568,0.00931849109474567
1643,00:00:06.572,-0.02110753866145388
1644,00:00:06.576,-0.012469188903196482
1645,00:00:06.58,0.004647079424103136
1646,00:00:06.584,0.01266640005633235
1647,00:00:06.588,-0.00412053056061268
1648,00:00:06.592,0.0004938817583024484
1649,00:00:06.596,0.030354249785887067
1650,00:00:06.6,0.006557163142133518
1651,00:00:06.604,-0.012484420556575088
1652,00:00:06.608,-0.038873925805091844
1653,00:00:06.612,-0.016062196344137213
1654,00:00:06.616,0.0010788198560476
1655,00:00:06.62,0.015475093685381573
1656,00:00:06.624,0.028490730561315975
1657,00:00:06.628,0.014135640165477524
1658,00:00:06.632,-0.007400614267680816
1659,00:00:06.636,-0.03339436656096949
1660,00:00:06.64,0.029337964719161412
1661,00:00:06.644,-0.01267349836416539
1662,00:00:06.648,-0.01173905015457426
1663,00:00:06.652,0.03495137114077808
1664,00:00:06.656,0.0005558943375945005
1665,00:00:06.66,-0.0354622351005673
1666,00:00:06.664,-0.0260893292725086
1667,00:00:06.668,0.00978090334683655
1668,00:00:06.672,0.01120491290930659
1669,00:00:06.676,0.026558158104307908
1670,00:00:06.68,0.007488941540941601
1671,00:00:06.684,0.005041791126132009
1672,00:00:06.688,-0.01322167040780183
1673,00:00:06.692,-0.00909729348495603
1674,00:00:06.696,0.00037226453423498847
1675,00:00:06.7,0.023114978801459102
1676,00:00:06.704,-0.03344215103425088
1677,00:00:06.708,-0.04108562599867585
1678,00:00:06.712,0.022455891303252398
1679,00:00:06.716,0.030185784213244818
1680,00:00:06.72,0.0176394754089415
1681,00:00:06.724,-0.00478567881509661
1682,00:00:06.728,-0.005023296951549128
1683,00:00:06.732,4.8325367970388205e-05
1684,00:00:06.736,-0.007095359498634929
1685,00:00:06.74,0.004910229297820425
1686,00:00:06.744,-0.04467523889616131
1687,00:00:06.748,0.0039021559059619
1688,00:00:06.752,0.08467276021838188
1689,00:00:06.756,-0.03333256999030712
1690,00:00:06.76,-0.032622651197016295
1691,00:00:06.764,-0.00612006010487676
1692,00:00:06.768,-0.01666801527608189
1693,00:00:06.772,0.03694856842048468
1694,00:00:06.776,0.039466411457397085
1695,00:00:06.78,0.002631408278830331
1696,00:00:06.784,-0.04449673788622019
1697,00:00:06.788,-0.009781081462278952
1698,00:00:06.792,-0.00349350413307548
1699,00:00:06.796,-0.02637973800301556
1700,00:00:06.8,0.0294840531423688
1701,00:00:06.804,0.02450413862243296
1702,00:00:06.808,-0.00768344989046454
1703,00:00:06.812,0.017567592673003653
1704,00:00:06.816,0.011456898530013821
1705,00:00:06.82,-0.028504950285423533
1706,00:00:06.824,-0.012838702183216819
1707,00:00:06.828,-0.01073907967656852
1708,00:00:06.832,-0.00555756594985724
1709,00:00:06.836,0.01040615071542561
1710,00:00:06.84,-0.002145464299246641
1711,00:00:06.844,0.025399511039722714
1712,00:00:06.848,0.027489692671224454
1713,00:00:06.852,0.0002529653720558002
1714,00:00:06.856,-0.03203162085264921
1715,00:00:06.86,-0.03130867145955565
1716,00:00:06.864,-0.0044075169134885584
1717,00:00:06.868,0.01938783656805751
1718,00:00:06.872,0.01717353728599842
1719,00:00:06.876,-0.010234821122139698
1720,00:00:06.88,-0.009859589743427917
1721,00:00:06.884,0.03237185487523674
1722,00:00:06.888,0.030608661472797432
1723,00:00:06.892,-0.0323511206079274
1724,00:00:06.896,-0.03789328085258602
1725,00:00:06.9,-0.0025014395505422674
1726,00:00:06.904,-0.002040056861005713
1727,00:00:06.908,0.010327332764063616
1728,00:00:06.912,0.01756549298806931
1729,00:00:06.916,0.01154194300761447
1730,00:00:06.92,-0.0024360392708331307
1731,00:00:06.924,-0.02009106520563365
1732,00:00:06.928,0.02194456988945603
1733,00:00:06.932,0.02870996063575147
1734,00:00:06.936,-0.013613373041152912
1735,00:00:06.94,-0.0775534855201839
1736,00:00:06.944,0.01863680500537157
1737,00:00:06.948,0.01919987122528254
1738,00:00:06.952,0.002161642187274993
1739,00:00:06.956,0.014618129702284969
1740,00:00:06.96,0.015697483671829097
1741,00:00:06.964,-0.0163635122589767
1742,00:00:06.968,-0.020140476990491225
1743,00:00:06.972,0.03660388616845005
1744,00:00:06.976,0.007944600656628647
1745,00:00:06.98,-0.03153431415557862
1746,00:00:06.984,0.00811153207905593
1747,00:00:06.988,-0.02354621705308091
1748,00:00:06.992,-0.01001188065856695
1749,00:00:06.996,0.01052446675021196
1750,00:00:07,0.016354812134522966
1751,00:00:07.004,0.005232628318481151
1752,00:00:07.008,0.00468002632260323
1753,00:00:07.012,0.0134357335045934
1754,00:00:07.016,-0.016521350829862058
1755,00:00:07.02,-0.02863005409017201
1756,00:00:07.024,0.01489199604839083
1757,00:00:07.028,0.0394780057249591
1758,00:00:07.032,-0.0041511154267936425
1759,00:00:07.036,-0.02842699177563186
1760,00:00:07.04,-0.03203496220521626
1761,00:00:07.044,0.007350601954385639
1762,00:00:07.048,0.02122597722336654
1763,00:00:07.052,0.0023914631456136808
1764,00:00:07.056,0.00691144936718047
1765,00:00:07.06,0.008786700200289488
1766,00:00:07.064,-0.006033552577719089
1767,00:00:07.068,0.005611488129943608
1768,00:00:07.072,-0.015019363330793576
1769,00:00:07.076,-0.003387301461771181
1770,00:00:07.08,0.011378614872228358
1771,00:00:07.084,-0.012005015509203049
1772,00:00:07.088,0.0077496962621808295
1773,00:00:07.092,-0.0024844892905093703
1774,00:00:07.096,-0.02195092500187458
1775,00:00:07.1,0.012923394053359521
1776,00:00:07.104,0.022421066649258147
1777,00:00:07.108,-0.009253502357751131
1778,00:00:07.112,-0.011959079187363377
1779,00:00:07.116,0.01669055334059518
1780,00:00:07.12,0.01903703436255446
1781,00:00:07.124,-0.01233849034179002
1782,00:00:07.128,-0.029095866717398167
1783,00:00:07.132,-0.01587433903478086
1784,00:00:07.136,0.029668298084288794
1785,00:00:07.14,0.006595095968805272
1786,00:00:07.144,0.006323417619569183
1787,00:00:07.148,-0.01332970691146326
1788,00:00:07.152,-0.00863644166383893
1789,00:00:07.156,-0.0015158120077103394
1790,00:00:07.16,0.00984224560670555
1791,00:00:07.164,-0.0007316450501093658
1792,00:00:07.168,-0.005144325550645566
1793,00:00:07.172,0.0007862738566473109
1794,00:00:07.176,0.03620198369026186
1795,00:00:07.18,0.033490773290395695
1796,00:00:07.184,-0.0486758407205343
1797,00:00:07.188,-0.0625913236290217
1798,00:00:07.192,-0.00882074330002066
1799,00:00:07.196,0.023578724358230847
1800,00:00:07.2,0.036510632373392554
1801,00:00:07.204,0.028550049290061
1802,00:00:07.208,-0.0057587643386796195
1803,00:00:07.212,-0.028537880047224462
1804,00:00:07.216,-0.001258565578609731
1805,00:00:07.22,0.010580541857052596
1806,00:00:07.224,0.025253859406802824
1807,00:00:07.228,-0.03140903962776064
1808,00:00:07.232,-0.03598099044756965
1809,00:00:07.236,0.002511817059712478
1810,00:00:07.24,0.03936177352443333
1811,00:00:07.244,0.010469630127772689
1812,00:00:07.248,-0.015285748057067419
1813,00:00:07.252,-0.01182347536087037
1814,00:00:07.256,0.017321495804935742
1815,00:00:07.26,0.0003273668698966503
1816,00:00:07.264,-0.01356087252497671
1817,00:00:07.268,0.013714133761823151
1818,00:00:07.272,0.0095278238877654
1819,00:00:07.276,-0.020546988118439913
1820,00:00:07.28,-0.018059446942061207
1821,00:00:07.284,0.008575113897677514
1822,00:00:07.288,0.010661855340004
1823,00:00:07.292,0.0008487171726301382
1824,00:00:07.296,0.011947046965360648
1825,00:00:07.3,-0.02384807681664824
1826,00:00:07.304,0.015588685870170638
1827,00:00:07.308,0.024893305439036322
1828,00:00:07.312,-0.0021041445434093285
1829,00:00:07.316,-0.01613868796266617
1830,00:00:07.32,-0.03874337952584023
1831,00:00:07.324,-0.006819134578108789
1832,00:00:07.328,0.02012888249009846
1833,00:00:07.332,0.0172989498823881
1834,00:00:07.336,0.0022797470446676
1835,00:00:07.34,0.02059315494261682
1836,00:00:07.344,-0.019631821662187604
1837,00:00:07.348,0.01892558019608256
1838,00:00:07.352,-0.013051613466814119
1839,00:00:07.356,-0.01739077223464848
1840,00:00:07.36,-0.0004189697792753534
1841,00:00:07.364,-0.014744860352948343
1842,00:00:07.368,-0.0018804159481078386
1843,00:00:07.372,0.019039908889681094
1844,00:00:07.376,0.012300760368816561
1845,00:00:07.38,0.00928170490078628
1846,00:00:07.384,0.0031993144657462853
1847,00:00:07.388,-0.0221060526091605
1848,00:00:07.392,0.018817404168657948
1849,00:00:07.396,-0.021172079257667106
1850,00:00:07.4,-0.0023342603817582026
1851,00:00:07.404,-0.004198680166155138
1852,00:00:07.408,-0.015042001614347104
1853,00:00:07.412,0.023549804463982582
1854,00:00:07.416,0.03145000897347922
1855,00:00:07.42,-0.02130493102595201
1856,00:00:07.424,-0.010581522758002391
1857,00:00:07.428,-0.004520708404015746
1858,00:00:07.432,0.00602375017479064
1859,00:00:07.436,0.01934279850684109
1860,00:00:07.44,-0.01928372576367105
1861,00:00:07.444,-0.01792296720668675
1862,00:00:07.448,0.013144543627276989
1863,00:00:07.452,0.004936011624522462
1864,00:00:07.456,0.015932716079987554
1865,00:00:07.46,-0.0032494733459316146
1866,00:00:07.464,-0.0151875845622271
1867,00:00:07.468,-0.002930020826170217
1868,00:00:07.472,0.0007236462552100394
1869,00:00:07.476,0.01618110341951251
1870,00:00:07.48,0.002458917326293881
1871,00:00:07.484,-0.030040596146136543
1872,00:00:07.488,0.004623485787305976
1873,00:00:07.492,0.012697784695774268
1874,00:00:07.496,0.010272092418745212
1875,00:00:07.5,0.001076509244739999
1876,00:00:07.504,0.0029914572369307297
1877,00:00:07.508,-0.004020232707261966
1878,00:00:07.512,-0.037088560173287946
1879,00:00:07.516,-0.002019556355662643
1880,00:00:07.52,0.031571906059980344
1881,00:00:07.524,0.01706755906343462
1882,00:00:07.528,-0.00950501952320336
1883,00:00:07.532,-0.011405299184843938
1884,00:00:07.536,0.0012648003175853885
1885,00:00:07.54,0.003533452982082969
1886,00:00:07.544,-0.00691547943279147
1887,00:00:07.548,-0.00780310947448015
1888,00:00:07.552,0.007654267130419619
1889,00:00:07.556,0.007568142609670739
1890,00:00:07.56,-0.01209292479325087
1891,00:00:07.564,0.003594799432903531
1892,00:00:07.568,0.01586782652884727
1893,00:00:07.572,0.011272599454969171
1894,00:00:07.576,0.02318008057773108
1895,00:00:07.58,-0.05682337470352653
1896,00:00:07.584,-0.0381909182760865
1897,00:00:07.588,0.005714996746974072
1898,00:00:07.592,0.03245702525600792
1899,00:00:07.596,0.035635230131447315
1900,00:00:07.6,0.0019589924486353902
1901,00:00:07.604,-0.009991408674977702
1902,00:00:07.608,-0.008769047912210198
1903,00:00:07.612,-0.02555369934998443
1904,00:00:07.616,-0.008980744984000961
1905,00:00:07.62,0.0376532087102533
1906,00:00:07.624,0.029162572871427966
1907,00:00:07.628,-0.013274639728479051
1908,00:00:07.632,-0.04818317014724012
1909,00:00:07.636,-0.027328442141879374
1910,00:00:07.64,0.02476421371102336
1911,00:00:07.644,0.015288881957530968
1912,00:00:07.648,0.024639499490149323
1913,00:00:07.652,0.01415102556347847
1914,00:00:07.656,-0.011843682965263719
1915,00:00:07.66,-0.01437600036479127
1916,00:00:07.664,-0.010185318533331168
1917,00:00:07.668,-0.0034406529739499266
1918,00:00:07.672,0.004098365490790459
1919,00:00:07.676,-0.02455682528670879
1920,00:00:07.68,0.06326973927207288
1921,00:00:07.684,0.00619988352991644
1922,00:00:07.688,-0.04055221518501638
1923,00:00:07.692,-0.023065355606377166
1924,00:00:07.696,-0.011327094398438882
1925,00:00:07.7,0.02409703563898806
1926,00:00:07.704,0.015999418217688792
1927,00:00:07.708,0.0012480602599680406
1928,00:00:07.712,0.0038139671087265084
1929,00:00:07.716,0.002404642844339851
1930,00:00:07.72,0.0050739853177219655
1931,00:00:07.724,-0.011973255255725238
1932,00:00:07.728,-0.022112988284789026
1933,00:00:07.732,-0.013363181846216321
1934,00:00:07.736,0.0199240520596504
1935,00:00:07.74,0.05177478818222874
1936,00:00:07.744,0.016148191876709402
1937,00:00:07.748,-0.05738582788035275
1938,00:00:07.752,-0.053357237949967405
1939,00:00:07.756,0.00636450783349576
1940,00:00:07.76,0.037297113332897376
1941,00:00:07.764,0.02218180877389385
1942,00:00:07.768,0.003280240285675966
1943,00:00:07.772,0.0045886607840657
1944,00:00:07.776,-0.017409963067621
1945,00:00:07.78,0.01157792075537149
1946,00:00:07.784,-0.00333341234363616
1947,00:00:07.788,-0.02162088849581776
1948,00:00:07.792,0.010566937271505539
1949,00:00:07.796,-0.015318777877837392
1950,00:00:07.8,-0.01750032859854399
1951,00:00:07.804,0.02423917129635812
1952,00:00:07.808,0.02906594844534989
1953,00:00:07.812,-0.003007926818099812
1954,00:00:07.816,-0.0176667183404788
1955,00:00:07.82,0.003432529512792821
1956,00:00:07.824,0.00017606030451133663
1957,00:00:07.828,0.005520954728126529
1958,00:00:07.832,-0.017215536150615697
1959,00:00:07.836,0.004071845585713162
1960,00:00:07.84,-0.0033982302993535787
1961,00:00:07.844,0.004554965533316208
1962,00:00:07.848,0.0085874320939183
1963,00:00:07.852,-0.008524374861735875
1964,00:00:07.856,-0.018887126818299318
1965,00:00:07.86,0.02257094392552975
1966,00:00:07.864,0.021325141540728534
1967,00:00:07.868,-0.015695639885962002
1968,00:00:07.872,0.0026905504055320995
1969,00:00:07.876,-0.00998903884101308
1970,00:00:07.88,0.01554013846907764
1971,00:00:07.884,-0.03278074087575086
1972,00:00:07.888,0.004000928485766053
1973,00:00:07.892,0.003165534697473018
1974,00:00:07.896,0.00463259156094864
1975,00:00:07.9,0.019409338943660207
1976,00:00:07.904,-0.01871875138022
1977,00:00:07.908,0.00384472357109192
1978,00:00:07.912,0.011260903906077181
1979,00:00:07.916,0.01331394724547863
1980,00:00:07.92,-0.004601024789735671
1981,00:00:07.924,-0.03602034985669891
1982,00:00:07.928,-0.014859683113172654
1983,00:00:07.932,0.01394381001591681
1984,00:00:07.936,0.028352888301014827
1985,00:00:07.94,0.02343699801713229
1986,00:00:07.944,-0.0245572653366253
1987,00:00:07.948,-0.02122610667720433
1988,00:00:07.952,0.014278508024290159
1989,00:00:07.956,0.00244979863055049
1990,00:00:07.96,-0.03465423732995983
1991,00:00:07.964,0.017349212896078922
1992,00:00:07.968,0.04335428262129428
1993,00:00:07.972,-0.007948331302031835
1994,00:00:07.976,-0.00741609022952616
1995,00:00:07.98,-0.02288466785103087
1996,00:00:07.984,-0.01608508743811394
1997,00:00:07.988,0.008595596998929901
1998,00:00:07.992,0.009545340799377282
1999,00:00:07.996,0.010755471244920049
2000,00:00:08,0.0008399374783039319
2001,00:00:08.004,-0.00344884692458436
2002,00:00:08.008,0.0006227670237421903
2003,00:00:08.012,-0.013889175839722203
2004,00:00:08.016,0.0381698785349727
2005,00:00:08.02,0.002996079623699171
2006,00:00:08.024,-0.02529431669972841
2007,00:00:08.028,-0.03601521439850329
2008,00:00:08.032,-0.004959298064932229
2009,00:00:08.036,0.023533215280622213
2010,00:00:08.04,0.01795985409989953
2011,00:00:08.044,0.01298991171643139
2012,00:00:08.048,-0.01646428008098157
2013,00:00:08.052,0.00519815628649667
2014,00:00:08.056,-0.0072756465524434705
2015,00:00:08.06,0.0045212601544335485
2016,00:00:08.064,0.04135146271437414
2017,00:00:08.068,-0.025486195459961898
2018,00:00:08.072,-0.04706679563969373
2019,00:00:08.076,-0.02601472323294728
2020,00:00:08.08,0.02046659472398456
2021,00:00:08.084,0.0314569538459182
2022,00:00:08.088,0.014659791486337738
2023,00:00:08.092,0.010213617933914104
2024,00:00:08.096,-0.01322146621532737
2025,00:00:08.1,0.0008738713804632395
2026,00:00:08.104,0.015596034936606917
2027,00:00:08.108,-0.02494396385736762
2028,00:00:08.112,-0.02757616713643072
2029,00:00:08.116,0.00984556716866793
2030,00:00:08.12,0.012022107839584397
2031,00:00:08.124,0.0027310024015605085
2032,00:00:08.128,-0.01144049968570468
2033,00:00:08.132,0.0045548819471150585
2034,00:00:08.136,0.02057601534761488
2035,00:00:08.14,0.0016139851650223082
2036,00:00:08.144,-0.01914121862500906
2037,00:00:08.148,-0.018378563690930688
2038,00:00:08.152,0.037676449166610865
2039,00:00:08.156,0.01695660129189487
2040,00:00:08.16,0.015755676664411994
2041,00:00:08.164,-0.02933031274005768
2042,00:00:08.168,-0.07456504786387086
2043,00:00:08.172,-0.013895428826799647
2044,00:00:08.176,0.0506331082433462
2045,00:00:08.18,0.029161406971979893
2046,00:00:08.184,0.01731968298554425
2047,00:00:08.188,0.006609381642192601
2048,00:00:08.192,-0.010513991917832753
2049,00:00:08.196,-0.023998255608603403
2050,00:00:08.2,-0.02482683164998884
2051,00:00:08.204,-0.00329773023258895
2052,00:00:08.208,0.0464873060118407
2053,00:00:08.212,0.03106239950284361
2054,00:00:08.216,-0.025454212911427
2055,00:00:08.22,-0.04555765539407729
2056,00:00:08.224,-0.02618010342121127
2057,00:00:08.228,0.01250087143853307
2058,00:00:08.232,0.03737900033593178
2059,00:00:08.236,0.02245149621739985
2060,00:00:08.24,0.011131819977890705
2061,00:00:08.244,-0.017932916758582
2062,00:00:08.248,-0.013454569852910941
2063,00:00:08.252,-0.01991483150050044
2064,00:00:08.256,-0.010752485017292195
2065,00:00:08.26,0.037624241085723
2066,00:00:08.264,0.006258769601117861
2067,00:00:08.268,-0.02697787783108654
2068,00:00:08.272,0.015960447024554052
2069,00:00:08.276,-0.011086603626608871
2070,00:00:08.28,0.006917217979207715
2071,00:00:08.284,0.007037526927888352
2072,00:00:08.288,-0.011176466476172178
2073,00:00:08.292,-0.001998095249291508
2074,00:00:08.296,0.002405327511951331
2075,00:00:08.3,-0.001064497104380288
2076,00:00:08.304,0.009903966889396543
2077,00:00:08.308,-0.0108953129965812
2078,00:00:08.312,0.008110189577564599
2079,00:00:08.316,-0.01147692138329149
2080,00:00:08.32,0.020225149870384446
2081,00:00:08.324,0.01430150587111708
2082,00:00:08.328,-0.01592743583023546
2083,00:00:08.332,-0.02502349740825593
2084,00:00:08.336,-0.01339627359993755
2085,00:00:08.34,-0.0019257762469351404
2086,00:00:08.344,0.02192828524857761
2087,00:00:08.348,0.03089909069240094
2088,00:00:08.352,-0.005897353868931541
2089,00:00:08.356,0.02107384323608127
2090,00:00:08.36,-0.022243289742618768
2091,00:00:08.364,-0.03701362875290215
2092,00:00:08.368,-0.013434015214443209
2093,00:00:08.372,0.01424660708289589
2094,00:00:08.376,0.019590203126426814
2095,00:00:08.38,0.0041003862861544
2096,00:00:08.384,0.016371071498724615
2097,00:00:08.388,-0.00415683444589377
2098,00:00:08.392,-0.0172803921159357
2099,00:00:08.396,-0.009244291213690255
2100,00:00:08.4,0.01786149328108874
2101,00:00:08.404,-0.0008756988681852809
2102,00:00:08.408,-0.014739070844370856
2103,00:00:08.412,0.0011447127908467969
2104,00:00:08.416,0.007771819131448872
2105,00:00:08.42,0.008621653541922592
2106,00:00:08.424,0.00825882703065871
2107,00:00:08.428,-0.03869881387799979
2108,00:00:08.432,0.00672696100082249
2109,00:00:08.436,0.005274148425087329
2110,00:00:08.44,0.00856248941272497
2111,00:00:08.444,0.024412181461229962
2112,00:00:08.448,0.016718614475394186
2113,00:00:08.452,-0.0399988107383252
2114,00:00:08.456,-0.040781639050692355
2115,00:00:08.46,0.029059952590614568
2116,00:00:08.464,0.007729015953373164
2117,00:00:08.468,0.01039583468809721
2118,00:00:08.472,-0.00012084969785064025
2119,00:00:08.476,0.0077357690315693825
2120,00:00:08.48,0.002427046420052644
2121,00:00:08.484,-0.02111847000196576
2122,00:00:08.488,-0.014675239566713561
2123,00:00:08.492,0.009715376305393871
2124,00:00:08.496,-0.005202216474572199
2125,00:00:08.5,-0.006114737072493879
2126,00:00:08.504,0.0398025987669825
2127,00:00:08.508,0.02932189249258952
2128,00:00:08.512,-0.017344424035400152
2129,00:00:08.516,-0.02852361788973206
2130,00:00:08.52,-0.02746355533599849
2131,00:00:08.524,-0.019078138524491823
2132,00:00:08.528,0.01845346484333275
2133,00:00:08.532,0.00538653647527098
2134,00:00:08.536,0.023857184976805022
2135,00:00:08.54,0.0683537293225526
2136,00:00:08.544,-0.0287622851319611
2137,00:00:08.548,-0.0713660586625337
2138,00:00:08.552,0.006947972811758511
2139,00:00:08.556,0.014530112035572501
2140,00:00:08.56,-0.006024573231115941
2141,00:00:08.564,0.0006412058137356888
2142,00:00:08.568,0.01871188450604677
2143,00:00:08.572,0.0014602453447878413
2144,00:00:08.576,0.0009596018353477189
2145,00:00:08.58,-0.00692512211389841
2146,00:00:08.584,-0.01312264567241071
2147,00:00:08.588,0.005114791914820699
2148,00:00:08.592,0.03532870439812541
2149,00:00:08.596,-0.008682386018335899
2150,00:00:08.6,-0.02107678586617112
2151,00:00:08.604,-0.025122773717157522
2152,00:00:08.608,-0.007481759646907447
2153,00:00:08.612,0.02390027069486675
2154,00:00:08.616,0.016794417169876417
2155,00:00:08.62,-0.00593608233612031
2156,00:00:08.624,0.005655493587255448
2157,00:00:08.628,0.040814218111336266
2158,00:00:08.632,-0.025003015529364292
2159,00:00:08.636,-0.05890694633126264
2160,00:00:08.64,0.008469955995678909
2161,00:00:08.644,0.011647449107840647
2162,00:00:08.648,0.01320293248863887
2163,00:00:08.652,0.00959795573726296
2164,00:00:08.656,0.0054173149401322215
2165,00:00:08.66,0.004291960969567349
2166,00:00:08.664,-0.01409666775725782
2167,00:00:08.668,-0.010971979761961844
2168,00:00:08.672,-0.008397521218284968
2169,00:00:08.676,0.012169430301582945
2170,00:00:08.68,0.006680438295006769
2171,00:00:08.684,0.02143319509923458
2172,00:00:08.688,-0.026273382827639597
2173,00:00:08.692,0.0078925983980298
2174,00:00:08.696,0.01402265252545476
2175,00:00:08.7,-0.04240471310913562
2176,00:00:08.704,-0.013794603000860618
2177,00:00:08.708,0.02241214318200945
2178,00:00:08.712,0.030062628909945488
2179,00:00:08.716,0.00471330631989985
2180,00:00:08.72,-0.00767954718321562
2181,00:00:08.724,-0.0204469286836684
2182,00:00:08.728,0.0197328445501625
2183,00:00:08.732,0.005025127902627002
2184,00:00:08.736,-0.022355454973876407
2185,00:00:08.74,-0.02030953904613851
2186,00:00:08.744,0.005056986119598151
2187,00:00:08.748,0.01300477073527873
2188,00:00:08.752,0.016832487192004912
2189,00:00:08.756,0.013007186556933451
2190,00:00:08.76,-0.0156062338501215
2191,00:00:08.764,-0.01332954817917198
2192,00:00:08.768,-0.00928203214425592
2193,00:00:08.772,0.00821940647438168
2194,00:00:08.776,0.03178491385187953
2195,00:00:08.78,0.023704486899077802
2196,00:00:08.784,-0.043846994638443
2197,00:00:08.788,-0.03703479841351509
2198,00:00:08.792,-0.0077283904538489444
2199,00:00:08.796,0.019101860933005862
2200,00:00:08.8,0.0239311507903039
2201,00:00:08.804,0.01682024216279385
2202,00:00:08.808,0.0021906292531639403
2203,00:00:08.812,-0.02066156436922035
2204,00:00:08.816,-0.00728723581414669
2205,00:00:08.82,0.016398832478444092
2206,00:00:08.824,-0.0068061249330640195
2207,00:00:08.828,0.0068444143980741085
2208,00:00:08.832,0.015436824411153823
2209,00:00:08.836,-0.02790984977036712
2210,00:00:08.84,-0.029531421838328267
2211,00:00:08.844,-0.006214062217622942
2212,00:00:08.848,0.02194274310022597
2213,00:00:08.852,0.03280943841673429
2214,00:00:08.856,0.009213208279106785
2215,00:00:08.86,-0.015265393594745541
2216,00:00:08.864,-0.023380550148431253
2217,00:00:08.868,0.04330901498906313
2218,00:00:08.872,-0.030837679747492124
2219,00:00:08.876,-0.009761242894455749
2220,00:00:08.88,0.02187249856069685
2221,00:00:08.884,-0.018944466952234517
2222,00:00:08.888,-0.02039366611279549
2223,00:00:08.892,0.01774399029091001
2224,00:00:08.896,0.029219231801107522
2225,00:00:08.9,-0.009123880881816149
2226,00:00:08.904,-0.014420215506106619
2227,00:00:08.908,-0.006738769239746031
2228,00:00:08.912,-0.004458552342839539
2229,00:00:08.916,0.03678835928440095
2230,00:00:08.92,0.024148912169039298
2231,00:00:08.924,-0.03749718749895696
2232,00:00:08.928,-0.033792549278587124
2233,00:00:08.932,0.0014373786980286362
2234,00:00:08.936,0.01190590509213508
2235,00:00:08.94,0.006465007085353129
2236,00:00:08.944,0.011419711518101401
2237,00:00:08.948,0.006080845050746582
2238,00:00:08.952,-0.01131332712247967
2239,00:00:08.956,-0.00968361482955515
2240,00:00:08.96,0.029164358740672452
2241,00:00:08.964,-0.0005781976506113494
2242,00:00:08.968,-0.02362194145098328
2243,00:00:08.972,0.018287957645952698
2244,00:00:08.976,-0.010508031118661191
2245,00:00:08.98,-0.0341738974675536
2246,00:00:08.984,0.010363065637648116
2247,00:00:08.988,0.011265175417065641
2248,00:00:08.992,0.015997700626030557
2249,00:00:08.996,-0.00027926743496209253
2250,00:00:09,-0.01013199926819653
2251,00:00:09.004,0.01570321060717109
2252,00:00:09.008,0.027744453400373414
2253,00:00:09.012,-0.004890617448836558
2254,00:00:09.016,-0.05164780747145411
2255,00:00:09.02,-0.03147992212325335
2256,00:00:09.024,0.004478833288885689
2257,00:00:09.028,0.04399262228980662
2258,00:00:09.032,0.022519486257806417
2259,00:00:09.036,0.00804179586702958
2260,00:00:09.04,-0.024383960670093092
2261,00:00:09.044,-0.02802272140979764
2262,00:00:09.048,0.02819930831901732
2263,00:00:09.052,0.0186607189825736
2264,00:00:09.056,-0.036579325387720005
2265,00:00:09.06,-0.00881555583328011
2266,00:00:09.064,0.035291768843308154
2267,00:00:09.068,0.005554967559874049
2268,00:00:09.072,-0.03909572632983332
2269,00:00:09.076,0.00073337927460667
2270,00:00:09.08,0.015085549792274828
2271,00:00:09.084,-0.007998449262231581
2272,00:00:09.088,0.01344814570620656
2273,00:00:09.092,0.02077303102123549
2274,00:00:09.096,0.0012348691270744928
2275,00:00:09.1,-0.030381705146282932
2276,00:00:09.104,-0.006433929549530149
2277,00:00:09.108,0.005719908047467441
2278,00:00:09.112,-0.002443702309392391
2279,00:00:09.116,0.012486928870202972
2280,00:00:09.12,-0.00196239165961743
2281,00:00:09.124,0.003529227018589153
2282,00:00:09.128,-0.01435264223255217
2283,00:00:09.132,0.00658745702821761
2284,00:00:09.136,0.005583984719123691
2285,00:00:09.14,0.002141168108209971
2286,00:00:09.144,0.009448832366615539
2287,00:00:09.148,-0.008072080090641979
2288,00:00:09.152,-0.0143154812976718
2289,00:00:09.156,0.00303337507648393
2290,00:00:09.16,-0.006117247045040141
2291,00:00:09.164,-0.00127029532450251
2292,00:00:09.168,0.012923099799081721
2293,00:00:09.172,0.013246509246528149
2294,00:00:09.176,-0.0030832428019493792
2295,00:00:09.18,-0.020434109028428838
2296,00:00:09.184,-0.0005304375663399592
2297,00:00:09.188,-0.0028963176300748697
2298,00:00:09.192,0.04796242876909673
2299,00:00:09.196,0.02905228268355131
2300,00:00:09.2,-0.0808410365134478
2301,00:00:09.204,-0.042116085998714
2302,00:00:09.208,0.014688251540064859
2303,00:00:09.212,0.038501479284605004
2304,00:00:09.216,0.03365708142518996
2305,00:00:09.22,0.0005396149354054795
2306,00:00:09.224,-0.026465510018169883
2307,00:00:09.228,-0.009031567489728321
2308,00:00:09.232,0.0075517892837524405
2309,00:00:09.236,0.017551869619637703
2310,00:00:09.24,0.00393226067535583
2311,00:00:09.244,-0.0358558753505349
2312,00:00:09.248,-0.01605601911433042
2313,00:00:09.252,0.01315748668275773
2314,00:00:09.256,0.011344362748786804
2315,00:00:09.26,0.005693578626960521
2316,00:00:09.264,0.02186004666145894
2317,00:00:09.268,-0.0104591443669051
2318,00:00:09.272,-0.027588233351707438
2319,00:00:09.276,0.02062194483005445
2320,00:00:09.28,0.019717906950972922
2321,00:00:09.284,0.0050335666164755795
2322,00:00:09.288,-0.04567697586026043
2323,00:00:09.292,-0.011243033921346072
2324,00:00:09.296,0.0022414044360630206
2325,00:00:09.3,0.005502462387084962
2326,00:00:09.304,0.02304282737895844
2327,00:00:09.308,0.01954291295260188
2328,00:00:09.312,-0.0004739286378026
2329,00:00:09.316,-0.01758380932733421
2330,00:00:09.32,-0.008358390070498
2331,00:00:09.324,0.016471639071824085
2332,00:00:09.328,-0.01230402197688817
2333,00:00:09.332,-0.022401178954169154
2334,00:00:09.336,0.011521416250616309
2335,00:00:09.34,0.009471049997955578
2336,00:00:09.344,0.0009551122784614511
2337,00:00:09.348,0.00478054443374276
2338,00:00:09.352,-0.0047553086624247945
2339,00:00:09.356,-0.002439086092635989
2340,00:00:09.36,-0.0009263521060347904
2341,00:00:09.364,-0.0017555111553519305
2342,00:00:09.368,0.0445708478800952
2343,00:00:09.372,-0.022115335799753673
2344,00:00:09.376,-0.03938395949080586
2345,00:00:09.38,-0.004837011918425569
2346,00:00:09.384,0.0166220790124498
2347,00:00:09.388,0.0025992192531703027
2348,00:00:09.392,0.009323835780378431
2349,00:00:09.396,0.01757551601622249
2350,00:00:09.4,-0.018690021941438324
2351,00:00:09.404,0.006874712416902174
2352,00:00:09.408,-0.0012442388106137501
2353,00:00:09.412,0.00521542225033041
2354,00:00:09.416,-0.01862478861585256
2355,00:00:09.42,0.00018329487647860982
2356,00:00:09.424,0.009862009901553392
2357,00:00:09.428,-0.01615365012548864
2358,00:00:09.432,0.0053134553600102585
2359,00:00:09.436,-0.003566584724467249
2360,00:00:09.44,0.00010677857790142796
2361,00:00:09.444,0.025526875047944472
2362,00:00:09.448,-0.00744391721673307
2363,00:00:09.452,0.01301816105842591
2364,00:00:09.456,-0.00401355442591011
2365,00:00:09.46,-0.0019440054893493028
2366,00:00:09.464,-0.01033319067209962
2367,00:00:09.468,-0.032819526270032
2368,00:00:09.472,0.002706111408770088
2369,00:00:09.476,0.018720785912591943
2370,00:00:09.48,0.0028175178449601013
2371,00:00:09.484,0.006791701773181559
2372,00:00:09.488,0.014711254276335219
2373,00:00:09.492,-0.0013170460006222096
2374,00:00:09.496,-0.00616770307533443
2375,00:00:09.5,-0.012046517338603721
2376,00:00:09.504,0.004473662760574368
2377,00:00:09.508,-0.01066553487908097
2378,00:00:09.512,0.006966891407500954
2379,00:00:09.516,0.014091883786022653
2380,00:00:09.52,-0.01158203254453834
2381,00:00:09.524,-0.013762270100414758
2382,00:00:09.528,0.00117392558604481
2383,00:00:09.532,-0.0039238585450220905
2384,00:00:09.536,0.03245174791663881
2385,00:00:09.54,0.01623403956182299
2386,00:00:09.544,-0.02143708989024163
2387,00:00:09.548,-0.01469052693573754
2388,00:00:09.552,-0.0216204044409096
2389,00:00:09.556,-0.009156133048236358
2390,00:00:09.56,0.037302530836313935
2391,00:00:09.564,0.02016990468837314
2392,00:00:09.568,-0.00679511413909494
2393,00:00:09.572,-0.0040687988512218
2394,00:00:09.576,-0.020237907068803882
2395,00:00:09.58,0.02241505077108736
2396,00:00:09.584,-0.020813257317058784
2397,00:00:09.588,-0.00995812239125371
2398,00:00:09.592,0.0007747272029519107
2399,00:00:09.596,0.00899404066149145
2400,00:00:09.6,-0.010888043325394399
2401,00:00:09.604,0.03777744062244886
2402,00:00:09.608,0.031719549850095015
2403,00:00:09.612,-0.043368289247155106
2404,00:00:09.616,-0.037384037394076516
2405,00:00:09.62,0.01899034762755037
2406,00:00:09.624,-0.0009333374327979999
2407,00:00:09.628,-0.002306157723069189
2408,00:00:09.632,0.0230039916932583
2409,00:00:09.636,-0.00998407194856554
2410,00:00:09.64,0.0019236844964324804
2411,00:00:09.644,0.021949888439848998
2412,00:00:09.648,-0.021316590282367556
2413,00:00:09.652,0.012138185440562641
2414,00:00:09.656,-0.02274344675242901
2415,00:00:09.66,-0.015860535582760356
2416,00:00:09.664,0.005098062683828179
2417,00:00:09.668,0.0098819053964689
2418,00:00:09.672,0.01596792275086046
2419,00:00:09.676,0.01850993651896714
2420,00:00:09.68,-0.01556984847411514
2421,00:00:09.684,-0.013276252197101717
2422,00:00:09.688,0.02008890500292182
2423,00:00:09.692,-0.02997327037155628
2424,00:00:09.696,-0.005020961049012861
2425,00:00:09.7,-0.00403893832117319
2426,00:00:09.704,0.03922576457262034
2427,00:00:09.708,0.01307894382625821
2428,00:00:09.712,-0.018892756663262837
2429,00:00:09.716,-0.029489002197806244
2430,00:00:09.72,0.00021729758009314017
2431,00:00:09.724,0.01126770162954932
2432,00:00:09.728,0.01039804331958294
2433,00:00:09.732,0.002523983246646792
2434,00:00:09.736,-0.011420506052672912
2435,00:00:09.74,0.030504264170303923
2436,00:00:09.744,-0.0072097687079804
2437,00:00:09.748,-0.028324495535343913
2438,00:00:09.752,-0.01936928927898407
2439,00:00:09.756,0.02774302195757623
2440,00:00:09.76,-0.0013623814447782908
2441,00:00:09.764,0.009415161912329512
2442,00:00:09.768,0.01284052187111231
2443,00:00:09.772,-0.02896993514150382
2444,00:00:09.776,0.007586038787849249
2445,00:00:09.78,0.0029746812069788558
2446,00:00:09.784,0.007203197339549658
2447,00:00:09.788,0.00034465151838959044
2448,00:00:09.792,-0.01745953119825575
2449,00:00:09.796,0.006209611427038861
2450,00:00:09.8,0.0026820013299584406
2451,00:00:09.804,0.01771464291960001
2452,00:00:09.808,-0.02584453322924672
2453,00:00:09.812,-0.0033301515504717306
2454,00:00:09.816,-0.00591151532717049
2455,00:00:09.82,0.027515892870724194
2456,00:00:09.824,-0.0004519924987107099
2457,00:00:09.828,0.0044064903631805905
2458,00:00:09.832,0.0051815359620377395
2459,00:00:09.836,-0.02016096748411655
2460,00:00:09.84,-0.01827265368774533
2461,00:00:09.844,0.0031765610910952195
2462,00:00:09.848,-0.0032810312695801193
2463,00:00:09.852,0.03805956244468681
2464,00:00:09.856,0.014167521148920045
2465,00:00:09.86,-0.02745614340528848
2466,00:00:09.864,-0.025138052180409497
2467,00:00:09.868,0.000997636991087343
2468,00:00:09.872,0.01253940700553358
2469,00:00:09.876,0.02440089150331915
2470,00:00:09.88,-0.00223392806947232
2471,00:00:09.884,-0.01907941815443337
2472,00:00:09.888,0.009458409156650301
2473,00:00:09.892,-0.004416562733240429
2474,00:00:09.896,-0.01619220548309386
2475,00:00:09.9,0.0014855992048978801
2476,00:00:09.904,0.02193714119493962
2477,00:00:09.908,-0.0010247762547805903
2478,00:00:09.912,0.00023175093519967093
2479,00:00:09.916,-0.003502570092678069
2480,00:00:09.92,-0.025822469033300897
2481,00:00:09.924,0.01199448173065321
2482,00:00:09.928,0.0340695660561323
2483,00:00:09.932,-0.013562249907408811
2484,00:00:09.936,-0.01131944311782716
2485,00:00:09.94,-0.01672136178240177
2486,00:00:09.944,0.0047105634585023586
2487,00:00:09.948,0.01054178038612009
2488,00:00:09.952,0.005476532503962519
2489,00:00:09.956,0.008068915180047046
2490,00:00:09.96,-0.008763832389377058
2491,00:00:09.964,-0.0050067356787622
2492,00:00:09.968,0.007326059159822762
2493,00:00:09.972,-0.012752616778016049
2494,00:00:09.976,0.02197030838578939
2495,00:00:09.98,-0.0060724676586688
2496,00:00:09.984,-0.02855801349505783
2497,00:00:09.988,-0.0014590478967875901
2498,00:00:09.992,-0.0016267492901533894
2499,00:00:09.996,0.04631046205759047
2500,00:00:10,0.01329440716654058
2501,00:00:10.004,-0.019702637102454897
2502,00:00:10.008,-0.03462220379151401
2503,00:00:10.012,-0.01164601207710798
2504,00:00:10.016,0.024820079212076917
2505,00:00:10.02,0.01458296529017387
2506,00:00:10.024,0.006590316072106361
2507,00:00:10.028,0.005518873222172232
2508,00:00:10.032,-0.02590363053604958
2509,00:00:10.036,-0.026776737417094406
2510,00:00:10.04,0.010840431321412299
2511,00:00:10.044,0.033921493450179724
2512,00:00:10.048,-0.0033095772378146093
2513,00:00:10.052,-0.009504537098109752
2514,00:00:10.056,0.009664765209890909
2515,00:00:10.06,-0.015420934418216393
2516,00:00:10.064,-0.00034345593303438966
2517,00:00:10.068,-0.0070791923208162215
2518,00:00:10.072,0.01638435013592239
2519,00:00:10.076,0.006846283678896727
2520,00:00:10.08,-0.005040146526880587
2521,00:00:10.084,-0.021636314690113102
2522,00:00:10.088,0.001374933111947028
2523,00:00:10.092,0.012911369252833534
2524,00:00:10.096,0.02840762119740249
2525,00:00:10.1,-0.003180654719471928
2526,00:00:10.104,-0.038535772357136025
2527,00:00:10.108,-0.0048083779402077025
2528,00:00:10.112,0.01545595191419124
2529,00:00:10.116,0.00040389740024691196
2530,00:00:10.12,-0.00141770183108747
2531,00:00:10.124,0.02360908268019553
2532,00:00:10.128,-0.019248135737143478
2533,00:00:10.132,-0.009345029946416589
2534,00:00:10.136,0.014210204652044922
2535,00:00:10.14,-0.0009106360375881082
2536,00:00:10.144,-0.005829673609696336
2537,00:00:10.148,0.004160696174949401
2538,00:00:10.152,-0.002005989430472246
2539,00:00:10.156,-0.0016831660177558608
2540,00:00:10.16,0.00011840369552374103
2541,00:00:10.164,0.01160402037203312
2542,00:00:10.168,0.020422938279807595
2543,00:00:10.172,-0.04772433266043664
2544,00:00:10.176,-0.020444325171411
2545,00:00:10.18,0.010652923025190778
2546,00:00:10.184,0.02774784364737562
2547,00:00:10.188,0.03580918163061142
2548,00:00:10.192,-0.0020150961354374886
2549,00:00:10.196,-0.02071139542385941
2550,00:00:10.2,-0.022652180865407
2551,00:00:10.204,-0.016622515628114322
2552,00:00:10.208,0.01248871209099895
2553,00:00:10.212,0.00798776536248624
2554,00:00:10.216,-0.00420802109874785
2555,00:00:10.22,0.007311112945899366
2556,00:00:10.224,0.0086497256997973
2557,00:00:10.228,0.02274177363142375
2558,00:00:10.232,-0.010815122164785838
2559,00:00:10.236,-0.01256679883226755
2560,00:00:10.24,-0.02238003863021736
2561,00:00:10.244,-0.00924528751056642
2562,00:00:10.248,0.01802417236467591
2563,00:00:10.252,0.02148599107749755
2564,00:00:10.256,-0.02045687078498304
2565,00:00:10.26,-0.008034245576709509
2566,00:00:10.264,-0.005857670796103843
2567,00:00:10.268,0.044160590507090064
2568,00:00:10.272,0.03745675180107356
2569,00:00:10.276,-0.055876386351883404
2570,00:00:10.28,-0.021497287321835777
2571,00:00:10.284,-0.008964361273683625
2572,00:00:10.288,-0.006663608830422162
2573,00:00:10.292,0.0266107131028548
2574,00:00:10.296,0.0376895368099213
2575,00:00:10.3,-0.025660333456471538
2576,00:00:10.304,-0.011021257145330332
2577,00:00:10.308,-0.003299644216895101
2578,00:00:10.312,0.021711641922593027
2579,00:00:10.316,-0.00451196567155421
2580,00:00:10.32,-0.012996926729101688
2581,00:00:10.324,-0.023723790654912546
2582,00:00:10.328,-0.01444124849513177
2583,00:00:10.332,0.0792656661942601
2584,00:00:10.336,0.003975901054218418
2585,00:00:10.34,-0.03392948489636187
2586,00:00:10.344,-0.02120459976140407
2587,00:00:10.348,-0.006953433156013426
2588,00:00:10.352,-0.0022603820543736284
2589,00:00:10.356,0.02303824620321395
2590,00:00:10.36,0.01756946463137873
2591,00:00:10.364,-0.02182575315237041
2592,00:00:10.368,0.01806060317903754
2593,00:00:10.372,0.013178892433643334
2594,00:00:10.376,-0.027734867762774257
2595,00:00:10.38,-0.01841213414445519
2596,00:00:10.384,0.004693581722676751
2597,00:00:10.388,0.0034829985816031772
2598,00:00:10.392,0.00019041984342038978
2599,00:00:10.396,0.01252676849253475
2600,00:00:10.4,-0.007872019486967469
2601,00:00:10.404,0.00408509932458399
2602,00:00:10.408,0.030567063251510262
2603,00:00:10.412,0.007840804755687679
2604,00:00:10.416,-0.02354929596185685
2605,00:00:10.42,-0.028921480290591696
2606,00:00:10.424,-0.017911553848534777
2607,00:00:10.428,0.0137250805273652
2608,00:00:10.432,0.010438592435093593
2609,00:00:10.436,0.017034089891240042
2610,00:00:10.44,0.0017794115701690286
2611,00:00:10.444,-0.015140620991587628
2612,00:00:10.448,-0.0015798755921423817
2613,00:00:10.452,0.04870815435424439
2614,00:00:10.456,-0.00695926696062092
2615,00:00:10.46,-0.0450859069824219
2616,00:00:10.464,-0.01423187856562435
2617,00:00:10.468,0.012966018635779626
2618,00:00:10.472,-0.00442259979899972
2619,00:00:10.476,-0.0007744675967842314
2620,00:00:10.48,0.018578262941446162
2621,00:00:10.484,0.01355643151327968
2622,00:00:10.488,-0.0023202956654131413
2623,00:00:10.492,-0.01715834718197585
2624,00:00:10.496,0.01880271313712004
2625,00:00:10.5,-0.008211309090256648
2626,00:00:10.504,-0.00852435745764524
2627,00:00:10.508,-0.00819993647746746
2628,00:00:10.512,0.035669675711687845
2629,00:00:10.516,-0.00667894893558696
2630,00:00:10.52,-0.04730645853851452
2631,00:00:10.524,-0.005793243646621719
2632,00:00:10.528,0.01759568427223712
2633,00:00:10.532,0.01680518849752847
2634,00:00:10.536,0.009940004907548419
2635,00:00:10.54,0.003939928952604577
2636,00:00:10.544,0.002670990535989383
2637,00:00:10.548,0.0017034988850355096
2638,00:00:10.552,0.004495457746088501
2639,00:00:10.556,-0.023494629189372097
2640,00:00:10.56,-0.01806074846535924
2641,00:00:10.564,-0.0008092619827948545
2642,00:00:10.568,-0.0039750058494973884
2643,00:00:10.572,0.02175026317127052
2644,00:00:10.576,0.0017247932264581288
2645,00:00:10.58,-9.008671622723471e-05
2646,00:00:10.584,0.020407817559316734
2647,00:00:10.588,0.009317949763499209
2648,00:00:10.592,-0.012570254970341888
2649,00:00:10.596,-0.018627637997269707
2650,00:00:10.6,-0.02908364683389663
2651,00:00:10.604,0.015565356239676508
2652,00:00:10.608,-0.00012220337521286033
2653,00:00:10.612,0.013051715737674382
2654,00:00:10.616,0.003529038745909971
2655,00:00:10.62,0.01010604435577991
2656,00:00:10.624,0.0244297196622938
2657,00:00:10.628,-0.0048928919422905484
2658,00:00:10.632,-0.028892199043184498
2659,00:00:10.636,-0.02200805814936759
2660,00:00:10.64,-0.025898415828123668
2661,00:00:10.644,0.01118898729328066
2662,00:00:10.648,0.038521339185535956
2663,00:00:10.652,0.0243270443752409
2664,00:00:10.656,-0.0006485048215835992
2665,00:00:10.66,-0.0050116525962949215
2666,00:00:10.664,-0.0054883994162082715
2667,00:00:10.668,-0.03270798051380551
2668,00:00:10.672,-0.021286513336235623
2669,00:00:10.676,0.01715506077744072
2670,00:00:10.68,0.016263740137219422
2671,00:00:10.684,0.01635534805245701
2672,00:00:10.688,0.0031674801139160943
2673,00:00:10.692,-0.00486526661552493
2674,00:00:10.696,0.011461892398074294
2675,00:00:10.7,-0.012903219088911991
2676,00:00:10.704,-0.03100731736049056
2677,00:00:10.708,0.007222676882520272
2678,00:00:10.712,-0.0019749761559069087
2679,00:00:10.716,0.011984084216237496
2680,00:00:10.72,0.006783299380913391
2681,00:00:10.724,0.008008392702322412
2682,00:00:10.728,-0.0030583768384531136
2683,00:00:10.732,-0.008981936611235142
2684,00:00:10.736,0.01959231891669333
2685,00:00:10.74,-0.01734845503233374
2686,00:00:10.744,-0.005594142829067955
2687,00:00:10.748,0.01624788809567693
2688,00:00:10.752,-0.02446325216442344
2689,00:00:10.756,-0.003248518798500301
2690,00:00:10.76,0.010335859740735033
2691,00:00:10.764,-0.004504462238401169
2692,00:00:10.768,0.022234929143451116
2693,00:00:10.772,-0.006143606966361401
2694,00:00:10.776,0.005927163787418973
2695,00:00:10.78,-0.0021443490986712234
2696,00:00:10.784,-0.004361934727057821
2697,00:00:10.788,0.008764230704400734
2698,00:00:10.792,-0.030442242976278018
2699,00:00:10.796,-0.00482629798352718
2700,00:00:10.8,0.024552872404456128
2701,00:00:10.804,-0.007305919658392681
2702,00:00:10.808,-0.00598389562219382
2703,00:00:10.812,0.00028743909206240854
2704,00:00:10.816,0.03172118030488486
2705,00:00:10.82,0.01506095589138563
2706,00:00:10.824,-0.055620883591473096
2707,00:00:10.828,0.02011095378838941
2708,00:00:10.832,0.04122782225022098
2709,00:00:10.836,-0.0437596105039119
2710,00:00:10.84,-0.04287253227084872
2711,00:00:10.844,0.0016282178694382301
2712,00:00:10.848,0.02809861488640314
2713,00:00:10.852,0.030926905106753118
2714,00:00:10.856,0.012291019374970394
2715,00:00:10.86,-0.01208857411984351
2716,00:00:10.864,-0.01859807549044488
2717,00:00:10.868,0.008394887205213308
2718,00:00:10.872,-0.0032187392935156597
2719,00:00:10.876,0.0023491596803069496
2720,00:00:10.88,0.007303058984689409
2721,00:00:10.884,-0.03243083413690325
2722,00:00:10.888,-0.00911917048506442
2723,00:00:10.892,0.00494025414809584
2724,00:00:10.896,0.035866554360836744
2725,00:00:10.9,0.00545923574827608
2726,00:00:10.904,-0.01867286907508969
2727,00:00:10.908,0.0019423200283199505
2728,00:00:10.912,0.0462217750027776
2729,00:00:10.916,-0.03631828096695245
2730,00:00:10.92,-0.04760562814772124
2731,00:00:10.924,0.0094369209837168
2732,00:00:10.928,0.026839356578420813
2733,00:00:10.932,0.01966114691458646
2734,00:00:10.936,-0.00796066154725849
2735,00:00:10.94,-0.026533334283158194
2736,00:00:10.944,-0.002930114023911302
2737,00:00:10.948,0.02159427385777235
2738,00:00:10.952,0.009159967041341586
2739,00:00:10.956,0.011329195287544284
2740,00:00:10.96,-0.01582178438548
2741,00:00:10.964,-0.024042282719165052
2742,00:00:10.968,0.006232492683921004
2743,00:00:10.972,0.00996342534199361
2744,00:00:10.976,0.0005050137406215063
2745,00:00:10.98,0.0031811092048883403
2746,00:00:10.984,-0.018575574475107732
2747,00:00:10.988,0.0049928347580134895
2748,00:00:10.992,0.03233159473165873
2749,00:00:10.996,0.0026391642168164626
2750,00:00:11,-0.02080404490698132
2751,00:00:11.004,-0.03113872231915588
2752,00:00:11.008,0.01385533064603802
2753,00:00:11.012,0.017212100210599598
2754,00:00:11.016,-0.02226496255025267
2755,00:00:11.02,0.01443675602786246
2756,00:00:11.024,0.03240370703861114
2757,00:00:11.028,-0.01726535754278299
2758,00:00:11.032,0.0022120019420981303
2759,00:00:11.036,-0.004566119983792263
2760,00:00:11.04,-0.0208244021050632
2761,00:00:11.044,-0.02193939581047747
2762,00:00:11.048,0.018610466271638804
2763,00:00:11.052,0.01924529678944964
2764,00:00:11.056,0.01355497003532949
2765,00:00:11.06,-0.0172143522650003
2766,00:00:11.064,-0.004028111696243279
2767,00:00:11.068,0.019071022703428756
2768,00:00:11.072,0.008396199555136302
2769,00:00:11.076,-0.03541720239445567
2770,00:00:11.08,9.223306551579998e-05
2771,00:00:11.084,0.0030531066004186903
2772,00:00:11.088,-0.008202901342883701
2773,00:00:11.092,-0.005235342090600166
2774,00:00:11.096,0.025442688027396843
2775,00:00:11.1,0.03833250049501655
2776,00:00:11.104,-0.01494743302464486
2777,00:00:11.108,-0.03703035140642893
2778,00:00:11.112,-0.017528686854348045
2779,00:00:11.116,0.036310978233814274
2780,00:00:11.12,-0.015828307805350016
2781,00:00:11.124,0.0018777055665850917
2782,00:00:11.128,0.01389926881529394
2783,00:00:11.132,-0.01498687453567982
2784,00:00:11.136,-0.007077882240992045
2785,00:00:11.14,0.005050381645560271
2786,00:00:11.144,0.03473388357087974
2787,00:00:11.148,-0.01644562161527574
2788,00:00:11.152,-0.005593101494014225
2789,00:00:11.156,0.0038289740623440637
2790,00:00:11.16,-0.02420630911365151
2791,00:00:11.164,-0.00487665040418506
2792,00:00:11.168,0.01341661583865061
2793,00:00:11.172,0.0045654075220227215
2794,00:00:11.176,0.013073963113129139
2795,00:00:11.18,-0.009927822859026523
2796,00:00:11.184,0.0009812866337597292
2797,00:00:11.188,0.0486054228967987
2798,00:00:11.192,-0.019674287643283682
2799,00:00:11.196,-0.06339721148833634
2800,00:00:11.2,-0.01628527743741874
2801,00:00:11.204,0.01179233239963649
2802,00:00:11.208,0.042423814069479704
2803,00:00:11.212,0.0213478989899158
2804,00:00:11.216,-0.002277596388012171
2805,00:00:11.22,-0.02064552577212456
2806,00:00:11.224,-0.010372053598985069
2807,00:00:11.228,0.02671584323979911
2808,00:00:11.232,-0.00222388889233123
2809,00:00:11.236,-0.0300962394103408
2810,00:00:11.24,-0.01245013228617608
2811,00:00:11.244,0.014291113358922318
2812,00:00:11.248,0.00403930246829981
2813,00:00:11.252,0.003159670392051339
2814,00:00:11.256,-0.008903695779736168
2815,00:00:11.26,0.03326698765158653
2816,00:00:11.264,0.011754908598959491
2817,00:00:11.268,-0.02174106519669294
2818,00:00:11.272,-0.014073085738345939
2819,00:00:11.276,0.009804698638617968
2820,00:00:11.28,-0.02029841300100087
2821,00:00:11.284,-0.01381551055237645
2822,00:00:11.288,0.006155769340693859
2823,00:00:11.292,0.02088127611204986
2824,00:00:11.296,0.012919695931486789
2825,00:00:11.3,0.0153993619605899
2826,00:00:11.304,-0.02031496632844207
2827,00:00:11.308,-0.008645894355140581
2828,00:00:11.312,0.005144050810486091
2829,00:00:11.316,-0.012219909112900489
2830,00:00:11.32,-0.011610106797888882
2831,00:00:11.324,0.0038877788465470006
2832,00:00:11.328,0.048169239424169
2833,00:00:11.332,-0.0073002306744456725
2834,00:00:11.336,-0.02229653531685475
2835,00:00:11.34,-0.024109975434839788
2836,00:00:11.344,-0.005845806619618036
2837,00:00:11.348,0.015946487197652463
2838,00:00:11.352,0.017123940400779178
2839,00:00:11.356,0.0084589694160968
2840,00:00:11.36,-0.00926748942583797
2841,00:00:11.364,0.009948003338649869
2842,00:00:11.368,-0.01008458458818493
2843,00:00:11.372,0.008701617829501691
2844,00:00:11.376,-0.01687133969971913
2845,00:00:11.38,-0.009967507925466655
2846,00:00:11.384,-0.006116921234934089
2847,00:00:11.388,0.0060119557310827085
2848,00:00:11.392,0.024230912327766377
2849,00:00:11.396,-0.00020010909065603603
2850,00:00:11.4,-0.018770777620375125
2851,00:00:11.404,0.01122286915779114
2852,00:00:11.408,0.01062192418612536
2853,00:00:11.412,0.00510913738980892
2854,00:00:11.416,-0.020678386092186002
2855,00:00:11.42,-0.022100675545516424
2856,00:00:11.424,0.01409515284467489
2857,00:00:11.428,0.02158807916566734
2858,00:00:11.432,-0.008763526566326629
2859,00:00:11.436,-0.0022573366586584667
2860,00:00:11.44,0.0037183593958616205
2861,00:00:11.444,-0.01868326822295782
2862,00:00:11.448,-0.022897801885847037
2863,00:00:11.452,0.048835319466888974
2864,00:00:11.456,0.05444639758206907
2865,00:00:11.46,-0.02500909450463955
2866,00:00:11.464,-0.0687656002119183
2867,00:00:11.468,-0.02333908982109275
2868,00:00:11.472,0.02719681407324961
2869,00:00:11.476,0.017046974971890484
2870,00:00:11.48,0.017137500108219683
2871,00:00:11.484,0.013530219439417132
2872,00:00:11.488,-0.0023945478023961178
2873,00:00:11.492,-0.02488777879625563
2874,00:00:11.496,-0.01333048986271023
2875,00:00:11.5,-0.0038054345682212495
2876,00:00:11.504,0.02665991720277815
2877,00:00:11.508,0.0399353066459298
2878,00:00:11.512,-0.03079412359511479
2879,00:00:11.516,-0.021859826054424047
2880,00:00:11.52,-0.014295271597802629
2881,00:00:11.524,-0.01214717340189964
2882,00:00:11.528,0.015382745652459562
2883,00:00:11.532,0.01859061722643674
2884,00:00:11.536,0.004202961456030603
2885,00:00:11.54,0.010838598129339568
2886,00:00:11.544,0.014526529004797391
2887,00:00:11.548,-0.0101235662586987
2888,00:00:11.552,-0.0208826931193471
2889,00:00:11.556,-0.005888542160391832
2890,00:00:11.56,-0.00834392057731748
2891,00:00:11.564,-0.008797911024885226
2892,00:00:11.568,0.01209477335214616
2893,00:00:11.572,0.002013051882386219
2894,00:00:11.576,0.011350698769092508
2895,00:00:11.58,0.01978615764528509
2896,00:00:11.584,0.0030005145817995097
2897,00:00:11.588,-0.011300562415272001
2898,00:00:11.592,-0.03129374794661995
2899,00:00:11.596,-0.01863711792975663
2900,00:00:11.6,0.033056659623980494
2901,00:00:11.604,0.041677220258861745
2902,00:00:11.608,-0.008807096630334903
2903,00:00:11.612,-0.031193664181046188
2904,00:00:11.616,0.0013386434875428208
2905,00:00:11.62,-0.02898885635659098
2906,00:00:11.624,-0.008289713499834811
2907,00:00:11.628,0.016656308551318978
2908,00:00:11.632,0.030679820774821617
2909,00:00:11.636,0.02119499107357113
2910,00:00:11.64,0.00518577708862723
2911,00:00:11.644,-0.016981207532808143
2912,00:00:11.648,-0.01726098230574276
2913,00:00:11.652,-0.017345437314361382
2914,00:00:11.656,-0.01148158102296298
2915,00:00:11.66,0.005461299733724441
2916,00:00:11.664,0.01273156516253948
2917,00:00:11.668,0.01347270188853145
2918,00:00:11.672,0.009933643508702522
2919,00:00:11.676,0.00062517449259758
2920,00:00:11.68,0.0001531615271233059
2921,00:00:11.684,-0.009369777224492278
2922,00:00:11.688,-0.02652134373784068
2923,00:00:11.692,0.021090288297273243
2924,00:00:11.696,0.007892560388427219
2925,00:00:11.7,-0.008981776132713976
2926,00:00:11.704,-0.015016175661003219
2927,00:00:11.708,0.00993952015414834
2928,00:00:11.712,0.01296450244262814
2929,00:00:11.716,0.008062326174695024
2930,00:00:11.72,-0.03289684979245075
2931,00:00:11.724,-0.002823197748512021
2932,00:00:11.728,0.051103916717693175
2933,00:00:11.732,0.01250275503844019
2934,00:00:11.736,-0.06638899492099888
2935,00:00:11.74,-0.0086444299668073
2936,00:00:11.744,0.037043835967779166
2937,00:00:11.748,-0.00538156426046049
2938,00:00:11.752,-0.00669545691926033
2939,00:00:11.756,0.00971339386887848
2940,00:00:11.76,0.00030617497395724145
2941,00:00:11.764,-0.005186729133129119
2942,00:00:11.768,0.0035207725595682903
2943,00:00:11.772,0.0011948132887482504
2944,00:00:11.776,0.00016744004096831688
2945,00:00:11.78,0.04309577867388732
2946,00:00:11.784,-0.034030974842607975
2947,00:00:11.788,-0.04739518044516444
2948,00:00:11.792,-0.0007084694225341116
2949,00:00:11.796,0.02447754144668579
2950,00:00:11.8,0.012614520383067433
2951,00:00:11.804,0.00927740894258022
2952,00:00:11.808,0.00463715614750981
2953,00:00:11.812,-0.013396065915003419
2954,00:00:11.816,-0.0013222364941611869
2955,00:00:11.82,0.005688842182280447
2956,00:00:11.824,0.0050718102138489485
2957,00:00:11.828,0.013095555361360362
2958,00:00:11.832,-0.029785527847707306
2959,00:00:11.836,-0.019639057922177
2960,00:00:11.84,0.005526619032025339
2961,00:00:11.844,0.005855573923327028
2962,00:00:11.848,0.017356615513563198
2963,00:00:11.852,0.008845245538395828
2964,00:00:11.856,0.0024599567987024706
2965,00:00:11.86,-0.01504887966439128
2966,00:00:11.864,-0.00373628013767303
2967,00:00:11.868,0.010444554733112461
2968,00:00:11.872,0.005798327503725867
2969,00:00:11.876,1.9839499145798273e-06
2970,00:00:11.88,-0.016541438642889258
2971,00:00:11.884,0.0024869217886589468
2972,00:00:11.888,-0.01917227171361444
2973,00:00:11.892,0.0013261309359222598
2974,00:00:11.896,0.01724235294386744
2975,00:00:11.9,0.01132072973996401
2976,00:00:11.904,0.0053737415000796405
2977,00:00:11.908,-0.011056789953727275
2978,00:00:11.912,0.011405391967855397
2979,00:00:11.916,-0.013756724772974849
2980,00:00:11.92,-0.00457410817034543
2981,00:00:11.924,-0.00894090079236776
2982,00:00:11.928,-0.005549411522224546
2983,00:00:11.932,0.03031750652007767
2984,00:00:11.936,0.007807821966707682
2985,00:00:11.94,-0.007721326779574118
2986,00:00:11.944,-0.014047400793060631
2987,00:00:11.948,-0.012436675839126112
2988,00:00:11.952,-0.006672536721453081
2989,00:00:11.956,0.0117178815416992
2990,00:00:11.96,0.02841105312108996
2991,00:00:11.964,-0.006407776381820409
2992,00:00:11.968,-0.01388994709122926
2993,00:00:11.972,0.008188140025595203
2994,00:00:11.976,-0.01414297684095799
2995,00:00:11.98,0.01234948681667452
2996,00:00:11.984,-0.0006168927066028158
2997,00:00:11.988,-0.0216225408948958
2998,00:00:11.992,0.014036928710993367
2999,00:00:11.996,0.018725454341620214
3000,00:00:12,-0.031318140216171755
3001,00:00:12.004,0.02105491212569178
3002,00:00:12.008,0.007748453295789659
3003,00:00:12.012,-0.02289195219054816
3004,00:00:12.016,0.0092541688354686
3005,00:00:12.02,5.92599390074589e-05
3006,00:00:12.024,-0.004718010954093183
3007,00:00:12.028,0.004633326854673223
3008,00:00:12.032,0.014932441408745896
3009,00:00:12.036,-0.008630559779703572
3010,00:00:12.04,-0.013949445448815849
3011,00:00:12.044,0.004622629843652207
3012,00:00:12.048,0.007759632542729371
3013,00:00:12.052,-0.00447300903033466
3014,00:00:12.056,0.0006817537359892975
3015,00:00:12.06,0.004718662123195829
3016,00:00:12.064,-0.00233895564451809
3017,00:00:12.068,-0.01235943048959598
3018,00:00:12.072,-0.011179504450410598
3019,00:00:12.076,-0.004663848318159541
3020,00:00:12.08,0.03903837240068246
3021,00:00:12.084,0.05445088492706415
3022,00:00:12.088,-0.033116970735136385
3023,00:00:12.092,-0.060160322114825276
3024,00:00:12.096,-0.022698009386658682
3025,00:00:12.1,0.016695302445441478
3026,00:00:12.104,0.03329246351495391
3027,00:00:12.108,0.017230171026312746
3028,00:00:12.112,-0.009971425170078879
3029,00:00:12.116,-0.01170255406759679
3030,00:00:12.12,0.01387027639430016
3031,00:00:12.124,0.008757780349696981
3032,00:00:12.128,-0.02375330822542307
3033,00:00:12.132,-0.01917997444979842
3034,00:00:12.136,0.01986523182131355
3035,00:00:12.14,0.01891443657223134
3036,00:00:12.144,-0.01179837202653285
3037,00:00:12.148,-0.026404622010886662
3038,00:00:12.152,0.00888744276016951
3039,00:00:12.156,0.0260535451816395
3040,00:00:12.16,-0.0090923667885363
3041,00:00:12.164,0.01232180010993034
3042,00:00:12.168,-0.013526938855648022
3043,00:00:12.172,0.005477346887346366
3044,00:00:12.176,-0.00699842680478469
3045,00:00:12.18,-0.02625130582600828
3046,00:00:12.184,0.002547530108131457
3047,00:00:12.188,0.02453694120049475
3048,00:00:12.192,0.01557192741893235
3049,00:00:12.196,0.00045887194573878895
3050,00:00:12.2,-0.006801199167966839
3051,00:00:12.204,-0.022429868578910828
3052,00:00:12.208,0.008481016848236331
3053,00:00:12.212,-0.0068960890639573405
3054,00:00:12.216,-0.0028091924032196403
3055,00:00:12.22,0.02276359219104056
3056,00:00:12.224,0.0016988170609692974
3057,00:00:12.228,-0.014826393686235038
3058,00:00:12.232,0.0054396935738622795
3059,00:00:12.236,-0.0005826603155583195
3060,00:00:12.24,-0.008506275713443718
3061,00:00:12.244,0.02306998847052455
3062,00:00:12.248,-0.015052873641252568
3063,00:00:12.252,-0.01970551325939594
3064,00:00:12.256,0.008606267161667371
3065,00:00:12.26,0.007969826343469318
3066,00:00:12.264,0.0057202622119803
3067,00:00:12.268,0.004291588440537451
3068,00:00:12.272,-0.0007935571484267694
3069,00:00:12.276,0.00427548587322235
3070,00:00:12.28,-0.02038837177678944
3071,00:00:12.284,-0.009308401226007873
3072,00:00:12.288,0.013630420900881282
3073,00:00:12.292,0.024397328030318032
3074,00:00:12.296,-0.012939939515490542
3075,00:00:12.3,-0.00973131542559714
3076,00:00:12.304,-0.0037157586775720198
3077,00:00:12.308,0.0094289523549378
3078,00:00:12.312,0.0015655998431611407
3079,00:00:12.316,-0.01786085590720177
3080,00:00:12.32,-0.0149964647134766
3081,00:00:12.324,0.037448824383318396
3082,00:00:12.328,0.013345193816348858
3083,00:00:12.332,-0.005351228232029827
3084,00:00:12.336,-0.02709779143333433
3085,00:00:12.34,-0.002776600726065222
3086,00:00:12.344,0.01751863257959485
3087,00:00:12.348,0.0038950001762714246
3088,00:00:12.352,-0.008360876934602857
3089,00:00:12.356,0.0063790101557969995
3090,00:00:12.36,-0.01646074536256492
3091,00:00:12.364,0.0014486191503237864
3092,00:00:12.368,0.006164190359413624
3093,00:00:12.372,0.004542232025414709
3094,00:00:12.376,0.0012521871831268098
3095,00:00:12.38,-0.01362317008897662
3096,00:00:12.384,0.005742905370425431
3097,00:00:12.388,0.010251196566969111
3098,00:00:12.392,-0.00040290411561727003
3099,00:00:12.396,0.00111203303094954
3100,00:00:12.4,0.008208884391933683
3101,00:00:12.404,-0.018034922424703833
3102,00:00:12.408,0.0007560010999441528
3103,00:00:12.412,-0.01292870112229143
3104,00:00:12.416,0.004675262636737896
3105,00:00:12.42,0.0031425803899765015
3106,00:00:12.424,0.012520289397798479
3107,00:00:12.428,0.002385532861808294
3108,00:00:12.432,0.029337222920730717
3109,00:00:12.436,-0.0449332017451525
3110,00:00:12.44,-0.010930270887911332
3111,00:00:12.444,0.014507567277178167
3112,00:00:12.448,-0.007854255905840551
3113,00:00:12.452,0.006450603133998815
3114,00:00:12.456,0.01971204974688592
3115,00:00:12.46,-0.0023919962113723094
3116,00:00:12.464,-0.0060627404600381695
3117,00:00:12.468,-0.005893946974538271
