Elapsed Time,EMG1,EMG2,EMG3,BioRadio Event,
00:00:00,0.290609210729599,-2.31449484825134,0.163986623287201,0,
00:00:00.004,-0.278620928525925,2.19833302497864,-0.158126249909401,0,
00:00:00.008,-0.227910697460175,1.83482849597931,-0.127746075391769,0,
00:00:00.012,-0.0231433399021626,0.202757731080055,-0.0123439943417907,0,
00:00:00.016,0.11815994977951,-0.939195096492767,0.0688288882374763,0,
00:00:00.02,0.143025875091553,-1.15318942070007,0.0721376091241837,0,
00:00:00.024,0.0872513651847839,-0.707053959369659,0.0613739863038063,0,
00:00:00.028,0.00457549607381225,-0.090112715959549,0.00266894116066396,0,
00:00:00.032,-0.0342183001339436,0.343179315328598,-0.0311298537999392,0,
00:00:00.036,-0.047766488045454,0.459257483482361,-0.0322353020310402,0,
00:00:00.04,-0.05103425309062,0.331275552511215,-0.02299271710217,0,
00:00:00.044,-0.0211053676903248,0.121415793895721,-0.00413321936503053,0,
00:00:00.048,0.00751460529863834,-0.0493555068969727,0.00860664155334234,0,
00:00:00.052,0.0143957883119583,-0.132220894098282,0.00734509155154228,0,
00:00:00.056,0.0162334088236094,-0.120257243514061,0.00521510001271963,0,
00:00:00.06,0.0153973773121834,-0.0594934225082397,0.000281386892311275,0,
00:00:00.064,0.00153686117846519,-0.00563682476058602,0.00181239971425384,0,
00:00:00.068,-0.00817720871418715,0.0275718905031681,-0.00199556746520102,0,
00:00:00.072,-0.00136770505923778,0.0423728115856647,0.00456235790625215,0,
00:00:00.076,-0.00724798999726772,0.0249079391360283,-0.00428006006404758,0,
00:00:00.08,-0.00647359760478139,0.00152261403854936,-0.0106670903041959,0,
00:00:00.084,0.00217117229476571,-0.000777994689997286,0.0147744491696358,0,
00:00:00.088,0.00465204194188118,-0.0029433611780405,-0.00800954271107912,0,
00:00:00.092,0.00557116325944662,-0.00253324816003442,-0.00365789444185793,0,
00:00:00.096,-0.000832200516015291,-0.0109561858698726,0.00361757935024798,0,
00:00:00.1,-0.00445996271446347,-0.00752277346327901,0.00593479303643107,0,
00:00:00.104,-0.00178073334973305,-0.00305253593251109,0.00161083356942981,0,
00:00:00.108,0.00733344908803701,0.00974245928227901,-0.0105461208149791,0,
00:00:00.112,0.00246678153052926,0.0107562215998769,0.00450718216598034,0,
00:00:00.116,-0.009259725920856,-0.0139145944267511,0.00630148826166987,0,
00:00:00.12,-0.0071594868786633,-0.00707591185346246,-0.0038571497425437,0,
00:00:00.124,0.00542918872088194,0.00996352452784777,-0.00421273754909635,0,
00:00:00.128,0.0084342360496521,0.0128347054123878,0.00073594058630988,0,
00:00:00.132,0.000818923756014556,-0.00199166429229081,-0.000808655633591115,0,
00:00:00.136,-0.00243845628574491,-0.0106877507641912,0.000427146296715364,0,
00:00:00.14,-0.00269461888819933,-0.00326679414138198,0.00141912058461457,0,
00:00:00.144,0.000577382685150951,0.00559286214411259,0.0013905739178881,0,
00:00:00.148,-2.17239303310635E-05,0.00106974528171122,0.000675429415423423,0,
00:00:00.152,-0.000819414504803717,-0.00303095323033631,-0.000123463134514168,0,
00:00:00.156,-0.00913499761372805,0.000778982124757022,0.00355583266355097,0,
00:00:00.16,0.00346187455579638,0.00727856950834394,-0.00459816632792354,0,
00:00:00.164,0.0108230337500572,-0.00564397685229778,-0.00992614682763815,0,
00:00:00.168,0.00667835026979446,-0.00735179521143436,0.0158440116792917,0,
00:00:00.172,-0.00441797729581594,0.00507964286953211,-0.00314811407588422,0,
00:00:00.176,-0.0154131213203073,-0.000110993671114556,-0.0116542810574174,0,
00:00:00.18,-0.00302872899919748,-0.00628898944705725,0.00600855145603418,0,
00:00:00.184,0.0178474225103855,0.00471937796100974,0.00846521463245153,0,
00:00:00.188,-0.000477940862765536,0.0121912648901343,-0.00865793041884899,0,
00:00:00.192,-0.0030536272097379,0.00514696259051561,0.00404670042917132,0,
00:00:00.196,-0.00554186757653952,-0.0115414774045348,0.00308246817439795,0,
00:00:00.2,-0.00430036801844835,-0.0159005038440228,-0.00487650046125054,0,
00:00:00.204,0.00114751525688916,-0.00266441144049168,0.00109481753315777,0,
00:00:00.208,0.00633684592321515,0.0120435068383813,0.000648382469080389,0,
00:00:00.212,0.00615608412772417,0.0186557322740555,-0.00075818708864972,0,
00:00:00.216,-0.00174844358116388,-0.00264022056944668,-0.00332425814121962,0,
00:00:00.22,-0.00388525449670851,-0.00508454442024231,-0.000898261845577508,0,
00:00:00.224,-0.000755951332394034,-0.0091475797817111,0.00360396108590066,0,
00:00:00.228,-0.00279871025122702,-0.00766829075291753,-0.00176757236476988,0,
00:00:00.232,-0.000922966690268368,-0.00249049183912575,0.00400695390999317,0,
00:00:00.236,-0.000967408996075392,0.00668550143018365,0.00194680190179497,0,
00:00:00.24,-0.000296227924991399,0.00518296239897609,-0.00524972332641482,0,
00:00:00.244,0.0112002389505506,0.00566771905869246,0.00148353725671768,0,
00:00:00.248,1.91196068044519E-05,-0.00275612529367208,-0.000827106647193432,0,
00:00:00.252,-0.00408742763102055,0.00162110850214958,-0.00463898945599794,0,
00:00:00.256,-0.00583269773051143,0.00384589750319719,0.000100276782177389,0,
00:00:00.26,0.000347941124346107,-0.00216220947913826,0.0162100363522768,0,
00:00:00.264,0.00202727597206831,-0.00780525011941791,-0.00163764599710703,0,
00:00:00.268,0.00571366818621755,-0.00921019352972507,-0.0117628360167146,0,
00:00:00.272,-0.00552012166008353,-0.000461406540125608,-0.00218122382648289,0,
00:00:00.276,-0.00368409813381732,0.00811986159533262,-0.000749753438867629,0,
00:00:00.28,0.00267248321324587,0.00300075323320925,0.00387238804250956,0,
00:00:00.284,0.00303651648573577,0.00657392432913184,0.00292798760347068,0,
00:00:00.288,0.00121793162543327,0.00397441303357482,-0.003509626025334,0,
00:00:00.292,-0.000521625217515975,-0.00476369168609381,-0.00115006696432829,0,
00:00:00.296,-0.00128768605645746,-0.00402625976130366,0.00381346396170557,0,
00:00:00.3,-0.00319963996298611,-0.00968427024781704,0.0026464662514627,0,
00:00:00.304,0.00355211645364761,-0.0021419005934149,0.00211127661168575,0,
00:00:00.308,-0.00230011972598732,0.010925873182714,-0.00779314711689949,0,
00:00:00.312,0.00301848514936864,0.01097512524575,0.00455015851184726,0,
00:00:00.316,-0.00298621295951307,-0.00842130184173584,6.7928536736872E-05,0,
00:00:00.32,-0.0014891178580001,-0.0120268557220697,-0.00631383806467056,0,
00:00:00.324,0.00511432811617851,0.00425047380849719,-0.00224457075819373,0,
00:00:00.328,0.00218167155981064,0.002065364504233,0.00440917117521167,0,
00:00:00.332,-0.00157093035522848,0.00678286980837584,0.00406503863632679,0,
00:00:00.336,-0.009265654720366,0.0129237044602633,-0.000718775496352464,0,
00:00:00.34,0.00362918525934219,-0.00156966201029718,0.00308933272026479,0,
00:00:00.344,0.000149332758155651,-0.0282101035118103,-0.00220262934453785,0,
00:00:00.348,0.00526077300310135,-0.0103873452171683,-0.00299631035886705,0,
00:00:00.352,-0.00204540998674929,0.00699181249365211,0.000431010877946392,0,
00:00:00.356,0.00029038597131148,0.0219661388546228,0.000119651209388394,0,
00:00:00.36,0.000155487417941913,0.00694735953584313,-0.00260312622413039,0,
00:00:00.364,0.00164207792840898,-0.00278125633485615,-0.000669246539473534,0,
00:00:00.368,-0.000577759521547705,-0.0043019400909543,0.00138460379093885,0,
00:00:00.372,-0.00827597454190254,-0.00944933854043484,-5.95017045270652E-05,0,
00:00:00.376,0.00198223697952926,-0.00414482690393925,0.00129866960924119,0,
00:00:00.38,0.00410422449931502,0.00176208245102316,0.0143201751634479,0,
00:00:00.384,0.00250840303488076,0.00649204570800066,-0.00649985857307911,0,
00:00:00.388,0.00229564611800015,0.00805411301553249,-0.0179072059690952,0,
00:00:00.392,-0.00111882365308702,0.000238225897192024,0.000854442827403545,0,
00:00:00.396,-0.00509765325114131,-0.00949836615473032,0.00492645381018519,0,
00:00:00.4,-0.0110670374706388,-0.0082208439707756,0.00781689397990704,0,
00:00:00.404,0.00629921536892653,-0.00229553459212184,0.00996519811451435,0,
00:00:00.408,0.0149146541953087,0.0133545007556677,-0.00892426073551178,0,
00:00:00.412,0.00265814759768546,0.00771958939731121,-0.00833305902779102,0,
00:00:00.416,-0.00733546772971749,-0.00949695147573948,0.00198345514945686,0,
00:00:00.42,-0.0111571168527007,-0.00838950555771589,-0.00133899424690753,0,
00:00:00.424,0.0011509460164234,0.00251213507726789,0.00278960517607629,0,
00:00:00.428,0.00643812073394656,0.0183775406330824,0.00460225204005837,0,
00:00:00.432,0.00537996366620064,0.00279456959106028,-0.00324683031067252,0,
00:00:00.436,-0.00677074585109949,-0.0209012199193239,0.00176232494413853,0,
00:00:00.44,-0.00643733609467745,-0.013154630549252,-0.00170690705999732,0,
00:00:00.444,0.00472155818715692,0.0154678653925657,-0.00158560310956091,0,
00:00:00.448,0.00929433107376099,0.0163567885756493,0.0017022741958499,0,
00:00:00.452,-0.00210601021535695,-0.00667531276121736,-0.00138768542092294,0,
00:00:00.456,-0.00651119835674763,-0.0133582493290305,0.00130949507001787,0,
00:00:00.46,-0.000732388405594975,-0.000155529211042449,-0.00359999691136181,0,
00:00:00.464,0.00346874119713902,0.00652864342555404,0.00343449763022363,0,
00:00:00.468,-0.000514606654178351,0.00408667232841253,-0.00173327617812902,0,
00:00:00.472,-0.000931106973439455,-0.00201591127552092,0.00166519964113832,0,
00:00:00.476,-0.000224736053496599,-0.0023758455645293,0.00353730912320316,0,
00:00:00.48,0.000395136157749221,-0.000891693751327693,0.000294643599772826,0,
00:00:00.484,-0.00358902104198933,-0.00579354865476489,-0.00230448110960424,0,
00:00:00.488,0.00639773719012737,0.00686335284262896,0.00143685948569328,0,
00:00:00.492,0.00344782532192767,0.00981402955949306,-0.00965387839823961,0,
00:00:00.496,-0.00550519907847047,-0.00110506115015596,-0.00350546115078032,0,
00:00:00.5,-0.0038454073946923,-0.0162816625088453,0.00995173864066601,0,
00:00:00.504,0.00411774171516299,0.00452004885300994,0.000416592927649617,0,
00:00:00.508,0.00452833855524659,0.0163314174860716,-0.000265187438344583,0,
00:00:00.512,-0.00474360445514321,-0.0123750371858478,0.00278619723394513,0,
00:00:00.516,-0.00810141395777464,-0.014459028840065,0.00105959817301482,0,
00:00:00.52,0.00137007387820631,0.00120595516636968,0.00507966661825776,0,
00:00:00.524,0.0113438600674272,0.0172674506902695,-0.0059376759454608,0,
00:00:00.528,0.00462019583210349,0.00685943849384785,-0.0127530610188842,0,
00:00:00.532,-0.0113659547641873,-0.00452564144507051,0.00110230571590364,0,
00:00:00.536,-0.000262317014858127,-0.00647619366645813,0.00382535485550761,0,
00:00:00.54,-0.00031599702197127,-0.0101403528824449,0.00698789861053228,0,
00:00:00.544,0.000713176152203232,0.00746981473639607,0.00565875321626663,0,
00:00:00.548,0.00125851493794471,0.00874839536845684,-0.000506671669427305,0,
00:00:00.552,0.00105171161703765,-0.000843277142848819,-0.00649618869647384,0,
00:00:00.556,-0.00163974589668214,-0.00650850404053926,-0.00471455603837967,0,
00:00:00.56,-0.000253513891948387,-0.0100689474493265,-0.00298583507537842,0,
00:00:00.564,0.00315794348716736,0.00823230016976595,0.00585399381816387,0,
00:00:00.568,0.00551414117217064,0.0138201350346208,0.00220244540832937,0,
00:00:00.572,-0.00488245254382491,-0.00840479880571365,-0.00383418519049883,0,
00:00:00.576,-0.00727387424558401,-0.00999355036765337,0.0138210179284215,0,
00:00:00.58,-0.0020086916629225,-0.0014888480072841,-0.00934208370745182,0,
00:00:00.584,0.0026602114085108,0.0111116943880916,-0.00636607268825173,0,
00:00:00.588,0.0103276381269097,0.00633599422872067,-0.00112134858500212,0,
00:00:00.592,-0.000964548322372139,-0.0031841576565057,0.00444995565339923,0,
00:00:00.596,-0.00619643134996295,-0.00930166989564896,0.00120231253094971,0,
00:00:00.6,-0.00111000880133361,-0.00139149825554341,0.00253096735104918,0,
00:00:00.604,-0.00127900927327573,0.00265248422510922,-0.00377939781174064,0,
00:00:00.608,0.00300627830438316,0.00944059062749147,0.00870936550199986,0,
00:00:00.612,0.00430958205834031,0.00213415804319084,-0.0128167504444718,0,
00:00:00.616,-0.00171533541288227,-0.00868152361363173,0.00215795612893999,0,
00:00:00.62,-0.00270301825366914,-0.00844909716397524,0.00212580454535782,0,
00:00:00.624,-0.00355300796218216,-0.00504243467003107,0.00165948050562292,0,
00:00:00.628,0.00201812037266791,0.0126891890540719,0.00286018545739353,0,
00:00:00.632,0.00256137456744909,0.0111298142001033,-0.00204580463469028,0,
00:00:00.636,0.00533302128314972,-0.00132955110166222,-0.00221260846592486,0,
00:00:00.64,-0.00835268851369619,-0.0126296589151025,0.00333082000724971,0,
00:00:00.644,-0.000284153677057475,-0.00185383087955415,-0.00560982478782535,0,
00:00:00.648,-4.47303682449274E-05,-0.00172414840199053,-0.00248139537870884,0,
00:00:00.652,0.00357289076782763,0.000554647529497743,0.00814674329012632,0,
00:00:00.656,0.00205129012465477,0.0128273405134678,-0.00225202972069383,0,
00:00:00.66,0.00177533226087689,0.00961853004992008,0.00408892054110765,0,
00:00:00.664,-0.00356733240187168,-0.00533742783591151,-0.0056847888045013,0,
00:00:00.668,-0.00321521703153849,-0.0166090652346611,-0.00125265668611974,0,
00:00:00.672,-0.00304835708811879,-0.00797581765800714,-0.00105456809978932,0,
00:00:00.676,0.00287984078750014,0.00880992133170366,0.0096909748390317,0,
00:00:00.68,0.00531594688072801,0.00383694586344063,-0.0012718983925879,0,
00:00:00.684,-0.000528225500602275,0.00211054715327919,-0.0107353357598186,0,
00:00:00.688,-0.0019907969981432,-0.00102744111791253,0.00468006916344166,0,
00:00:00.692,-0.00347643019631505,1.86243028110766E-06,-0.00820074044167995,0,
00:00:00.696,0.0016595465131104,0.00304226647131145,0.00994106754660606,0,
00:00:00.7,1.1004469342879E-05,0.00307072419673204,0.00733027141541243,0,
00:00:00.704,0.00488696387037635,-0.0054037356749177,0.00420357193797827,0,
00:00:00.708,-0.000708241015672684,0.000186004239367321,-0.0105625046417117,0,
00:00:00.712,-0.00235829758457839,-0.00219487631693482,-0.00626979069784284,0,
00:00:00.716,-0.00177977001294494,-0.00324366870336235,-0.00559580978006125,0,
00:00:00.72,-0.000499867950566113,0.00240684230811894,0.00164602627046406,0,
00:00:00.724,-0.00364949717186391,0.00293511431664228,0.0101631376892328,0,
00:00:00.728,0.00689347693696618,0.0014062124537304,0.00177903787698597,0,
00:00:00.732,0.0020033810287714,-0.00021503480093088,-0.00059469259576872,0,
00:00:00.736,-0.00100338214542717,-0.00312658213078976,0.00324052409268916,0,
00:00:00.74,-0.0102497208863497,-0.00114308809861541,-0.00466780876740813,0,
00:00:00.744,0.00434590503573418,0.00721513573080301,0.000376796175260097,0,
00:00:00.748,0.0101247876882553,-0.00213951570913196,0.00367963663302362,0,
00:00:00.752,0.000696113158483058,-0.003623534925282,-0.0138418637216091,0,
00:00:00.756,-0.0020927747245878,-0.00391330802813172,0.00314281275495887,0,
00:00:00.76,0.00385662727057934,0.00226097786799073,0.0057000289671123,0,
00:00:00.764,-0.0243224948644638,0.0030580444727093,-0.00335166323930025,0,
00:00:00.768,0.00361910602077842,0.00159084738697857,0.0056000268086791,0,
00:00:00.772,0.00983618106693029,0.00198658788576722,0.00300817633979023,0,
00:00:00.776,0.0022471493575722,-0.00922035425901413,-0.0033736159093678,0,
00:00:00.78,0.000824568036478013,-0.000945939973462373,-0.0014005396515131,0,
00:00:00.784,0.00476992921903729,0.0184649415314198,-0.00749375903978944,0,
00:00:00.788,-0.00166385353077203,-0.00319851725362241,-0.00127599586267024,0,
00:00:00.792,-0.00354102882556617,-0.0131011512130499,0.0188396777957678,0,
00:00:00.796,-0.00264113978482783,-0.00637307902798057,-0.00832916051149368,0,
00:00:00.8,-0.00289403507485986,-8.65336769493297E-05,-0.00610450748354197,0,
00:00:00.804,0.00468786153942347,0.0141855888068676,0.00321456836536527,0,
00:00:00.808,0.0050294166430831,0.00312210293486714,0.00883001089096069,0,
00:00:00.812,-0.00439998647198081,-0.00442955130711198,-0.0101948380470276,0,
00:00:00.816,-0.00592383928596973,0.000438612332800403,-0.00684185139834881,0,
00:00:00.82,0.00136316532734782,-0.000747274258174002,0.00294443126767874,0,
00:00:00.824,0.00129462138283998,-0.00206396216526628,0.00326565071009099,0,
00:00:00.828,0.00646448181942105,-0.00607657665386796,0.00348279625177383,0,
00:00:00.832,0.00232514808885753,-0.000985187478363514,0.00847585499286652,0,
00:00:00.836,-8.25678725959733E-05,-0.000645946012809873,-0.00349145429208875,0,
00:00:00.84,-0.0140944235026836,0.00016013860295061,0.000290269468678162,0,
00:00:00.844,0.00131008599419147,0.0223048403859138,-0.0117110311985016,0,
00:00:00.848,0.0116654615849257,0.0180333591997623,-0.0055378139950335,0,
00:00:00.852,-0.0082166139036417,-0.0205371752381325,0.00260933628305793,0,
00:00:00.856,0.00192891585174948,-0.0350171402096748,0.0167219154536724,0,
00:00:00.86,0.00105429522227496,-0.00820049643516541,-0.000328779191477224,0,
00:00:00.864,0.00309651950374246,0.0167977828532457,-0.00794298388063908,0,
00:00:00.868,0.00284077995456755,0.0206660274416208,-0.00500031094998121,0,
00:00:00.872,-0.00346472417004406,0.0137405190616846,-0.00429988093674183,0,
00:00:00.876,-0.00381788169033825,-0.00399640062823892,0.00668471166864038,0,
00:00:00.88,-0.00170004193205386,-0.0174595359712839,0.00629120413213968,0,
00:00:00.884,0.000464347511297092,-0.00584323704242706,0.00824801065027714,0,
00:00:00.888,0.00155125407036394,0.00279648066498339,-0.00965306907892227,0,
00:00:00.892,-0.000580867053940892,0.00335549702867866,-0.0080885449424386,0,
00:00:00.896,0.000691823952365667,-0.00262581394053996,-0.00561918690800667,0,
00:00:00.9,0.00571535946801305,-0.000298170547466725,0.0155058009549975,0,
00:00:00.904,-0.00268032145686448,0.00233108829706907,0.00799274630844593,0,
00:00:00.908,-0.000868565286509693,0.00905510038137436,-0.0113660739734769,0,
00:00:00.912,0.00338667980395257,0.00191284576430917,-0.010600377805531,0,
00:00:00.916,-0.00884328503161669,-0.0129718715324998,0.00550792226567864,0,
00:00:00.92,0.000230627119890414,-0.00671021547168493,0.00840558391064405,0,
00:00:00.924,0.00499363895505667,0.0104505410417914,0.00235185539349914,0,
00:00:00.928,0.000363098661182448,0.00468199979513884,-0.00910983141511679,0,
00:00:00.932,-0.00295694172382355,-0.00489614903926849,-0.00468588853254914,0,
00:00:00.936,0.00337845948524773,-0.00336462073028088,0.00791313871741295,0,
00:00:00.94,-0.00461323047056794,-0.00181450473610312,0.000795807049144059,0,
00:00:00.944,0.00480002071708441,0.00633573578670621,-0.00295633776113391,0,
00:00:00.948,0.00475549511611462,0.00810479372739792,-0.00071285548619926,0,
00:00:00.952,-0.00730549171566963,-0.00434705475345254,-0.000586165406275541,0,
00:00:00.956,-0.00898103509098291,-0.0124081708490849,0.0122247394174337,0,
00:00:00.96,0.0106019442901015,0.000551409495528787,-0.00103292649146169,0,
00:00:00.964,0.000779094931203872,0.0091352416202426,-0.00631394376978278,0,
00:00:00.968,0.000913615745957941,0.00648499978706241,-0.00969182886183262,0,
00:00:00.972,0.0016114148311317,0.000599824823439121,0.00181295175570995,0,
00:00:00.976,-0.00539568671956658,-0.0160948131233454,0.00430496782064438,0,
00:00:00.98,-0.000953441485762596,-0.00114117690827698,-0.00127264438197017,0,
00:00:00.984,0.00704942457377911,0.00823897588998079,0.00461372593417764,0,
00:00:00.988,-0.00899575278162956,7.89275436545722E-05,-0.00168191944248974,0,
00:00:00.992,-0.000309188093524426,-0.00755893951281905,0.00310086039826274,0,
00:00:00.996,-0.00125736813060939,-0.002804946154356,0.00284816953353584,0,
00:00:01,0.00663320114836097,0.0133804911747575,-0.0163309443742037,0,
00:00:01.004,0.00646696565672755,0.00796781294047832,0.00961692910641432,0,
00:00:01.008,-0.0019889164250344,-0.0032947666477412,0.0100819710642099,0,
00:00:01.012,-0.00440185843035579,-0.00850941799581051,-0.00606193812564015,0,
00:00:01.016,-0.00739437900483608,-0.00896579213440418,-0.00678047491237521,0,
00:00:01.02,0.0050833486020565,0.0040587754920125,-0.00232946500182152,0,
00:00:01.024,0.00839459989219904,0.0144512327387929,-0.000429967418313026,0,
00:00:01.028,-0.00775190116837621,0.00585286971181631,0.00512989796698093,0,
00:00:01.032,-0.00147953780833632,-0.0123464949429035,0.00829437654465437,0,
00:00:01.036,-0.0056880246847868,-0.0169943515211344,-0.00286659132689238,0,
00:00:01.04,0.00258488534018397,-0.00316763529554009,-0.00254745990969241,0,
00:00:01.044,0.00733099551871419,0.010228724218905,-0.00242733373306692,0,
00:00:01.048,0.00392447831109166,0.0130395274609327,-0.00361540797166526,0,
00:00:01.052,0.00145983998663723,0.00555454893037677,-0.000399355456465855,0,
00:00:01.056,-0.00506937457248569,-0.00421762559562922,0.00427697785198689,0,
00:00:01.06,-0.0130432564765215,-0.00378658971749246,0.00491148047149181,0,
00:00:01.064,0.0102295596152544,0.000564798770938069,-0.0038803571369499,0,
00:00:01.068,0.00553008913993835,-0.00420356821268797,-0.00529221259057522,0,
00:00:01.072,-0.00459619797766209,-0.00790664739906788,0.00166176748462021,0,
00:00:01.076,0.000500393914990127,-0.00751332240179181,0.00324084446765482,0,
00:00:01.08,-0.00206031580455601,0.00203602388501167,0.00617537926882505,0,
00:00:01.084,-0.00531485490500927,0.0310575850307941,-0.00585266947746277,0,
00:00:01.088,0.00635917671024799,0.0135151110589504,-0.00859068147838116,0,
00:00:01.092,0.00660650478675961,-0.0207073632627726,0.0121178226545453,0,
00:00:01.096,-0.00621832115575671,-0.0266699697822332,0.00411504041403532,0,
00:00:01.1,-0.00262356642633677,-0.00793124549090862,-0.00946131441742182,0,
00:00:01.104,3.16279292746913E-05,0.0128163155168295,-0.00389215536415577,0,
00:00:01.108,0.00123720115516335,0.0144165204837918,-0.00552910938858986,0,
00:00:01.112,0.0012420741841197,0.011535138823092,0.0169588550925255,0,
00:00:01.116,0.00271159945987165,-0.00223013013601303,0.00160676217637956,0,
00:00:01.12,7.91032216511667E-05,-0.00999370124191046,-0.00892338808625937,0,
00:00:01.124,-0.00194743752945215,-0.00716066872701049,-0.00516479136422277,0,
00:00:01.128,-0.00632826611399651,-0.00367708061821759,0.0028036970179528,0,
00:00:01.132,-0.00344385812059045,0.000206276861717924,0.00598614243790507,0,
00:00:01.136,0.00721831899136305,0.00913545489311218,0.00215629418380558,0,
00:00:01.14,0.00605486938729882,0.01017159037292,-0.00373442191630602,0,
00:00:01.144,0.00347420526668429,-0.00157185574062169,-0.00523061817511916,0,
00:00:01.148,-0.00416117580607533,-0.00652976892888546,0.00328988395631313,0,
00:00:01.152,-0.00698385527357459,-0.00995216891169548,0.000712076667696238,0,
00:00:01.156,-0.00472065201029181,-0.0047014825977385,-0.00197420106269419,0,
00:00:01.16,0.00778276845812798,0.00587287917733192,0.00413481192663312,0,
00:00:01.164,0.00311387283727527,0.0116861900314689,-0.000224952600547113,0,
00:00:01.168,0.00172494107391685,0.00245010852813721,-0.00141157081816345,0,
00:00:01.172,-0.0058694570325315,-0.00298727722838521,0.0093211866915226,0,
00:00:01.176,-0.00133368081878871,-0.00226130103692412,-0.0143154626712203,0,
00:00:01.18,0.00071488373214379,-0.00705501576885581,0.000176739151356742,0,
00:00:01.184,0.00325263873673975,-0.000491945131216198,0.000994714442640543,0,
00:00:01.188,-0.00115194462705404,-0.00184451602399349,-0.000337459787260741,0,
00:00:01.192,0.00276357238180935,0.0105874231085181,-0.00257572392001748,0,
00:00:01.196,-0.0105244182050228,0.00902228057384491,0.00440357998013496,0,
00:00:01.2,0.00315898726694286,-0.0127759138122201,0.00714183645322919,0,
00:00:01.204,0.00533501710742712,-0.00935095641762018,0.000396379269659519,0,
00:00:01.208,0.00481452932581306,0.00173815828748047,-0.000253961130511016,0,
00:00:01.212,-0.00233365967869759,0.001295326044783,0.00583371426910162,0,
00:00:01.216,-0.0057376753538847,0.00627248268574476,-0.0172737259417772,0,
00:00:01.22,-0.000238802618696354,0.0089025953784585,0.00343994819559157,0,
00:00:01.224,0.00346691720187664,0.00331653608009219,-0.0022083108779043,0,
00:00:01.228,0.00128357030916959,-0.0110931657254696,-0.000233623752137646,0,
00:00:01.232,-0.00526314741000533,-0.0102370725944638,0.00647907191887498,0,
00:00:01.236,-0.00209784624166787,0.000884356850292534,-0.000933542032726109,0,
00:00:01.24,0.00386838312260807,0.0136253256350756,-0.00543421041220427,0,
00:00:01.244,0.00750064151361585,0.00312587432563305,0.0102186845615506,0,
00:00:01.248,-0.00516352010890841,-0.0062730242498219,-0.0038555352948606,0,
00:00:01.252,-0.00240646000020206,-0.0101380553096533,0.000289398158201948,0,
00:00:01.256,-0.00459033204242587,-0.00648577883839607,-0.00435283919796348,0,
00:00:01.26,0.00868355575948954,0.010445705614984,0.0027945670299232,0,
00:00:01.264,0.00428098626434803,0.0137812839820981,0.00202083145268261,0,
00:00:01.268,-0.0084230937063694,-0.000976325769443065,-0.00237569701857865,0,
00:00:01.272,-0.00528498366475105,-0.0100517626851797,0.000398801785195246,0,
00:00:01.276,0.000666618754621595,-0.00315692811273038,0.00225405744276941,0,
00:00:01.28,0.00394501676782966,0.00116479257121682,-0.004469592589885,0,
00:00:01.284,0.00797871965914965,0.00669134221971035,-0.000227430180530064,0,
00:00:01.288,0.00199209502898157,0.00833894964307547,-0.000901584629900754,0,
00:00:01.292,-0.00553975766524673,-0.00844592787325382,0.00100541196297854,0,
00:00:01.296,-0.00514167686924338,-0.0151222832500935,0.00205483543686569,0,
00:00:01.3,-0.00604842742905021,0.00267746695317328,0.00168187357485294,0,
00:00:01.304,0.00908968970179558,0.00279642548412085,0.00264175073243678,0,
00:00:01.308,0.00363202881999314,0.00460720900446177,-0.0024382492993027,0,
00:00:01.312,-0.00505378423258662,0.0021458980627358,0.00156424625311047,0,
00:00:01.316,-0.000829846831038594,0.00812452007085085,-0.00706577161327004,0,
00:00:01.32,0.00510148191824555,0.00554767157882452,-0.000928130000829697,0,
00:00:01.324,-0.000757420784793794,-0.00875478610396385,0.00435434048995376,0,
00:00:01.328,-0.0088553735986352,-0.0116976071149111,0.000742742093279958,0,
00:00:01.332,-0.00226451852358878,-0.0128691224381328,-6.67732820147648E-05,0,
00:00:01.336,0.0104066701605916,0.00420906255021691,-0.00212708278559148,0,
00:00:01.34,0.00205242820084095,0.0222483705729246,0.00615254510194063,0,
00:00:01.344,-0.00103798124473542,0.0106102731078863,-0.00438737729564309,0,
00:00:01.348,0.00461024045944214,-0.00595162715762854,-0.00121647422201931,0,
00:00:01.352,-0.00709114316850901,-0.0148793691769242,-0.00177179696038365,0,
00:00:01.356,-0.00541694089770317,-0.00999342370778322,0.00267123337835073,0,
00:00:01.36,-0.000519090099260211,0.0029559510294348,0.00213358667679131,0,
00:00:01.364,0.00690962933003902,0.0156779810786247,0.00652757007628679,0,
00:00:01.368,0.00557769881561399,0.00212852261029184,-0.00276563572697341,0,
00:00:01.372,-0.00722091691568494,-0.00843195337802172,-0.0142940673977137,0,
00:00:01.376,-0.00505903223529458,-0.00308707472868264,-0.00275346753187478,0,
00:00:01.38,0.00431505590677261,0.00257991650141776,0.00728402053937316,0,
00:00:01.384,0.00139328290242702,-5.89246483286843E-05,0.00917178019881248,0,
00:00:01.388,-0.00187360926065594,4.98598965350538E-05,0.00302387261763215,0,
00:00:01.392,-0.000285790709313005,-0.00359154236502945,-0.00463648000732064,0,
00:00:01.396,0.00546310562640429,0.00669590104371309,-0.00469790538772941,0,
00:00:01.4,-0.000311391981085762,-0.00245610624551773,7.44895296520554E-05,0,
00:00:01.404,-0.00237349956296384,0.00472913682460785,-0.00144817447289824,0,
00:00:01.408,-0.002051942050457,0.00124082015827298,5.84185545449145E-05,0,
00:00:01.412,0.00128103897441179,-0.00689606415107846,0.00138801848515868,0,
00:00:01.416,-0.00579170556738973,-0.00823594070971012,0.00366847729310393,0,
00:00:01.42,0.0031659419182688,0.0107092037796974,0.00104290386661887,0,
00:00:01.424,0.00597003847360611,0.00456123007461429,-0.00354192173108459,0,
00:00:01.428,-0.00245390017516911,-0.00346222962252796,-0.00233691208995879,0,
00:00:01.432,-0.000327593239489943,-0.00187743816059083,0.00414526415988803,0,
00:00:01.436,-0.0022760780993849,-0.00568925635889173,-0.00256812199950218,0,
00:00:01.44,-0.000537779473233968,-0.00320249889045954,-0.00387840787880123,0,
00:00:01.444,0.00730883330106735,0.015360014513135,0.00241234595887363,0,
00:00:01.448,-0.002382145030424,-5.50641962036025E-05,0.00330204144120216,0,
00:00:01.452,-0.00600726343691349,-0.0114772282540798,0.00170019129291177,0,
00:00:01.456,-5.25293507962488E-05,-0.00474114390090108,0.00395079841837287,0,
00:00:01.46,0.00397861376404762,0.00520959915593266,-0.00937884300947189,0,
00:00:01.464,-0.00651902053505182,0.010430496186018,0.0034683037083596,0,
00:00:01.468,0.0112053556367755,0.00542091950774193,-0.00181526434607804,0,
00:00:01.472,-0.00136024062521756,-0.00755759794265032,-0.00135863735340536,0,
00:00:01.476,-0.00413946527987719,-0.00553520489484072,0.0045090545900166,0,
00:00:01.48,-0.00257537979632616,-0.00700544053688645,-0.0088204201310873,0,
00:00:01.484,-0.00226700282655656,0.0037480138707906,0.00601604487746954,0,
00:00:01.488,0.00119137414731085,0.0006379175465554,0.00321461306884885,0,
00:00:01.492,0.00306996610015631,0.00418167095631361,0.00669134594500065,0,
00:00:01.496,0.00681114196777344,0.00294276466593146,-0.00710323499515653,0,
00:00:01.5,-0.00292629166506231,-0.00581976678222418,-0.0106207532808185,0,
00:00:01.504,-0.00176322169136256,0.000377241842215881,0.00236675445921719,0,
00:00:01.508,0.000475542532512918,0.0111676165834069,0.0138186635449529,0,
00:00:01.512,-0.00311652827076614,0.00270930700935423,-0.00210973690263927,0,
00:00:01.516,-0.00202666781842709,-0.00772976549342275,-0.0161433015018702,0,
00:00:01.52,0.00426860712468624,-0.00798370223492384,0.0124551458284259,0,
00:00:01.524,-0.00247931503690779,-0.00769523298367858,-0.00427089259028435,0,
00:00:01.528,0.000414624373661354,0.00499122962355614,0.00162562006153166,0,
00:00:01.532,-0.00343219633214176,0.00463761389255524,0.00230934796854854,0,
00:00:01.536,8.27480616862886E-05,-0.00258708978071809,0.000906153349205852,0,
00:00:01.54,0.0050659878179431,0.00353245879523456,0.00151296018157154,0,
00:00:01.544,0.00748465489596128,0.0149721428751945,-0.00112849660217762,0,
00:00:01.548,-0.00593691505491734,-0.00338145531713963,-0.00261746137402952,0,
00:00:01.552,-0.00331132323481143,-0.0127154104411602,-0.00637022824957967,0,
00:00:01.556,-0.00311385118402541,-0.00441705901175737,-0.00100703001953661,0,
00:00:01.56,0.000316825549816713,0.00352651136927307,0.00777039583772421,0,
00:00:01.564,0.00872645620256662,0.0120825311169028,0.00275302096270025,0,
00:00:01.568,-0.00131489953491837,-0.00636057136580348,0.00175766588654369,0,
00:00:01.572,-0.00150152551941574,-0.0132594518363476,-0.00148494530003518,0,
00:00:01.576,-0.0063224253244698,-0.000228963137487881,-0.00514813605695963,0,
00:00:01.58,-0.00406015245243907,0.0132327014580369,-0.00679771741852164,0,
00:00:01.584,0.0127049498260021,0.013838779181242,0.00661870231851935,0,
00:00:01.588,0.00176835153251886,-0.00483654951676726,0.0035630667116493,0,
00:00:01.592,-0.00966711901128292,-0.0187839455902576,0.00292212050408125,0,
00:00:01.596,-0.0022045976947993,-0.0101046310737729,-0.00073022220749408,0,
00:00:01.6,0.00677216798067093,0.0103668989613652,-0.00496137281879783,0,
00:00:01.604,0.00183255271986127,0.0112551786005497,-0.00284918211400509,0,
00:00:01.608,-0.00086796295363456,0.00683178007602692,0.00234539364464581,0,
00:00:01.612,-0.00371554214507341,-0.00559650035575032,-0.00411284528672695,0,
00:00:01.616,-0.00131863774731755,-0.00622623786330223,0.00643735891208053,0,
00:00:01.62,0.00529748108237982,0.00141712883487344,0.00636530620977283,0,
00:00:01.624,0.000108187283331063,0.00286435638554394,-0.0106475921347737,0,
00:00:01.628,-0.00385036505758762,-0.00918054208159447,-0.000970436434727162,0,
00:00:01.632,-0.00169194594491273,-0.00347019336186349,0.0155282020568848,0,
00:00:01.636,0.00301284808665514,0.011854843236506,-0.00878654234111309,0,
00:00:01.64,0.00210921885445714,0.000280771113466471,-0.00651533808559179,0,
00:00:01.644,3.04454842989799E-05,0.00421987054869533,0.00265993783250451,0,
00:00:01.648,0.000833584694191813,-0.0028982968069613,0.000225633018999361,0,
00:00:01.652,-0.00539808021858335,-0.00882298219949007,-0.0021503537427634,0,
00:00:01.656,0.00168385345023125,0.00298459292389452,0.000194624837604351,0,
00:00:01.66,-0.000490934937261045,-0.00329333124682307,0.00210966123268008,0,
00:00:01.664,-0.000137247174279764,0.00199297093786299,0.000174947927007452,0,
00:00:01.668,0.000575618003495038,0.00326618412509561,0.00521138124167919,0,
00:00:01.672,0.000826014787890017,4.99624802614562E-05,-0.000476874236483127,0,
00:00:01.676,0.00266487873159349,0.00230711977928877,-0.00241286982782185,0,
00:00:01.68,-0.00389727880246937,-0.00137608963996172,-9.65441358857788E-06,0,
00:00:01.684,0.00220966711640358,-0.00123165675904602,-0.000786710530519485,0,
00:00:01.688,-0.000849898438900709,0.00803748704493046,-0.00757040409371257,0,
00:00:01.692,-0.0050594019703567,-0.00548169435933232,0.00493396911770105,0,
00:00:01.696,0.00382270594127476,-0.0102082584053278,0.0026776974555105,0,
00:00:01.7,0.0058138812892139,0.0018639377085492,0.00303255557082593,0,
00:00:01.704,-0.00105402315966785,0.0110446875914931,-0.00424136221408844,0,
00:00:01.708,-0.00298237591050565,-0.000529288197867572,0.00170258653815836,0,
00:00:01.712,-0.00219794223085046,-0.0103203691542149,0.000864761997945607,0,
00:00:01.716,-0.00267542246729136,-0.00139009696431458,-0.00508236652240157,0,
00:00:01.72,0.000524640490766615,0.00806459318846464,0.000266177114099264,0,
00:00:01.724,0.00882674939930439,0.00899858120828867,-0.00209638755768538,0,
00:00:01.728,-0.00129577599000186,-0.00860395841300488,0.0118828099220991,0,
00:00:01.732,-0.00569376209750772,-0.00902263540774584,-0.00413317745551467,0,
00:00:01.736,0.00171234516892582,0.00541940610855818,-0.00504217809066176,0,
00:00:01.74,-0.004788170568645,-0.000955975498072803,0.000630354683380574,0,
00:00:01.744,0.00351156364195049,0.00289150374010205,0.00577912712469697,0,
00:00:01.748,0.00357095990329981,0.00896055158227682,-0.00310288509353995,0,
00:00:01.752,0.00102680968120694,-0.000887085450813174,-0.00131221674382687,0,
00:00:01.756,-0.00317131378687918,-0.0138564268127084,-0.00498895347118378,0,
00:00:01.76,0.00224751001223922,0.00271430518478155,0.00561489351093769,0,
00:00:01.764,-0.0016768203349784,0.00222137570381165,-0.00691317766904831,0,
00:00:01.768,0.000188103411346674,0.00335653498768806,0.0091309268027544,0,
00:00:01.772,-0.000577543338295072,-0.00157050311099738,0.00534990476444364,0,
00:00:01.776,-0.00521322852000594,-0.00801835767924786,-0.00577967334538698,0,
00:00:01.78,0.00320762442424893,0.0116351209580898,-0.00533457798883319,0,
00:00:01.784,0.00116500933654606,0.0016423468478024,-0.00352612999267876,0,
00:00:01.788,0.000778774847276509,-0.00337450508959591,-0.000548704934772104,0,
00:00:01.792,-0.00150576361920685,-0.0101564228534698,0.0123363956809044,0,
00:00:01.796,0.000121992612548638,0.00176990579348058,0.00554186524823308,0,
00:00:01.8,0.00763067882508039,0.007020128890872,-0.00925829447805882,0,
00:00:01.804,-0.00248099933378398,0.00154199439566582,-0.000764809607062489,0,
00:00:01.808,-0.0105392904952168,-0.000821369234472513,-0.00463670492172241,0,
00:00:01.812,0.00761734368279576,-0.00133852451108396,-0.00360832526348531,0,
00:00:01.816,0.000931697781197727,-0.00302271824330091,0.00799660291522741,0,
00:00:01.82,-0.00135867344215512,-0.00042060884879902,0.00289249047636986,0,
00:00:01.824,-0.00130271154921502,0.00376646965742111,-0.000636899319943041,0,
00:00:01.828,-0.00251592206768692,0.00422527175396681,-0.0165062006562948,0,
00:00:01.832,0.000211505946936086,-0.006516192574054,0.0163149554282427,0,
00:00:01.836,0.00422665476799011,0.00263044098392129,0.00689507788047194,0,
00:00:01.84,0.00439551426097751,0.00151764368638396,-0.00384669355116785,0,
00:00:01.844,0.00171594589482993,-0.00116355181671679,-0.0035640022251755,0,
00:00:01.848,-0.00545296771451831,-0.00433814944699407,-0.00734797865152359,0,
00:00:01.852,-0.0155991399660707,-0.00590214366093278,4.94891974085476E-05,0,
00:00:01.856,0.00376317789778113,0.00101710564922541,0.0113526936620474,0,
00:00:01.86,0.0153399314731359,0.0159401353448629,-0.0111773097887635,0,
00:00:01.864,0.00677659222856164,0.00597377959638834,0.000792913429904729,0,
00:00:01.868,-0.00729738408699632,-0.015548630617559,0.00617733597755432,0,
00:00:01.872,-0.00969457719475031,-0.00560453394427896,0.00302852224558592,0,
00:00:01.876,-0.00521158147603273,-0.00310151628218591,-0.00515725649893284,0,
00:00:01.88,0.00680518383160234,0.00554717658087611,0.0031174561008811,0,
00:00:01.884,0.0106864813715219,0.0126616014167666,-0.00331725575961173,0,
00:00:01.888,-0.00174783635884523,0.00780316954478621,-0.00244031869806349,0,
00:00:01.892,-0.00479687610641122,-0.0129661411046982,0.00215349160134792,0,
00:00:01.896,-0.00536867696791887,-0.0151488184928894,-0.0024034371599555,0,
00:00:01.9,0.00336598581634462,0.0035156540106982,1.68566821230343E-05,0,
00:00:01.904,0.000805029994808137,0.00524755055084825,0.000240126406424679,0,
00:00:01.908,-0.00604363763704896,0.000355663883965462,0.00867560878396034,0,
00:00:01.912,0.00608442351222038,0.00203661154955626,0.00727958884090185,0,
00:00:01.916,0.00717480154708028,0.00715967919677496,-0.0112603744491935,0,
00:00:01.92,0.000731611915398389,0.00635057361796498,-0.00273147528059781,0,
00:00:01.924,-0.00408351002261043,0.00136858085170388,-0.00313609070144594,0,
00:00:01.928,-0.00905102305114269,-0.0180896241217852,-0.00285919057205319,0,
00:00:01.932,-0.00723990146070719,-0.0127155994996428,-0.00488674640655518,0,
00:00:01.936,0.0130788870155811,0.00335366628132761,0.00769236916676164,0,
00:00:01.94,0.00659577082842588,0.0138790020719171,0.0125542692840099,0,
00:00:01.944,-0.00674758665263653,0.010534243658185,0.00187398050911725,0,
00:00:01.948,0.00182331982068717,-0.00591275282204151,0.00398492673411965,0,
00:00:01.952,-0.00323253311216831,-0.0127924811094999,-0.0176154412329197,0,
00:00:01.956,0.000478452770039439,0.00355546758510172,-0.00832138117402792,0,
00:00:01.96,0.000945739157032222,0.0165273603051901,0.005814912263304,0,
00:00:01.964,0.00243824068456888,-0.000606620335020125,0.00255077355541289,0,
00:00:01.968,-0.00425046635791659,-0.0106097524985671,0.00693004159256816,0,
00:00:01.972,-6.56896954751574E-05,-0.0143795581534505,-0.00353894988074899,0,
00:00:01.976,-0.000901768624316901,-0.00633776281028986,0.00612665619701147,0,
00:00:01.98,0.000854343525134027,0.011507548391819,-0.00490666553378105,0,
00:00:01.984,0.00391920423135161,0.0253907646983862,-0.000106986641185358,0,
00:00:01.988,0.00368185085244477,0.00699266884475946,-0.00252861157059669,0,
00:00:01.992,-0.00511657120659947,-0.0205262918025255,-0.003401143476367,0,
00:00:01.996,0.000222561793634668,-0.0199672859162092,0.00448001828044653,0,
00:00:02,-0.000210413068998605,0.00318357395008206,-0.00105383398476988,0,
00:00:02.004,-0.00117759953718632,0.0159363877028227,0.00179233611561358,0,
00:00:02.008,-0.00325253838673234,-0.000670190900564194,0.00541399978101254,0,
00:00:02.012,-0.00261176028288901,-0.00277038640342653,-0.00192870246246457,0,
00:00:02.016,-0.000253131671342999,-0.000693564245011657,-0.0103052277117968,0,
00:00:02.02,0.0122808404266834,0.00521042570471764,0.00927677378058434,0,
00:00:02.024,0.00117339799180627,0.0036436568479985,-0.00575509387999773,0,
00:00:02.028,-0.00346299656666815,-0.0106138251721859,-0.00139552669133991,0,
00:00:02.032,-0.00791549868881702,-0.00767772831022739,0.00805346015840769,0,
00:00:02.036,0.00191967282444239,0.0142893232405186,-0.00533967977389693,0,
00:00:02.04,0.00526790088042617,0.00348972785286605,-0.00327102281153202,0,
00:00:02.044,0.00359350210055709,-0.000945676816627383,0.00546775292605162,0,
00:00:02.048,-0.00602442538365722,-0.010703363455832,0.001607277081348,0,
00:00:02.052,-0.00886249169707298,-0.01310676895082,0.00174456206150353,0,
00:00:02.056,0.00128717557527125,0.0144995776936412,-0.00713246827945113,0,
00:00:02.06,0.00962094962596893,0.0165295917540789,0.0055479584261775,0,
00:00:02.064,0.000816834974102676,-0.00169181812088937,0.000744896824471653,0,
00:00:02.068,0.000658090342767537,-0.0104596186429262,-0.00619964208453894,0,
00:00:02.072,-0.00110120605677366,-0.0114369252696633,-0.000487983255879954,0,
00:00:02.076,-0.00201975554227829,0.00271556130610406,0.00404376816004515,0,
00:00:02.08,-0.00170171679928899,0.00828676391392946,8.14987215562724E-05,0,
00:00:02.084,-0.000714116962626576,0.0023259250447154,-0.00477047776803374,0,
00:00:02.088,0.00231185415759683,-0.000639903475530446,0.003685237839818,0,
00:00:02.092,-0.00124202738516033,-0.00569566199555993,0.00963896326720715,0,
00:00:02.096,0.00116634659934789,0.00269496906548738,-0.00531681859865785,0,
00:00:02.1,0.000352269766153768,0.00897624529898167,-0.00645017344504595,0,
00:00:02.104,-0.00685437163338065,-0.00132780999410897,-0.00466654589399695,0,
00:00:02.108,0.000917340745218098,-0.0143177611753345,0.00519467052072287,0,
00:00:02.112,0.00839806534349918,-0.0056839301250875,0.00035830374690704,0,
00:00:02.116,0.00180036865640432,0.0104306032881141,0.00289500830695033,0,
00:00:02.12,-0.00185609876643866,0.00835195649415255,0.00164609448984265,0,
00:00:02.124,-0.00274351006373763,-0.000513233186211437,0.00386352022178471,0,
00:00:02.128,0.000177341207745485,-0.00337247247807682,-0.00120286899618804,0,
00:00:02.132,-0.00665203761309385,-0.00495305471122265,-0.0107487542554736,0,
00:00:02.136,0.00282717496156693,-0.00128424656577408,-0.00246559409424663,0,
00:00:02.14,0.00816392619162798,0.00184486655052751,0.00706912809982896,0,
00:00:02.144,-0.00824273843318224,0.00478872377425432,-0.00168507813941687,0,
00:00:02.148,0.00437993230298162,0.00190716539509594,-0.0024548415094614,0,
00:00:02.152,0.0011077692033723,-0.0012247875565663,0.00808246806263924,0,
00:00:02.156,-0.000867548922542483,-0.00251748273149133,0.000146019898238592,0,
00:00:02.16,0.000695087888743728,0.00418799743056297,0.00447185756638646,0,
00:00:02.164,-0.00291567598469555,-0.00252458290196955,-0.00314352451823652,0,
00:00:02.168,-0.00392577610909939,-0.0126174557954073,-0.00732231698930264,0,
00:00:02.172,6.2394145061262E-05,-0.00720853311941028,-0.0015780070098117,0,
00:00:02.176,0.00290959514677525,0.0100974747911096,0.000977940740995109,0,
00:00:02.18,0.0135362381115556,0.0223444476723671,-0.00248155300505459,0,
00:00:02.184,-0.00405065948143601,0.0107394205406308,0.00529983406886458,0,
00:00:02.188,-0.0122778145596385,-0.020684115588665,-0.000206624230486341,0,
00:00:02.192,-0.00540542928501964,-0.0190102644264698,0.00850295089185238,0,
00:00:02.196,0.00243722880259156,-0.00576310278847814,-0.0047136046923697,0,
00:00:02.2,0.00795057043433189,0.0180641487240791,-0.00749347591772676,0,
00:00:02.204,0.00503282295539975,0.00848108157515526,-0.00206367089413106,0,
00:00:02.208,0.000360518490197137,-0.0012974456185475,0.00891793612390757,0,
00:00:02.212,-0.000555208709556609,-0.00130923232063651,0.00229533156380057,0,
00:00:02.216,-0.00513767916709185,0.00188924977555871,-0.00612379517406225,0,
00:00:02.22,-0.00157894263975322,-2.27286636800272E-06,-0.00537040457129478,0,
00:00:02.224,-0.000481024937471375,-0.0105651365593076,0.00920276809483767,0,
00:00:02.228,-0.00617563119158149,-0.0116836428642273,0.00496626598760486,0,
00:00:02.232,0.00428315810859203,0.00565434619784355,-0.00809650681912899,0,
00:00:02.236,0.00129731267224997,0.0123801352456212,-0.00329338968731463,0,
00:00:02.24,0.0107578299939632,0.0113463485613465,-0.00161483359988779,0,
00:00:02.244,0.00305363978259265,0.00225138477981091,0.008223588578403,0,
00:00:02.248,-0.0151832774281502,-0.015646792948246,-0.00244919070973992,0,
00:00:02.252,-0.00149383547250181,-0.0144193097949028,0.00184074707794935,0,
00:00:02.256,0.00511927157640457,0.00370063679292798,0.00247388938441873,0,
00:00:02.26,-0.00112027523573488,0.0153711643069983,-0.00547355227172375,0,
00:00:02.264,0.00156182062346488,0.00299389171414077,-0.00777824595570564,0,
00:00:02.268,0.00323742511682212,-0.000777206965722144,0.00622036913409829,0,
00:00:02.272,-0.00402301084250212,-0.012172662653029,0.00170134613290429,0,
00:00:02.276,-0.00245490996167064,-0.000350937363691628,0.00119365169666708,0,
00:00:02.28,0.0047083287499845,0.00824354216456413,0.0093544265255332,0,
00:00:02.284,0.000212964281672612,0.00188300735317171,-0.00328259100206196,0,
00:00:02.288,-0.00132344523444772,0.00038152135675773,-0.0128640672191978,0,
00:00:02.292,-0.0011717036832124,-0.00241764029487967,0.00138769554905593,0,
00:00:02.296,-0.002491754014045,-0.00734291831031442,0.00197737594135106,0,
00:00:02.3,0.00221771094948053,-0.00223474041558802,0.00224040192551911,0,
00:00:02.304,0.00631372956559062,0.00908033363521099,0.0016512832371518,0,
00:00:02.308,-0.00332579342648387,0.00483430735766888,0.000620585633441806,0,
00:00:02.312,-0.0080746142193675,-0.0117546487599611,0.00179827259853482,0,
00:00:02.316,0.00253660371527076,-0.000673473172355443,-0.00476552080363035,0,
00:00:02.32,0.00625514658167958,0.00832639634609222,0.00380066689103842,0,
00:00:02.324,0.00226117158308625,0.00431068986654282,0.00335719715803862,0,
00:00:02.328,-0.00384085602127016,0.00074280530679971,-0.010316020809114,0,
00:00:02.332,-0.00539614865556359,-0.0122688990086317,-0.002955402713269,0,
00:00:02.336,0.00319347879849374,-0.00346541032195091,0.00261771911755204,0,
00:00:02.34,-0.00135339633561671,0.00305704073980451,0.00436737528070807,0,
00:00:02.344,0.00423584971576929,0.00709863938391209,0.00317082810215652,0,
00:00:02.348,-0.000151825821376406,0.00158716505393386,-0.00118706352077425,0,
00:00:02.352,-0.0033646582160145,0.00132836704142392,0.00310406554490328,0,
00:00:02.356,0.00103155616670847,0.00287372921593487,0.00214743288233876,0,
00:00:02.36,0.00140609999652952,-0.00455604726448655,-0.00889191590249538,0,
00:00:02.364,0.000443471828475595,-0.00756767019629478,-0.00712952949106693,0,
00:00:02.368,0.00579620245844126,-0.00503671448677778,0.00719596305862069,0,
00:00:02.372,-0.00873731542378664,-0.00239818287082016,0.0102521749213338,0,
00:00:02.376,-0.0118047632277012,0.0114974984899163,-0.0070393537171185,0,
00:00:02.38,0.00884290970861912,0.0104934880509973,-0.00597465643659234,0,
00:00:02.384,0.0135739231482148,0.00325724366120994,0.00364910787902772,0,
00:00:02.388,-0.00279531115666032,-0.00957007799297571,0.00124206591863185,0,
00:00:02.392,-0.0014948541065678,-0.00852701812982559,0.00453018303960562,0,
00:00:02.396,-0.00506358686834574,-0.00697698164731264,-0.00182073924224824,0,
00:00:02.4,-0.00121471239253879,0.00387529819272459,-0.0136576760560274,0,
00:00:02.404,-0.00434261420741677,0.0112250009551644,0.00781905744224787,0,
00:00:02.408,-4.43592471128795E-05,0.0115195419639349,0.00801317393779755,0,
00:00:02.412,0.00762363709509373,-0.0138843525201082,0.00194546161219478,0,
00:00:02.416,5.35970866621938E-06,-0.00817209854722023,-0.00285708019509912,0,
00:00:02.42,0.0031132425647229,0.00391287077218294,-0.0104226833209395,0,
00:00:02.424,-0.000116520284791477,0.00653422577306628,0.00513718370348215,0,
00:00:02.428,-0.0069722980260849,-0.00253943027928472,0.000242517373408191,0,
00:00:02.432,0.000822484609670937,-0.00479558622464538,-0.00428904313594103,0,
00:00:02.436,-0.00465689180418849,-0.00262455781921744,0.00861436501145363,0,
00:00:02.44,0.00426374422386289,0.00891204737126827,0.00222482928074896,0,
00:00:02.444,0.00641781138256192,0.00306516326963902,-0.00431744055822492,0,
00:00:02.448,-0.00261029438115656,-0.0032543707638979,-0.00563647411763668,0,
00:00:02.452,0.0013126595877111,-0.00291708414442837,0.00739142531529069,0,
00:00:02.456,-0.000498131732456386,0.00124327489174902,-0.007210289593786,0,
00:00:02.46,-0.00632550939917564,0.000817829160951078,0.00306363753043115,0,
00:00:02.464,-0.00236576749011874,0.0016830456443131,0.00532311107963324,0,
00:00:02.468,0.00831737648695707,-0.0029291519895196,-0.00550521770492196,0,
00:00:02.472,-0.00424702744930983,-0.00862368382513523,0.000947698310483247,0,
00:00:02.476,0.00402438035234809,-0.000681749952491373,-0.000763954711146653,0,
00:00:02.48,0.00212721037678421,0.0140487542375922,0.00206010788679123,0,
00:00:02.484,-0.00332140200771391,0.0153681142255664,-0.00328549626283348,0,
00:00:02.488,-0.00286176125518978,-0.00417158287018538,-0.00294369435869157,0,
00:00:02.492,-0.000686005281750113,-0.0216161832213402,0.00796118099242449,0,
00:00:02.496,0.00306241074576974,-0.0139659615233541,0.00643263757228851,0,
00:00:02.5,0.00365893007256091,-0.00446202745661139,-0.0033568344078958,0,
00:00:02.504,-0.00868418999016285,0.0168245043605566,-0.00795532949268818,0,
00:00:02.508,-0.00128333084285259,0.0200697779655457,-0.00612826785072684,0,
00:00:02.512,0.0054463823325932,0.00431991927325726,0.00485266279429197,0,
00:00:02.516,0.00416751485317945,-0.0102120405063033,0.00506568886339664,0,
00:00:02.52,0.0027966178022325,-0.000856263795867562,-0.000232691818382591,0,
00:00:02.524,-0.00581975374370813,-0.00711766025051475,-0.00312688620761037,0,
00:00:02.528,-0.00207359855994582,-0.0111829861998558,0.00357540603727102,0,
00:00:02.532,-0.000192525068996474,0.011634586378932,-0.00644824234768748,0,
00:00:02.536,0.0026544479187578,0.00576002476736903,0.0068512805737555,0,
00:00:02.54,0.000784270698204637,-0.00291190762072802,0.0145892417058349,0,
00:00:02.544,-0.00108423468191177,-0.005997518543154,-0.0131595954298973,0,
00:00:02.548,-0.00571466144174337,-0.00394735392183065,-0.014404003508389,0,
00:00:02.552,-0.00114173116162419,-7.64735304983333E-05,-0.00098224775865674,0,
00:00:02.556,0.00515906373038888,0.00903161615133286,0.00607200060039759,0,
00:00:02.56,0.00834201835095882,0.00803923513740301,0.00470954179763794,0,
00:00:02.564,-0.00293386727571487,-0.00385837769135833,0.00789497699588537,0,
00:00:02.568,-0.00888380780816078,-0.00733014289289713,-7.62948402552865E-05,0,
00:00:02.572,0.00135690742172301,0.00134376692585647,-0.0035086499992758,0,
00:00:02.576,0.00536859501153231,0.00802399683743715,0.000586388225201517,0,
00:00:02.58,0.00193315744400024,-0.00164483825210482,-0.00796643644571304,0,
00:00:02.584,-0.00369640719145536,-0.011979547329247,-0.00352743221446872,0,
00:00:02.588,-0.00503445882350206,-0.00918071717023849,0.00421616993844509,0,
00:00:02.592,-0.00269893114455044,0.00299021042883396,0.00882268138229847,0,
00:00:02.596,0.00682448130100966,0.0159531440585852,-0.00593438372015953,0,
00:00:02.6,0.0113461101427674,0.0236409083008766,0.00234308419749141,0,
00:00:02.604,-0.00738296797499061,-0.0106202494353056,-0.000756123336032033,0,
00:00:02.608,-0.0074916142039001,-0.0303737502545118,-0.00129047501832247,0,
00:00:02.612,3.71825967704353E-06,-0.0075783240608871,0.00551554141566157,0,
00:00:02.616,0.00238321116194129,0.0123895406723022,-0.00798317417502403,0,
00:00:02.62,0.00206114514730871,0.0128176063299179,-0.0108150532469153,0,
00:00:02.624,0.000822085479740053,0.00773403374478221,0.0136415474116802,0,
00:00:02.628,-0.000248001568252221,-0.00537605537101626,0.0118287233635783,0,
00:00:02.632,-0.000723211036529392,-0.00440449407324195,-0.00415425049141049,0,
00:00:02.636,0.00142294354736805,0.00109142507426441,-0.0119703533127904,0,
00:00:02.64,-0.00228288909420371,-0.00110440002754331,-0.00733405537903309,0,
00:00:02.644,-0.00990600790828466,-0.00908652879297733,0.00844305753707886,0,
00:00:02.648,0.0121069150045514,-0.00476587144657969,0.00537718646228313,0,
00:00:02.652,-0.000444707198766992,0.00181364605668932,-0.000394774746382609,0,
00:00:02.656,0.00878029409796,0.0159074421972036,0.0051627797074616,0,
00:00:02.66,-0.00363054708577693,0.0101056508719921,-0.00220819842070341,0,
00:00:02.664,-0.00894418079406023,-0.00655109342187643,-0.00674583669751883,0,
00:00:02.668,-0.00678169168531895,-0.00944497343152761,-0.00358378025703132,0,
00:00:02.672,0.000660579709801823,-0.0076963035389781,-0.00147579319309443,0,
00:00:02.676,0.00732333958148956,0.00140133022796363,0.00274167209863663,0,
00:00:02.68,0.00758017506450415,0.0042906072922051,0.0105698863044381,0,
00:00:02.684,-0.000702507270034403,0.0035055133048445,0.00138846540357918,0,
00:00:02.688,-0.00352964247576892,0.0013882084749639,-0.005980693269521,0,
00:00:02.692,-0.00512110441923141,-0.00459175044670701,-0.00689880130812526,0,
00:00:02.696,0.000690307875629514,0.000594262324739248,0.000729785999283195,0,
00:00:02.7,0.00610099360346794,0.00822310615330935,0.00311129633337259,0,
00:00:02.704,-0.000619445811025798,0.0036709769628942,0.000418697629356757,0,
00:00:02.708,-0.0071395575068891,-0.0107075301930308,0.00490989023819566,0,
00:00:02.712,-0.00257364683784544,-0.0140354502946138,-0.00290591269731522,0,
00:00:02.716,0.00451384810730815,0.00313922460190952,0.00360450521111488,0,
00:00:02.72,0.00432998361065984,0.0171919278800488,-8.41601722640917E-05,0,
00:00:02.724,-0.000517606851644814,0.0011801376240328,-0.00765558052808046,0,
00:00:02.728,0.00106289004907012,-0.0104115474969149,-0.00194478617049754,0,
00:00:02.732,-0.000303234526654705,0.0019924349617213,-0.000803145463578403,0,
00:00:02.736,0.00267340871505439,0.00738621596246958,0.000109329703263938,0,
00:00:02.74,-0.00344440340995789,-0.000993123394437134,0.00534114614129066,0,
00:00:02.744,-0.00612923037260771,-0.00440505566075444,0.00413975305855274,0,
00:00:02.748,-0.00200373958796263,-0.00790460873395205,0.000909685913939029,0,
00:00:02.752,0.00206142337992787,-0.00152515305671841,-0.00367219257168472,0,
00:00:02.756,0.00357087468728423,0.00604278221726418,0.00164135545492172,0,
00:00:02.76,0.00483293738216162,0.00543062901124358,0.00406484538689256,0,
00:00:02.764,0.00104821275454015,0.00606944784522057,-0.0122201349586248,0,
00:00:02.768,-0.00423153582960367,-0.00509516103193164,-0.00376527919434011,0,
00:00:02.772,-0.0052113919518888,-0.00778320152312517,0.00945533439517021,0,
00:00:02.776,0.00352969230152667,-0.000449226092314348,0.00167585327289999,0,
00:00:02.78,0.00300061888992786,0.00447735004127026,-0.00286416034214199,0,
00:00:02.784,-0.00595065439119935,0.000428245286457241,0.0010163327679038,0,
00:00:02.788,-0.00181309576146305,-0.0066956989467144,-0.00295570981688797,0,
00:00:02.792,0.0070531265810132,0.00358869973570108,0.0103697599843144,0,
00:00:02.796,0.0065084295347333,0.00904971361160278,-0.00120339565910399,0,
00:00:02.8,-0.000293565448373556,0.000405058322940022,-0.00740416441112757,0,
00:00:02.804,-0.0068310727365315,0.000306402042042464,-0.000295770587399602,0,
00:00:02.808,-0.00513679580762982,-0.00388900213874877,-0.0100338533520699,0,
00:00:02.812,-0.00317910639569163,-0.00940527860075235,0.00756907975301147,0,
00:00:02.816,0.00594568345695734,-0.00361349526792765,0.00566731719300151,0,
00:00:02.82,0.00245994701981544,0.00268582464195788,0.00438679940998554,0,
00:00:02.824,0.000580345280468464,0.00530995381996036,-0.00458736950531602,0,
00:00:02.828,-0.00449849152937531,-0.0039618001319468,-0.00365975615568459,0,
00:00:02.832,0.00538873020559549,0.00751577503979206,0.00571423768997192,0,
00:00:02.836,0.00284742377698421,0.011962654069066,-0.000251956254942343,0,
00:00:02.84,0.000614662072621286,-0.00144041632302105,-0.0049968590028584,0,
00:00:02.844,-0.00955545157194138,-0.00612617144361138,-0.0110458647832274,0,
00:00:02.848,-0.00880816858261824,-0.0160559639334679,0.0146881742402911,0,
00:00:02.852,0.0100413709878922,-0.00562613317742944,0.00503913499414921,0,
00:00:02.856,0.00847614742815495,0.00721607683226466,-0.00395726831629872,0,
00:00:02.86,0.00153796887025237,0.0175389368087053,-0.00443991273641586,0,
00:00:02.864,-0.00759580312296748,-0.000409446452977136,-0.00394914299249649,0,
00:00:02.868,-0.00477887224406004,-0.00599687220528722,0.00670698098838329,0,
00:00:02.872,0.00428804708644748,-0.00290846196003258,-0.00269864755682647,0,
00:00:02.876,0.00106059189420193,-0.00792153272777796,0.000371764530427754,0,
00:00:02.88,0.00191478687338531,0.0031740793492645,-0.000954992021434009,0,
00:00:02.884,-0.00234983814880252,0.00922660902142525,0.00889483839273453,0,
00:00:02.888,-0.00184748752508312,-0.00106448889710009,-0.00220830226317048,0,
00:00:02.892,-0.00224949955008924,-0.009419952519238,-0.00717158149927855,0,
00:00:02.896,0.00293140462599695,0.0039965407922864,0.000613979937043041,0,
00:00:02.9,-0.00136724894400686,0.00688192341476679,-0.00711497291922569,0,
00:00:02.904,0.00896551460027695,-0.00257002934813499,0.00388372340239584,0,
00:00:02.908,-0.0014363998780027,-0.00319308461621404,0.00380239728838205,0,
00:00:02.912,-0.010531771928072,0.00305116991512477,0.00536683620885015,0,
00:00:02.916,0.0069493493065238,0.00506230909377337,0.00381432520225644,0,
00:00:02.92,0.000191098661161959,-0.00778886675834656,-0.00168336101341993,0,
00:00:02.924,-0.00177708140108734,-0.00794008001685143,-0.00677483342587948,0,
00:00:02.928,-0.00339518720284104,-0.00251138373278081,-0.00434781285002828,0,
00:00:02.932,0.00385586661286652,0.00687025068327785,0.00175235129427165,0,
00:00:02.936,0.00235702213831246,0.0135114258155227,-0.00178510753903538,0,
00:00:02.94,-0.00469609117135406,0.00164907600264996,0.000985050806775689,0,
00:00:02.944,-0.000117614647024311,-0.00542203290387988,0.0114007527008653,0,
00:00:02.948,0.00766897853463888,-0.0044765081256628,-0.00707363896071911,0,
00:00:02.952,-0.00881686620414257,-0.0121270064264536,-0.00126906263176352,0,
00:00:02.956,-0.00259776250459254,-0.00237367767840624,0.000537258922122419,0,
00:00:02.96,0.00447885878384113,0.0105329360812902,-0.00359809771180153,0,
00:00:02.964,0.00397468823939562,0.00874511431902647,0.00610911520197988,0,
00:00:02.968,0.00109683140181005,0.00240522949025035,0.00727361068129539,0,
00:00:02.972,-0.00122726673725992,-0.000550027878489345,-0.0096173956990242,0,
00:00:02.976,-0.00201387936249375,-0.00632838904857636,-0.00500926282256842,0,
00:00:02.98,-0.00153004331514239,-0.00499228201806545,0.00403582630679011,0,
00:00:02.984,-0.000529692973941565,-0.00139349559322,-0.00136877526529133,0,
00:00:02.988,0.000318859063554555,-0.000614652351941913,-0.00251104193739593,0,
00:00:02.992,-0.00345480814576149,0.00238619465380907,0.00534636015072465,0,
00:00:02.996,0.0108049623668194,0.00351120810955763,0.00567071465775371,0,
00:00:03,-0.00232161302119493,0.00872739031910896,-0.00624282518401742,0,
00:00:03.004,-0.0045675951987505,0.00297934166155756,-0.00211191177368164,0,
00:00:03.008,-0.00447427853941917,-0.0158411394804716,0.000525998999364674,0,
00:00:03.012,0.00223545380868018,-0.0108121214434505,0.00141156243626028,0,
00:00:03.016,0.00332425720989704,0.00821041781455278,0.00109227548819035,0,
00:00:03.02,0.00602011475712061,0.0135658271610737,0.00447883689776063,0,
00:00:03.024,-0.00390739180147648,0.00629247771576047,-0.00425679096952081,0,
00:00:03.028,-0.00640607811510563,-0.0125510795041919,-0.0038452036678791,0,
00:00:03.032,0.000422818615334108,-0.0111594321206212,-0.0029031487647444,0,
00:00:03.036,0.00258735008537769,0.00547038251534104,0.00759368529543281,0,
00:00:03.04,0.00209910981357098,0.00450348295271397,-0.00230405852198601,0,
00:00:03.044,0.000708848761860281,0.000373907620087266,0.000287035654764622,0,
00:00:03.048,-0.000445338897407055,0.00652430858463049,-0.00129924318753183,0,
00:00:03.052,-0.000916054123081267,-0.00320295500569046,0.00438614934682846,0,
00:00:03.056,-0.00285378261469305,-0.00849885772913694,-0.00262497807852924,0,
00:00:03.06,0.00162704871036112,0.00600046338513494,0.00209652399644256,0,
00:00:03.064,0.00377921992912889,0.00382134853862226,0.000277460727375001,0,
00:00:03.068,-0.00151918712072074,-0.00737623590976,-0.00384867819957435,0,
00:00:03.072,-0.00427199248224497,-0.0059545123949647,-0.00433279341086745,0,
00:00:03.076,0.00301739084534347,0.00566386384889483,0.00438153278082609,0,
00:00:03.08,-9.20995444175787E-05,0.00591520639136434,0.00145261117722839,0,
00:00:03.084,-0.000585454341489822,-0.00200268509797752,0.00032544246641919,0,
00:00:03.088,-0.000181927607627586,0.00267357518896461,-0.00423727184534073,0,
00:00:03.092,-0.00183955277316272,0.00266862800344825,0.00581107567995787,0,
00:00:03.096,0.0044241058640182,-0.00595520809292793,0.00316464458592236,0,
00:00:03.1,-0.00214533577673137,0.00184820755384862,-0.00135124020744115,0,
00:00:03.104,0.000572326069232076,0.00195960002020001,-0.00764324609190226,0,
00:00:03.108,0.004675870295614,-0.00855252798646688,-0.00107785407453775,0,
00:00:03.112,-0.00411613844335079,-0.00851892214268446,0.00624380353838205,0,
00:00:03.116,-0.00385843915864825,0.00789482332766056,-0.00763373682275414,0,
00:00:03.12,-0.000890898518264294,0.00415406376123428,0.01246627420187,0,
00:00:03.124,0.00144515268038958,0.000883928325492889,-0.00312004215084016,0,
00:00:03.128,4.83265357615892E-05,-0.000617037818301469,-0.00916127674281597,0,
00:00:03.132,0.0013998975045979,0.00762188667431474,0.00811876449733973,0,
00:00:03.136,0.00610237568616867,0.0085905771702528,-0.00586752779781818,0,
00:00:03.14,0.001466159010306,-0.00119173713028431,0.00155891908798367,0,
00:00:03.144,-0.00507124420255423,-0.016369791701436,0.00287680188193917,0,
00:00:03.148,-0.00434629805386066,-0.0131642390042543,0.00358889834024012,0,
00:00:03.152,-0.00129495444707572,-0.00510692922398448,-0.00425769062712789,0,
00:00:03.156,0.00119136262219399,0.00736058689653873,-0.00290686846710742,0,
00:00:03.16,0.00209247716702521,0.0142628382891417,0.00639239745214581,0,
00:00:03.164,-0.000424695521360263,0.0113211339339614,-0.00403801212087274,0,
00:00:03.168,0.0046819718554616,0.00542854424566031,0.00107491458766162,0,
00:00:03.172,-0.00060159555869177,-0.011995411477983,-0.00158279063180089,0,
00:00:03.176,-0.00423599220812321,-0.00890756957232952,0.0011556992540136,0,
00:00:03.18,0.000301871245028451,-0.00585118727758527,-0.00164784560911357,0,
00:00:03.184,0.00110556394793093,0.00469866581261158,-0.000656633696053177,0,
00:00:03.188,0.00054923800053075,0.00670816330239177,0.00280262203887105,0,
00:00:03.192,-0.00011716088920366,-0.00662133656442165,0.00343295210041106,0,
00:00:03.196,0.0016494964947924,-0.000713399262167513,-0.00880547519773245,0,
00:00:03.2,-0.000272789970040321,0.0070606516674161,-0.0033984836190939,0,
00:00:03.204,-0.0037607962731272,0.00348545867018402,0.00534604955464602,0,
00:00:03.208,0.000332224066369236,-0.00555090233683586,0.00779251009225845,0,
00:00:03.212,-0.00112666143104434,-0.00386831071227789,0.0170709434896708,0,
00:00:03.216,-0.00167484988924116,0.00617293501272798,-0.0266481209546328,0,
00:00:03.22,0.00355104473419487,0.000436533242464066,-0.00382983917370439,0,
00:00:03.224,0.00320602464489639,-0.00654346588999033,0.0037472527474165,0,
00:00:03.228,-0.00113516871351749,-0.00471671065315604,0.00408580619841814,0,
00:00:03.232,0.00722362101078033,0.00607024040073156,-0.0021714277099818,0,
00:00:03.236,-0.0101324357092381,0.0117925088852644,0.00806943513453007,0,
00:00:03.24,-0.00215748604387045,-0.000232161197345704,-0.00375298666767776,0,
00:00:03.244,0.00551346223801374,-0.00852101389318705,-0.0164836850017309,0,
00:00:03.248,-0.00606653932482004,-0.0169023331254721,0.0212624836713076,0,
00:00:03.252,-0.000101562996860594,0.00424608634784818,0.00141356803942472,0,
00:00:03.256,0.00518437847495079,0.0124337291345,-0.00507731549441814,0,
00:00:03.26,0.00533399218693376,0.00554579868912697,-0.00457553425803781,0,
00:00:03.264,-0.00205457187257707,0.00231085997074842,-0.00171500106807798,0,
00:00:03.268,-0.00373546662740409,0.00368890189565718,0.000755319197196513,0,
00:00:03.272,-0.000376783515093848,-0.0106040481477976,0.00802170019596815,0,
00:00:03.276,-0.00242917565628886,-0.00875559262931347,-0.00645670108497143,0,
00:00:03.28,-0.000706848048139364,-0.00204981886781752,-0.00227394374087453,0,
00:00:03.284,-0.00507992506027222,-0.00100726203527302,-0.00319527601823211,0,
00:00:03.288,0.0139544606208801,0.00871235877275467,0.00606510462239385,0,
00:00:03.292,0.00241893180646002,0.00887169595807791,0.00907662324607372,0,
00:00:03.296,-0.0100973984226584,-0.000467540376121178,-0.00723347114399076,0,
00:00:03.3,0.000979301752522588,0.00210674456320703,0.00269305519759655,0,
00:00:03.304,0.00612791813910007,-0.00978692527860403,-0.00184293847996742,0,
00:00:03.308,-0.0120008625090122,-0.0150828156620264,-0.00728695094585419,0,
00:00:03.312,0.00151531642768532,0.00337028270587325,-0.000169473481946625,0,
00:00:03.316,0.00703917955979705,0.0246721059083939,0.00297412159852684,0,
00:00:03.32,0.00143124721944332,0.0026815312448889,-0.0011303931241855,0,
00:00:03.324,-0.00103963410947472,-0.014566938392818,0.00548844179138541,0,
00:00:03.328,-0.00360899441875517,-0.0117654483765364,0.00737070757895708,0,
00:00:03.332,-0.00113336171489209,-0.000497589295264333,-0.00458963261917233,0,
00:00:03.336,0.00539928302168846,0.0130508746951818,-0.00192717730533332,0,
00:00:03.34,0.00215723202563822,0.0120591064915061,-0.0132836662232876,0,
00:00:03.344,-0.00178545177914202,-0.00647827237844467,0.000838479725643992,0,
00:00:03.348,-0.00740817282348871,-0.0106728421524167,0.012824990786612,0,
00:00:03.352,-0.000530621793586761,-0.00221362733282149,0.00213176640681922,0,
00:00:03.356,0.00257314974442124,0.00223855371586978,-0.00231846212409437,0,
00:00:03.36,0.00483833719044924,0.00531623419374228,-0.000826788949780166,0,
00:00:03.364,-0.00257115112617612,0.000212848040973768,-0.00367164402268827,0,
00:00:03.368,0.000359974626917392,-0.00316078145988286,-0.00601720018312335,0,
00:00:03.372,0.00269241444766521,0.0032256506383419,0.00447406293824315,0,
00:00:03.376,0.000127464882098138,-0.00263507547788322,0.00710417330265045,0,
00:00:03.38,-0.00407752254977822,-0.00138510309625417,-0.00206428626552224,0,
00:00:03.384,-0.000300549028906971,0.00288031832315028,0.00151065643876791,0,
00:00:03.388,-0.005815205629915,0.00388876884244382,-0.00266462378203869,0,
00:00:03.392,0.00411652680486441,-0.000151746251503937,-0.0045638307929039,0,
00:00:03.396,0.00698972586542368,-0.00503704743459821,0.00324030267074704,0,
00:00:03.4,0.000149706160300411,-0.00322337332181633,0.00653184624388814,0,
00:00:03.404,-0.00235289451666176,-0.00210794759914279,-0.0103386472910643,0,
00:00:03.408,-0.00847152993083,-0.00230235233902931,-0.00308644375763834,0,
00:00:03.412,0.00693501159548759,0.0118379071354866,0.00494873011484742,0,
00:00:03.416,0.00718987500295043,0.00858224369585514,0.00479625258594751,0,
00:00:03.42,-0.00436373520642519,0.000480399787193164,0.00173234252724797,0,
00:00:03.424,-0.00733597530052066,-0.0156358778476715,-0.0010066379327327,0,
00:00:03.428,0.00187408889178187,-0.0111507410183549,-7.56880908738822E-05,0,
00:00:03.432,-0.00154141976963729,0.00312680192291737,-0.00380448764190078,0,
00:00:03.436,0.00275601190514863,0.0104932459071279,-0.00244210241362453,0,
00:00:03.44,0.00676517514511943,0.0132211307063699,-0.008300906047225,0,
00:00:03.444,-0.00097420223755762,-0.00493557890877128,0.0135883977636695,0,
00:00:03.448,-0.00586882513016462,-0.0121314506977797,0.0105763766914606,0,
00:00:03.452,0.000930369948036969,0.00150638038758188,-0.00953570380806923,0,
00:00:03.456,-0.00554445432499051,0.00114441267214715,-0.00652933260425925,0,
00:00:03.46,-0.00715559534728527,-0.000969313317909837,-0.00385633856058121,0,
00:00:03.464,0.0136612206697464,-0.00131716928444803,0.00357562582939863,0,
00:00:03.468,0.00971679668873549,0.0101631581783295,0.00434636091813445,0,
00:00:03.472,-0.00182281096931547,0.00157717964611948,0.00223574042320251,0,
00:00:03.476,-0.00377141451463103,0.000215601001400501,0.00195591268129647,0,
00:00:03.48,-0.00686734775081277,-0.0109439231455326,-0.00548446737229824,0,
00:00:03.484,-0.00359931914135814,-0.010464133694768,0.000870733114425093,0,
00:00:03.488,-0.00158708065282553,-0.00339308590628207,-0.00348544027656317,0,
00:00:03.492,0.00265310099348426,0.0182614177465439,-0.00291318562813103,0,
00:00:03.496,0.00644570728763938,0.0140759013593197,0.0122344745323062,0,
00:00:03.5,0.00754907727241516,0.000149766332469881,-0.00355200539343059,0,
00:00:03.504,-0.00657791923731565,-0.0129585256800056,0.0015828600153327,0,
00:00:03.508,-0.00607770308852196,-0.0119838062673807,-0.00516865076497197,0,
00:00:03.512,0.000571946089621633,-0.000341301289154217,-0.00543832359835505,0,
00:00:03.516,0.00414872355759144,0.00291037186980248,0.00216171611100435,0,
00:00:03.52,-0.000595990743022412,0.00722309341654181,0.00188856385648251,0,
00:00:03.524,-0.00346249504946172,0.00451911613345146,0.000464116339571774,0,
00:00:03.528,0.00132750312332064,0.000351458438672125,0.00818301923573017,0,
00:00:03.532,-0.000219329129322432,-0.00233491999097168,0.0025698256213218,0,
00:00:03.536,0.000702376593835652,-0.00699691474437714,-0.00346555490978062,0,
00:00:03.54,0.00956467818468809,0.00625413237139583,-0.00549028720706701,0,
00:00:03.544,-0.00695716729387641,0.00514251599088311,-0.0143091790378094,0,
00:00:03.548,-0.00430352566763759,-0.0123794097453356,0.0109635759145021,0,
00:00:03.552,-0.0010650911135599,-0.00618091318756342,0.00760866375640035,0,
00:00:03.556,0.00319295469671488,0.0112636517733335,-0.000549659482203424,0,
00:00:03.56,-0.000176363682840019,0.00541099021211267,-0.00260108429938555,0,
00:00:03.564,-0.00235711992718279,-0.00456433324143291,-0.00188184133730829,0,
00:00:03.568,0.00228661927394569,-0.00761262234300375,-0.00257188454270363,0,
00:00:03.572,0.00431520491838455,0.00801811553537846,0.00246224040165544,0,
00:00:03.576,0.00280670053325593,0.00955500826239586,0.00657480582594872,0,
00:00:03.58,-0.00632626237347722,-0.0088537260890007,-0.00113478268031031,0,
00:00:03.584,-0.00882539991289377,-0.0077002770267427,-0.0100928647443652,0,
00:00:03.588,0.00558046018704772,0.00487806834280491,0.000766475102864206,0,
00:00:03.592,0.00368395354598761,0.00145829061511904,0.00179902336094528,0,
00:00:03.596,0.00365056050941348,-0.00255322153680027,0.00490469532087445,0,
00:00:03.6,-0.00208187266252935,-0.00100931129418314,0.00243475427851081,0,
00:00:03.604,-0.00468885432928801,-0.0051694237627089,0.007639538962394,0,
00:00:03.608,0.000752536754589528,0.00568638136610389,-0.0184472482651472,0,
00:00:03.612,-0.000235411382163875,0.00826073158532381,0.00129604758694768,0,
00:00:03.616,0.00304028810933232,0.0108394082635641,0.00907508935779333,0,
00:00:03.62,0.00371597521007061,-0.0065631614997983,-0.00754063995555043,0,
00:00:03.624,-0.0044984039850533,-0.0173141751438379,0.000343565625371411,0,
00:00:03.628,-0.00119401677511632,-0.00768180657178164,0.00491581112146378,0,
00:00:03.632,4.33392888226081E-05,0.00543944677338004,0.0002658556913957,0,
00:00:03.636,0.002430405234918,0.0126073155552149,0.0031313830986619,0,
00:00:03.64,-0.00167062506079674,0.00377273629419506,-0.00480471318587661,0,
00:00:03.644,-0.00147990672849119,-0.00607277266681194,-0.00566968927159905,0,
00:00:03.648,-0.00221012067049742,-0.00816403143107891,0.00172638078220189,0,
00:00:03.652,0.000722829427104443,0.0040565044619143,0.00565535994246602,0,
00:00:03.656,0.00253747985698283,0.0118700042366982,-0.00162605615332723,0,
00:00:03.66,0.0106351729482412,0.000876147008966655,0.000805291347205639,0,
00:00:03.664,-0.00901699811220169,-0.01166673284024,0.000538931111805141,0,
00:00:03.668,-0.00295536126941442,-0.000152109205373563,-0.000320443650707603,0,
00:00:03.672,0.00193463964387774,0.00369228469207883,-0.000804778363090009,0,
00:00:03.676,0.000950340996496379,-0.00140048074536026,-0.000742675620131195,0,
00:00:03.68,-0.00481732655316591,-0.00617608800530434,-0.00243653845973313,0,
00:00:03.684,-0.00141208886634558,-0.00508688157424331,0.0040924814529717,0,
00:00:03.688,0.00231723790057004,0.00560043333098292,0.00201657530851662,0,
00:00:03.692,0.0096803130581975,0.0161928441375494,-0.00313960039056838,0,
00:00:03.696,0.000560264277737588,0.00723295565694571,-0.00247071520425379,0,
00:00:03.7,-0.00637925649061799,-0.00995595194399357,-0.000315361190587282,0,
00:00:03.704,-0.00682999473065138,-0.0176312569528818,-0.00089332927018404,0,
00:00:03.708,-0.0010018611792475,-0.00802464131265879,-0.000693045381922275,0,
00:00:03.712,0.00753779802471399,0.0176718886941671,0.0127589656040072,0,
00:00:03.716,0.00447844574227929,0.0115091428160667,-0.00230652745813131,0,
00:00:03.72,-0.00251812115311623,-0.0067023248411715,-0.00581501238048077,0,
00:00:03.724,-0.00322508369572461,-0.0138151617720723,0.000335293327225372,0,
00:00:03.728,-0.0056842127814889,0.00110240548383445,-0.0066184694878757,0,
00:00:03.732,0.00419107591733336,0.010564130730927,0.00441262824460864,0,
00:00:03.736,0.00648333504796028,0.0055305901914835,-0.00472845928743482,0,
00:00:03.74,-0.00261306739412248,-0.00129471649415791,0.00602534366771579,0,
00:00:03.744,-0.000811061298009008,-0.0088691795244813,0.0025416559074074,0,
00:00:03.748,-0.00270662666298449,-0.00661938963457942,-0.00186875136569142,0,
00:00:03.752,0.00135438179131597,0.00933781266212463,0.000979550648480654,0,
00:00:03.756,0.00124147918540984,-0.000359444093191996,0.00041627831524238,0,
00:00:03.76,0.000113366681034677,0.00296344957314432,-0.000672513095196337,0,
00:00:03.764,0.00143759429920465,-0.00169598078355193,0.000944030296523124,0,
00:00:03.768,-0.00892567913979292,-0.00629137130454183,-0.00078246311750263,0,
00:00:03.772,0.00390352564863861,0.00505715329200029,-0.0122256325557828,0,
00:00:03.776,0.0110145956277847,0.0036229332908988,0.00628632819280028,0,
00:00:03.78,-0.00425500748679042,-0.00244072731584311,0.00767219951376319,0,
00:00:03.784,-0.00609082775190473,-0.00273530906997621,0.00505373580381274,0,
00:00:03.788,-0.00691426685079932,-0.00309045845642686,-0.00347728515043855,0,
00:00:03.792,0.000578271108679473,0.000472140323836356,-0.0112555045634508,0,
00:00:03.796,0.0138652818277478,0.000688713626004756,-0.00125266134273261,0,
00:00:03.8,0.00612232787534595,0.00678638555109501,0.0210053771734238,0,
00:00:03.804,-0.00748143438249826,0.0113333314657211,-0.00868158228695393,0,
00:00:03.808,-0.00960100535303354,-0.00541346333920956,-0.0123773347586393,0,
00:00:03.812,-0.00084710749797523,-0.0205158907920122,0.0030847832094878,0,
00:00:03.816,0.00306047732010484,-0.00124661345034838,0.00295019312761724,0,
00:00:03.82,0.00545376678928733,0.00874642748385668,0.00219922559335828,0,
00:00:03.824,-0.00216693850234151,0.00487252790480852,0.00519055360928178,0,
00:00:03.828,-0.00159832811914384,-0.00025047711096704,-0.00604651588946581,0,
00:00:03.832,0.004581268876791,-0.000403738406021148,-0.00400702189654112,0,
00:00:03.836,-0.000464528944576159,0.00229503493756056,0.0025485644582659,0,
00:00:03.84,2.43935774051351E-05,0.000455576577223837,-0.00319288950413466,0,
00:00:03.844,-0.00567833241075277,-0.0035766800865531,0.00510876625776291,0,
00:00:03.848,-0.000188446763786487,-0.00424085650593042,0.0126397972926497,0,
00:00:03.852,-0.000226385411224328,3.05583271256182E-05,-0.00295803672634065,0,
00:00:03.856,0.00581608479842544,0.017469497397542,-0.0103908209130168,0,
00:00:03.86,0.000476191722555086,-0.00240734685212374,-0.00869505945593119,0,
00:00:03.864,0.000490028003696352,-0.01161456014961,0.00149940594565123,0,
00:00:03.868,-0.00567162362858653,-0.0139956995844841,0.00511779403313994,0,
00:00:03.872,-0.0004588475858327,0.00099348824005574,0.00436236755922437,0,
00:00:03.876,-0.000552172772586346,0.00866254139691591,0.00182813894934952,0,
00:00:03.88,0.00559069821611047,0.010644692927599,-0.00255865161307156,0,
00:00:03.884,0.00247786520048976,0.00431873835623264,0.000358546763891354,0,
00:00:03.888,-0.00351706217043102,-0.00411166436970234,0.00215134327299893,0,
00:00:03.892,-0.00109359307680279,-0.000885239685885608,-0.000572067627217621,0,
00:00:03.896,-0.00493874168023467,0.00150959775783122,-0.0045166676864028,0,
00:00:03.9,-0.00287738768383861,-0.00944205187261105,-0.00656221061944962,0,
00:00:03.904,0.0111126564443111,-0.00774216745048761,-0.00170260446611792,0,
00:00:03.908,0.0015087976353243,0.000753176922444254,0.0258976891636848,0,
00:00:03.912,-0.00444710534065962,0.0082155941054225,-0.0106286481022835,0,
00:00:03.916,0.00133713369723409,0.00855136569589376,-0.00558855524286628,0,
00:00:03.92,-0.00180786557029933,-0.000157538714120165,-0.0045967660844326,0,
00:00:03.924,-0.00361686968244612,-0.00766767468303442,-0.00254645780660212,0,
00:00:03.928,-0.000371472124243155,-0.0015040582511574,0.00235276506282389,0,
00:00:03.932,0.00638573663309217,0.00564043410122395,0.00664863316342235,0,
00:00:03.936,0.00286964070983231,0.00419367989525199,0.0078985933214426,0,
00:00:03.94,-0.00362160382792354,-0.00611686939373612,-0.00426860153675079,0,
00:00:03.944,-0.00558258686214685,-0.00733914785087109,-0.0059442762285471,0,
00:00:03.948,-0.00128490186762065,-0.00330472458153963,-0.00316125713288784,0,
00:00:03.952,0.00236259843222797,0.00348522630520165,9.25623025977984E-05,0,
00:00:03.956,0.00954224541783333,0.0165918655693531,0.00399879552423954,0,
00:00:03.96,-0.00168159243185073,0.00311475130729377,-0.00197323504835367,0,
00:00:03.964,-0.00654686847701669,-0.0189404934644699,-0.000539288274012506,0,
00:00:03.968,-0.00315831392072141,-0.00710175326094031,0.00357045000419021,0,
00:00:03.972,0.0050919596105814,0.0226651933044195,9.10307608137373E-06,0,
00:00:03.976,0.000967284140642732,0.0048374030739069,0.00573519943282008,0,
00:00:03.98,0.00137288589030504,-0.0162160955369473,-0.00201037502847612,0,
00:00:03.984,-0.00494817551225424,-0.0172297731041908,-0.00891674775630236,0,
00:00:03.988,-0.00219915062189102,0.00160094315651804,0.000302808737615123,0,
00:00:03.992,0.00763135822489858,0.0175362378358841,0.00226011849008501,0,
00:00:03.996,0.00317528750747442,0.0174750741571188,-0.00471596699208021,0,
00:00:04,-0.00446864776313305,-0.00958691071718931,0.00419451622292399,0,
00:00:04.004,-0.0128926504403353,-0.0134035190567374,0.0086274603381753,0,
00:00:04.008,0.00405842065811157,-0.00258621433749795,-0.0044194282963872,0,
00:00:04.012,0.00115903571713716,0.00128338951617479,-0.000281909859040752,0,
00:00:04.016,0.0186126101762056,0.0106217823922634,-0.00284592877142131,0,
00:00:04.02,0.00142464844975621,0.00875640567392111,-0.00160125666297972,0,
00:00:04.024,-0.0143834985792637,-0.00650908006355166,0.000247180578298867,0,
00:00:04.028,-0.00937323551625013,-0.0130155608057976,-0.00288571137934923,0,
00:00:04.032,-0.000272325938567519,-0.00299266027286649,0.00521021615713835,0,
00:00:04.036,0.00733961677178741,0.0032925889827311,0.00808858219534159,0,
00:00:04.04,0.00802025478333235,0.00500536663457751,-0.00154527579434216,0,
00:00:04.044,-0.000219715308048762,0.0014852654421702,-0.00737875606864691,0,
00:00:04.048,-0.00529142515733838,0.000945486885029823,-0.00870157591998577,0,
00:00:04.052,0.00110196240711957,0.00475979875773191,0.00594630837440491,0,
00:00:04.056,0.000395998999010772,-0.00394309498369694,-0.000196705208509229,0,
00:00:04.06,-0.00532970717176795,-0.00384466000832617,0.00979356281459332,0,
00:00:04.064,-0.00386035349220037,-0.00116485171020031,-0.00283908564597368,0,
00:00:04.068,0.0103765092790127,0.00513451499864459,-0.00195655832067132,0,
00:00:04.072,0.00130923162214458,0.00394659582525492,0.00060684175696224,0,
00:00:04.076,-0.00214191852137446,-0.00177764846011996,-0.00489176530390978,0,
00:00:04.08,-0.00232304912060499,-0.00673927180469036,0.00431126356124878,0,
00:00:04.084,-0.00323133822530508,-0.0122703453525901,-0.00633614789694548,0,
00:00:04.088,0.00203851843252778,-0.000102354460977949,0.00630991999059916,0,
00:00:04.092,0.0044399662874639,0.0194264724850655,-0.00252420734614134,0,
00:00:04.096,0.00311786332167685,0.0105104269459844,-0.00155966146849096,0,
00:00:04.1,-0.00807344820350409,-0.0023353120777756,0.000998389325104654,0,
00:00:04.104,-0.00454401317983866,-0.0151554085314274,0.00626328261569142,0,
00:00:04.108,0.00118917063809931,-0.0127743119373918,0.005951345898211,0,
00:00:04.112,0.00822899863123894,0.00476225558668375,-0.00666148075833917,0,
00:00:04.116,0.00179484218824655,0.01135294418782,-0.011534153483808,0,
00:00:04.12,-0.00164757331367582,0.0064848018810153,-0.00129832525271922,0,
00:00:04.124,-0.00455004861578345,-0.000142164979479276,0.00428495043888688,0,
00:00:04.128,0.0044138366356492,-0.00190314464271069,0.000945132633205503,0,
00:00:04.132,-0.00278599816374481,-0.00836066994816065,0.00700168870389462,0,
00:00:04.136,-0.00264889281243086,-5.546898682951E-05,0.00782205350697041,0,
00:00:04.14,0.00168216892052442,0.00758722424507141,-0.00500080967321992,0,
00:00:04.144,-0.000663994054775685,-0.00932934135198593,-0.00684155570343137,0,
00:00:04.148,-0.00201249471865594,-0.00296576041728258,-0.00375704769976437,0,
00:00:04.152,0.00291711511090398,0.000445211248006672,-0.00211386568844318,0,
00:00:04.156,0.00478938408195972,0.00637864274904132,0.00619816780090332,0,
00:00:04.16,-0.00120093231089413,0.00285084103234112,2.03607378352899E-05,0,
00:00:04.164,-0.0066577484831214,-0.00309378025121987,0.00199722684919834,0,
00:00:04.168,0.00439211912453175,0.012026377953589,-0.00119724043179303,0,
00:00:04.172,0.00515815475955606,0.00266260141506791,0.00344776688143611,0,
00:00:04.176,-0.00672611361369491,-0.0153404911980033,-0.00370298209600151,0,
00:00:04.18,-0.00235844706185162,-0.0140553368255496,0.00354703702032566,0,
00:00:04.184,0.00271149887703359,0.00619004014879465,-0.00589242298156023,0,
00:00:04.188,-0.00019559521751944,0.0137582588940859,-0.00119645870290697,0,
00:00:04.192,0.0019488197285682,0.00365265016444027,0.00751315662637353,0,
00:00:04.196,-0.00151877559255809,-0.000784642819780856,-0.00409025140106678,0,
00:00:04.2,-0.00305889453738928,-0.00876365415751934,-0.00784585438668728,0,
00:00:04.204,0.0022335855755955,-0.0113084390759468,0.00164966285228729,0,
00:00:04.208,0.00046100138570182,0.00226060301065445,0.00948826968669891,0,
00:00:04.212,0.00501601863652468,0.0124772787094116,0.000418196199461818,0,
00:00:04.216,0.00327304657548666,0.0157764591276646,0.00231142062693834,0,
00:00:04.22,-0.0107704736292362,-0.0123155256733298,-0.00543499179184437,0,
00:00:04.224,0.00275873276405036,-0.00745483348146081,-0.00385768059641123,0,
00:00:04.228,-0.00374836986884475,-0.00264456821605563,0.00801307708024979,0,
00:00:04.232,0.00329197547398508,0.00282680988311768,-0.003871537046507,0,
00:00:04.236,0.000617527344729751,0.0022983483504504,-0.0104610687121749,0,
00:00:04.24,0.00228457967750728,-0.00158601126167923,0.0090861152857542,0,
00:00:04.244,-0.00376716977916658,-0.00284601515159011,0.00680944789201021,0,
00:00:04.248,-0.00149577006231993,-0.0035583667922765,-0.00423425110056996,0,
00:00:04.252,0.0055806222371757,0.00678810244426131,-0.00234920182265341,0,
00:00:04.256,0.00471044750884175,0.0184404756873846,-0.0136397918686271,0,
00:00:04.26,-0.00545530021190643,2.81266511592548E-05,0.00538980448618531,0,
00:00:04.264,-0.00283209886401892,-0.0260501615703106,0.0245025828480721,0,
00:00:04.268,-0.00318188057281077,-0.00874142069369555,-0.0053871301934123,0,
00:00:04.272,3.69905465049669E-05,0.00275732669979334,-0.00655880337581038,0,
00:00:04.276,-0.00178881641477346,0.00966464448720217,-0.00788459181785584,0,
00:00:04.28,0.00660565076395869,0.0154608320444822,-0.00528513174504042,0,
00:00:04.284,0.00481885438784957,0.00264774658717215,0.00342476111836731,0,
00:00:04.288,0.000451771513326094,-0.00339831155724823,0.00729223247617483,0,
00:00:04.292,-0.00047003265353851,-0.00516469916328788,0.00138108595274389,0,
00:00:04.296,-0.00304581085219979,-0.00843613315373659,-0.00307453982532024,0,
00:00:04.3,-0.00357861071825027,-0.00662433635443449,0.0026405630633235,0,
00:00:04.304,-0.00629949942231178,-0.0016252837376669,-0.00333852926269174,0,
00:00:04.308,-0.00240675988607109,0.000874928082339466,0.00439253635704517,0,
00:00:04.312,0.00842492002993822,0.0131680332124233,-0.00314035499468446,0,
00:00:04.316,0.00892943423241377,0.014583614654839,-0.000876468606293201,0,
00:00:04.32,0.00172048830427229,-0.00801155529916286,-0.00458965683355927,0,
00:00:04.324,-0.00601294636726379,-0.00609759800136089,0.00163196527864784,0,
00:00:04.328,-0.00130519305821508,-0.00466413330286741,0.00322069437243044,0,
00:00:04.332,-0.00388332712464035,-0.00443668104708195,0.00219158665277064,0,
00:00:04.336,-0.00425468757748604,-0.00213799881748855,-0.0016370895318687,0,
00:00:04.34,-0.00386825110763311,0.000945480773225427,0.00321838282980025,0,
00:00:04.344,0.00950059574097395,0.00924453418701887,0.000519469729624689,0,
00:00:04.348,0.00716154370456934,0.00987911410629749,-0.00228144670836627,0,
00:00:04.352,0.000932534981984645,-0.00407192716374993,-0.00704785156995058,0,
00:00:04.356,-0.00333680864423513,-0.00697265565395355,-0.00402485346421599,0,
00:00:04.36,-0.00835175905376673,-0.00649798801168799,0.00703420350328088,0,
00:00:04.364,-0.0028722791466862,-0.000803676201030612,0.00622874684631824,0,
00:00:04.368,0.00468915840610862,0.00332638435065746,0.00588541803881526,0,
00:00:04.372,0.00672423467040062,0.00620360719040036,0.000390142318792641,0,
00:00:04.376,-0.000161716816364788,0.00265622232109308,-0.0206236224621534,0,
00:00:04.38,-0.0024413107894361,0.00502692209556699,0.000260716449702159,0,
00:00:04.384,-0.00421064207330346,-0.00886115990579128,0.00898769218474627,0,
00:00:04.388,-0.00098911311943084,-0.0136935506016016,0.00589359691366553,0,
00:00:04.392,0.00591590255498886,0.00430872850120068,-0.00156125950161368,0,
00:00:04.396,0.0026636179536581,0.0139966104179621,-0.00497904093936086,0,
00:00:04.4,-0.00358336418867111,-0.00541894650086761,0.00233168387785554,0,
00:00:04.404,-0.00333531340584159,-0.00264348275959492,0.00156997132580727,0,
00:00:04.408,-0.00100291892886162,-0.00165646616369486,-0.00476875435560942,0,
00:00:04.412,0.00300982384942472,0.00784722715616226,-0.00395245710387826,0,
00:00:04.416,-0.000352692964952439,0.0053156022913754,0.00368398102000356,0,
00:00:04.42,-0.00245987274684012,-0.00658822897821665,0.00881204847246408,0,
00:00:04.424,0.00224942550994456,-0.00862426683306694,0.00464928569272161,0,
00:00:04.428,0.00223863427527249,-0.00240598688833416,-0.00537915574386716,0,
00:00:04.432,0.0027159471064806,0.00717656314373016,-0.0110960537567735,0,
00:00:04.436,0.00352420657873154,0.00702398037537932,-0.00204131891950965,0,
00:00:04.44,-0.0108582945540547,-0.00580403674393892,0.00313091860152781,0,
00:00:04.444,-0.00614482956007123,-0.0105904545634985,0.00635092426091433,0,
00:00:04.448,0.00150833604857326,0.00600186595693231,0.000879307102877647,0,
00:00:04.452,0.0116744339466095,0.0180301889777184,-0.00302575505338609,0,
00:00:04.456,0.00322722783312202,0.00382622145116329,-0.00118472124449909,0,
00:00:04.46,-0.0045987106859684,-0.021355252712965,0.00507350685074925,0,
00:00:04.464,-0.00642791297286749,-0.0146402847021818,0.00386394909583032,0,
00:00:04.468,0.00459387013688684,0.00373493693768978,-0.00818529818207026,0,
00:00:04.472,-0.00145630026236176,0.0153260687366128,-0.00522711127996445,0,
00:00:04.476,0.00281412224285305,0.0137960398569703,0.00672360276803374,0,
00:00:04.48,-0.00371875264681876,-0.00342050776816905,-0.00219551916234195,0,
00:00:04.484,-0.00416597677394748,-0.0126128708943725,0.00501657836139202,0,
00:00:04.488,0.00278500793501735,-0.000380972749553621,-0.00464062392711639,0,
00:00:04.492,0.00387002713978291,-0.000725211401004344,0.00148505519609898,0,
00:00:04.496,0.00417957734316587,0.00432821037247777,-0.0049545057117939,0,
00:00:04.5,9.78494790615514E-06,-0.00919344834983349,-0.000569295487366617,0,
00:00:04.504,-0.00501650990918279,0.00174020195845515,0.00973204430192709,0,
00:00:04.508,-0.00545737566426396,0.0115243652835488,0.00860831420868635,0,
00:00:04.512,0.00582088250666857,0.00433499040082097,-0.0146145988255739,0,
00:00:04.516,0.00144213635940105,-0.00769765675067902,-0.000737396418116987,0,
00:00:04.52,-0.0030731251463294,-0.0108124315738678,-0.000276251463219523,0,
00:00:04.524,-0.00782951805740595,-0.00194480293430388,-0.00347322272136807,0,
00:00:04.528,0.0065902192145586,0.00726088788360357,0.00512065598741174,0,
00:00:04.532,0.00871899072080851,0.0130844116210938,0.00638811010867357,0,
00:00:04.536,0.00207648752257228,0.00502802059054375,-0.00110277056228369,0,
00:00:04.54,-0.00561759807169437,-0.0120135685428977,-0.00540891708806157,0,
00:00:04.544,-0.0073014423251152,-0.0142085216939449,-0.00264873006381094,0,
00:00:04.548,1.83373867912451E-05,0.00353603321127594,0.00698393816128373,0,
00:00:04.552,0.00466482806950808,0.00466823624446988,0.00264263805001974,0,
00:00:04.556,0.000396865652874112,0.00389331439509988,-0.0108857536688447,0,
00:00:04.56,0.00150025042239577,-0.000136682312586345,-0.000594398297835141,0,
00:00:04.564,-0.00438920222222805,-0.000112082962004934,0.00129770045168698,0,
00:00:04.568,0.00247275573201478,0.0107568381354213,0.00734220305457711,0,
00:00:04.572,0.00181606749538332,-0.00536407297477126,-0.000912450952455401,0,
00:00:04.576,-0.00446610478684306,-0.0101114325225353,0.00230805855244398,0,
00:00:04.58,0.000398502452298999,-0.00862873531877995,-0.00254815327934921,0,
00:00:04.584,-0.000241651709075086,-0.000513939303345978,-0.00284821912646294,0,
00:00:04.588,0.0054163453169167,0.0138616263866425,0.000784944568295032,0,
00:00:04.592,-1.48897570397821E-05,0.0135417655110359,0.000404421793064103,0,
00:00:04.596,-0.00194468139670789,-0.00328448903746903,-0.0045860824175179,0,
00:00:04.6,-0.00176204543095082,-0.00622493447735906,0.00122916081454605,0,
00:00:04.604,-0.000752557185478508,-0.0103861698880792,0.000798562075942755,0,
00:00:04.608,0.000184139775228687,-0.0017084073042497,0.00403345050290227,0,
00:00:04.612,0.000640622281935066,0.000812571553979069,5.38433305337094E-05,0,
00:00:04.616,0.000616297940723598,0.00788303650915623,0.00767497112974525,0,
00:00:04.62,0.00240148836746812,0.00637880293652415,-0.00623637717217207,0,
00:00:04.624,-0.00404201122000813,-0.00889492407441139,-0.00871719606220722,0,
00:00:04.628,0.000149875922943465,-0.00522568309679627,0.00170370528940111,0,
00:00:04.632,0.00124626979231834,0.00963126868009567,-0.000875628727953881,0,
00:00:04.636,0.00294951256364584,0.00079572107642889,0.00359949376434088,0,
00:00:04.64,0.000244368857238442,-0.00242003588937223,0.00316371978260577,0,
00:00:04.644,-0.00605219090357423,-0.00235028541646898,-0.00105842074844986,0,
00:00:04.648,-0.00032474598265253,-0.00100277364253998,0.00323985400609672,0,
00:00:04.652,0.00198132125660777,-0.00179944862611592,0.000208422250580043,0,
00:00:04.656,0.00404054578393698,0.00286796735599637,-0.00263337744399905,0,
00:00:04.66,-0.00313279242254794,0.00456224614754319,-0.00933104194700718,0,
00:00:04.664,-0.00188708887435496,-0.00966749433428049,0.00830648932605982,0,
00:00:04.668,0.000653452414553612,-0.00289098219946027,-0.00109963386785239,0,
00:00:04.672,0.0122097581624985,0.02753028832376,-0.00582345435395837,0,
00:00:04.676,-0.0021664765663445,0.00580954318866134,0.00405194330960512,0,
00:00:04.68,-0.0137110985815525,-0.0273389741778374,-0.00161068618763238,0,
00:00:04.684,-0.00632508471608162,-0.0198701061308384,0.0118113039061427,0,
00:00:04.688,0.00691792694851756,0.000192218183656223,0.00411285506561399,0,
00:00:04.692,0.00292258895933628,0.0169098842889071,-0.0130471885204315,0,
00:00:04.696,0.00463222432881594,0.0140338269993663,-0.00201348005793989,0,
00:00:04.7,0.00204847822897136,0.00452090706676245,-0.00126511533744633,0,
00:00:04.704,-0.000883899279870093,-0.00130525953136384,-0.00133016367908567,0,
00:00:04.708,-0.00441962387412786,-0.010549427010119,0.00389956636354327,0,
00:00:04.712,0.00602233456447721,-0.00298557104542851,0.0014098685933277,0,
00:00:04.716,-0.00331880245357752,-0.0028329084161669,0.0031347400508821,0,
00:00:04.72,-0.00877708755433559,-8.34301099530421E-05,0.00497506419196725,0,
00:00:04.724,-0.00242076464928687,-5.17218613822479E-05,-0.00744766276329756,0,
00:00:04.728,0.00366548355668783,0.000300054642139003,-0.00762120494619012,0,
00:00:04.732,0.00968792568892241,0.00516921142116189,0.00781300570815802,0,
00:00:04.736,0.00405221385881305,0.0120822479948401,0.000724700046703219,0,
00:00:04.74,-0.00635575968772173,-0.00528757693246007,-0.00128159404266626,0,
00:00:04.744,-0.000930189271457493,-0.00416951300576329,0.00315682170912623,0,
00:00:04.748,-0.00283500552177429,-0.0045597362332046,-0.00824118871241808,0,
00:00:04.752,-0.00337326154112816,-0.0115405628457665,0.00526732159778476,0,
00:00:04.756,0.00257237395271659,0.00295010302215815,-0.00252985605038702,0,
00:00:04.76,0.0052347700111568,0.00559752574190497,-0.000989550957456231,0,
00:00:04.764,0.00164327525999397,0.00590623635798693,0.00576325040310621,0,
00:00:04.768,-0.00796988606452942,0.00146525097079575,-0.00149979046545923,0,
00:00:04.772,0.00101136567536741,0.00649354746565223,0.000402492645662278,0,
00:00:04.776,0.00489226542413235,0.00203218241222203,0.00199911976233125,0,
00:00:04.78,0.00170622766017914,-0.0095040574669838,-0.0048060636036098,0,
00:00:04.784,-0.00367466337047517,-0.0100199235603213,0.00151621282566339,0,
00:00:04.788,-0.00697494111955166,-0.00436111772432923,-0.00521328719332814,0,
00:00:04.792,0.0118533316999674,0.0121962064877152,0.00533846765756607,0,
00:00:04.796,-0.00126148713752627,0.00982016511261463,-0.000477320369100198,0,
00:00:04.8,-0.00863111391663551,-0.0106674451380968,0.00359322549775243,0,
00:00:04.804,-0.0010119944345206,-0.00906290579587221,-0.00142747268546373,0,
00:00:04.808,0.00297268480062485,0.0113119818270206,-0.0106184277683496,0,
00:00:04.812,0.00551745435222983,0.00946577731519938,0.0107378419488668,0,
00:00:04.816,-0.00213151634670794,-0.0112826405093074,0.00882544182240963,0,
00:00:04.82,-0.00169004849158227,-0.00974308233708143,-0.0139706870540977,0,
00:00:04.824,0.00231376150622964,0.00673936028033495,0.00229194108396769,0,
00:00:04.828,0.00338209909386933,0.00922041200101376,-0.00144681404344738,0,
00:00:04.832,-0.00252682017162442,0.00448847655206919,-0.000596257217694074,0,
00:00:04.836,-0.00522054173052311,-0.00953484885394573,-0.00115101225674152,0,
00:00:04.84,-0.0016224782448262,-0.00901629403233528,0.00353394076228142,0,
00:00:04.844,0.00594498077407479,0.003465810790658,0.00285546667873859,0,
00:00:04.848,0.00103499868419021,0.0115023776888847,-0.00355750042945147,0,
00:00:04.852,0.000967558298725635,0.0010000797919929,0.00490079866722226,0,
00:00:04.856,-0.00128640420734882,-0.0131615176796913,0.00382934557273984,0,
00:00:04.86,-0.00231433403678238,-0.00365213863551617,-0.00434174994006753,0,
00:00:04.864,-0.0121295228600502,-0.000578706269152462,-0.00956763792783022,0,
00:00:04.868,0.00734343007206917,0.00964170880615711,-0.000947716413065791,0,
00:00:04.872,0.0149829965084791,0.0113882999867201,-0.000675848335959017,0,
00:00:04.876,-0.00239870161749423,0.00767366914078593,0.0100529482588172,0,
00:00:04.88,-0.008559700101614,-0.0121662998571992,0.00159771903418005,0,
00:00:04.884,-0.00443522399291396,-0.0148073676973581,-0.00111617182847112,0,
00:00:04.888,0.0049060108140111,-0.00341905537061393,0.00895314943045378,0,
00:00:04.892,0.0014576914254576,0.00143542920704931,-0.0128908045589924,0,
00:00:04.896,-0.00216570287011564,0.00340524269267917,-0.0045391502790153,0,
00:00:04.9,0.00145328277722001,0.00568194780498743,-0.00331295072101057,0,
00:00:04.904,-0.000842933019157499,0.00278894789516926,0.0131422514095902,0,
00:00:04.908,0.00408912217244506,0.00395065639168024,0.00418298551812768,0,
00:00:04.912,-0.00110375205986202,0.00695323944091797,-0.00932815112173557,0,
00:00:04.916,-0.00234000151976943,-0.00405397964641452,-0.00571372732520103,0,
00:00:04.92,-0.00152566167525947,-0.0142350690439343,0.000791500438936055,0,
00:00:04.924,-0.00436901487410069,-0.00431753462180495,0.00844678934663534,0,
00:00:04.928,0.00878114625811577,0.00705898692831397,0.00222337641753256,0,
00:00:04.932,0.00231485930271447,0.00765575096011162,-0.00132801453582942,0,
00:00:04.936,-0.00426993519067764,-0.00505020748823881,-0.00446196040138602,0,
00:00:04.94,-0.00763973407447338,-0.00174706347752362,-0.00191499944776297,0,
00:00:04.944,0.00532472366467118,0.000404458492994308,0.00503921182826161,0,
00:00:04.948,0.00680164061486721,0.00323816784657538,0.00222985306754708,0,
00:00:04.952,-0.00544147891923785,0.00103460368700325,-0.00977590773254633,0,
00:00:04.956,-0.00189494143705815,-0.00744977546855807,0.0028967980761081,0,
00:00:04.96,-0.00376929715275764,-0.000154728957568295,0.00218649301677942,0,
00:00:04.964,0.00514625059440732,0.00340815586969256,0.00157973018940538,0,
00:00:04.968,0.00426297215744853,0.0013009870890528,0.0110658491030335,0,
00:00:04.972,0.00278157787397504,0.0117782289162278,-0.00382230617105961,0,
00:00:04.976,-0.00178229447919875,0.00365957827307284,-0.0210350528359413,0,
00:00:04.98,-0.0061160558834672,-0.0177791155874729,0.00146303535439074,0,
00:00:04.984,-0.00555464718490839,-0.0154323503375053,0.00823013111948967,0,
00:00:04.988,0.00435287412256002,0.00452198786661029,0.00443595787510276,0,
00:00:04.992,0.00214144261553884,0.0149897933006287,0.006146224681288,0,
00:00:04.996,0.00320754712447524,0.0126427626237273,-0.00178793747909367,0,
00:00:05,-0.00153957202564925,-0.00651918770745397,-0.00429218960925937,0,
00:00:05.004,-0.00173156533855945,-0.0109755164012313,-0.00334996008314192,0,
00:00:05.008,-0.00263520143926144,-0.00670846970751882,0.000910739065147936,0,
00:00:05.012,0.00446736393496394,0.00801039300858974,-0.00339060230180621,0,
00:00:05.016,0.000397608673665673,0.00442854082211852,-0.000299723615171388,0,
00:00:05.02,-0.00094422121765092,-0.00118261855095625,0.000557194522116333,0,
00:00:05.024,-0.00297555839642882,-0.00965520553290844,0.00929941143840551,0,
00:00:05.028,0.00159411341883242,0.0159474089741707,0.00577991735190153,0,
00:00:05.032,0.00587878143414855,0.00950111355632544,-0.0110398707911372,0,
00:00:05.036,-0.00140092894434929,-0.00692966999486089,-0.00114716659300029,0,
00:00:05.04,-0.00790643040090799,-0.0241717621684074,0.000523313006851822,0,
00:00:05.044,-0.00922540202736855,-0.00650690402835608,-0.00621435465291142,0,
00:00:05.048,0.0145522179082036,0.0141384322196245,0.00554488552734256,0,
00:00:05.052,0.00758559396490455,0.0125660672783852,-0.00154521316289902,0,
00:00:05.056,-0.00498629501089454,-0.00428378069773316,0.00867617130279541,0,
00:00:05.06,-0.00328077562153339,-0.00339333014562726,-0.001210110145621,0,
00:00:05.064,0.000255049235420302,0.0172124821692705,-0.0058671641163528,0,
00:00:05.068,-0.000411206012358889,-0.005014359485358,-0.00279744784347713,0,
00:00:05.072,-0.00529825035482645,-0.0129273813217878,-0.00531666167080402,0,
00:00:05.076,0.000914919655770063,-0.00955777615308762,0.0168154593557119,0,
00:00:05.08,0.000898129539564252,0.00219293800182641,0.00753235490992665,0,
00:00:05.084,0.00436634290963411,0.00226187263615429,-0.00687815621495247,0,
00:00:05.088,0.0024760402739048,0.0135002071037889,-0.0203323140740395,0,
00:00:05.092,0.00176385580562055,0.00155292975250632,-0.000391817622585222,0,
00:00:05.096,-0.00387646700255573,-0.00567200360819697,0.00536219961941242,0,
00:00:05.1,-0.00567523064091802,-0.002137630013749,0.0133086908608675,0,
00:00:05.104,0.000720132025890052,-0.000722077791579068,-0.00100156723055989,0,
00:00:05.108,0.00243496522307396,-0.000108757820271421,-0.00155836751218885,0,
00:00:05.112,0.00180714996531606,-0.0018943203613162,5.65544578421395E-05,0,
00:00:05.116,0.000527851225342602,0.00849117431789637,-0.00162591924890876,0,
00:00:05.12,0.00163903168868273,-0.00194138067308813,-0.00659790867939591,0,
00:00:05.124,-0.00482457596808672,-0.0127803906798363,-0.00196795095689595,0,
00:00:05.128,-0.00234743789769709,0.00297161983326077,0.00684116175398231,0,
00:00:05.132,0.0094418516382575,0.0062308544293046,0.000234900304349139,0,
00:00:05.136,-0.00108444993384182,0.00792481750249863,-0.0044866525568068,0,
00:00:05.14,-0.0083579970523715,0.000462183670606464,0.01051932759583,0,
00:00:05.144,-0.00327479909174144,-0.0153924571350217,-0.00204256153665483,0,
00:00:05.148,0.00451795011758804,-0.00416728528216481,-0.00219043041579425,0,
00:00:05.152,0.00473763514310122,0.0108283283188939,-0.0022822564933449,0,
00:00:05.156,0.00199748505838215,0.0115240653976798,-0.003624034114182,0,
00:00:05.16,0.00140796264167875,-0.00795028451830149,0.0036381792742759,0,
00:00:05.164,-0.0039102272130549,-0.00773111404851079,0.000175151668372564,0,
00:00:05.168,-0.00343645876273513,-0.00190576631575823,-0.00472546787932515,0,
00:00:05.172,0.00100119202397764,0.00674873543903232,0.0120036769658327,0,
00:00:05.176,-0.00316798244602978,0.00195295515004545,-0.0085660619661212,0,
00:00:05.18,-0.000128282496007159,-0.000599290302488953,-0.0018597386078909,0,
00:00:05.184,0.00473208026960492,-0.00136885477695614,0.00329976179637015,0,
00:00:05.188,0.00939462427049875,0.00101498106960207,-0.000174406784935854,0,
00:00:05.192,-0.00991258677095175,-0.000277415703749284,-0.00261029717512429,0,
00:00:05.196,-0.00690317852422595,-0.00550554692745209,-0.000123162593808956,0,
00:00:05.2,0.00669247191399336,-0.00148906093090773,0.00606012530624866,0,
00:00:05.204,0.00289944652467966,0.00466335844248533,0.00439359433948994,0,
00:00:05.208,-0.000104014783573803,0.008023701608181,-0.00814161729067564,0,
00:00:05.212,0.000592251075431705,0.00117933691944927,-0.00548094511032104,0,
00:00:05.216,-0.00343522941693664,-0.00851731281727552,0.00225613662041724,0,
00:00:05.22,-0.00236335303634405,-0.0118791358545423,0.00569152645766735,0,
00:00:05.224,-0.00218858639709651,0.00367477512918413,0.000135197667987086,0,
00:00:05.228,0.00540697108954191,0.0122077334672213,-0.00356704811565578,0,
00:00:05.232,0.00125501211732626,0.00591340521350503,0.00490358006209135,0,
00:00:05.236,-0.000485832017147914,-0.00593149429187179,-0.00478727277368307,0,
00:00:05.24,0.00121218641288579,-0.00774600775912404,-0.000888574169948697,0,
00:00:05.244,-0.00465530715882778,0.00430436106398702,-0.00530279148370028,0,
00:00:05.248,0.00221656891517341,0.00105755787808448,0.0175195913761854,0,
00:00:05.252,-0.000403534737415612,-0.00481379777193069,-0.00838149432092905,0,
00:00:05.256,-0.00248382426798344,0.00711000990122557,-0.007800895255059,0,
00:00:05.26,7.84977382863872E-05,-0.00121859251521528,0.0055607883259654,0,
00:00:05.264,0.00827940553426743,0.00126075814478099,0.000287019676761702,0,
00:00:05.268,0.000394151924410835,-0.00558228231966496,0.00402811728417873,0,
00:00:05.272,-0.00782568193972111,-0.00526759261265397,-0.00558126252144575,0,
00:00:05.276,-0.00406088912859559,0.00271396990865469,0.00347434752620757,0,
00:00:05.28,0.0032373066060245,0.000348341214703396,0.00390405207872391,0,
00:00:05.284,0.00170820124913007,0.00478317262604833,-0.0074509521946311,0,
00:00:05.288,0.00161707494407892,0.00367029663175344,-0.0065448279492557,0,
00:00:05.292,0.00530978664755821,0.00692693702876568,0.00291384663432837,0,
00:00:05.296,0.00050538987852633,-0.00132880045566708,0.00545152835547924,0,
00:00:05.3,-0.00355236488394439,-0.0153136868029833,0.0120393140241504,0,
00:00:05.304,-0.00634159427136183,-0.00115092971827835,-0.00714689819142222,0,
00:00:05.308,-0.000523814524058253,0.00728888204321265,-0.00594657193869352,0,
00:00:05.312,-0.000542303780093789,-0.00305990944616497,-0.00692193256691098,0,
00:00:05.316,-0.002564457943663,-0.00404601870104671,0.00412655435502529,0,
00:00:05.32,0.00447411695495248,-0.000949039007537067,0.00711090303957462,0,
00:00:05.324,0.0031536971218884,0.00630545243620873,-0.00181879906449467,0,
00:00:05.328,0.0108149899169803,0.0119011485949159,0.00184834748506546,0,
00:00:05.332,0.00150133471470326,0.000100497738458216,-0.000298227998428047,0,
00:00:05.336,-0.0128893638029695,-0.0104275587946177,-0.00845039915293455,0,
00:00:05.34,-0.00866616610437632,-0.00476010609418154,0.00360725820064545,0,
00:00:05.344,-0.00048904592404142,-0.000336886674631387,0.00379415764473379,0,
00:00:05.348,0.0109039507806301,0.00613218545913696,-0.00129296304658055,0,
00:00:05.352,0.00154660176485777,-0.00370023818686605,-0.0036255270242691,0,
00:00:05.356,-0.00577727239578962,-0.00398004101589322,-0.000475675915367901,0,
00:00:05.36,0.00429234094917774,0.00558055890724063,0.0062675685621798,0,
00:00:05.364,0.00052517099538818,0.0067557473666966,0.000669150322210044,0,
00:00:05.368,-0.00117494165897369,0.000933351926505566,-0.00384027045220137,0,
00:00:05.372,0.000745257653761655,-0.00356443854980171,0.00209515169262886,0,
00:00:05.376,-0.00684263091534376,-0.00862085726112127,0.000684005965013057,0,
00:00:05.38,0.00230452744290233,-0.00502595910802484,-0.0117779420688748,0,
00:00:05.384,0.00145483948290348,0.00267075840383768,0.0141233894973993,0,
00:00:05.388,0.00781401619315147,0.0126031320542097,-0.00516402954235673,0,
00:00:05.392,-0.000575354148168117,0.00772101851180196,-0.000228675315156579,0,
00:00:05.396,-0.00643231300637126,-0.00464504351839423,0.000886452849954367,0,
00:00:05.4,-0.0103453751653433,-0.0142258387058973,-0.00366334524005651,0,
00:00:05.404,0.00785841327160597,-0.00582441780716181,0.0100464643910527,0,
00:00:05.408,0.00736038247123361,0.00961906183511019,-0.00516254734247923,0,
00:00:05.412,-0.000416826718719676,0.0095328651368618,-0.00507630780339241,0,
00:00:05.416,-0.00689904997125268,-0.00710050715133548,0.00745317013934255,0,
00:00:05.42,0.00796622224152088,0.00732786441221833,-0.00980672053992748,0,
00:00:05.424,-0.00548329949378967,-0.0113869355991483,0.00648409966379404,0,
00:00:05.428,-0.0104894442483783,-0.00626827497035265,0.0025557279586792,0,
00:00:05.432,0.0123603409156203,0.0106494473293424,-0.0091344527900219,0,
00:00:05.436,0.0123136797919869,0.0110298823565245,0.00162872450891882,0,
00:00:05.44,-0.0133302556350827,-0.0108044538646936,0.015078510157764,0,
00:00:05.444,-0.0202502887696028,-0.0104549257084727,0.00172126141842455,0,
00:00:05.448,0.0305178035050631,0.00363578624092042,-0.0279956925660372,0,
00:00:05.452,0.0026506322901696,0.0084938807412982,0.00711318757385015,0,
00:00:05.456,-0.0150482961907983,0.00394486868754029,0.00737207988277078,0,
00:00:05.46,-0.00708604650571942,-0.00749332224950194,0.00892927683889866,0,
00:00:05.464,0.000877169135492295,0.000158542519784532,0.00151035073213279,0,
00:00:05.468,0.00480012223124504,0.00363931525498629,-0.00852047931402922,0,
00:00:05.472,0.00465415231883526,-0.0033713448792696,-0.00176450761500746,0,
00:00:05.476,0.000236394072999246,-0.00419478956609964,-0.00244602514430881,0,
00:00:05.48,0.00177991855889559,0.00459493836387992,-0.00239888951182365,0,
00:00:05.484,-7.23903167454409E-06,0.00571792991831899,0.0055598821491003,0,
00:00:05.488,-0.00164517504163086,-0.00166432315018028,0.00167087954469025,0,
00:00:05.492,-0.0040708645246923,-0.0035654166713357,-6.92635439918377E-05,0,
00:00:05.496,0.00275439582765102,0.00170659774448723,-0.00270467926748097,0,
00:00:05.5,-0.00267700618132949,-0.0106746749952435,-0.00068588915746659,0,
00:00:05.504,0.00100531685166061,0.00148121628444642,0.00745381088927388,0,
00:00:05.508,0.00137784203980118,0.00789314694702625,-0.00218175840564072,0,
00:00:05.512,0.000589268922340125,0.00693896180018783,-0.00384747935459018,0,
00:00:05.516,-0.000191524100955576,-0.00191069941502064,-0.00209190743044019,0,
00:00:05.52,0.00361963408067822,-0.00240996154025197,-0.00196321844123304,0,
00:00:05.524,-0.00440786080434918,-0.00325484783388674,-0.00289172842167318,0,
00:00:05.528,-0.00761996302753687,-0.00256153661757708,0.0152442930266261,0,
00:00:05.532,0.00367012829519808,0.00118942523840815,-0.00622395845130086,0,
00:00:05.536,0.00102044874802232,-0.0075298435986042,0.00491300597786903,0,
00:00:05.54,0.00863097887486219,-0.000508389377500862,-0.00145275378599763,0,
00:00:05.544,-0.00108253688085824,0.00371603574603796,-0.00644709262996912,0,
00:00:05.548,0.002959078643471,0.0128788780421019,-0.00586682325229049,0,
00:00:05.552,-0.00608378741890192,0.00975173991173506,0.00430029071867466,0,
00:00:05.556,-0.00328930257819593,-0.00077019800664857,0.0023062820546329,0,
00:00:05.56,-0.00137802714016289,-0.0161780063062906,0.00136560259852558,0,
00:00:05.564,-0.00399018637835979,-0.013331476598978,-0.00146467657759786,0,
00:00:05.568,0.00297088851220906,0.000601540901698172,0.00402599852532148,0,
00:00:05.572,0.00448641553521156,0.00492589781060815,-0.00282119470648468,0,
00:00:05.576,0.00285336980596185,0.011060425080359,0.00208644685335457,0,
00:00:05.58,-0.00164399540517479,0.0054309400729835,0.00243397592566907,0,
00:00:05.584,0.000723634846508503,-0.00547121465206146,-0.011973506771028,0,
00:00:05.588,0.00200043385848403,-0.00282546295784414,0.00413138326257467,0,
00:00:05.592,-0.00512450328096747,-0.00122103886678815,0.0010083339875564,0,
00:00:05.596,-0.00301979458890855,-0.00229332013987005,0.00137352501042187,0,
00:00:05.6,0.00472243595868349,0.000212524450034834,0.00991718657314777,0,
00:00:05.604,0.00265907403081656,0.00822736788541079,-0.00480406591668725,0,
00:00:05.608,-0.00286311144009233,-0.00177836313378066,-0.0105577949434519,0,
00:00:05.612,-0.00251799635589123,-0.00172132579609752,-0.00312395789660513,0,
00:00:05.616,-0.000501680944580585,-6.8494315200951E-05,0.0100570814684033,0,
00:00:05.62,-0.00105617288500071,-0.00774795841425657,0.0083473976701498,0,
00:00:05.624,0.00339470501057804,-0.000251146469963714,-0.00662983255460858,0,
00:00:05.628,0.00261063734069467,-0.000601754582021385,-0.00199218653142452,0,
00:00:05.632,-0.00166503293439746,0.00978287309408188,-0.00119349907618016,0,
00:00:05.636,0.00703103095293045,0.00951656233519316,-0.00506221456453204,0,
00:00:05.64,-0.00999630708247423,-0.0134925041347742,0.00152190844528377,0,
00:00:05.644,-0.00186011788900942,-0.00629499601200223,0.00139057589694858,0,
00:00:05.648,-0.000436387315858155,0.00150734710041434,0.00454482063651085,0,
00:00:05.652,0.00623936299234629,0.0111745735630393,0.0127574037760496,0,
00:00:05.656,0.000990622444078326,0.008661855943501,-0.016639007255435,0,
00:00:05.66,-0.00125576928257942,-0.00705726910382509,-0.00438800733536482,0,
00:00:05.664,-0.00360899465158582,-0.0114855132997036,-9.61471669143066E-05,0,
00:00:05.668,0.00525261042639613,-0.00314720324240625,0.00356479221954942,0,
00:00:05.672,-0.000312833930365741,-0.000258470507105812,0.00623686891049147,0,
00:00:05.676,-0.00882189255207777,-0.00694195507094264,0.00463679479435086,0,
00:00:05.68,-0.00253055989742279,0.0122912432998419,-0.00333865219727159,0,
00:00:05.684,0.00805222894996405,0.0132657457143068,-0.00474095949903131,0,
00:00:05.688,0.010141926817596,0.0136684821918607,-0.00490709766745567,0,
00:00:05.692,-0.00110148568637669,-0.00873650703579187,-0.000391154288081452,0,
00:00:05.696,-0.0101503627374768,-0.028081763535738,0.00496670370921493,0,
00:00:05.7,-0.00773656507954001,-0.0158776063472033,0.00767897674813867,0,
00:00:05.704,0.00687724910676479,0.0126370927318931,-0.00760837085545063,0,
00:00:05.708,0.00393317267298698,0.0301554836332798,-0.000880963925737888,0,
00:00:05.712,0.00105238030664623,0.0110880546271801,0.000956506992224604,0,
00:00:05.716,-0.00284013897180557,-0.0187729001045227,-0.00545819662511349,0,
00:00:05.72,0.0027190048713237,-0.0161875411868095,0.0081281503662467,0,
00:00:05.724,0.000727125559933484,-0.00218109716661274,0.00680910842493176,0,
00:00:05.728,-0.00587920099496841,0.0091974837705493,-0.00749501446262002,0,
00:00:05.732,0.00157399382442236,-0.00186701898928732,-0.00420889910310507,0,
00:00:05.736,-0.00234295823611319,0.000418622308643535,-0.000938778801355511,0,
00:00:05.74,0.00213632569648325,0.00762828113511205,0.00114365282934159,0,
00:00:05.744,0.00239387946203351,0.00387963955290616,-0.0023861404042691,0,
00:00:05.748,0.00100424746051431,0.00484967231750488,0.00320447119884193,0,
00:00:05.752,-0.000371848262147978,-0.00997989252209663,0.00782568100839853,0,
00:00:05.756,-0.00101954652927816,-0.0128132719546556,0.0081105288118124,0,
00:00:05.76,-0.00716037396341562,-0.00250633526593447,-0.0115843862295151,0,
00:00:05.764,0.00754512334242463,0.0100180618464947,-0.01635985635221,0,
00:00:05.768,0.00506091909483075,0.0143498433753848,0.00351891876198351,0,
00:00:05.772,-0.00277070770971477,-0.00386123219504952,0.0106011601164937,0,
00:00:05.776,-0.00399858318269253,-0.0137154180556536,0.00395910209044814,0,
00:00:05.78,-0.00219708937220275,-0.00277120433747768,-0.00235608033835888,0,
00:00:05.784,-0.00204609148204327,0.0105219995602965,0.00194073794409633,0,
00:00:05.788,0.00539468135684729,0.0102067952975631,-0.000362315156962723,0,
00:00:05.792,0.00324744661338627,-0.000909746624529362,-0.00668141711503267,0,
00:00:05.796,-0.00251964386552572,-0.0120645025745034,-0.00288699404336512,0,
00:00:05.8,-0.00457610096782446,-0.0122850881889462,0.005852987524122,0,
00:00:05.804,0.00124909798614681,-0.000848784926347435,0.00174745684489608,0,
00:00:05.808,0.000284627691144124,0.00534055940806866,-0.00442799367010593,0,
00:00:05.812,0.00126106280367821,0.0127822933718562,0.00304995221085846,0,
00:00:05.816,0.00363886030390859,0.0110732661560178,0.00254479749128222,0,
00:00:05.82,-0.00103790231514722,-0.00694828620180488,5.22059708600864E-05,0,
00:00:05.824,0.0025000914465636,-0.00457148952409625,0.000465232878923416,0,
00:00:05.828,-0.000664999184664339,-0.00411643600091338,-0.00378097989596426,0,
00:00:05.832,-0.00310651795007288,-0.00275557651184499,-0.000592932745348662,0,
00:00:05.836,-0.00719730695709586,-0.00695221731439233,-0.00427256338298321,0,
00:00:05.84,-0.00364358304068446,0.000670086417812854,-0.00445215497165918,0,
00:00:05.844,0.00760086346417665,0.00633573858067393,0.00501066213473678,0,
00:00:05.848,0.00875475816428661,0.0149702234193683,0.0193503443151712,0,
00:00:05.852,-4.48778991994914E-05,0.00382939400151372,0.00257829437032342,0,
00:00:05.856,-0.00148618675302714,-0.00863139424473047,-0.0196236800402403,0,
00:00:05.86,-0.00749135576188564,-0.00970286224037409,-0.00970723573118448,0,
00:00:05.864,-0.00341706606559455,-0.00918047316372395,0.0011971922358498,0,
00:00:05.868,0.00771680939942598,-0.00196510925889015,0.00878866761922836,0,
00:00:05.872,-0.00224727741442621,0.00850360561162233,0.0107864215970039,0,
00:00:05.876,0.000254596292506903,0.0172083433717489,-0.00433168327435851,0,
00:00:05.88,0.000769519770983607,0.000576957711018622,-0.0054140780121088,0,
00:00:05.884,0.000408633903134614,-0.00906945671886206,0.00209451210685074,0,
00:00:05.888,0.00199066265486181,-0.00521994614973664,-0.000926585751585662,0,
00:00:05.892,-0.00233371509239078,-0.00618198793381453,-0.00111832888796926,0,
00:00:05.896,-0.00200100382789969,0.00223326846025884,0.00176755292341113,0,
00:00:05.9,-0.00659999856725335,0.00269159115850925,-0.00362355588003993,0,
00:00:05.904,0.00883569195866585,0.00347791123203933,0.0010237405076623,0,
00:00:05.908,0.00201127165928483,0.0068040294572711,0.00199798517860472,0,
00:00:05.912,0.00370361702516675,0.00311636319383979,-0.000860815693158656,0,
00:00:05.916,-0.00494160875678062,-0.0100085353478789,0.00206235679797828,0,
00:00:05.92,7.28131926734932E-05,-0.0109964367002249,-0.00106466363649815,0,
00:00:05.924,-0.00264691235497594,0.00575405964627862,0.00346299610100687,0,
00:00:05.928,0.000468663667561486,0.0113435443490744,0.000402589997975156,0,
00:00:05.932,-0.00383615959435701,0.00120063323993236,-0.000430701795266941,0,
00:00:05.936,0.00372867309488356,-0.00210388167761266,-0.0112286293879151,0,
00:00:05.94,-0.00118781148921698,-0.012933406047523,-0.00366639671847224,0,
00:00:05.944,9.08764995983802E-05,-0.00656588794663548,0.0107047101482749,0,
00:00:05.948,0.00579645717516541,0.0147941093891859,0.00749649852514267,0,
00:00:05.952,0.00198255339637399,0.00972098577767611,-0.00367435440421104,0,
00:00:05.956,-0.00638726260513067,-0.00661793537437916,-0.00209598592482507,0,
00:00:05.96,-0.00390854198485613,-0.00656533427536488,-0.00552475685253739,0,
00:00:05.964,0.000394118425901979,-0.0080562699586153,0.00528760673478246,0,
00:00:05.968,0.00897463411092758,0.0161164533346891,0.0032441436778754,0,
00:00:05.972,0.00298591307364404,0.0124485595151782,-0.00298858061432838,0,
00:00:05.976,-0.00958997011184692,-0.0158498473465443,-0.00308051286265254,0,
00:00:05.98,-0.0057185641489923,-0.0147381741553545,0.00103629066143185,0,
00:00:05.984,0.000875963713042438,0.000393104914110154,-0.0074238795787096,0,
00:00:05.988,0.0085814855992794,0.0139090036973357,0.00370113854296505,0,
00:00:05.992,0.00652597658336163,0.0058678206987679,0.00794060900807381,0,
00:00:05.996,-0.00515062687918544,-0.00304635590873659,0.00350360013544559,0,
00:00:06,-0.00766769889742136,-0.00829199235886335,-0.00149886298459023,0,
00:00:06.004,-0.000168175945873372,0.00383981037884951,-0.00379746221005917,0,
00:00:06.008,0.00266102608293295,0.0033750117290765,-0.00124660634901375,0,
00:00:06.012,0.00251508015207946,-0.0020940313115716,-0.00342089752666652,0,
00:00:06.016,-0.000946841784752905,-0.0064091351814568,-0.00333372317254543,0,
00:00:06.02,0.0017598340054974,0.00116655160672963,0.00314799626357853,0,
00:00:06.024,0.00281464890576899,0.0100351553410292,0.00177273049484938,0,
00:00:06.028,-0.00269931880757213,-0.000862056913319975,0.00813002604991198,0,
00:00:06.032,-0.000908486428670585,-0.00396126275882125,-0.00446717999875546,0,
00:00:06.036,-0.0032219341956079,-0.0071313320659101,-0.00239399028941989,0,
00:00:06.04,-0.00325768697075546,0.00107096775900573,0.00114845426287502,0,
00:00:06.044,0.00305725471116602,0.00819065701216459,0.000120057091407944,0,
00:00:06.048,0.0015579666942358,0.00351965008303523,-0.00522997509688139,0,
00:00:06.052,0.00581474509090185,0.0042801252566278,-0.00141721568070352,0,
00:00:06.056,-0.000592132622841746,-0.01012940146029,0.00667218444868922,0,
00:00:06.06,-0.00487866252660751,-0.0165778268128634,0.00179062644019723,0,
00:00:06.064,-0.00248253135941923,-0.00203737989068031,-0.00073790387250483,0,
00:00:06.068,0.00474702846258879,0.0157944075763226,-0.00355382449924946,0,
00:00:06.072,0.00432945182546973,0.0161651764065027,0.000829224183689803,0,
00:00:06.076,-0.00532614765688777,0.00253582303412259,0.00120346574112773,0,
00:00:06.08,-0.00653969123959541,-0.00987618323415518,-0.00382134737446904,0,
00:00:06.084,0.00332775642164052,-0.0184838641434908,0.00767887383699417,0,
00:00:06.088,0.00166909373365343,-0.00113493669778109,0.00491789728403091,0,
00:00:06.092,-0.000898276804946363,0.0132781807333231,-0.0175963938236237,0,
00:00:06.096,0.000626562279649079,0.00574835669249296,0.0029249785002321,0,
00:00:06.1,0.00172986509278417,-0.00905893091112375,0.00594883831217885,0,
00:00:06.104,0.0056183785200119,0.00215311907231808,-0.00138998776674271,0,
00:00:06.108,-0.00144774874206632,0.00723807327449322,-0.000894884229637682,0,
00:00:06.112,-0.00166350172366947,0.00301583157852292,-0.00123091042041779,0,
00:00:06.116,-0.00487593095749617,-0.0125789139419794,0.00763476500287652,0,
00:00:06.12,-0.00256928824819624,-0.00725924596190453,0.00701003009453416,0,
00:00:06.124,-0.0015450066421181,0.00140133337117732,-0.010926466435194,0,
00:00:06.128,0.00627434207126498,0.0122284283861518,-0.00632327934727073,0,
00:00:06.132,-0.000200805690838024,0.00183793075848371,-0.000803467584773898,0,
00:00:06.136,-0.000383192556910217,-0.00840185489505529,0.00467947637662292,0,
00:00:06.14,0.00262187561020255,0.00747011182829738,-0.000746670586522669,0,
00:00:06.144,0.00301728746853769,0.00569461891427636,0.0025105990935117,0,
00:00:06.148,-0.00514905946329236,-0.0109852645546198,-9.37827717280015E-05,0,
00:00:06.152,0.000527874333783984,-0.0115086929872632,0.0043623885139823,0,
00:00:06.156,-0.00817744433879852,0.00635752268135548,-0.00128334178589284,0,
00:00:06.16,0.00483612297102809,0.0144951827824116,-0.00484001310542226,0,
00:00:06.164,0.00945221353322268,-0.00203032908029854,0.00210237875580788,0,
00:00:06.168,-0.00224044639617205,-0.00568406423553824,-0.000812490936368704,0,
00:00:06.172,-0.00468280352652073,0.000524890667293221,-0.000851342629175633,0,
00:00:06.176,-0.00285840313881636,-0.0106353545561433,-0.00419247010722756,0,
00:00:06.18,-0.000228107019211166,0.0021286909468472,0.00659804744645953,0,
00:00:06.184,-0.00272323680110276,0.00642560282722116,-7.98951878095977E-05,0,
00:00:06.188,0.00775242550298572,0.0133056147024035,0.00527370162308216,0,
00:00:06.192,0.00448732543736696,-0.00642274413257837,-0.00201760116033256,0,
00:00:06.196,-0.00511144381016493,-0.0100814877077937,-0.0127014424651861,0,
00:00:06.2,-0.0019316429970786,-0.0013326135231182,0.0025930933188647,0,
00:00:06.204,0.00172029552049935,0.0111364973708987,0.0119014596566558,0,
00:00:06.208,0.00249122455716133,-0.00253387354314327,-0.00875149015337229,0,
00:00:06.212,-0.00720684044063091,-0.00881033018231392,0.00121906655840576,0,
00:00:06.216,-0.00529568968340755,0.0038120576646179,0.00890419911593199,0,
00:00:06.22,0.00622427510097623,0.00605581421405077,-0.0111026717349887,0,
00:00:06.224,0.00615743454545736,-0.0053277462720871,-0.00174777593929321,0,
00:00:06.228,0.00210607843473554,-0.00546930497512221,0.00706884171813726,0,
00:00:06.232,-0.00145913171581924,0.00284560723230243,-0.00253977719694376,0,
00:00:06.236,-0.0028696171939373,0.00886036083102226,0.00678207911550999,0,
