,Elapsed Time,EMG
0,00:00:00,-1.853671580553059
1,00:00:00.004,1.759811341762548
2,00:00:00.008,1.461991861462595
3,00:00:00.012,0.19003850780427492
4,00:00:00.016,-0.7529387101531027
5,00:00:00.02,-0.953153274953365
6,00:00:00.024,-0.5804441198706631
7,00:00:00.028,-0.045552749827038504
8,00:00:00.032,0.25852932780981086
9,00:00:00.036,0.3761521354317667
10,00:00:00.04,0.2936279177665715
11,00:00:00.044,0.0982744488865139
12,00:00:00.048,-0.05846385052427647
13,00:00:00.052,-0.1267706230282784
14,00:00:00.056,-0.0992392329499127
15,00:00:00.06,-0.02848214330151685
16,00:00:00.064,0.00595773849636317
17,00:00:00.068,0.02861565956845883
18,00:00:00.072,0.02389516122639173
19,00:00:00.076,0.01710961945354943
20,00:00:00.08,-0.02264525089412932
21,00:00:00.084,-0.004848431548452929
22,00:00:00.088,0.027486459031933898
23,00:00:00.092,0.01827619993127886
24,00:00:00.096,-0.02852941591117999
25,00:00:00.1,-0.001454667944926772
26,00:00:00.104,-0.014482148690149192
27,00:00:00.108,-0.0060479966923594995
28,00:00:00.112,0.008599793538451164
29,00:00:00.116,0.013463465496897805
30,00:00:00.12,0.0026870067231356577
31,00:00:00.124,-0.009691764251329006
32,00:00:00.128,-0.00917218206450345
33,00:00:00.132,-0.0026843380182981005
34,00:00:00.136,0.0013817790895700507
35,00:00:00.14,0.0164044005796314
36,00:00:00.144,0.04261990147642792
37,00:00:00.148,-0.005825544474646449
38,00:00:00.152,-0.05286687589250504
39,00:00:00.156,-0.01448097173124555
40,00:00:00.16,0.007717634318396456
41,00:00:00.164,0.0018815600778906878
42,00:00:00.168,0.0018772443290799795
43,00:00:00.172,0.02078003948554396
44,00:00:00.176,0.016730613540857992
45,00:00:00.18,-0.004856189305428415
46,00:00:00.184,-0.01021920191124081
47,00:00:00.188,-0.01408921089023352
48,00:00:00.192,0.0005647754296660389
49,00:00:00.196,-0.005159616644959893
50,00:00:00.2,0.0015461605507880206
51,00:00:00.204,0.027421917766332703
52,00:00:00.208,-0.006834297673776751
53,00:00:00.212,-0.021099840290844395
54,00:00:00.216,-0.007305307779461149
55,00:00:00.22,0.00871152232866735
56,00:00:00.224,0.009462696791160853
57,00:00:00.228,0.014931520214304361
58,00:00:00.232,0.01678404561243952
59,00:00:00.236,-0.02630327478982505
60,00:00:00.24,-0.01415752712637186
61,00:00:00.244,-0.021283397683873752
62,00:00:00.248,-0.002948504872620108
63,00:00:00.252,0.03384909359738237
64,00:00:00.256,0.018462522595655215
65,00:00:00.26,-0.0011950756888836605
66,00:00:00.264,0.007027391868177789
67,00:00:00.268,-0.01908266893588009
68,00:00:00.272,-0.02633710927329953
69,00:00:00.276,0.0034595055039971997
70,00:00:00.28,0.00652485061436891
71,00:00:00.284,-0.0007216867670649624
72,00:00:00.288,0.01966440910473466
73,00:00:00.292,0.0005922652781009587
74,00:00:00.296,-0.0073673893930390495
75,00:00:00.3,0.005526443594135339
76,00:00:00.304,0.0020056834910064884
77,00:00:00.308,-0.022291526431217817
78,00:00:00.312,-0.00877337739802899
79,00:00:00.316,0.015623355284333229
80,00:00:00.32,0.00762201170437039
81,00:00:00.324,0.005742320092394939
82,00:00:00.328,0.01940717198885979
83,00:00:00.332,-0.014659035019576602
84,00:00:00.336,-0.02906952169723806
85,00:00:00.34,-0.0015120244352147057
86,00:00:00.344,0.009432100225240003
87,00:00:00.348,-0.009088253136724189
88,00:00:00.352,0.03515732660889624
89,00:00:00.356,0.0029237675480544545
90,00:00:00.36,-0.002767092410067555
91,00:00:00.364,-0.02801496395841243
92,00:00:00.368,-0.004812471335753789
93,00:00:00.372,0.016356052132323388
94,00:00:00.376,0.0021295202313922337
95,00:00:00.38,-0.021687126718461527
96,00:00:00.384,0.01075257803313434
97,00:00:00.388,0.024116974323988044
98,00:00:00.392,0.006120513658970594
99,00:00:00.396,-0.020612047985196152
100,00:00:00.4,-0.036040113307535676
101,00:00:00.404,0.01557050272822379
102,00:00:00.408,0.02529300318565222
103,00:00:00.412,0.018405313603579998
104,00:00:00.416,-0.010636187624186283
105,00:00:00.42,-0.00888491474324834
106,00:00:00.424,-0.014524922706186771
107,00:00:00.428,-0.017907135188579504
108,00:00:00.432,0.015656277129892277
109,00:00:00.436,0.02579551888629797
110,00:00:00.44,0.013981076888740108
111,00:00:00.444,-0.01464182836934925
112,00:00:00.448,-0.04177214019000525
113,00:00:00.452,-0.00954055273905401
114,00:00:00.456,0.04617090150713915
115,00:00:00.46,0.017042575404048
116,00:00:00.464,-0.01265149319078773
117,00:00:00.468,-0.03030065633356567
118,00:00:00.472,0.0037768601905554698
119,00:00:00.476,0.020263907965272658
120,00:00:00.48,0.006282491231104354
121,00:00:00.484,-0.01128023510682397
122,00:00:00.488,-0.008940527215600031
123,00:00:00.492,-0.0015179881593212496
124,00:00:00.496,0.012006825767457478
125,00:00:00.5,-0.000953085313085473
126,00:00:00.504,-0.017849397263489674
127,00:00:00.508,0.02045443491078914
128,00:00:00.512,0.00394598895218224
129,00:00:00.516,-0.006066283443942667
130,00:00:00.52,-0.0013390197418629603
131,00:00:00.524,0.01089977740775798
132,00:00:00.528,-0.019912695977836868
133,00:00:00.532,-0.00921851373277605
134,00:00:00.536,-0.002564412367064511
135,00:00:00.54,0.0196191768627614
136,00:00:00.544,0.01333496719598771
137,00:00:00.548,-0.01168741891160607
138,00:00:00.552,-0.001675390405580431
139,00:00:00.556,0.0072621862636879
140,00:00:00.56,0.01743977516889577
141,00:00:00.564,-0.02101510833017528
142,00:00:00.568,-0.04850693419575694
143,00:00:00.572,0.026761334389448162
144,00:00:00.576,0.03408330282400127
145,00:00:00.58,0.012326079071499439
146,00:00:00.584,-0.02888091467320924
147,00:00:00.588,-0.02135329166776498
148,00:00:00.592,0.00215410662349313
149,00:00:00.596,0.02159573836252094
150,00:00:00.6,0.014909909339621661
151,00:00:00.604,0.0035670583893079397
152,00:00:00.608,-0.02844975872721986
153,00:00:00.612,-0.0020534556824713095
154,00:00:00.616,0.01373147638514638
155,00:00:00.62,-0.017805571667850028
156,00:00:00.624,-0.0015018635895103008
157,00:00:00.628,0.015822735527763164
158,00:00:00.632,0.0318920427234843
159,00:00:00.636,-0.018691113684326424
160,00:00:00.64,-0.01387046952731907
161,00:00:00.644,-0.020935829496011193
162,00:00:00.648,-0.0008744010701775603
163,00:00:00.652,0.02007352362852545
164,00:00:00.656,0.01571972761303185
165,00:00:00.66,-0.004774019820615651
166,00:00:00.664,0.0019993833266199086
167,00:00:00.668,-0.029349805787205724
168,00:00:00.672,-0.0011070601176470518
169,00:00:00.676,0.014541581040248282
170,00:00:00.68,0.02728014881722631
171,00:00:00.684,0.00926305865868926
172,00:00:00.688,-0.03012499236501753
173,00:00:00.692,-0.02820152009371673
174,00:00:00.696,0.0013714462984353274
175,00:00:00.7,0.02165653603151441
176,00:00:00.704,0.015432992484420528
177,00:00:00.708,-0.005562943366385312
178,00:00:00.712,0.008081676438450851
179,00:00:00.716,-0.011719080619514002
180,00:00:00.72,-0.01413822011090815
181,00:00:00.724,-0.008623786270618387
182,00:00:00.728,0.02305033337324858
183,00:00:00.732,0.02451930474489927
184,00:00:00.736,-0.007493320852518061
185,00:00:00.74,-0.028882816914119754
186,00:00:00.744,-0.03751584695419298
187,00:00:00.748,0.0399091932922601
188,00:00:00.752,0.02959615993313491
189,00:00:00.756,-0.00729344738647344
190,00:00:00.76,-0.02290408406406641
191,00:00:00.764,-0.003127014730125669
192,00:00:00.768,0.011644667014479698
193,00:00:00.772,0.006424162245821199
194,00:00:00.776,0.00888780504465104
195,00:00:00.78,-0.013164093485102061
196,00:00:00.784,-0.02323531312868003
197,00:00:00.788,-0.00893830554559826
198,00:00:00.792,0.01509060326498001
199,00:00:00.796,0.014320937742013486
200,00:00:00.8,0.028743936156388348
201,00:00:00.804,0.0060475112404674404
202,00:00:00.808,-0.0292585659772158
203,00:00:00.812,-0.025557347107678666
204,00:00:00.816,-0.01412298087961971
205,00:00:00.82,0.013134319800883532
206,00:00:00.824,0.026392578613013064
207,00:00:00.828,0.03048996813595294
208,00:00:00.832,-0.019684594124555588
209,00:00:00.836,-0.04226848017424344
210,00:00:00.84,0.01779637718573217
211,00:00:00.844,0.009779562009498439
212,00:00:00.848,0.02527556207496675
213,00:00:00.852,-0.009020381141453948
214,00:00:00.856,-0.05141787370666866
215,00:00:00.86,-0.005872496869415012
216,00:00:00.864,0.02661814447492359
217,00:00:00.868,0.0242209830321371
218,00:00:00.872,0.00068930699490011
219,00:00:00.876,0.011614989620284176
220,00:00:00.88,-0.0035466970875859304
221,00:00:00.884,-0.02508011506870389
222,00:00:00.888,-0.01716244360432027
223,00:00:00.892,-0.001570933614857494
224,00:00:00.896,0.01753811724483967
225,00:00:00.9,0.012086059316061439
226,00:00:00.904,0.010092612094013015
227,00:00:00.908,-0.004263128619641069
228,00:00:00.912,-0.02432537678396325
229,00:00:00.916,0.00999631255399436
230,00:00:00.92,-0.0016595160122960763
231,00:00:00.924,0.00746075250208378
232,00:00:00.928,0.0106817204505205
233,00:00:00.932,-0.02353643905371429
234,00:00:00.936,-0.01201052835676821
235,00:00:00.94,0.024046361446380633
236,00:00:00.944,-0.002415442286292092
237,00:00:00.948,0.01089071109890935
238,00:00:00.952,-0.0047409028047696
239,00:00:00.956,-0.0016134986653923988
240,00:00:00.96,-0.01479488145560025
241,00:00:00.964,-0.005492470925673839
242,00:00:00.968,-0.001246169675141599
243,00:00:00.972,0.014881686365697536
244,00:00:00.976,0.01589896297082304
245,00:00:00.98,0.017361356876790572
246,00:00:00.984,-0.02342703996691856
247,00:00:00.988,-0.02589200215879827
248,00:00:00.992,-0.008777723880484692
249,00:00:00.996,0.011166643642354757
250,00:00:01,0.01563899475149812
251,00:00:01.004,0.012161268328782213
252,00:00:01.008,0.0018489311914890996
253,00:00:01.012,0.01498861517757177
254,00:00:01.016,-0.015065340325236355
255,00:00:01.02,-0.03371095564216374
256,00:00:01.024,-0.025670440867543193
257,00:00:01.028,0.012349957833066612
258,00:00:01.032,0.0544113973155617
259,00:00:01.036,0.010790164116770029
260,00:00:01.04,-0.01109793549403549
261,00:00:01.044,-0.043174323625862626
262,00:00:01.048,0.0080077557358891
263,00:00:01.052,0.01939161703921857
264,00:00:01.056,-0.003195256460458028
265,00:00:01.06,0.0029029445722699096
266,00:00:01.064,-0.01349015580490232
267,00:00:01.068,0.0034822328016161502
268,00:00:01.072,-0.002692942391149699
269,00:00:01.076,0.00826946424786002
270,00:00:01.08,0.0077179642394185205
271,00:00:01.084,0.002164809731766579
272,00:00:01.088,-0.011258603190071884
273,00:00:01.092,0.009037434123456482
274,00:00:01.096,-0.014044584706425663
275,00:00:01.1,-0.0026136207161471213
276,00:00:01.104,-0.012448420515283942
277,00:00:01.108,0.0024236049503087997
278,00:00:01.112,0.021468883380293853
279,00:00:01.116,0.02596545638516547
280,00:00:01.12,-0.0015000503044575396
281,00:00:01.124,-0.02403763122856621
282,00:00:01.128,-0.03728953935205934
283,00:00:01.132,-0.015946591272950172
284,00:00:01.136,0.0568437692709267
285,00:00:01.14,0.053372204303741504
286,00:00:01.144,-0.052752345800399794
287,00:00:01.148,-0.031082752393558632
288,00:00:01.152,0.00756646972149611
289,00:00:01.156,0.0036854493955615843
290,00:00:01.16,0.03436135873198508
291,00:00:01.164,-0.017723185446811836
292,00:00:01.168,-0.00429296121001244
293,00:00:01.172,-0.0016454679425805694
294,00:00:01.176,0.004826106596738159
295,00:00:01.18,-0.01924550929106776
296,00:00:01.184,-0.011669204104691779
297,00:00:01.188,0.019687344407429946
298,00:00:01.192,0.044049889780581
299,00:00:01.196,0.0017083567800000293
300,00:00:01.2,-0.04615983599796889
301,00:00:01.204,-0.038840915076434626
302,00:00:01.208,0.0134458392858505
303,00:00:01.212,0.058585213497281095
304,00:00:01.216,0.019034479279071093
305,00:00:01.22,-0.03666987922042603
306,00:00:01.224,-0.020435809856280702
307,00:00:01.228,-0.0128109164070338
308,00:00:01.232,0.005107471020892239
309,00:00:01.236,0.03327490179799498
310,00:00:01.24,0.00367756560444831
311,00:00:01.244,-0.0190079752355813
312,00:00:01.248,0.0024875120143406084
313,00:00:01.252,-0.01537044323049488
314,00:00:01.256,0.017077669501304703
315,00:00:01.26,0.026224593631923178
316,00:00:01.264,-0.02122579270508139
317,00:00:01.268,-0.03072548750787972
318,00:00:01.272,0.01518359943293031
319,00:00:01.276,0.017811872414313222
320,00:00:01.28,-0.008573450963012898
321,00:00:01.284,-0.009531898365821693
322,00:00:01.288,0.0019753629958358934
323,00:00:01.292,9.366660378873001e-05
324,00:00:01.296,0.0068307298352010895
325,00:00:01.3,0.002089830115437514
326,00:00:01.304,0.014346808195114108
327,00:00:01.308,0.022568094776943295
328,00:00:01.312,-0.02097528195008636
329,00:00:01.316,-0.05282313423231245
330,00:00:01.32,0.00432015117257834
331,00:00:01.324,0.01202651113271715
332,00:00:01.328,0.011321836631395847
333,00:00:01.332,0.02590784523636102
334,00:00:01.336,-0.006684693263650839
335,00:00:01.34,-0.018846333026886004
336,00:00:01.344,0.031927326694130884
337,00:00:01.348,-0.010244469624012702
338,00:00:01.352,-0.03138049831613903
339,00:00:01.356,-0.007569722831249239
340,00:00:01.36,0.01969157718122004
341,00:00:01.364,0.006164218531921519
342,00:00:01.368,-0.008825322263874157
343,00:00:01.372,0.016034269938245457
344,00:00:01.376,0.005661843810230501
345,00:00:01.38,0.001334148138994355
346,00:00:01.384,-0.01889642165042455
347,00:00:01.388,-0.00770920258946717
348,00:00:01.392,0.004779542330652521
349,00:00:01.396,0.01317965367343277
350,00:00:01.4,-0.020637711510062207
351,00:00:01.404,-0.016126268339462548
352,00:00:01.408,0.02088753320276734
353,00:00:01.412,0.02346707321703439
354,00:00:01.416,0.01630546525120736
355,00:00:01.42,-0.007960765389725559
356,00:00:01.424,-0.02865109359845518
357,00:00:01.428,0.0009294126648455511
358,00:00:01.432,-0.009749015094712338
359,00:00:01.436,0.0046918420121073705
360,00:00:01.44,0.009232769254595041
361,00:00:01.444,-0.01200987515039742
362,00:00:01.448,0.0048646910581738
363,00:00:01.452,0.013781330315396191
364,00:00:01.456,0.000353984767571096
365,00:00:01.46,0.005640001036226781
366,00:00:01.464,0.01689190603792666
367,00:00:01.468,-0.02921864110976454
368,00:00:01.472,-0.01601972477510568
369,00:00:01.476,-0.02879942161962385
370,00:00:01.48,0.03053311409894369
371,00:00:01.484,0.0321712233126163
372,00:00:01.488,0.005845827748999
373,00:00:01.492,0.0011625229381025184
374,00:00:01.496,-0.01837072428315876
375,00:00:01.5,-0.02905504032969469
376,00:00:01.504,-0.0027078598504885996
377,00:00:01.508,0.02306042006239292
378,00:00:01.512,0.01115159294568005
379,00:00:01.516,-0.0013159981463104532
380,00:00:01.52,-0.00483455776702613
381,00:00:01.524,-0.00801779818721115
382,00:00:01.528,0.000361362588591878
383,00:00:01.532,0.0077462596818804515
384,00:00:01.536,0.007489239913411439
385,00:00:01.54,0.004488284816034142
386,00:00:01.544,-0.02349575608968734
387,00:00:01.548,-0.01834272220730785
388,00:00:01.552,0.01030241348780692
389,00:00:01.556,0.033835957758128615
390,00:00:01.56,-0.00036339351208880435
391,00:00:01.564,-0.00899517489597202
392,00:00:01.568,-0.011320420075207938
393,00:00:01.572,-0.01758872345089912
394,00:00:01.576,0.008967500703874982
395,00:00:01.58,0.032711685867980136
396,00:00:01.584,0.009157881217106482
397,00:00:01.588,-0.030080552678555302
398,00:00:01.592,-0.031236046925187007
399,00:00:01.596,0.006730847293511041
400,00:00:01.6,0.029969154857098997
401,00:00:01.604,0.0036032237112521882
402,00:00:01.608,0.00930667365901172
403,00:00:01.612,0.005929202248807991
404,00:00:01.616,-0.02895618416368956
405,00:00:01.62,-0.0156836463138461
406,00:00:01.624,-0.006518179900012879
407,00:00:01.628,0.021157789509743452
408,00:00:01.632,0.0136735811829567
409,00:00:01.636,0.012991068535484379
410,00:00:01.64,0.006385374639648907
411,00:00:01.644,-0.02161633083596826
412,00:00:01.648,-0.02484151255339386
413,00:00:01.652,-0.005711302161216738
414,00:00:01.656,0.02045098878443241
415,00:00:01.66,0.02544125868007541
416,00:00:01.664,-0.028265796718187658
417,00:00:01.668,-0.01327504450455308
418,00:00:01.672,0.029625586932525
419,00:00:01.676,0.01607689866796137
420,00:00:01.68,-0.024145449977368106
421,00:00:01.684,-0.01262571313418448
422,00:00:01.688,0.00652859150432051
423,00:00:01.692,0.0031629273435100896
424,00:00:01.696,0.00020996457897126935
425,00:00:01.7,0.02420903136953713
426,00:00:01.704,-0.01768267992883924
427,00:00:01.708,-0.025015115097630818
428,00:00:01.712,0.01269601774401963
429,00:00:01.716,0.01976718474179506
430,00:00:01.72,-0.012591383245307956
431,00:00:01.724,-0.011607125110458591
432,00:00:01.728,0.0028305685264058407
433,00:00:01.732,0.008493662287946785
434,00:00:01.736,0.021367477835155992
435,00:00:01.74,-0.0034195464540971434
436,00:00:01.744,-0.013100707234116275
437,00:00:01.748,-0.023619054583832576
438,00:00:01.752,0.009698087000288088
439,00:00:01.756,0.00582358310930429
440,00:00:01.76,0.012600075453519814
441,00:00:01.764,-0.013657334260642539
442,00:00:01.768,-0.02091756323352457
443,00:00:01.772,0.03914134204387663
444,00:00:01.776,0.02540195267647509
445,00:00:01.78,-0.015943047590553767
446,00:00:01.784,-0.0294561820337549
447,00:00:01.788,-0.032859112601727296
448,00:00:01.792,0.002260804729303349
449,00:00:01.796,0.03174748411402107
450,00:00:01.8,0.030732875806279494
451,00:00:01.804,-0.0018778161611408004
452,00:00:01.808,0.005608515697531409
453,00:00:01.812,-0.01915718754753469
454,00:00:01.816,-0.038481138166389484
455,00:00:01.82,0.002610059636936053
456,00:00:01.824,0.02935586334206163
457,00:00:01.828,0.0028293234063312394
458,00:00:01.832,-0.010025502182543278
459,00:00:01.836,-0.00727324699983001
460,00:00:01.84,0.02267231943551448
461,00:00:01.844,0.01010510977357626
462,00:00:01.848,-0.01712589571252466
463,00:00:01.852,-0.008009429089725021
464,00:00:01.856,-0.013155588414520011
465,00:00:01.86,0.0083614345639944
466,00:00:01.864,0.006208849372342279
467,00:00:01.868,0.00468567293137312
468,00:00:01.872,0.0147405182942748
469,00:00:01.876,-0.003739508101716641
470,00:00:01.88,-0.03403597511351115
471,00:00:01.884,-0.012475372830522245
472,00:00:01.888,0.040568622760474654
473,00:00:01.892,0.02596856188029053
474,00:00:01.896,-0.0081221703439951
475,00:00:01.9,-0.029004879412241315
476,00:00:01.904,-0.0232500762213022
477,00:00:01.908,0.004323882516473542
478,00:00:01.912,0.021750513464212428
479,00:00:01.916,0.02221757196821271
480,00:00:01.92,0.0056680026464164205
481,00:00:01.924,-0.03361839707940817
482,00:00:01.928,-0.010812931053806134
483,00:00:01.932,-0.014768083216040373
484,00:00:01.936,0.02073532785288987
485,00:00:01.94,0.04073085496202116
486,00:00:01.944,-0.002252478589070965
487,00:00:01.948,-0.02202282997313892
488,00:00:01.952,-0.01597542408853767
489,00:00:01.956,0.0007114573381841122
490,00:00:01.96,0.013945718994364097
491,00:00:01.964,-0.01140476122964173
492,00:00:01.968,-0.009022115380503239
493,00:00:01.972,0.01334227481856942
494,00:00:01.976,0.00412620941642672
495,00:00:01.98,0.0281397397629917
496,00:00:01.984,0.00354743702337146
497,00:00:01.988,-0.041013448033481864
498,00:00:01.992,-0.01717654685489837
499,00:00:01.996,-1.5993369743238367e-05
500,00:00:02,0.03018176741898062
501,00:00:02.004,0.0060717593878507605
502,00:00:02.008,-0.00976498087402434
503,00:00:02.012,-0.001340548798907541
504,00:00:02.016,0.01601546036545185
505,00:00:02.02,-0.0146806511329487
506,00:00:02.024,-0.01366470172069967
507,00:00:02.028,0.011755569954402747
508,00:00:02.032,0.000363588187610734
509,00:00:02.036,0.00769891892559827
510,00:00:02.04,-0.007114297273801641
511,00:00:02.044,-0.0092583475925494
512,00:00:02.048,0.00634166423697024
513,00:00:02.052,0.017234476574230974
514,00:00:02.056,-0.013820958323776762
515,00:00:02.06,-0.010280497612257028
516,00:00:02.064,0.00874347425997252
517,00:00:02.068,0.007154803415687639
518,00:00:02.072,-0.0035201015416532716
519,00:00:02.076,0.008564614108763633
520,00:00:02.08,-0.01304175634868443
521,00:00:02.084,-0.01712435251101851
522,00:00:02.088,0.008562189526855949
523,00:00:02.092,0.01491236849687994
524,00:00:02.096,0.007246831723023206
525,00:00:02.1,0.012939573818584904
526,00:00:02.104,-0.026119914371520322
527,00:00:02.108,-0.01758322713430967
528,00:00:02.112,0.004653824958950279
529,00:00:02.116,0.019776250817812972
530,00:00:02.12,0.013316773111000628
531,00:00:02.124,-0.01979513536207378
532,00:00:02.128,-0.02322884928435083
533,00:00:02.132,0.01952554658055304
534,00:00:02.136,0.02609670814126728
535,00:00:02.14,-0.00014983164146544978
536,00:00:02.144,-0.02588353864848612
537,00:00:02.148,-0.007910642307251692
538,00:00:02.152,0.003004783298820212
539,00:00:02.156,0.00879522645846009
540,00:00:02.16,0.007624909521837255
541,00:00:02.164,-0.00964203546755013
542,00:00:02.168,-0.00655027967877686
543,00:00:02.172,0.01745199481956659
544,00:00:02.176,0.014355064602568718
545,00:00:02.18,-0.014896643180691168
546,00:00:02.184,-0.0341323608299717
547,00:00:02.188,0.005893573164939883
548,00:00:02.192,0.021951028251351114
549,00:00:02.196,0.01559209311380983
550,00:00:02.2,-0.007687504403293121
551,00:00:02.204,0.0009958730079233703
552,00:00:02.208,0.0005986692849546602
553,00:00:02.212,-0.004524503368884297
554,00:00:02.216,-0.029336883686482913
555,00:00:02.22,-0.005755918682552871
556,00:00:02.224,0.028243976295925625
557,00:00:02.228,0.01703650737181308
558,00:00:02.232,0.0009196039754897397
559,00:00:02.236,-0.012864062096923581
560,00:00:02.24,-0.01220619794912638
561,00:00:02.244,-0.013213011436164379
562,00:00:02.248,0.02259332034736878
563,00:00:02.252,0.015015977201983291
564,00:00:02.256,-0.007129794918000728
565,00:00:02.26,-0.00623679021373395
566,00:00:02.264,-0.011627659667283262
567,00:00:02.268,-0.0053566985297948105
568,00:00:02.272,0.004426182829774909
569,00:00:02.276,0.0023526616860181197
570,00:00:02.28,0.012688962917309256
571,00:00:02.284,0.01960016717202965
572,00:00:02.288,0.00350604939740151
573,00:00:02.292,-0.021374762873165268
574,00:00:02.296,-0.03242472792044287
575,00:00:02.3,-0.0040550286648795
576,00:00:02.304,0.009317593183368472
577,00:00:02.308,0.01230196189135309
578,00:00:02.312,0.03404452605172989
579,00:00:02.316,0.01338788494467736
580,00:00:02.32,-0.02688044402748348
581,00:00:02.324,-0.03601949661970139
582,00:00:02.328,0.00870321039110422
583,00:00:02.332,-0.011279752943664827
584,00:00:02.336,0.029631800716742908
585,00:00:02.34,0.01206991518847644
586,00:00:02.344,-0.014913889113813649
587,00:00:02.348,-0.0073515018448233604
588,00:00:02.352,0.015875678334850814
589,00:00:02.356,-0.0004115266492590291
590,00:00:02.36,-0.004809886464499865
591,00:00:02.364,-0.02684148726984857
592,00:00:02.368,-0.0007927634287625586
593,00:00:02.372,0.04617889784276483
594,00:00:02.376,0.01963818486547098
595,00:00:02.38,-0.04191066510975363
596,00:00:02.384,-0.03596359491348271
597,00:00:02.388,0.00865608640015121
598,00:00:02.392,0.029907752410508675
599,00:00:02.396,0.00401768134906888
600,00:00:02.4,0.002018747676629566
601,00:00:02.404,0.010693549411371382
602,00:00:02.408,-0.007517527177697035
603,00:00:02.412,-0.029892035294324156
604,00:00:02.416,0.002231808321084822
605,00:00:02.42,0.006669041972600098
606,00:00:02.424,0.007909307722002271
607,00:00:02.428,0.017904020613059384
608,00:00:02.432,-0.01448410330340263
609,00:00:02.436,0.0007876795716583798
610,00:00:02.44,-0.010637087820214216
611,00:00:02.444,0.0025095706805586017
612,00:00:02.448,0.004421835610173732
613,00:00:02.452,-0.003991029690951111
614,00:00:02.456,0.0015754682826809446
615,00:00:02.46,0.007479822263121601
616,00:00:02.464,0.00041182438144460114
617,00:00:02.468,-0.0007955003529787064
618,00:00:02.472,-0.011273397598415611
619,00:00:02.476,0.00884674873668697
620,00:00:02.48,-0.001231660367920999
621,00:00:02.484,0.003603950201068096
622,00:00:02.488,-0.004776271001901479
623,00:00:02.492,-0.018550042994320348
624,00:00:02.496,0.00699359434656803
625,00:00:02.5,0.013142432551831
626,00:00:02.504,0.00638217758387323
627,00:00:02.508,0.019616006873547948
628,00:00:02.512,0.0025007136791828114
629,00:00:02.516,-0.05265233106911178
630,00:00:02.52,-0.008692069910466619
631,00:00:02.524,0.02457284857518971
632,00:00:02.528,0.012362562469206738
633,00:00:02.532,0.0009555637370794994
634,00:00:02.536,-0.0004404616774991172
635,00:00:02.54,0.0016992313321679787
636,00:00:02.544,-0.013194547267630696
637,00:00:02.548,-0.007794149540131915
638,00:00:02.552,0.009723579511046451
639,00:00:02.556,0.027876747772097622
640,00:00:02.56,-0.002531185280531671
641,00:00:02.564,-0.03959028888493772
642,00:00:02.568,-0.0060844544786959505
643,00:00:02.572,0.013286534114740789
644,00:00:02.576,0.02230907231569287
645,00:00:02.58,0.002997381554450846
646,00:00:02.584,-0.023751590168103583
647,00:00:02.588,0.0009725783020257893
648,00:00:02.592,0.009856901422608644
649,00:00:02.596,0.00357221555896104
650,00:00:02.6,0.009657857241109059
651,00:00:02.604,-0.0061969226226210586
652,00:00:02.608,-0.020681250491179512
653,00:00:02.612,-0.00518164550885554
654,00:00:02.616,0.00267388345673683
655,00:00:02.62,0.02456418517976995
656,00:00:02.624,0.023303632624447342
657,00:00:02.628,-0.030020706355571733
658,00:00:02.632,-0.01704592257738112
659,00:00:02.636,0.020843533566221595
660,00:00:02.64,-0.03757429518736897
661,00:00:02.644,-0.00642112828791142
662,00:00:02.648,0.045543311163783004
663,00:00:02.652,0.012775089708156898
664,00:00:02.656,0.01278759248089045
665,00:00:02.66,0.0017814722377806798
666,00:00:02.664,-0.04496520198881626
667,00:00:02.668,-0.018563555335276774
668,00:00:02.672,0.00506096798926596
669,00:00:02.676,0.011215575388632722
670,00:00:02.68,-0.001178452279418752
671,00:00:02.684,0.01447044685482983
672,00:00:02.688,0.006708250046358444
673,00:00:02.692,0.017903221771121032
674,00:00:02.696,-0.003644672222435469
675,00:00:02.7,-0.02879318362101906
676,00:00:02.704,-0.02668757969513531
677,00:00:02.708,0.007685383316129441
678,00:00:02.712,0.03869494004175058
679,00:00:02.716,0.012729508394841145
680,00:00:02.72,-0.014907335513271391
681,00:00:02.724,-0.003958884743042327
682,00:00:02.728,-0.03183460398577149
683,00:00:02.732,-0.006909574614837771
684,00:00:02.736,0.020510822301730534
685,00:00:02.74,0.02620130119612435
686,00:00:02.744,0.01052819238975641
687,00:00:02.748,-0.001429820200428391
688,00:00:02.752,-0.012822562828659958
689,00:00:02.756,-0.03337524086236958
690,00:00:02.76,-0.028572353534400477
691,00:00:02.764,0.022158890496939438
692,00:00:02.768,0.046603534137830215
693,00:00:02.772,0.026310343528166392
694,00:00:02.776,-0.01499087887350467
695,00:00:02.78,-0.04561868496239192
696,00:00:02.784,-0.011945801437832408
697,00:00:02.788,0.011143614938191618
698,00:00:02.792,0.015259816544130441
699,00:00:02.796,0.02400044817477465
700,00:00:02.8,-0.010166269683395516
701,00:00:02.804,-0.02134324994403868
702,00:00:02.808,-0.00822582701221107
703,00:00:02.812,0.0258755169343203
704,00:00:02.816,-0.0011778982589021412
705,00:00:02.82,-0.02255898434668784
706,00:00:02.824,0.00012252852320671016
707,00:00:02.828,0.027091963333077684
708,00:00:02.832,-0.0016663947608321996
709,00:00:02.836,-0.008728973567485797
710,00:00:02.84,-0.004008440766483531
711,00:00:02.844,-0.0011568742338567903
712,00:00:02.848,0.004629827104508881
713,00:00:02.852,-0.01320607773959632
714,00:00:02.856,0.013862955340300687
715,00:00:02.86,0.004599976266035823
716,00:00:02.864,-0.006294849328696742
717,00:00:02.868,0.0119772097095848
718,00:00:02.872,-0.0181445190683007
719,00:00:02.876,-0.014938947744667528
720,00:00:02.88,0.01509359013289209
721,00:00:02.884,0.013596890144981444
722,00:00:02.888,-0.015474244486540561
723,00:00:02.892,0.011007354594767047
724,00:00:02.896,0.018183273728936952
725,00:00:02.9,-0.007303679303731769
726,00:00:02.904,-0.029497140960302207
727,00:00:02.908,-0.01966166123747827
728,00:00:02.912,0.01839816849678757
729,00:00:02.916,0.028947714716195998
730,00:00:02.92,0.034668805543333375
731,00:00:02.924,-0.02136161574162547
732,00:00:02.928,-0.04171521216630937
733,00:00:02.932,-0.014488189481198798
734,00:00:02.936,0.0030399714596569495
735,00:00:02.94,0.019690704299136996
736,00:00:02.944,0.012286073528230222
737,00:00:02.948,0.003565985010936859
738,00:00:02.952,0.01628896122565497
739,00:00:02.956,-0.0014695825520902911
740,00:00:02.96,-0.021459833253175017
741,00:00:02.964,-0.020672874525189396
742,00:00:02.968,-0.022722843568772102
743,00:00:02.972,0.02682662941515445
744,00:00:02.976,0.044012886704877074
745,00:00:02.98,-0.01374998735263945
746,00:00:02.984,-0.022971928119659403
747,00:00:02.988,0.0050222846330143555
748,00:00:02.992,0.013209225609898559
749,00:00:02.996,0.018250430177431543
750,00:00:03,-0.04226327687501911
751,00:00:03.004,-0.023328421404585242
752,00:00:03.008,0.01353362598456444
753,00:00:03.012,0.03314067842438822
754,00:00:03.016,0.013665088685229438
755,00:00:03.02,-0.002779135189484809
756,00:00:03.024,-0.01916713640093803
757,00:00:03.028,-0.01536049111746252
758,00:00:03.032,0.0019392493413761195
759,00:00:03.036,0.02593502635136245
760,00:00:03.04,-0.01806306326761846
761,00:00:03.044,-0.01272628759033979
762,00:00:03.048,0.004403492770507004
763,00:00:03.052,0.00868343934416771
764,00:00:03.056,0.031158746569417466
765,00:00:03.06,-0.0010166179854422391
766,00:00:03.064,-0.0470284158363939
767,00:00:03.068,-0.01932947454042735
768,00:00:03.072,0.03174452204257249
769,00:00:03.076,0.03905366361141206
770,00:00:03.08,0.008447745814919503
771,00:00:03.084,-0.0355437793768942
772,00:00:03.088,-0.03915604995563622
773,00:00:03.092,0.0157851274125278
774,00:00:03.096,0.01740611251443626
775,00:00:03.1,0.003458518651314087
776,00:00:03.104,0.004987773485481701
777,00:00:03.108,0.015387728344649042
778,00:00:03.112,-0.01876783510670067
779,00:00:03.116,-0.017670462839305498
780,00:00:03.12,-0.015155939036048949
781,00:00:03.124,0.028380266536259996
782,00:00:03.128,0.016571434214711172
783,00:00:03.132,0.00120363663882022
784,00:00:03.136,-0.012157024815678609
785,00:00:03.14,-0.007511310395784709
786,00:00:03.144,0.005764139707025554
787,00:00:03.148,0.005591920518781988
788,00:00:03.152,-0.007589711924083548
789,00:00:03.156,-0.02242244035005567
790,00:00:03.16,-0.0013499377528205523
791,00:00:03.164,0.01109948568046093
792,00:00:03.168,0.02320809013326655
793,00:00:03.172,0.024841261561959947
794,00:00:03.176,-0.0141338706016541
795,00:00:03.18,-0.039324661483988194
796,00:00:03.184,-0.007003441918641332
797,00:00:03.188,0.020918186288326982
798,00:00:03.192,0.0019301564025226965
799,00:00:03.196,0.00456525024492293
800,00:00:03.2,0.00232814787887037
801,00:00:03.204,0.001343803131021561
802,00:00:03.208,0.008009900759134322
803,00:00:03.212,-0.01598377618938684
804,00:00:03.216,-0.00108157540671522
805,00:00:03.22,-0.012353649071883414
806,00:00:03.224,-0.007813299773260927
807,00:00:03.228,0.0204612179659307
808,00:00:03.232,0.015642815735191096
809,00:00:03.236,0.01270436448976394
810,00:00:03.24,-0.01896109944209457
811,00:00:03.244,-0.027783964862464837
812,00:00:03.248,-0.00165502470918
813,00:00:03.252,0.01674266159534455
814,00:00:03.256,0.020177092170342848
815,00:00:03.26,-0.0037483260966837397
816,00:00:03.264,0.001690610079094759
817,00:00:03.268,0.00526731135323644
818,00:00:03.272,-0.039429583353921716
819,00:00:03.276,0.000606301953666814
820,00:00:03.28,0.007185004687926264
821,00:00:03.284,0.00696552218869321
822,00:00:03.288,0.021231872960925168
823,00:00:03.292,0.01129490090534091
824,00:00:03.296,-0.009388384642079469
825,00:00:03.3,-0.018111126963049243
826,00:00:03.304,-0.03244761424139142
827,00:00:03.308,0.00580105255357921
828,00:00:03.312,0.03795200306922191
829,00:00:03.316,0.00876470957882702
830,00:00:03.32,-0.007845908403396542
831,00:00:03.324,0.00917172245681286
832,00:00:03.328,-0.00849327212199564
833,00:00:03.332,-0.02912834240123625
834,00:00:03.336,-0.012980508152395489
835,00:00:03.34,0.006751063556293951
836,00:00:03.344,0.018139158375561272
837,00:00:03.348,0.03293178183957937
838,00:00:03.352,-0.004626719033694826
839,00:00:03.356,-0.0049323165585519755
840,00:00:03.36,-0.013491600228007883
841,00:00:03.364,-0.003674886655062439
842,00:00:03.368,-0.0295203569112345
843,00:00:03.372,-0.007561816833913279
844,00:00:03.376,0.02947867056354879
845,00:00:03.38,0.037166754249483375
846,00:00:03.384,0.0032031505834311256
847,00:00:03.388,-0.02330038161017003
848,00:00:03.392,-0.02842892054468392
849,00:00:03.396,-0.007328319712542
850,00:00:03.4,0.01454418168577828
851,00:00:03.404,0.02203793171793218
852,00:00:03.408,0.037122491747140815
853,00:00:03.412,-0.0310823111794889
854,00:00:03.416,-0.046135839133057716
855,00:00:03.42,-0.01526487176306551
856,00:00:03.424,0.007889241504017284
857,00:00:03.428,0.05378492083400485
858,00:00:03.432,0.01919730706140402
859,00:00:03.436,-0.00173496594652535
860,00:00:03.44,-0.01239706622436642
861,00:00:03.444,-0.02879080921411519
862,00:00:03.448,-0.02549717342481018
863,00:00:03.452,-0.008673282340168951
864,00:00:03.456,0.01660251524299382
865,00:00:03.46,0.03589980397373437
866,00:00:03.464,0.033302528318017714
867,00:00:03.468,0.005850662477314503
868,00:00:03.472,-0.042130460496991824
869,00:00:03.476,-0.04668465629220011
870,00:00:03.48,-0.011613502982072529
871,00:00:03.484,0.01808021264150736
872,00:00:03.488,0.029520608484745033
873,00:00:03.492,0.0574430674314499
874,00:00:03.496,0.006319121457636361
875,00:00:03.5,-0.0534544612746686
876,00:00:03.504,-0.05101493885740637
877,00:00:03.508,-0.012818454415537419
878,00:00:03.512,0.03957477377844043
879,00:00:03.516,0.046887047588825295
880,00:00:03.52,-0.0029906274721724947
881,00:00:03.524,-0.01831345167011023
882,00:00:03.528,-0.015060479490784925
883,00:00:03.532,-0.00771024310961366
884,00:00:03.536,-0.018597058948216724
885,00:00:03.54,0.03938640002161267
886,00:00:03.544,0.029925658367574208
887,00:00:03.548,-0.020625975332222893
888,00:00:03.552,-0.02258482645265759
889,00:00:03.556,-0.01910633500665426
890,00:00:03.56,-0.007241232087835661
891,00:00:03.564,0.026159442844800693
892,00:00:03.568,0.017582056345418078
893,00:00:03.572,0.01997327338904143
894,00:00:03.576,0.0050431415438651995
895,00:00:03.58,-0.03897751658223562
896,00:00:03.584,-0.013543664332246363
897,00:00:03.588,-0.01898786192759871
898,00:00:03.592,0.0005553919472731648
899,00:00:03.596,0.0555540788918734
900,00:00:03.6,0.00629026320530102
901,00:00:03.604,-0.024225471774116117
902,00:00:03.608,-0.011586712440475811
903,00:00:03.612,0.00603563897311687
904,00:00:03.616,0.007692988961935035
905,00:00:03.62,-0.0012339537497609815
906,00:00:03.624,-0.006296630948781976
907,00:00:03.628,-0.0012492233072407544
908,00:00:03.632,-0.0053950510919094094
909,00:00:03.636,-0.0031357425032183567
910,00:00:03.64,0.0033649913966656182
911,00:00:03.644,0.014838731847703408
912,00:00:03.648,0.02868222864344714
913,00:00:03.652,-0.00912279170006513
914,00:00:03.656,-0.027133807539939804
915,00:00:03.66,-0.03282084036618471
916,00:00:03.664,-0.007412521867081481
917,00:00:03.668,0.0356148025020958
918,00:00:03.672,0.047891884110868005
919,00:00:03.676,-0.01256270147860055
920,00:00:03.68,-0.045657614246010766
921,00:00:03.684,-0.01269491831772029
922,00:00:03.688,0.01289041712880133
923,00:00:03.692,0.04270104784518477
924,00:00:03.696,-0.01907319948077203
925,00:00:03.7,-9.319419041279794e-05
926,00:00:03.704,-0.006000859662890445
927,00:00:03.708,-0.0015303273685276458
928,00:00:03.712,-0.018704684625845354
929,00:00:03.716,-0.000739269889891106
930,00:00:03.72,0.022149614611407787
931,00:00:03.724,0.011541158892214198
932,00:00:03.728,-0.0028147026241640565
933,00:00:03.732,-0.007518089842051259
934,00:00:03.736,0.01250388892367485
935,00:00:03.74,-0.02030852902680636
936,00:00:03.744,-0.01409512967802584
937,00:00:03.748,-0.01390738249756396
938,00:00:03.752,0.0256028283329215
939,00:00:03.756,0.03441651409957559
940,00:00:03.76,-0.012667083297856147
941,00:00:03.764,-0.03633432649075992
942,00:00:03.768,0.024354962166398774
943,00:00:03.772,0.0442435657605528
944,00:00:03.776,-0.04326314572244878
945,00:00:03.78,-0.04247735533863306
946,00:00:03.784,0.007475660182535659
947,00:00:03.788,0.022733752150088576
948,00:00:03.792,0.005260078469291329
949,00:00:03.796,0.02808966289740064
950,00:00:03.8,0.010683907661586996
951,00:00:03.804,-0.04325864091515542
952,00:00:03.808,-0.030956367612816425
953,00:00:03.812,0.02507448982214552
954,00:00:03.816,0.04198660014662889
955,00:00:03.82,-0.009838566882535808
956,00:00:03.824,-0.01774189400020986
957,00:00:03.828,-0.017732624430209384
958,00:00:03.832,0.005960013950243584
959,00:00:03.836,0.00529659958556295
960,00:00:03.84,0.01324336882680657
961,00:00:03.844,-0.0005385121912695482
962,00:00:03.848,-0.022135081351734656
963,00:00:03.852,0.006830714875832219
964,00:00:03.856,0.029761251993477338
965,00:00:03.86,-0.00207885447889567
966,00:00:03.864,-0.03628231864422562
967,00:00:03.868,-0.02111965678705021
968,00:00:03.872,0.03254775749519473
969,00:00:03.876,0.02971061551943424
970,00:00:03.88,-0.01498566346708685
971,00:00:03.884,-0.01357804774306715
972,00:00:03.888,0.00629336049314593
973,00:00:03.892,0.01810988620854915
974,00:00:03.896,-0.01843376737087965
975,00:00:03.9,-0.022886425023898472
976,00:00:03.904,-0.003739763284102039
977,00:00:03.908,0.011455998988822111
978,00:00:03.912,0.021101710968650902
979,00:00:03.916,0.022212705109268427
980,00:00:03.92,0.0036369720473885597
981,00:00:03.924,-0.04544393951073284
982,00:00:03.928,-0.033289744402281954
983,00:00:03.932,0.002973501686938107
984,00:00:03.936,0.0479736477136612
985,00:00:03.94,0.04366837022826074
986,00:00:03.944,-0.00880314235109836
987,00:00:03.948,-0.03640578780323276
988,00:00:03.952,-0.03673659419291657
989,00:00:03.956,-0.0021555915009230406
990,00:00:03.96,0.02761617302894589
991,00:00:03.964,-0.0007753148092888261
992,00:00:03.968,0.002594155550468711
993,00:00:03.972,0.032785229792352724
994,00:00:03.976,0.004165789752732968
995,00:00:03.98,-0.0268847411498427
996,00:00:03.984,-0.012522828925284538
997,00:00:03.988,-0.008330166805535551
998,00:00:03.992,-0.009356018417747695
999,00:00:03.996,0.014828759711235779
1000,00:00:04,0.03651075996458532
1001,00:00:04.004,-0.014792600180953758
1002,00:00:04.008,-0.02243806538172063
1003,00:00:04.012,-0.0004055218305438705
1004,00:00:04.016,-0.0007960054790601481
1005,00:00:04.02,0.029174970462918295
1006,00:00:04.024,-0.004635438905097549
1007,00:00:04.028,-0.009828403592109701
1008,00:00:04.032,-0.0011171635705977297
1009,00:00:04.036,-0.008261552546173348
1010,00:00:04.04,-0.01156618725508454
1011,00:00:04.044,0.00024710781872272925
1012,00:00:04.048,0.01964311162009837
1013,00:00:04.052,0.017289314419031136
1014,00:00:04.056,0.0051048924215137915
1015,00:00:04.06,-0.01227669860236343
1016,00:00:04.064,-0.017381073907017718
1017,00:00:04.068,-0.02788089495152231
1018,00:00:04.072,0.01651763019617647
1019,00:00:04.076,0.017156165558844843
1020,00:00:04.08,0.00802786997519433
1021,00:00:04.084,0.02219950174912812
1022,00:00:04.088,-0.01618549099657684
1023,00:00:04.092,-0.02642743429169056
1024,00:00:04.096,0.00651950389146804
1025,00:00:04.1,-0.0075295101851225
1026,00:00:04.104,-0.004461908043595029
1027,00:00:04.108,0.0008544186130166002
1028,00:00:04.112,0.0364306634292006
1029,00:00:04.116,0.006201870972290647
1030,00:00:04.12,-0.01992503763176497
1031,00:00:04.124,0.009367914870381381
1032,00:00:04.128,-0.02916476503014559
1033,00:00:04.132,-0.016597606008872393
1034,00:00:04.136,0.01721569034270938
1035,00:00:04.14,0.02725005522370338
1036,00:00:04.144,-0.00994428992271423
1037,00:00:04.148,-0.005084047559648759
1038,00:00:04.152,0.01034943433478475
1039,00:00:04.156,0.004663879459258163
1040,00:00:04.16,-0.016328024619724595
1041,00:00:04.164,-0.02288993151159957
1042,00:00:04.168,0.03321442916058004
1043,00:00:04.172,0.009622019482776523
1044,00:00:04.176,-0.02401160169392825
1045,00:00:04.18,-0.02544980286620562
1046,00:00:04.184,0.007702611095737665
1047,00:00:04.188,0.0280659417621791
1048,00:00:04.192,0.0597649775445461
1049,00:00:04.196,0.0012292746687308
1050,00:00:04.2,-0.07000437891110775
1051,00:00:04.204,-0.0839118938893081
1052,00:00:04.208,0.0186410372843966
1053,00:00:04.212,0.07967400085180999
1054,00:00:04.216,0.04337231349200009
1055,00:00:04.22,-0.009430156555026738
1056,00:00:04.224,-0.04138951306231315
1057,00:00:04.228,-0.03151435824111099
1058,00:00:04.232,0.01934473076835275
1059,00:00:04.236,0.03331282520412064
1060,00:00:04.24,-0.02396296092774722
1061,00:00:04.244,-0.016426692600361968
1062,00:00:04.248,0.01324644649866968
1063,00:00:04.252,0.01764592726249245
1064,00:00:04.256,-0.020782310166396208
1065,00:00:04.26,-0.01272405032068491
1066,00:00:04.264,0.01804792112670838
1067,00:00:04.268,0.0314408077392727
1068,00:00:04.272,-0.015496207401156401
1069,00:00:04.276,-0.01988237770274276
1070,00:00:04.28,-0.010720086982473702
1071,00:00:04.284,-0.009908014173561196
1072,00:00:04.288,0.029523740173317454
1073,00:00:04.292,0.03143942402675749
1074,00:00:04.296,-0.00669574213679883
1075,00:00:04.3,-0.04513917979784308
1076,00:00:04.304,-0.02620651200413706
1077,00:00:04.308,0.01177330687642098
1078,00:00:04.312,0.08153754658997059
1079,00:00:04.316,0.0062293279916048085
1080,00:00:04.32,-0.06455414555966857
1081,00:00:04.324,-0.03163884021341805
1082,00:00:04.328,0.0004802797921001911
1083,00:00:04.332,0.02038041548803448
1084,00:00:04.336,0.04121384955942624
1085,00:00:04.34,0.02859432576224208
1086,00:00:04.344,-0.026360760035458935
1087,00:00:04.348,-0.043885733000934145
1088,00:00:04.352,-0.007791929063387211
1089,00:00:04.356,0.0134909936459735
1090,00:00:04.36,0.025649657938629368
1091,00:00:04.364,-0.01829186198301612
1092,00:00:04.368,0.00575144635513426
1093,00:00:04.372,0.01809658319689328
1094,00:00:04.376,0.01708928891457618
1095,00:00:04.38,-0.041234288364648805
1096,00:00:04.384,-0.011202465277165181
1097,00:00:04.388,0.00793996540596709
1098,00:00:04.392,-0.005920082621742047
1099,00:00:04.396,-0.0072523009730503
1100,00:00:04.4,0.016190322814509273
1101,00:00:04.404,0.03254059399478134
1102,00:00:04.408,0.01118415407836433
1103,00:00:04.412,-0.02340029086917642
1104,00:00:04.416,-0.011990265920758171
1105,00:00:04.42,-0.012284776661544998
1106,00:00:04.424,-0.014559518080204701
1107,00:00:04.428,-0.003119115543086144
1108,00:00:04.432,0.03107513714348896
1109,00:00:04.436,0.026412141509354118
1110,00:00:04.44,-0.01403346180450171
1111,00:00:04.444,-0.002847698517143718
1112,00:00:04.448,-0.02361028129234908
1113,00:00:04.452,-0.00775792589411144
1114,00:00:04.456,0.012683107168413699
1115,00:00:04.46,0.01801824895665052
1116,00:00:04.464,-0.0018668482080102088
1117,00:00:04.468,-0.0011550966883078215
1118,00:00:04.472,-0.032166841905564014
1119,00:00:04.476,0.015434890257893095
1120,00:00:04.48,0.013399356044828802
1121,00:00:04.484,-0.0031635260675102698
1122,00:00:04.488,0.0017599735147086882
1123,00:00:04.492,0.03033805545419454
1124,00:00:04.496,-0.017989177838899154
1125,00:00:04.5,-0.04526433453429488
1126,00:00:04.504,-0.0153232729062438
1127,00:00:04.508,0.03598448168486352
1128,00:00:04.512,0.039823902770876905
1129,00:00:04.516,-0.00526018696837127
1130,00:00:04.52,-0.029039198532700608
1131,00:00:04.524,0.001535102259367739
1132,00:00:04.528,0.0036772783205379043
1133,00:00:04.532,0.001358440611511468
1134,00:00:04.536,-0.0114197875373066
1135,00:00:04.54,-0.023219087161123753
1136,00:00:04.544,0.0051863093394786085
1137,00:00:04.548,0.042198238894343404
1138,00:00:04.552,0.04361657518893482
1139,00:00:04.556,-0.03107937891036272
1140,00:00:04.56,-0.0535387368872762
1141,00:00:04.564,-0.019704706966876942
1142,00:00:04.568,0.03440998820587985
1143,00:00:04.572,0.015008521440904584
1144,00:00:04.576,0.0067427601024974086
1145,00:00:04.58,-0.005069959675893191
1146,00:00:04.584,-0.007288745604455469
1147,00:00:04.588,-0.00021719606593250968
1148,00:00:04.592,0.026806593872606824
1149,00:00:04.596,-0.00784670794382691
1150,00:00:04.6,-0.021063936874270398
1151,00:00:04.604,-0.03882885805796834
1152,00:00:04.608,0.00978654960636045
1153,00:00:04.612,0.028370210493449125
1154,00:00:04.616,0.029087371658533808
1155,00:00:04.62,0.00557051971554757
1156,00:00:04.624,-0.021252794074825908
1157,00:00:04.628,-0.011936926282942302
1158,00:00:04.632,-0.01176523650065064
1159,00:00:04.636,0.003356422297656543
1160,00:00:04.64,0.01162407640367746
1161,00:00:04.644,-0.0003837380209006332
1162,00:00:04.648,0.0006623672088608102
1163,00:00:04.652,-0.005889520049095197
1164,00:00:04.656,0.013946000486612365
1165,00:00:04.66,-0.005684215109795329
1166,00:00:04.664,-0.00673622055910528
1167,00:00:04.668,-0.01655124954413618
1168,00:00:04.672,0.013734801439568352
1169,00:00:04.676,0.033338168635964414
1170,00:00:04.68,-0.01058575231581926
1171,00:00:04.684,-0.03487117076292641
1172,00:00:04.688,0.011783086811192337
1173,00:00:04.692,0.011339751305058602
1174,00:00:04.696,0.02130286977626381
1175,00:00:04.7,-0.029862243449315515
1176,00:00:04.704,-0.02043162239715457
1177,00:00:04.708,-0.0007381078321486698
1178,00:00:04.712,0.01617548288777473
1179,00:00:04.716,0.024514756980352128
1180,00:00:04.72,0.008006600197404623
1181,00:00:04.724,-0.02222405193606393
1182,00:00:04.728,-0.0017031507741194218
1183,00:00:04.732,0.00934308115392923
1184,00:00:04.736,-0.0023954830830916797
1185,00:00:04.74,-0.01636942476034161
1186,00:00:04.744,-0.017432850319892168
1187,00:00:04.748,0.007941224946989681
1188,00:00:04.752,0.02342700678855176
1189,00:00:04.756,0.026028668973594838
1190,00:00:04.76,-0.008306570874992751
1191,00:00:04.764,-0.03106360696256166
1192,00:00:04.768,-0.004065487446496258
1193,00:00:04.772,0.00366965751163662
1194,00:00:04.776,-0.00613115075975658
1195,00:00:04.78,0.0334862358868122
1196,00:00:04.784,0.004412302514538129
1197,00:00:04.788,-0.03923480026423927
1198,00:00:04.792,0.0028626229614019706
1199,00:00:04.796,0.019046910107135794
1200,00:00:04.8,-0.005839757286594251
1201,00:00:04.804,0.010182560421526413
1202,00:00:04.808,0.00669978186488151
1203,00:00:04.812,-0.0224865665659308
1204,00:00:04.816,-0.012300669215619517
1205,00:00:04.82,0.0014381205837708244
1206,00:00:04.824,0.03203377476893361
1207,00:00:04.828,0.03347204765304927
1208,00:00:04.832,-0.05203955178149049
1209,00:00:04.836,-0.049960668664425674
1210,00:00:04.84,0.03831174504011864
1211,00:00:04.844,0.03195888362824921
1212,00:00:04.848,-0.010351093485951458
1213,00:00:04.852,8.233764674515053e-05
1214,00:00:04.856,-0.0023214508546515814
1215,00:00:04.86,-0.0006081359460949898
1216,00:00:04.864,0.006533155217766779
1217,00:00:04.868,0.00644796399865299
1218,00:00:04.872,-0.03220731887267908
1219,00:00:04.876,-4.89735975863978e-06
1220,00:00:04.88,0.0032961843535304096
1221,00:00:04.884,-0.008909561875043432
1222,00:00:04.888,0.01728012366220355
1223,00:00:04.892,0.027400596591178376
1224,00:00:04.896,0.02104727970436215
1225,00:00:04.9,-0.02587148849852382
1226,00:00:04.904,-0.0393832633271814
1227,00:00:04.908,-0.00978373980615288
1228,00:00:04.912,0.0024950209772214276
1229,00:00:04.916,0.026858774013817352
1230,00:00:04.92,0.0375740146264434
1231,00:00:04.924,-0.025307210162281928
1232,00:00:04.928,-0.015248635085299611
1233,00:00:04.932,-0.0044292964739724595
1234,00:00:04.936,0.002565742004662752
1235,00:00:04.94,0.017269475618377352
1236,00:00:04.944,-0.0019452439155429589
1237,00:00:04.948,-0.01659427327103909
1238,00:00:04.952,0.0035233674570918105
1239,00:00:04.956,0.00492333131842316
1240,00:00:04.96,-0.019511134596541538
1241,00:00:04.964,0.01195379695855079
1242,00:00:04.968,0.01814252091571689
1243,00:00:04.972,0.00961101648863404
1244,00:00:04.976,-0.014259787742048502
1245,00:00:04.98,-0.01975930458866064
1246,00:00:04.984,0.0012985391076654191
1247,00:00:04.988,0.00794729159679264
1248,00:00:04.992,0.00653216941282158
1249,00:00:04.996,0.006512764026410883
1250,00:00:05,0.0011298032477498102
1251,00:00:05.004,-0.013919426390202728
1252,00:00:05.008,-0.0180545339826494
1253,00:00:05.012,0.017741101793944843
1254,00:00:05.016,0.008734759074286561
1255,00:00:05.02,-0.004243162198690698
1256,00:00:05.024,0.0039342353120445815
1257,00:00:05.028,0.022447909497714094
1258,00:00:05.032,-0.00309809157624839
1259,00:00:05.036,-0.033674410864478
1260,00:00:05.04,-0.03377171535976232
1261,00:00:05.044,-0.0042336734477430495
1262,00:00:05.048,0.056648702826350955
1263,00:00:05.052,0.03749718959443272
1264,00:00:05.056,-0.026391228195279837
1265,00:00:05.06,-0.018042125273495892
1266,00:00:05.064,-0.012137810350395717
1267,00:00:05.068,-0.0006142712663859198
1268,00:00:05.072,7.640989497298932e-05
1269,00:00:05.076,-0.009984996293496837
1270,00:00:05.08,0.02203933818964286
1271,00:00:05.084,0.020084790885448497
1272,00:00:05.088,0.00310602271929383
1273,00:00:05.092,-0.02244912681635466
1274,00:00:05.096,-0.009831401519477392
1275,00:00:05.1,-0.005991753379930747
1276,00:00:05.104,-0.00383712374605238
1277,00:00:05.108,0.006742336205206813
1278,00:00:05.112,0.029939226340502507
1279,00:00:05.116,-0.0010468353284522902
1280,00:00:05.12,-0.018292746040970084
1281,00:00:05.124,-0.002626008645165716
1282,00:00:05.128,0.015247591538354791
1283,00:00:05.132,-0.01546953292563558
1284,00:00:05.136,-0.011673465414787643
1285,00:00:05.14,0.0023253583349287497
1286,00:00:05.144,-0.006530541344545785
1287,00:00:05.148,0.02298625162802636
1288,00:00:05.152,0.014726467779837554
1289,00:00:05.156,-0.01758609048556538
1290,00:00:05.16,0.005517771001905199
1291,00:00:05.164,0.002369398775044824
1292,00:00:05.168,-0.01062944112345576
1293,00:00:05.172,-0.004973685834556822
1294,00:00:05.176,0.004289068456273529
1295,00:00:05.18,-0.00521319475956261
1296,00:00:05.184,-0.00446390593424439
1297,00:00:05.188,0.01069596270099282
1298,00:00:05.192,0.01925997622311116
1299,00:00:05.196,-0.007963254378410054
1300,00:00:05.2,-0.024145861156284792
1301,00:00:05.204,0.0037770312046632483
1302,00:00:05.208,0.03513829910662024
1303,00:00:05.212,0.0035851756110787435
1304,00:00:05.216,-0.03670806204900151
1305,00:00:05.22,-0.02366278739646079
1306,00:00:05.224,-0.0034420008887536832
1307,00:00:05.228,0.01771615026518699
1308,00:00:05.232,0.03309969371184703
1309,00:00:05.236,0.03144311206415292
1310,00:00:05.24,-0.009224700217600915
1311,00:00:05.244,-0.04909009858965877
1312,00:00:05.248,-0.02803397085517649
1313,00:00:05.252,0.02163056784775106
1314,00:00:05.256,0.02138113416731357
1315,00:00:05.26,0.003017915179953031
1316,00:00:05.264,-0.000126750674098711
1317,00:00:05.268,-0.00023998110555112015
1318,00:00:05.272,-0.002788054000120617
1319,00:00:05.276,-0.009917177027091361
1320,00:00:05.28,-0.002895701210945857
1321,00:00:05.284,0.01225967379286892
1322,00:00:05.288,0.00021987222135066986
1323,00:00:05.292,-0.004407100575917864
1324,00:00:05.296,0.004692889640864451
1325,00:00:05.3,0.005908599792746834
1326,00:00:05.304,-0.010396295227110379
1327,00:00:05.308,-0.02792586153373127
1328,00:00:05.312,0.028223115950822834
1329,00:00:05.316,0.03390806063544011
1330,00:00:05.32,-0.0009293730836361699
1331,00:00:05.324,-0.04274647310376169
1332,00:00:05.328,-0.019443992525339123
1333,00:00:05.332,0.0004961701051797735
1334,00:00:05.336,0.01388274854980409
1335,00:00:05.34,0.013787083968054482
1336,00:00:05.344,0.030530325777363032
1337,00:00:05.348,-0.0018763206899166489
1338,00:00:05.352,-0.007522910367697477
1339,00:00:05.356,-0.008563475217670188
1340,00:00:05.36,-0.021628835005685666
1341,00:00:05.364,-0.02794412299408576
1342,00:00:05.368,-0.0023569091572426242
1343,00:00:05.372,0.034995147259905886
1344,00:00:05.376,0.02379582670982928
1345,00:00:05.38,0.021413513517472924
1346,00:00:05.384,0.0028191250748932084
1347,00:00:05.388,-0.034184261428890764
1348,00:00:05.392,-0.03460861975327128
1349,00:00:05.396,-0.0210006679408252
1350,00:00:05.4,0.01851499779149895
1351,00:00:05.404,0.05195122142322364
1352,00:00:05.408,0.021001667715609115
1353,00:00:05.412,-0.035411048680543955
1354,00:00:05.416,-0.01280812034383416
1355,00:00:05.42,-0.01369835459627212
1356,00:00:05.424,0.002421675715595486
1357,00:00:05.428,0.02067978796549144
1358,00:00:05.432,0.00603502965532243
1359,00:00:05.436,-0.00957230990752578
1360,00:00:05.44,-0.008633957535494124
1361,00:00:05.444,0.004019088111817842
1362,00:00:05.448,0.007547005370724939
1363,00:00:05.452,0.012940783053636551
1364,00:00:05.456,-0.01839877036400139
1365,00:00:05.46,-0.008403317071497461
1366,00:00:05.464,-0.0011802674271166299
1367,00:00:05.468,0.007338368566706781
1368,00:00:05.472,0.02135646995157008
1369,00:00:05.476,-0.00487440871074795
1370,00:00:05.48,-0.0392699474468827
1371,00:00:05.484,0.014857608410238757
1372,00:00:05.488,0.027634173398837458
1373,00:00:05.492,-0.009146461030468341
1374,00:00:05.496,0.00321054924279451
1375,00:00:05.5,-0.006730800989316771
1376,00:00:05.504,-0.020117029547691352
1377,00:00:05.508,0.00396646559238438
1378,00:00:05.512,4.711025394498608e-05
1379,00:00:05.516,0.02983156940899796
1380,00:00:05.52,-0.0038039023638702964
1381,00:00:05.524,-0.019629321288448402
1382,00:00:05.528,-0.001564299571327859
1383,00:00:05.532,0.019816794199869
1384,00:00:05.536,0.005782280000858006
1385,00:00:05.54,-0.02744462247937919
1386,00:00:05.544,-0.01586745074018838
1387,00:00:05.548,0.028262228006496998
1388,00:00:05.552,-0.013998175039887428
1389,00:00:05.556,0.016336616594344423
1390,00:00:05.56,0.01494768215343354
1391,00:00:05.564,-0.01206833380274472
1392,00:00:05.568,-0.010640291497111402
1393,00:00:05.572,-0.008705806452780959
1394,00:00:05.576,0.006959377671591938
1395,00:00:05.58,0.00694732129340992
1396,00:00:05.584,0.006381425249855963
1397,00:00:05.588,0.0006405457388609609
1398,00:00:05.592,-0.030831042677163994
1399,00:00:05.596,0.018623991869390018
1400,00:00:05.6,0.017790488898754203
1401,00:00:05.604,-0.009612567722797387
1402,00:00:05.608,-0.008915231766877689
1403,00:00:05.612,-0.007772077806293971
1404,00:00:05.616,-0.005212700925767377
1405,00:00:05.62,0.008305887924507267
1406,00:00:05.624,0.01547985663637522
1407,00:00:05.628,0.019583343062549868
1408,00:00:05.632,-0.01027180487290022
1409,00:00:05.636,-0.03363602329045533
1410,00:00:05.64,0.0006670339498668913
1411,00:00:05.644,0.03609463945031161
1412,00:00:05.648,-0.02283454779535533
1413,00:00:05.652,-0.014891539234668018
1414,00:00:05.656,0.025176188675686724
1415,00:00:05.66,0.010711011040257292
1416,00:00:05.664,-0.030997850932180812
1417,00:00:05.668,-0.011744726914912459
1418,00:00:05.672,0.01941704796627168
1419,00:00:05.676,0.01705864164978262
1420,00:00:05.68,0.00445196963846688
1421,00:00:05.684,0.0027433786308392917
1422,00:00:05.688,-0.0083957761526108
1423,00:00:05.692,-0.02516503934748473
1424,00:00:05.696,-0.007539287966210373
1425,00:00:05.7,-0.0030104140751064795
1426,00:00:05.704,0.02442292636260393
1427,00:00:05.708,0.023926127818413086
1428,00:00:05.712,-0.0014858848880976386
1429,00:00:05.716,-0.00892257294617593
1430,00:00:05.72,-0.02909645996987824
1431,00:00:05.724,-0.005965202697552757
1432,00:00:05.728,0.028357298579067023
1433,00:00:05.732,0.010118231410160659
1434,00:00:05.736,-0.01988322695251555
1435,00:00:05.74,-0.01563312858343129
1436,00:00:05.744,0.006704840692691529
1437,00:00:05.748,0.02771300869062543
1438,00:00:05.752,0.003667859593406351
1439,00:00:05.756,-0.005086779972771141
1440,00:00:05.76,-0.010904737981036312
1441,00:00:05.764,-0.013747841352596908
1442,00:00:05.768,-8.522556163370089e-05
1443,00:00:05.772,-0.028383630793541698
1444,00:00:05.776,0.03855993901379406
1445,00:00:05.78,0.02506564231589443
1446,00:00:05.784,-0.016962722409516587
1447,00:00:05.788,0.019421482924371913
1448,00:00:05.792,-0.01407810894306753
1449,00:00:05.796,-0.02305887546390294
1450,00:00:05.8,-0.010102357715368267
1451,00:00:05.804,0.001975840074010195
1452,00:00:05.808,0.006465305341407653
1453,00:00:05.812,0.021342586842365542
1454,00:00:05.816,-0.0026774364523589594
1455,00:00:05.82,0.007748554460704332
1456,00:00:05.824,0.005514603632036605
1457,00:00:05.828,-0.01825933111831546
1458,00:00:05.832,-0.012082776986062598
1459,00:00:05.836,-0.008583812043070791
1460,00:00:05.84,0.004188308841548861
1461,00:00:05.844,0.019414987415075198
1462,00:00:05.848,0.010324107017368071
1463,00:00:05.852,-0.008127193432301292
1464,00:00:05.856,-0.006492492742836482
1465,00:00:05.86,0.0030392141779884696
1466,00:00:05.864,-0.001989914104342511
1467,00:00:05.868,-0.013683505356311802
1468,00:00:05.872,0.012081191642209891
1469,00:00:05.876,0.004400562960654511
1470,00:00:05.88,-0.01952980505302551
1471,00:00:05.884,0.00258483202196658
1472,00:00:05.888,0.016131651966134117
1473,00:00:05.892,0.03733227821066977
1474,00:00:05.896,-0.004691677051596342
1475,00:00:05.9,-0.05570789240300653
1476,00:00:05.904,-0.032717502443119925
1477,00:00:05.908,0.02492095367051659
1478,00:00:05.912,0.06418474949896329
1479,00:00:05.916,-0.005339465686120094
1480,00:00:05.92,-0.02646483713760972
1481,00:00:05.924,-0.024422319140285243
1482,00:00:05.928,-0.011837923666462332
1483,00:00:05.932,0.025637251790612988
1484,00:00:05.936,0.0400120299309492
1485,00:00:05.94,-0.00866844190750272
1486,00:00:05.944,-0.02416437957435837
1487,00:00:05.948,-0.020132160745561088
1488,00:00:05.952,0.0015945425257087092
1489,00:00:05.956,-0.00440547126345337
1490,00:00:05.96,0.02528754295781253
1491,00:00:05.964,0.009841183316893869
1492,00:00:05.968,-0.013466353528201622
1493,00:00:05.972,0.028626621235162
1494,00:00:05.976,-0.003523300169035789
1495,00:00:05.98,-0.03440968191716816
1496,00:00:05.984,-0.02114156587049366
1497,00:00:05.988,0.0031637393985875046
1498,00:00:05.992,0.01065613981336355
1499,00:00:05.996,0.03097527800127866
1500,00:00:06,0.03247641446068879
1501,00:00:06.004,-0.030347052961587948
1502,00:00:06.008,-0.02441618358716364
1503,00:00:06.012,-0.028835276141762768
1504,00:00:06.016,0.0035492326132953106
1505,00:00:06.02,0.03696743422187865
1506,00:00:06.024,0.03323401045054197
1507,00:00:06.028,-0.0017387199914082904
1508,00:00:06.032,-0.019707837142050266
1509,00:00:06.036,-0.047168066725134794
1510,00:00:06.04,-0.005860320670763034
1511,00:00:06.044,0.026465495582670008
1512,00:00:06.048,0.02031530439853673
1513,00:00:06.052,0.011102010030299429
1514,00:00:06.056,-0.003574680071324162
1515,00:00:06.06,-0.02988983038812874
1516,00:00:06.064,0.0011878594523295804
1517,00:00:06.068,0.015860935673117596
1518,00:00:06.072,-0.00506928458344192
1519,00:00:06.076,0.01093615975696597
1520,00:00:06.08,-0.012054134567733816
1521,00:00:06.084,0.003081595525145529
1522,00:00:06.088,-0.005853504175320259
1523,00:00:06.092,0.00467483268585051
1524,00:00:06.096,0.009824806358665228
1525,00:00:06.1,-0.014228559914045058
1526,00:00:06.104,0.0049306112341583
1527,00:00:06.108,0.02054395480081442
1528,00:00:06.112,-0.03754756576381624
1529,00:00:06.116,-0.01145662087947128
1530,00:00:06.12,0.023747996427118778
1531,00:00:06.124,0.0065252566710114375
1532,00:00:06.128,0.02165381447412071
1533,00:00:06.132,0.01298762019723653
1534,00:00:06.136,-0.04036036040633916
1535,00:00:06.14,-0.028237418271601207
1536,00:00:06.144,0.0009708152501843878
1537,00:00:06.148,0.026933447457849924
1538,00:00:06.152,0.032451341183332254
1539,00:00:06.156,0.0005876533687114785
1540,00:00:06.16,-0.018936679814942178
1541,00:00:06.164,-0.03463376220315697
1542,00:00:06.168,-0.008743030484765761
1543,00:00:06.172,0.01645412982907149
1544,00:00:06.176,0.03142944118008014
1545,00:00:06.18,0.02141573117114606
1546,00:00:06.184,-0.008295880688820038
1547,00:00:06.188,-0.027784128673374653
1548,00:00:06.192,-0.0207126422319561
1549,00:00:06.196,0.001509450841695112
1550,00:00:06.2,-0.006391946997609932
1551,00:00:06.204,0.011018735356628902
1552,00:00:06.208,0.04032760998234158
1553,00:00:06.212,0.030127510428428678
1554,00:00:06.216,-0.04253840399906041
1555,00:00:06.22,-0.054399050772190094
1556,00:00:06.224,-0.00029106112197041295
1557,00:00:06.228,0.03120753029361368
1558,00:00:06.232,0.033726252848282484
1559,00:00:06.236,0.010239553404971981
1560,00:00:06.24,-0.02083709416911006
1561,00:00:06.244,-0.020580303389578985
1562,00:00:06.248,-0.016814627801068148
1563,00:00:06.252,0.006567179691046481
1564,00:00:06.256,0.00822853017598392
1565,00:00:06.26,0.02545023337006569
1566,00:00:06.264,0.019420171156525612
1567,00:00:06.268,-0.022277936222963
1568,00:00:06.272,-0.016904905322007852
1569,00:00:06.276,-0.029495865572243908
1570,00:00:06.28,-0.0015294421464204806
1571,00:00:06.284,0.04089866438880566
1572,00:00:06.288,0.030452569248154773
1573,00:00:06.292,0.0001185564324260131
1574,00:00:06.296,-0.04647569009102876
1575,00:00:06.3,-0.031310024904087144
1576,00:00:06.304,0.01962149329483507
1577,00:00:06.308,0.022039054310880615
1578,00:00:06.312,0.030067658517509692
1579,00:00:06.316,-0.01141970651224256
1580,00:00:06.32,-0.012215287541039321
1581,00:00:06.324,-0.010350200274842767
1582,00:00:06.328,-0.017825263552367708
1583,00:00:06.332,0.01185973430983722
1584,00:00:06.336,0.017421366006601643
1585,00:00:06.34,0.0012584705837071
1586,00:00:06.344,-0.009578684344887761
1587,00:00:06.348,-0.00986928679049015
1588,00:00:06.352,0.00649520661681891
1589,00:00:06.356,0.01551827881485223
1590,00:00:06.36,-0.01777271123137321
1591,00:00:06.364,-0.0025591151788831095
1592,00:00:06.368,0.01386891782749445
1593,00:00:06.372,0.021324387518689036
1594,00:00:06.376,-0.0251162187196314
1595,00:00:06.38,-0.013109349063597632
1596,00:00:06.384,0.01350655569694937
1597,00:00:06.388,-0.010088392678881097
1598,00:00:06.392,-0.015127114485949228
1599,00:00:06.396,0.00819178973324597
1600,00:00:06.4,0.020438352599739997
1601,00:00:06.404,0.01834646426141264
1602,00:00:06.408,-0.0020396261243150107
1603,00:00:06.412,-0.004373111529275772
1604,00:00:06.416,-0.014295434695668501
1605,00:00:06.42,-0.03146746466518375
1606,00:00:06.424,-0.0122208695393056
1607,00:00:06.428,0.03061681473627687
1608,00:00:06.432,0.03965100366622215
1609,00:00:06.436,0.01733708800747992
1610,00:00:06.44,-0.02648083446547393
1611,00:00:06.444,-0.044651065487414585
1612,00:00:06.448,-0.005286115338094539
1613,00:00:06.452,0.008967196859885014
1614,00:00:06.456,0.011184946750290671
1615,00:00:06.46,0.022669610865705198
1616,00:00:06.464,0.0044874964223708975
1617,00:00:06.468,-0.01668653788510709
1618,00:00:06.472,-0.0033472789946245095
1619,00:00:06.476,0.0015689454739913446
1620,00:00:06.48,0.00818633823655546
1621,00:00:06.484,0.0010027638636529402
1622,00:00:06.488,-0.0009761480614542198
1623,00:00:06.492,-0.00802659289911393
1624,00:00:06.496,-0.02739183977246286
1625,00:00:06.5,0.01174841448664662
1626,00:00:06.504,0.0289236875250936
1627,00:00:06.508,0.015157770831137899
1628,00:00:06.512,-0.013574285898357661
1629,00:00:06.516,-0.02010839595459401
1630,00:00:06.52,-0.028895456809550538
1631,00:00:06.524,0.004668815061450001
1632,00:00:06.528,0.03638199716806418
1633,00:00:06.532,0.02105531189590689
1634,00:00:06.536,-0.0018897464033216203
1635,00:00:06.54,-0.02102572121657434
1636,00:00:06.544,-0.02167742513120178
1637,00:00:06.548,0.0046002137241885
1638,00:00:06.552,0.018615243723616053
1639,00:00:06.556,-0.003215857781469829
1640,00:00:06.56,-0.013660949189215937
1641,00:00:06.564,0.00435413315426559
1642,00:00:06.568,0.00627846363931894
1643,00:00:06.572,0.017409565865818873
1644,00:00:06.576,0.01892491581384089
1645,00:00:06.58,-0.053309001959860394
1646,00:00:06.584,-0.004635768011212349
1647,00:00:06.588,0.00779288620105944
1648,00:00:06.592,0.01558611588552594
1649,00:00:06.596,0.008511573076248141
1650,00:00:06.6,-0.006639095954596989
1651,00:00:06.604,0.02756020636297761
1652,00:00:06.608,-0.03257539565674962
1653,00:00:06.612,-0.03039267892017955
1654,00:00:06.616,0.011876016837049957
1655,00:00:06.62,0.01174631575122477
1656,00:00:06.624,0.022136938758194405
1657,00:00:06.628,-0.006585980358067904
1658,00:00:06.632,-0.01549854315817353
1659,00:00:06.636,0.02106625074520707
1660,00:00:06.64,0.011734358980902495
1661,00:00:06.644,-0.0031887739896774305
1662,00:00:06.648,-0.02415056666359304
1663,00:00:06.652,-0.022658988862531274
1664,00:00:06.656,0.004404294071719048
1665,00:00:06.66,-0.00508577236905694
1666,00:00:06.664,0.02089170669205488
1667,00:00:06.668,0.02537873887922617
1668,00:00:06.672,0.00894836557563394
1669,00:00:06.676,-0.009320428202045148
1670,00:00:06.68,-0.010163463186472653
1671,00:00:06.684,-0.006220227107405671
1672,00:00:06.688,-0.029478704556822805
1673,00:00:06.692,-0.009985528449760745
1674,00:00:06.696,0.02823475049808619
1675,00:00:06.7,0.024919971823692273
1676,00:00:06.704,-0.01526661496609451
1677,00:00:06.708,0.00020787282846866997
1678,00:00:06.712,0.011111573316156864
1679,00:00:06.716,-0.015682235825806898
1680,00:00:06.72,-0.010975767814670677
1681,00:00:06.724,0.023370500188320834
1682,00:00:06.728,0.02321674177073875
1683,00:00:06.732,-0.031070150900632157
1684,00:00:06.736,-0.036854176316410255
1685,00:00:06.74,-0.0011033049086108747
1686,00:00:06.744,0.04240132612176236
1687,00:00:06.748,0.03923251479864119
1688,00:00:06.752,-0.01657433621585369
1689,00:00:06.756,-0.03344707691576335
1690,00:00:06.76,-0.029479035118129084
1691,00:00:06.764,0.0038408480904763183
1692,00:00:06.768,0.02571915183216332
1693,00:00:06.772,0.02694772090762856
1694,00:00:06.776,-0.014343457296490718
1695,00:00:06.78,-0.01787946536205709
1696,00:00:06.784,0.013718966394662909
1697,00:00:06.788,0.015123918536119177
1698,00:00:06.792,-0.008464270969852798
1699,00:00:06.796,-0.021725640166550892
1700,00:00:06.8,-0.01888628397136929
1701,00:00:06.804,0.01762245199643076
1702,00:00:06.808,0.0383915640413761
1703,00:00:06.812,-0.0010204897262155802
1704,00:00:06.816,-0.0233114513102919
1705,00:00:06.82,-0.02438031742349269
1706,00:00:06.824,-0.00040504336357113577
1707,00:00:06.828,0.0072861787630245116
1708,00:00:06.832,0.034952768124639974
1709,00:00:06.836,0.00502493185922502
1710,00:00:06.84,-0.00266096997074783
1711,00:00:06.844,-0.004922808962874102
1712,00:00:06.848,-0.04944520071148879
1713,00:00:06.852,0.0026013797614723388
1714,00:00:06.856,0.028545535169541805
1715,00:00:06.86,0.005262784194201229
1716,00:00:06.864,-0.0062629592139273865
1717,00:00:06.868,0.02022848557680847
1718,00:00:06.872,-0.00479196454398334
1719,00:00:06.876,-0.00907439133152366
1720,00:00:06.88,-0.01594345783814791
1721,00:00:06.884,0.00047503737732768926
1722,00:00:06.888,0.017641001526499167
1723,00:00:06.892,-0.00715575565118343
1724,00:00:06.896,-0.001086245756596328
1725,00:00:06.9,0.00393698154948652
1726,00:00:06.904,0.00837053661234677
1727,00:00:06.908,-0.008694578660652052
1728,00:00:06.912,0.003209303133189641
1729,00:00:06.916,-0.014972890407079829
1730,00:00:06.92,-0.007122428389266135
1731,00:00:06.924,0.018719085492193706
1732,00:00:06.928,0.006111596903792812
1733,00:00:06.932,-0.006876792758703228
1734,00:00:06.936,0.027605849318206258
1735,00:00:06.94,-0.01150092063471674
1736,00:00:06.944,-0.057754367589950596
1737,00:00:06.948,0.02294559311121703
1738,00:00:06.952,0.02449519513174895
1739,00:00:06.956,0.007831467315554648
1740,00:00:06.96,-0.00974161457270385
1741,00:00:06.964,-0.012006691860733549
1742,00:00:06.968,0.006628529226873074
1743,00:00:06.972,0.006280318135395644
1744,00:00:06.976,0.0029234070098027604
1745,00:00:06.98,-0.002962790866149593
1746,00:00:06.984,-0.01363947335630655
1747,00:00:06.988,0.01634223107248544
1748,00:00:06.992,-0.00015288917347788507
1749,00:00:06.996,-0.02408775617368516
1750,00:00:07,-0.011643199017271361
1751,00:00:07.004,0.02862193295732137
1752,00:00:07.008,0.009351711487397541
1753,00:00:07.012,-0.010436763142934069
1754,00:00:07.016,0.020613930188119432
1755,00:00:07.02,0.02348035410977898
1756,00:00:07.024,-0.0656919488683343
1757,00:00:07.028,-0.015000757528468984
1758,00:00:07.032,0.03741979016922409
1759,00:00:07.036,0.018650075420737253
1760,00:00:07.04,-0.0275760090444237
1761,00:00:07.044,-0.013914788607507899
1762,00:00:07.048,0.011193416605237882
1763,00:00:07.052,0.02867573196999735
1764,00:00:07.056,0.026715532410889888
1765,00:00:07.06,-0.0352430436760187
1766,00:00:07.064,-0.0257048020139337
1767,00:00:07.068,-0.010056009050458678
1768,00:00:07.072,0.014332588296383661
1769,00:00:07.076,0.007498820777982468
1770,00:00:07.08,0.025995192583650316
1771,00:00:07.084,-0.006146063096821319
1772,00:00:07.088,-0.00666836835443973
1773,00:00:07.092,-0.01827575312927363
1774,00:00:07.096,-0.01678000693209468
1775,00:00:07.1,0.023940577637404217
1776,00:00:07.104,0.03538665594533081
1777,00:00:07.108,-0.01761861192062497
1778,00:00:07.112,-0.02635256666690111
1779,00:00:07.116,-0.009450014167669
1780,00:00:07.12,0.006581612804438908
1781,00:00:07.124,0.02504205284640196
1782,00:00:07.128,0.012416571611538519
1783,00:00:07.132,-0.0018392698839307196
1784,00:00:07.136,-0.03281834488734601
1785,00:00:07.14,-0.026283024810254553
1786,00:00:07.144,0.022214220196474323
1787,00:00:07.148,0.03111096983775497
1788,00:00:07.152,0.01072193263098602
1789,00:00:07.156,-0.018646283031557707
1790,00:00:07.16,-0.02614627406001095
1791,00:00:07.164,-0.008695544674992551
1792,00:00:07.168,0.049630714958766434
1793,00:00:07.172,0.02079646755009886
1794,00:00:07.176,-0.0376400887034833
1795,00:00:07.18,-0.03183493437245488
1796,00:00:07.184,-0.011058322270400892
1797,00:00:07.188,0.0183221697807312
1798,00:00:07.192,0.05662767263129358
1799,00:00:07.196,-0.003165518282912669
1800,00:00:07.2,-0.04932094665127804
1801,00:00:07.204,-0.013863671803846948
1802,00:00:07.208,0.02967315865680572
1803,00:00:07.212,0.02530884055886416
1804,00:00:07.216,-0.013389313593506811
1805,00:00:07.22,-0.034466560464352355
1806,00:00:07.224,0.0031668623632867855
1807,00:00:07.228,0.00218770618084823
1808,00:00:07.232,0.027413980104029192
1809,00:00:07.236,0.032156699337065206
1810,00:00:07.24,-0.02276614226866509
1811,00:00:07.244,-0.03280358714982862
1812,00:00:07.248,-0.02239557262510056
1813,00:00:07.252,-0.0033537982963024997
1814,00:00:07.256,0.03246676363050937
1815,00:00:07.26,0.040796124376356595
1816,00:00:07.264,-0.0008146842301357498
1817,00:00:07.268,-0.01359755056910214
1818,00:00:07.272,-0.02154098590835929
1819,00:00:07.276,-0.01471127895638347
1820,00:00:07.28,-0.017598859965801232
1821,00:00:07.284,0.0071183098480105305
1822,00:00:07.288,0.021714040543884032
1823,00:00:07.292,0.03614191059023141
1824,00:00:07.296,0.0045633427798748485
1825,00:00:07.3,-0.03286241879686716
1826,00:00:07.304,-0.0357698984444141
1827,00:00:07.308,0.015126923099160161
1828,00:00:07.312,0.03111280780285597
1829,00:00:07.316,-0.00232014572247867
1830,00:00:07.32,-0.0247517856769264
1831,00:00:07.324,0.01328779943287373
1832,00:00:07.328,-0.003682701848447319
1833,00:00:07.332,0.004967880726326256
1834,00:00:07.336,0.011933150788536295
1835,00:00:07.34,-0.014246566279325633
1836,00:00:07.344,-0.0052732934709638305
1837,00:00:07.348,-0.00286500423680991
1838,00:00:07.352,0.005655626562656833
1839,00:00:07.356,0.029142103623598842
1840,00:00:07.36,-0.0062394932610914024
1841,00:00:07.364,-0.022212185780517788
1842,00:00:07.368,-0.02232921007089319
1843,00:00:07.372,-0.0031695386860519704
1844,00:00:07.376,0.01392351230606437
1845,00:00:07.38,0.013584771979367364
1846,00:00:07.384,0.04000724852085118
1847,00:00:07.388,-0.0002586509799584807
1848,00:00:07.392,-0.0384336481802166
1849,00:00:07.396,-0.03420603535596453
1850,00:00:07.4,0.0035516312345861894
1851,00:00:07.404,0.029858467227313654
1852,00:00:07.408,0.01838693092577157
1853,00:00:07.412,-0.00797020969912408
1854,00:00:07.416,-0.010689904163882605
1855,00:00:07.42,-0.005065962672233565
1856,00:00:07.424,0.006881346344016459
1857,00:00:07.428,0.0078083272092044406
1858,00:00:07.432,-0.0075387056567706185
1859,00:00:07.436,-0.0009386020828969803
1860,00:00:07.44,-0.02019858057610687
1861,00:00:07.444,-0.00920872017741204
1862,00:00:07.448,0.03105134423822161
1863,00:00:07.452,0.021293948608217723
1864,00:00:07.456,-0.003586554434150449
1865,00:00:07.46,0.0059279960114508885
1866,00:00:07.464,-0.02057358250021933
1867,00:00:07.468,-0.02961027109995481
1868,00:00:07.472,-0.001044580014422541
1869,00:00:07.476,-0.003921954194083801
1870,00:00:07.48,0.01702244253829122
1871,00:00:07.484,0.03894652891904117
1872,00:00:07.488,0.01228256104514007
1873,00:00:07.492,-0.020281457807868712
1874,00:00:07.496,-0.01725246792193498
1875,00:00:07.5,-0.022564828512258796
1876,00:00:07.504,-0.002871816366678102
1877,00:00:07.508,0.008242382260505112
1878,00:00:07.512,0.01716801497968845
1879,00:00:07.516,0.01240738667547705
1880,00:00:07.52,-0.0035288056824356595
1881,00:00:07.524,-0.005277875810861593
1882,00:00:07.528,-0.015546549577265981
1883,00:00:07.532,0.00461704609915613
1884,00:00:07.536,0.011592425173148511
1885,00:00:07.54,-0.0003785535227507292
1886,00:00:07.544,-0.010239108349196611
1887,00:00:07.548,0.00686789816245437
1888,00:00:07.552,0.018649038131115944
1889,00:00:07.556,-0.03015318093821407
1890,00:00:07.56,-0.012587287405040115
1891,00:00:07.564,0.012302646180614833
1892,00:00:07.568,0.011956092435866561
1893,00:00:07.572,0.00840843573678285
1894,00:00:07.576,0.00441104429773986
1895,00:00:07.58,0.003359708294738091
1896,00:00:07.584,-0.03360152000095695
1897,00:00:07.588,-0.01662684138864279
1898,00:00:07.592,0.04233106411993502
1899,00:00:07.596,0.024175278376787922
1900,00:00:07.6,-0.037029067054390935
1901,00:00:07.604,-0.03109460673294963
1902,00:00:07.608,0.007468190742656594
1903,00:00:07.612,0.04663830902427442
1904,00:00:07.616,0.016658061183989097
1905,00:00:07.62,-0.02938283327966925
1906,00:00:07.624,-0.0346021659206599
1907,00:00:07.628,0.0046610074932687
1908,00:00:07.632,0.02525993064045903
1909,00:00:07.636,-0.0028808086644858083
1910,00:00:07.64,0.01805238204542547
1911,00:00:07.644,-0.00499009992927308
1912,00:00:07.648,-0.007535022101364999
1913,00:00:07.652,-0.018724895373452413
1914,00:00:07.656,0.00037701090332120906
1915,00:00:07.66,0.005111548583954599
1916,00:00:07.664,0.00026876700576394883
1917,00:00:07.668,0.004275758721632884
1918,00:00:07.672,0.026743727736175033
1919,00:00:07.676,-0.01167794782668352
1920,00:00:07.68,-0.02004841773305084
1921,00:00:07.684,-0.0012722522951662714
1922,00:00:07.688,0.00920521048828959
1923,00:00:07.692,0.0070501964073628395
1924,00:00:07.696,-0.0008679080056026608
1925,00:00:07.7,-0.01777161413338036
1926,00:00:07.704,-0.018045899341814248
1927,00:00:07.708,0.0335987349972128
1928,00:00:07.712,0.03637473052367565
1929,00:00:07.716,-0.026136654429137672
1930,00:00:07.72,-0.04412441886961457
1931,00:00:07.724,0.015003095031715923
1932,00:00:07.728,0.014107479248195852
1933,00:00:07.732,0.00962200295180082
1934,00:00:07.736,0.0050487269181758105
1935,00:00:07.74,-0.023226603399962208
1936,00:00:07.744,0.002765305514913047
1937,00:00:07.748,0.01998946000821894
1938,00:00:07.752,0.004560286150081087
1939,00:00:07.756,-0.02225285489112141
1940,00:00:07.76,-0.022099051508121158
1941,00:00:07.764,0.0008048873860389098
1942,00:00:07.768,0.028489980148151503
1943,00:00:07.772,0.013454473810270443
1944,00:00:07.776,0.003536791540682281
1945,00:00:07.78,0.002574423560872669
1946,00:00:07.784,-0.03182888031005861
1947,00:00:07.788,-0.01497374475002287
1948,00:00:07.792,-0.00371404038742185
1949,00:00:07.796,0.01756099425256253
1950,00:00:07.8,0.04151485417969521
1951,00:00:07.804,0.010245374403893972
1952,00:00:07.808,-0.026714945212006548
1953,00:00:07.812,-0.0330432038754225
1954,00:00:07.816,-0.02838732441887255
1955,00:00:07.82,0.019897905178368057
1956,00:00:07.824,0.04372051963582635
1957,00:00:07.828,0.01844275009352711
1958,00:00:07.832,-0.03796927211806175
1959,00:00:07.836,-0.00750284898094833
1960,00:00:07.84,0.0154927261173726
1961,00:00:07.844,0.0009619481861591131
1962,00:00:07.848,-0.00044940100633539227
1963,00:00:07.852,3.895722329611863e-05
1964,00:00:07.856,-0.008683046791702488
1965,00:00:07.86,-0.026639482006430633
1966,00:00:07.864,0.0154840694740415
1967,00:00:07.868,0.034542796667665215
1968,00:00:07.872,-0.01482549228239805
1969,00:00:07.876,-0.0057133358204737306
1970,00:00:07.88,0.013605787942651689
1971,00:00:07.884,-0.01304416998755187
1972,00:00:07.888,-0.00447795225773007
1973,00:00:07.892,0.001340641756542029
1974,00:00:07.896,-0.00930742919445038
1975,00:00:07.9,-0.0025627303402870863
1976,00:00:07.904,0.003152538207359616
1977,00:00:07.908,0.02655218262225389
1978,00:00:07.912,0.02289412682875986
1979,00:00:07.916,-0.02826400345657022
1980,00:00:07.92,-0.0257312782341614
1981,00:00:07.924,-0.011144072748720672
1982,00:00:07.928,0.03472269419580705
1983,00:00:07.932,0.008814473461825375
1984,00:00:07.936,-0.03877281956374646
1985,00:00:07.94,-0.008898695698007912
1986,00:00:07.944,0.03890143008902677
1987,00:00:07.948,0.02513706870377056
1988,00:00:07.952,-0.00955983996391295
1989,00:00:07.956,-0.019739139359444338
1990,00:00:07.96,-0.04772051796317091
1991,00:00:07.964,0.02745216479524966
1992,00:00:07.968,0.05313414474949243
1993,00:00:07.972,-0.00552138965576887
1994,00:00:07.976,-0.0398925533518196
1995,00:00:07.98,-0.029435570817440804
1996,00:00:07.984,0.01016408088617027
1997,00:00:07.988,0.0362444794736803
1998,00:00:07.992,0.01491088175680489
1999,00:00:07.996,-0.01400340860709548
2000,00:00:08,-0.00629286328330635
2001,00:00:08.004,-0.0009626195533201107
2002,00:00:08.008,0.00500109861604869
2003,00:00:08.012,-0.007668885635212071
2004,00:00:08.016,-0.002010823227465139
2005,00:00:08.02,0.009893742855638288
2006,00:00:08.024,-0.01175011217128483
2007,00:00:08.028,-0.02002095209900289
2008,00:00:08.032,0.015621558646671432
2009,00:00:08.036,0.00855813431553543
2010,00:00:08.04,-0.0066770364064723305
2011,00:00:08.044,0.039390129968524035
2012,00:00:08.048,0.0104406273458153
2013,00:00:08.052,-0.047134076245129004
2014,00:00:08.056,-0.028032893780618837
2015,00:00:08.06,0.0012339737149886826
2016,00:00:08.064,0.015903830993920582
2017,00:00:08.068,0.029107665643095998
2018,00:00:08.072,0.014231649925932269
2019,00:00:08.076,-0.010100958868861198
2020,00:00:08.08,-0.022070069564506377
2021,00:00:08.084,-0.03175660409033303
2022,00:00:08.088,0.030170020501827856
2023,00:00:08.092,0.04415295994840556
2024,00:00:08.096,-0.00574746844358739
2025,00:00:08.1,-0.0445476155728102
2026,00:00:08.104,-0.018954573664814182
2027,00:00:08.108,0.00800020497990772
2028,00:00:08.112,0.015123057179152969
2029,00:00:08.116,0.00935435551218689
2030,00:00:08.12,0.020821416750550218
2031,00:00:08.124,-0.0073901962023228615
2032,00:00:08.128,-0.0066432254388928795
2033,00:00:08.132,-0.022301108925603302
2034,00:00:08.136,-0.00460620864760131
2035,00:00:08.14,0.025337972445413512
2036,00:00:08.144,0.02305353013798599
2037,00:00:08.148,-0.033324315212667016
2038,00:00:08.152,-0.009333615656942181
2039,00:00:08.156,0.015443203039467342
2040,00:00:08.16,0.0010322965681552896
2041,00:00:08.164,-0.03131912741810086
2042,00:00:08.168,0.0033032832143362616
2043,00:00:08.172,0.04246589168906208
2044,00:00:08.176,0.014746110420674086
2045,00:00:08.18,-0.02261645137332376
2046,00:00:08.184,-0.02201254712417725
2047,00:00:08.188,0.0045860551763325895
2048,00:00:08.192,0.0136924125254154
2049,00:00:08.196,-0.009174869861453772
2050,00:00:08.2,-0.012615947751328349
2051,00:00:08.204,0.0032410765998065307
2052,00:00:08.208,0.04165086802095176
2053,00:00:08.212,-0.02895244699902837
2054,00:00:08.216,-0.01350134192034602
2055,00:00:08.22,0.02461816533468664
2056,00:00:08.224,-0.025496162939816668
2057,00:00:08.228,0.01815190585330128
2058,00:00:08.232,0.01592231169342999
2059,00:00:08.236,-0.02400769572705031
2060,00:00:08.24,-0.00904810125939548
2061,00:00:08.244,0.012917365791508928
2062,00:00:08.248,-0.006817632354795931
2063,00:00:08.252,-0.00015887129120528004
2064,00:00:08.256,0.0006961319595575281
2065,00:00:08.26,0.011289443413261357
2066,00:00:08.264,0.010161879064980912
2067,00:00:08.268,0.006815748056396851
2068,00:00:08.272,-0.01469503471162174
2069,00:00:08.276,-0.01128056459128859
2070,00:00:08.28,-0.023183856508694627
2071,00:00:08.284,-0.0017447615100536478
2072,00:00:08.288,0.01147662382572889
2073,00:00:08.292,0.03705273335799572
2074,00:00:08.296,0.008705907501280303
2075,00:00:08.3,-0.01213961676694455
2076,00:00:08.304,-0.00926929467823357
2077,00:00:08.308,-0.019605244044214546
2078,00:00:08.312,-0.004671232309192499
2079,00:00:08.316,0.00427977455547079
2080,00:00:08.32,0.01778120035305617
2081,00:00:08.324,0.0046335859224199485
2082,00:00:08.328,-0.004763507982715971
2083,00:00:08.332,0.00751222181133919
2084,00:00:08.336,-0.00776706030592322
2085,00:00:08.34,-0.015401203563669658
2086,00:00:08.344,-0.0003584637306630618
2087,00:00:08.348,-0.00849595200270413
2088,00:00:08.352,0.01582078170031309
2089,00:00:08.356,0.039423600304871756
2090,00:00:08.36,-0.01310559234116227
2091,00:00:08.364,-0.01538117235759273
2092,00:00:08.368,-0.03050021117087456
2093,00:00:08.372,-0.008077726466581248
2094,00:00:08.376,0.01271314872428779
2095,00:00:08.38,0.0211555890273303
2096,00:00:08.384,0.013464502175338518
2097,00:00:08.388,0.012082193648893732
2098,00:00:08.392,-0.0038527385331690294
2099,00:00:08.396,-0.03069847915321588
2100,00:00:08.4,-0.01489364053122699
2101,00:00:08.404,-0.005558703909628093
2102,00:00:08.408,0.011214103782549504
2103,00:00:08.412,0.03182521462440495
2104,00:00:08.416,0.02554224873892963
2105,00:00:08.42,-0.025849193567410132
2106,00:00:08.424,-0.02674935013055799
2107,00:00:08.428,-0.00384472752921283
2108,00:00:08.432,-0.0008798346389085111
2109,00:00:08.436,0.014738132478669288
2110,00:00:08.44,0.005338949616998439
2111,00:00:08.444,-0.0018598861061036595
2112,00:00:08.448,0.002156139642465858
2113,00:00:08.452,-0.0003000818833243132
2114,00:00:08.456,-0.01297146000433709
2115,00:00:08.46,-0.0012524474877864192
2116,00:00:08.464,0.020806426415219948
2117,00:00:08.468,-0.010850514547200877
2118,00:00:08.472,0.01075752568431201
2119,00:00:08.476,0.00864597107283773
2120,00:00:08.48,-0.04031751770526176
2121,00:00:08.484,-0.001481547020375739
2122,00:00:08.488,0.022599552758038068
2123,00:00:08.492,0.0059580554370768386
2124,00:00:08.496,-0.0024356853682547626
2125,00:00:08.5,-0.008463721664156765
2126,00:00:08.504,0.01166844228282571
2127,00:00:08.508,0.0035871225409209694
2128,00:00:08.512,0.01276793226134029
2129,00:00:08.516,-0.020027298014611
2130,00:00:08.52,-0.01967803528532385
2131,00:00:08.524,-0.006359289865940811
2132,00:00:08.528,0.02454695664346214
2133,00:00:08.532,-0.006811420433223249
2134,00:00:08.536,-0.003425421251449722
2135,00:00:08.54,0.017269361298531277
2136,00:00:08.544,-0.00839412445202471
2137,00:00:08.548,-0.005117040127515772
2138,00:00:08.552,0.012714421842247272
2139,00:00:08.556,0.04115717019885784
2140,00:00:08.56,-0.02711651008576157
2141,00:00:08.564,-0.0605283100157976
2142,00:00:08.568,-0.00822605472058055
2143,00:00:08.572,0.016098823631182282
2144,00:00:08.576,0.039626586483791505
2145,00:00:08.58,0.02606919687241317
2146,00:00:08.584,-0.007979870773851901
2147,00:00:08.588,-0.02509538084268573
2148,00:00:08.592,0.00753240589983762
2149,00:00:08.596,-0.014451883500441938
2150,00:00:08.6,-0.010166580788791218
2151,00:00:08.604,0.00045987218618388954
2152,00:00:08.608,0.005291279638186089
2153,00:00:08.612,0.008091498282738032
2154,00:00:08.616,0.0085277478210628
2155,00:00:08.62,-0.007885517668910349
2156,00:00:08.624,0.0007605530554428671
2157,00:00:08.628,-0.0011452750768512505
2158,00:00:08.632,0.009718163288198418
2159,00:00:08.636,0.0008158683776855104
2160,00:00:08.64,-0.0026933560147880883
2161,00:00:08.644,0.0318716820329427
2162,00:00:08.648,-0.04041128739481794
2163,00:00:08.652,-0.0461322581395507
2164,00:00:08.656,0.009375749621540305
2165,00:00:08.66,0.035142199601978
2166,00:00:08.664,0.00110906735062599
2167,00:00:08.668,0.02568617602810267
2168,00:00:08.672,0.00418253033421934
2169,00:00:08.676,-0.003060909511987099
2170,00:00:08.68,-0.018930786172859385
2171,00:00:08.684,-0.0145679647102952
2172,00:00:08.688,-0.006223352320375849
2173,00:00:08.692,-0.004477515816688531
2174,00:00:08.696,-0.0003880404401570797
2175,00:00:08.7,0.008652245625853542
2176,00:00:08.704,0.0116024515591562
2177,00:00:08.708,0.03510194772388787
2178,00:00:08.712,-0.02152525400742889
2179,00:00:08.716,-0.00739350231015123
2180,00:00:08.72,-0.01598751684650774
2181,00:00:08.724,0.01337430719286203
2182,00:00:08.728,-0.0042309067212045505
2183,00:00:08.732,-0.0074708289466798306
2184,00:00:08.736,0.0071348358178511505
2185,00:00:08.74,-0.0057578600826673244
2186,00:00:08.744,0.000913141760975119
2187,00:00:08.748,0.004511104896664614
2188,00:00:08.752,0.0021140133030713004
2189,00:00:08.756,0.01617654412984849
2190,00:00:08.76,-0.017166901612654318
2191,00:00:08.764,-0.009927981998771429
2192,00:00:08.768,0.01328122802078723
2193,00:00:08.772,0.009170407662168138
2194,00:00:08.776,-0.004956720862537621
2195,00:00:08.78,-0.02572306105867033
2196,00:00:08.784,-0.006998660042881958
2197,00:00:08.788,0.02587866550311449
2198,00:00:08.792,0.006985893356613815
2199,00:00:08.796,0.010225271340459578
2200,00:00:08.8,-0.00811507133767014
2201,00:00:08.804,-0.02716996846720572
2202,00:00:08.808,0.01411508652381599
2203,00:00:08.812,0.02351556951180104
2204,00:00:08.816,-0.01462430367246274
2205,00:00:08.82,-0.00675052381120622
2206,00:00:08.824,-0.00979188538622108
2207,00:00:08.828,-0.018012259926763412
2208,00:00:08.832,0.03382825013250121
2209,00:00:08.836,0.008512935601174857
2210,00:00:08.84,0.008754313923418477
2211,00:00:08.844,-0.01457342505455015
2212,00:00:08.848,-0.033390471013262896
2213,00:00:08.852,0.0056885901140049195
2214,00:00:08.856,0.01700358651578422
2215,00:00:08.86,0.01052479632198816
2216,00:00:08.864,0.01984764006920154
2217,00:00:08.868,-0.0014616640110034483
2218,00:00:08.872,-0.03562896838411691
2219,00:00:08.876,-0.01463085552677509
2220,00:00:08.88,-0.00339432107284665
2221,00:00:08.884,0.0234456312609836
2222,00:00:08.888,0.012233149958774451
2223,00:00:08.892,0.016435501747764657
2224,00:00:08.896,0.0029421872459352
2225,00:00:08.9,-0.026062662247568362
2226,00:00:08.904,-0.026798783335834755
2227,00:00:08.908,-0.004679028817918149
2228,00:00:08.912,0.04182679957011717
2229,00:00:08.916,0.01863724691793324
2230,00:00:08.92,-0.02446127682924272
2231,00:00:08.924,-0.019952375441789662
2232,00:00:08.928,-0.003349408158101139
2233,00:00:08.932,0.008293440565466879
2234,00:00:08.936,0.02737291704397648
2235,00:00:08.94,0.01381729799322784
2236,00:00:08.944,-0.04839407093822948
2237,00:00:08.948,-0.02122190158115697
2238,00:00:08.952,0.025882258545607342
2239,00:00:08.956,0.02750899549573659
2240,00:00:08.96,0.00259897485375404
2241,00:00:08.964,-0.0036140994052402666
2242,00:00:08.968,-0.016907492652535404
2243,00:00:08.972,0.005722572910599371
2244,00:00:08.976,0.004403756232932211
2245,00:00:08.98,-0.012196533098176641
2246,00:00:08.984,-0.005632332758978009
2247,00:00:08.988,-0.007139519788324897
2248,00:00:08.992,0.0022322889417409897
2249,00:00:08.996,0.01076960004866124
2250,00:00:09,0.03178644130821341
2251,00:00:09.004,-0.0018560553435236216
2252,00:00:09.008,-0.014773315808270175
2253,00:00:09.012,-0.017920752783538777
2254,00:00:09.016,-0.01928897248581047
2255,00:00:09.02,0.009165062103420493
2256,00:00:09.024,0.0007076713372953184
2257,00:00:09.028,0.01750402117613701
2258,00:00:09.032,0.031808190513402224
2259,00:00:09.036,-0.017554789694258943
2260,00:00:09.04,-0.02074273535981772
2261,00:00:09.044,-0.006256115622818469
2262,00:00:09.048,0.007464583381079138
2263,00:00:09.052,0.00459140061866492
2264,00:00:09.056,-0.0023552189813926703
2265,00:00:09.06,0.00791406398639085
2266,00:00:09.064,0.0065522526274435396
2267,00:00:09.068,-0.016056505352025886
2268,00:00:09.072,-0.0010914544109255162
2269,00:00:09.076,-0.012169851688668128
2270,00:00:09.08,0.01970156375318765
2271,00:00:09.084,0.0017577791586518218
2272,00:00:09.088,-0.013002970081288378
2273,00:00:09.092,0.01828185655176639
2274,00:00:09.096,0.00413213095089304
2275,00:00:09.1,-0.002400057855993512
2276,00:00:09.104,-0.021419428638182567
2277,00:00:09.108,-0.005416804458945996
2278,00:00:09.112,0.009325982013251636
2279,00:00:09.116,0.0001818299060687375
2280,00:00:09.12,0.01499068015255034
2281,00:00:09.124,-0.015588026959449051
2282,00:00:09.128,-0.0025039990432560396
2283,00:00:09.132,0.01037663192255423
2284,00:00:09.136,0.0033934717066586083
2285,00:00:09.14,0.023221311625093263
2286,00:00:09.144,-0.012508207350037999
2287,00:00:09.148,-0.0255860461620614
2288,00:00:09.152,-0.009574682451784609
2289,00:00:09.156,0.01466656196862459
2290,00:00:09.16,-0.001831730362027828
2291,00:00:09.164,0.00040106009691953984
2292,00:00:09.168,0.00655279099009928
2293,00:00:09.172,0.0030921769794076616
2294,00:00:09.176,0.013502191170118789
2295,00:00:09.18,-0.006175431888550511
2296,00:00:09.184,-0.011051939916796987
2297,00:00:09.188,-0.015637903474271277
2298,00:00:09.192,-0.0037567219696939165
2299,00:00:09.196,0.02157524414360527
2300,00:00:09.2,0.005045044701546408
2301,00:00:09.204,0.00915688707027589
2302,00:00:09.208,-0.004295644583180549
2303,00:00:09.212,-0.014178901270497592
2304,00:00:09.216,-0.0167077345540747
2305,00:00:09.22,-0.00229751190636307
2306,00:00:09.224,0.00515846908092498
2307,00:00:09.228,0.03057753504253928
2308,00:00:09.232,0.032778698951005956
2309,00:00:09.236,-0.02012307359836995
2310,00:00:09.24,-0.04513305053114887
2311,00:00:09.244,-0.013009230140596621
2312,00:00:09.248,0.0011276854202151004
2313,00:00:09.252,0.026818554848432576
2314,00:00:09.256,0.02994022949133069
2315,00:00:09.26,-0.00830278242938217
2316,00:00:09.264,-0.00979985075537118
2317,00:00:09.268,-0.02847845066571615
2318,00:00:09.272,0.00947274686768651
2319,00:00:09.276,0.011310375295579461
2320,00:00:09.28,0.0034111356362700506
2321,00:00:09.284,-0.0068335747346282
2322,00:00:09.288,0.003928110236302021
2323,00:00:09.292,0.01143305469304321
2324,00:00:09.296,-0.01452072989195586
2325,00:00:09.3,-0.0032366870436817425
2326,00:00:09.304,0.01608780259266492
2327,00:00:09.308,-0.01546725234948095
2328,00:00:09.312,-0.014190805144608097
2329,00:00:09.316,0.010357161983847632
2330,00:00:09.32,0.022752431221306383
2331,00:00:09.324,-0.004370000940980387
2332,00:00:09.328,-0.01805050042457882
2333,00:00:09.332,-0.004184253164567047
2334,00:00:09.336,0.03901663050055499
2335,00:00:09.34,-0.02555745886638764
2336,00:00:09.344,-0.02754741266835478
2337,00:00:09.348,0.00926786055788398
2338,00:00:09.352,0.025903736706823128
2339,00:00:09.356,0.0011966558522544812
2340,00:00:09.36,0.015439821116160601
2341,00:00:09.364,-0.01587858935818074
2342,00:00:09.368,-0.02192157789249906
2343,00:00:09.372,-0.02034217433538288
2344,00:00:09.376,0.01123400940559801
2345,00:00:09.38,0.03503730194643137
2346,00:00:09.384,0.0193676934577525
2347,00:00:09.388,-0.02999614598229535
2348,00:00:09.392,-0.00890641333535316
2349,00:00:09.396,0.012254686094820522
2350,00:00:09.4,-0.013575317105278359
2351,00:00:09.404,-0.0056539977667853306
2352,00:00:09.408,0.009652103995904302
2353,00:00:09.412,0.013797638006508304
2354,00:00:09.416,-0.03159022261388601
2355,00:00:09.42,0.01988838706165552
2356,00:00:09.424,0.008809085702523593
2357,00:00:09.428,-0.003604400204494589
2358,00:00:09.432,0.00026517035439611
2359,00:00:09.436,0.01145537104457617
2360,00:00:09.44,-0.01629173569381237
2361,00:00:09.444,-0.01019675997667946
2362,00:00:09.448,0.0014408761635423054
2363,00:00:09.452,0.0012486343621276328
2364,00:00:09.456,0.0169044444337487
2365,00:00:09.46,-0.0025666598230600322
2366,00:00:09.464,-0.01899841404519975
2367,00:00:09.468,0.010009974706918006
2368,00:00:09.472,0.02427600510418411
2369,00:00:09.476,-0.00607010128442201
2370,00:00:09.48,-0.042659677099436466
2371,00:00:09.484,0.003745752284885383
2372,00:00:09.488,0.03678099624812599
2373,00:00:09.492,0.0026513320626691
2374,00:00:09.496,-0.01639941637404263
2375,00:00:09.5,-0.02056888921651994
2376,00:00:09.504,0.01436308282427486
2377,00:00:09.508,0.02506314660422502
2378,00:00:09.512,-0.020185633387882266
2379,00:00:09.516,-0.015440481482073672
2380,00:00:09.52,0.017041136510670192
2381,00:00:09.524,0.05047800019383431
2382,00:00:09.528,-0.03704787185415632
2383,00:00:09.532,-0.035171999596059295
2384,00:00:09.536,-0.008075485704466699
2385,00:00:09.54,0.008451225236058226
2386,00:00:09.544,0.01369483082089573
2387,00:00:09.548,0.019103089038253498
2388,00:00:09.552,-0.007477228471543666
2389,00:00:09.556,0.006845344672910866
2390,00:00:09.56,0.02017930243164301
2391,00:00:09.564,-0.02115406724624335
2392,00:00:09.568,-0.02018688130192457
2393,00:00:09.572,-0.01448689424432816
2394,00:00:09.576,-0.0034008649527095232
2395,00:00:09.58,0.01708489749580622
2396,00:00:09.584,0.02220448269508784
2397,00:00:09.588,0.007036161958239978
2398,00:00:09.592,0.00601469713728875
2399,00:00:09.596,-0.01665140292607251
2400,00:00:09.6,-0.02184716146439314
2401,00:00:09.604,-0.014455250005084967
2402,00:00:09.608,0.02171634626574809
2403,00:00:09.612,0.03544790484011172
2404,00:00:09.616,-0.0007284217281266613
2405,00:00:09.62,-0.03958120569586754
2406,00:00:09.624,-0.00296561326831579
2407,00:00:09.628,0.0013899827026762016
2408,00:00:09.632,0.0106477364897728
2409,00:00:09.636,0.005536146694794299
2410,00:00:09.64,-0.01509566232562066
2411,00:00:09.644,0.00854550593066961
2412,00:00:09.648,0.023327790084294926
2413,00:00:09.652,0.01535352552309632
2414,00:00:09.656,-0.0194467944093049
2415,00:00:09.66,-0.042682183440774735
2416,00:00:09.664,-0.00738349114544689
2417,00:00:09.668,0.013036936521530148
2418,00:00:09.672,0.03230170439928769
2419,00:00:09.676,0.006710428628139194
2420,00:00:09.68,-0.00966496649198231
2421,00:00:09.684,-0.008599406806752079
2422,00:00:09.688,0.0011828116839751601
2423,00:00:09.692,0.011891021451447208
2424,00:00:09.696,-0.0040346086025238
2425,00:00:09.7,-0.01772843091748657
2426,00:00:09.704,-0.0093567882431671
2427,00:00:09.708,0.019141816068440683
2428,00:00:09.712,0.014042127178981902
2429,00:00:09.716,-0.02185683557763693
2430,00:00:09.72,-0.006681651575490841
2431,00:00:09.724,0.01427766226697711
2432,00:00:09.728,0.01637438219040637
2433,00:00:09.732,-0.00755973858758807
2434,00:00:09.736,-0.014910158002749049
2435,00:00:09.74,0.00469230662565678
2436,00:00:09.744,-0.01666537951678037
2437,00:00:09.748,0.01920196338323875
2438,00:00:09.752,0.021691814763471443
2439,00:00:09.756,0.005788856477011084
2440,00:00:09.76,-0.04616317618638269
2441,00:00:09.764,-0.00982282156473959
2442,00:00:09.768,-0.0019260370172560232
2443,00:00:09.772,0.02915854984894391
2444,00:00:09.776,0.028456128668040107
2445,00:00:09.78,-0.02468886319547891
2446,00:00:09.784,-0.009337677620351299
2447,00:00:09.788,0.017784801224479452
2448,00:00:09.792,0.011881601996719901
2449,00:00:09.796,-0.008321145083755262
2450,00:00:09.8,-0.04038946609944108
2451,00:00:09.804,-0.02308905217796568
2452,00:00:09.808,0.02109365118667479
2453,00:00:09.812,0.04277193546295171
2454,00:00:09.816,0.025637651327997498
2455,00:00:09.82,-0.012943143490701938
2456,00:00:09.824,-0.030588206835091173
2457,00:00:09.828,-0.02231476502493026
2458,00:00:09.832,0.01995782973244786
2459,00:00:09.836,0.00578118069097403
2460,00:00:09.84,-0.007211292977444854
2461,00:00:09.844,0.0014380739885382398
2462,00:00:09.848,-0.013013931922614559
2463,00:00:09.852,0.01826030679512769
2464,00:00:09.856,0.028159734210930754
2465,00:00:09.86,-0.034064244478941
2466,00:00:09.864,-0.012229846790432942
2467,00:00:09.868,0.0241037767846137
2468,00:00:09.872,-0.004129668232053521
2469,00:00:09.876,0.0022609161678701483
2470,00:00:09.88,0.018176951445639182
2471,00:00:09.884,-0.03560916939750315
2472,00:00:09.888,-0.008620987180620389
2473,00:00:09.892,0.02448589075356725
2474,00:00:09.896,-0.007812186420778711
2475,00:00:09.9,0.007419946487061742
2476,00:00:09.904,-0.00824052561074496
2477,00:00:09.908,-0.004594431258738069
2478,00:00:09.912,0.02920669200830162
2479,00:00:09.916,-0.005560939622228029
2480,00:00:09.92,-0.03448074217885731
2481,00:00:09.924,0.00458496250212193
2482,00:00:09.928,0.05017043766565625
2483,00:00:09.932,-0.02118103066459298
2484,00:00:09.936,-0.032176529755815905
2485,00:00:09.94,0.0159038465935737
2486,00:00:09.944,-0.0019162511453032502
2487,00:00:09.948,-0.014088191281189212
2488,00:00:09.952,0.00588243850506842
2489,00:00:09.956,0.0323276272974908
2490,00:00:09.96,0.003099128603935259
2491,00:00:09.964,-0.01559782563708722
2492,00:00:09.968,-0.013138612732291239
2493,00:00:09.972,-0.018699280335567912
2494,00:00:09.976,0.037631719838827835
2495,00:00:09.98,-0.008793668414000429
2496,00:00:09.984,-0.015116457361727951
2497,00:00:09.988,0.0171384778805077
2498,00:00:09.992,0.007520378567278371
2499,00:00:09.996,-0.010224223486147817
2500,00:00:10,-0.01524223759770389
2501,00:00:10.004,-0.0025365173642057904
2502,00:00:10.008,0.007659676717594267
2503,00:00:10.012,0.03676710324361923
2504,00:00:10.016,0.009334003785625131
2505,00:00:10.02,-0.05264905374497176
2506,00:00:10.024,-0.024625572841614467
2507,00:00:10.028,0.024077795918856327
2508,00:00:10.032,0.01281221094541251
2509,00:00:10.036,0.0006998579483479201
2510,00:00:10.04,0.0019941627979278608
2511,00:00:10.044,0.020028952043503478
2512,00:00:10.048,0.0009266010019928113
2513,00:00:10.052,-0.01899237942416222
2514,00:00:10.056,-0.01274695480242374
2515,00:00:10.06,-0.028331584297120592
2516,00:00:10.064,0.03141589229926467
2517,00:00:10.068,0.0364077677950263
2518,00:00:10.072,-0.02037933003157373
2519,00:00:10.076,-0.01406349195167423
2520,00:00:10.08,-0.00221145851537585
2521,00:00:10.084,-0.003519365563988689
2522,00:00:10.088,-0.00730473478324711
2523,00:00:10.092,0.02900453377515079
2524,00:00:10.096,0.02473685375298377
2525,00:00:10.1,-0.012152932380558904
2526,00:00:10.104,-0.0343431113287806
2527,00:00:10.108,-0.024126276257447878
2528,00:00:10.112,0.0031419837432622435
2529,00:00:10.116,0.025600335793569656
2530,00:00:10.12,0.0322977034375071
2531,00:00:10.124,-0.00026586157036947305
2532,00:00:10.128,-0.03003414906561371
2533,00:00:10.132,-0.014222835889086202
2534,00:00:10.136,0.005115234409458932
2535,00:00:10.14,0.015284307301044419
2536,00:00:10.144,0.0043346334714442734
2537,00:00:10.148,0.0032101016258820913
2538,00:00:10.152,0.01818068523425611
2539,00:00:10.156,-0.033717110287398114
2540,00:00:10.16,-0.02173032704740761
2541,00:00:10.164,0.00648062687832862
2542,00:00:10.168,0.01829449110664428
2543,00:00:10.172,0.012975631165318201
2544,00:00:10.176,0.0008168534841388308
2545,00:00:10.18,0.0016147749010997391
2546,00:00:10.184,0.00747107015922666
2547,00:00:10.188,-0.01987656830169729
2548,00:00:10.192,-0.02218257507774976
2549,00:00:10.196,0.011333194386679684
2550,00:00:10.2,0.010170350200496614
2551,00:00:10.204,-0.012703815242275601
2552,00:00:10.208,0.00647434289567176
2553,00:00:10.212,0.011988346697762609
2554,00:00:10.216,-0.004874037113040691
2555,00:00:10.22,-0.004567487165331879
2556,00:00:10.224,0.01022431172896177
2557,00:00:10.228,0.005281466408632699
2558,00:00:10.232,0.0015102496836334497
2559,00:00:10.236,0.0019676193769555556
2560,00:00:10.24,-0.02917748969048262
2561,00:00:10.244,0.0035202142316847953
2562,00:00:10.248,0.002092528375214899
2563,00:00:10.252,-0.01490699127316475
2564,00:00:10.256,0.04070781497284766
2565,00:00:10.26,0.008225905185099688
2566,00:00:10.264,-0.03062472539022567
2567,00:00:10.268,-0.0025519011542201094
2568,00:00:10.272,0.01904024556279188
2569,00:00:10.276,-0.014555685891536958
2570,00:00:10.28,-0.027559614041820148
2571,00:00:10.284,0.012574506923556338
2572,00:00:10.288,0.0335593572817743
2573,00:00:10.292,0.02386045289313189
2574,00:00:10.296,-0.03060234757140276
2575,00:00:10.3,-0.032210454344749444
2576,00:00:10.304,0.008785046433331445
2577,00:00:10.308,0.017021058825775977
2578,00:00:10.312,0.00789156893733893
2579,00:00:10.316,-0.02690240740776065
2580,00:00:10.32,0.002717420458793642
2581,00:00:10.324,0.02168411645106971
2582,00:00:10.328,0.01939982338808477
2583,00:00:10.332,-0.0007575890049338304
2584,00:00:10.336,-0.03312815143726769
2585,00:00:10.34,-0.02092792512848975
2586,00:00:10.344,0.014998947270214561
2587,00:00:10.348,0.024765472950093636
2588,00:00:10.352,-0.0013625636929646202
2589,00:00:10.356,-0.025609064381569638
2590,00:00:10.36,-0.003484584507532421
2591,00:00:10.364,0.008716206299141046
2592,00:00:10.368,0.03139909717720004
2593,00:00:10.372,0.024000754579901713
2594,00:00:10.376,-0.030449543613940432
2595,00:00:10.38,-0.039565409533679444
2596,00:00:10.384,-0.008243776392191659
2597,00:00:10.388,-0.0042133610695600605
2598,00:00:10.392,0.03149919770658013
2599,00:00:10.396,0.04820907046087085
2600,00:00:10.4,-0.00506608630530536
2601,00:00:10.404,-0.04283037828281524
2602,00:00:10.408,-0.0178448744118213
2603,00:00:10.412,0.00918533257208765
2604,00:00:10.416,0.00638184836134314
2605,00:00:10.42,-0.001788577996194387
2606,00:00:10.424,0.008649545547086742
2607,00:00:10.428,0.02064418816007673
2608,00:00:10.432,0.013738122070208195
2609,00:00:10.436,-0.023635599427507197
2610,00:00:10.44,-0.0254913819953799
2611,00:00:10.444,-0.0068812342360615696
2612,00:00:10.448,9.701168164612944e-05
2613,00:00:10.452,0.01056981319561601
2614,00:00:10.456,0.023596607148647294
2615,00:00:10.46,0.0007889550179242914
2616,00:00:10.464,-0.014904313371516802
2617,00:00:10.468,-0.010760359931737167
2618,00:00:10.472,0.023676979122683378
2619,00:00:10.476,0.00880952319130299
2620,00:00:10.48,-0.005034127738326789
2621,00:00:10.484,-0.019049067050218572
2622,00:00:10.488,-0.0093668680638075
2623,00:00:10.492,-0.003732153665623629
2624,00:00:10.496,-0.006710796675179157
2625,00:00:10.5,0.01529198669595648
2626,00:00:10.504,0.03784557175822552
2627,00:00:10.508,0.0030831733020022516
2628,00:00:10.512,-0.025629773270338753
2629,00:00:10.516,-0.030580212827771902
2630,00:00:10.52,0.0006750794127583087
2631,00:00:10.524,0.026866375468671343
2632,00:00:10.528,0.002100662677548831
2633,00:00:10.532,0.00711885234341026
2634,00:00:10.536,0.006736325100064278
2635,00:00:10.54,-0.03026780812069773
2636,00:00:10.544,-0.0026888763532042902
2637,00:00:10.548,-0.0014737693127244707
2638,00:00:10.552,0.01680350396782162
2639,00:00:10.556,0.02033436484634879
2640,00:00:10.56,-0.021231406892184133
2641,00:00:10.564,-0.0219328912207857
2642,00:00:10.568,0.00787420209962874
2643,00:00:10.572,0.020628977101296228
2644,00:00:10.576,0.000933615003305026
2645,00:00:10.58,0.008255746331997221
2646,00:00:10.584,-0.004992691276129334
2647,00:00:10.588,-0.01496358145959675
2648,00:00:10.592,-0.006816051434725527
2649,00:00:10.596,-0.008002098387805745
2650,00:00:10.6,0.01209672307595605
2651,00:00:10.604,0.00501758186146617
2652,00:00:10.608,0.009619938035029918
2653,00:00:10.612,-0.003926554112695159
2654,00:00:10.616,-0.00474592752289027
2655,00:00:10.62,-0.0018506968626752609
2656,00:00:10.624,0.01098987041041255
2657,00:00:10.628,0.01234493171796203
2658,00:00:10.632,-0.022761943284422163
2659,00:00:10.636,-0.027307076612487487
2660,00:00:10.64,0.01495675876503813
2661,00:00:10.644,0.0033738501369953017
2662,00:00:10.648,0.0066621503792703585
2663,00:00:10.652,0.01857982994988561
2664,00:00:10.656,0.01192843820899729
2665,00:00:10.66,-0.0133205712772906
2666,00:00:10.664,-0.031443534069694634
2667,00:00:10.668,-0.0060033185873180316
2668,00:00:10.672,0.02531867194920783
2669,00:00:10.676,0.01100993098225445
2670,00:00:10.68,0.00442530924919993
2671,00:00:10.684,-0.019673209288157543
2672,00:00:10.688,-0.01203164615435522
2673,00:00:10.692,-0.0030052239308133795
2674,00:00:10.696,0.01040689449291676
2675,00:00:10.7,0.032483629882335704
2676,00:00:10.704,-0.009441093745408585
2677,00:00:10.708,-0.01665819701156575
2678,00:00:10.712,0.005236227996647412
2679,00:00:10.716,-0.011773459613323238
2680,00:00:10.72,-0.008187503088265671
2681,00:00:10.724,0.004976212047040469
2682,00:00:10.728,-0.0033106853952631
2683,00:00:10.732,0.02278878167271614
2684,00:00:10.736,0.0286888049449772
2685,00:00:10.74,-0.0341946724802256
2686,00:00:10.744,-0.0195090422930662
2687,00:00:10.748,0.007175203762017187
2688,00:00:10.752,0.003489843104034671
2689,00:00:10.756,0.012232433538883931
2690,00:00:10.76,-0.004324257373809839
2691,00:00:10.764,-0.004692190792411571
2692,00:00:10.768,-0.007065965328365611
2693,00:00:10.772,0.0016285551246255714
2694,00:00:10.776,0.03400578256696462
2695,00:00:10.78,-0.008829515969409844
2696,00:00:10.784,-0.02246694639325145
2697,00:00:10.788,-0.0137449676403776
2698,00:00:10.792,0.00391348550328985
2699,00:00:10.796,0.01691528921946883
2700,00:00:10.8,-0.00111255771480501
2701,00:00:10.804,0.0004996377974748212
2702,00:00:10.808,0.015792420279467485
2703,00:00:10.812,0.0013458207249641115
2704,00:00:10.816,-0.027867822092957788
2705,00:00:10.82,-0.01821127533912659
2706,00:00:10.824,0.01092035975307231
2707,00:00:10.828,0.027701021637767553
2708,00:00:10.832,0.005292294081300499
2709,00:00:10.836,0.003976443171268334
2710,00:00:10.84,-0.01872959733009339
2711,00:00:10.844,-0.0202867994084954
2712,00:00:10.848,0.0057338625192642385
2713,00:00:10.852,0.0069456035271287
2714,00:00:10.856,0.011017719283700001
2715,00:00:10.86,-0.00174791063182055
2716,00:00:10.864,-0.002586969523690642
2717,00:00:10.868,-0.0026768771931528976
2718,00:00:10.872,0.02137224818579854
2719,00:00:10.876,-0.0091310024727136
2720,00:00:10.88,-0.026608366519212768
2721,00:00:10.884,0.00222148257307708
2722,00:00:10.888,0.008310347970109433
2723,00:00:10.892,0.00784476660192013
2724,00:00:10.896,0.00808106665499509
2725,00:00:10.9,0.008314660168252861
2726,00:00:10.904,-0.01771749765612186
2727,00:00:10.908,-0.01933117327280345
2728,00:00:10.912,0.01715757930651311
2729,00:00:10.916,-0.01063333975616842
2730,00:00:10.92,0.016856900416314664
2731,00:00:10.924,0.022341310046613196
2732,00:00:10.928,-0.024923167598899496
2733,00:00:10.932,-0.025716179981827757
2734,00:00:10.936,0.0001841272896854233
2735,00:00:10.94,0.01907071517780423
2736,00:00:10.944,0.03226466965861615
2737,00:00:10.948,0.0012845285236835202
2738,00:00:10.952,-0.027365480083972243
2739,00:00:10.956,-0.0232325391843915
2740,00:00:10.96,-0.0004316318954806697
2741,00:00:10.964,0.014096870319917848
2742,00:00:10.968,0.01302059052977714
2743,00:00:10.972,0.009656789421569553
2744,00:00:10.976,-0.0014165448956191037
2745,00:00:10.98,-0.012355834536720116
2746,00:00:10.984,-0.006480461335740987
2747,00:00:10.988,-0.001200838247314099
2748,00:00:10.992,-0.004156898474320764
2749,00:00:10.996,0.01308674970641728
2750,00:00:11,0.0011642372701316894
2751,00:00:11.004,0.008399912156164641
2752,00:00:11.008,-0.00736343651078641
2753,00:00:11.012,-0.01683593285270035
2754,00:00:11.016,0.004176371334324356
2755,00:00:11.02,0.003634565859101671
2756,00:00:11.024,0.02283781999722126
2757,00:00:11.028,-0.00839876546524465
2758,00:00:11.032,-0.023760001175105516
2759,00:00:11.036,0.00287150219082832
2760,00:00:11.04,0.0006241512019187099
2761,00:00:11.044,-0.009040324948728048
2762,00:00:11.048,0.02514762245118619
2763,00:00:11.052,0.030908809043467038
2764,00:00:11.056,-0.01091658370569345
2765,00:00:11.06,-0.027285238262265907
2766,00:00:11.064,-0.0315183452330529
2767,00:00:11.068,0.014595474582165511
2768,00:00:11.072,0.02859595883637671
2769,00:00:11.076,-0.012207774081616662
2770,00:00:11.08,-0.0019059118567383818
2771,00:00:11.084,0.02657804731279613
2772,00:00:11.088,0.009346973383799171
2773,00:00:11.092,-0.03176428843289619
2774,00:00:11.096,-0.048779555130749865
2775,00:00:11.1,-0.00023911567404871076
2776,00:00:11.104,0.04458520282059911
2777,00:00:11.108,0.04532949347049
2778,00:00:11.112,-0.003785246983170523
2779,00:00:11.116,-0.0189601224847138
2780,00:00:11.12,-0.02095162740442898
2781,00:00:11.124,-0.01485169492661957
2782,00:00:11.128,0.0042084553278982605
2783,00:00:11.132,0.0013197084044804805
2784,00:00:11.136,-0.00560630462132394
2785,00:00:11.14,0.0017128985382441832
2786,00:00:11.144,0.01638850616291165
2787,00:00:11.148,0.0341580873355269
2788,00:00:11.152,0.00034802139271049954
2789,00:00:11.156,-0.03714684629812843
2790,00:00:11.16,-0.0168755322229117
2791,00:00:11.164,-0.0077409190125763295
2792,00:00:11.168,0.01725034648552537
2793,00:00:11.172,0.037128511001355974
2794,00:00:11.176,0.0072353126015514
2795,00:00:11.18,-0.034893734962679473
2796,00:00:11.184,-0.0393407316878438
2797,00:00:11.188,0.007287091051694016
2798,00:00:11.192,0.032143896445631995
2799,00:00:11.196,0.003401624737307436
2800,00:00:11.2,0.01884544780477882
2801,00:00:11.204,-0.0015928775537759066
2802,00:00:11.208,-0.02293704566545785
2803,00:00:11.212,-0.006919305771589281
2804,00:00:11.216,0.0035859384224750015
2805,00:00:11.22,0.01480686618015168
2806,00:00:11.224,-0.009804494678974152
2807,00:00:11.228,-0.00419781380333007
2808,00:00:11.232,-0.008488635299727317
2809,00:00:11.236,-0.0005957935354672381
2810,00:00:11.24,0.02279925346374512
2811,00:00:11.244,0.0022703045979142206
2812,00:00:11.248,-0.0014009824953973293
2813,00:00:11.252,-0.011967257829383012
2814,00:00:11.256,-0.014856086287181821
2815,00:00:11.26,0.017199991329107402
2816,00:00:11.264,-0.0005553541705012304
2817,00:00:11.268,-0.0013488238910212714
2818,00:00:11.272,0.032356163254007676
2819,00:00:11.276,-0.002437731251120543
2820,00:00:11.28,-0.05103834019973879
2821,00:00:11.284,-0.035122717730700914
2822,00:00:11.288,0.034570450428873245
2823,00:00:11.292,0.04607030050829052
2824,00:00:11.296,0.00993815809488297
2825,00:00:11.3,-0.024516942445188792
2826,00:00:11.304,0.01278936723247173
2827,00:00:11.308,-0.02034802548587322
2828,00:00:11.312,-0.023454371374100405
2829,00:00:11.316,-0.0035591345585999075
2830,00:00:11.32,0.01830219151452188
2831,00:00:11.324,0.02006996609270575
2832,00:00:11.328,0.0077061820193193836
2833,00:00:11.332,-0.01261757616885007
2834,00:00:11.336,-0.01636651728767902
2835,00:00:11.34,-0.004823642841074616
2836,00:00:11.344,0.007299860124476259
2837,00:00:11.348,0.010617006104439488
2838,00:00:11.352,0.01706288987770677
2839,00:00:11.356,-0.011468310025520621
2840,00:00:11.36,-0.022662536939606053
2841,00:00:11.364,-0.02165014622732995
2842,00:00:11.368,0.02768696891143916
2843,00:00:11.372,0.03469970083096999
2844,00:00:11.376,-0.010476734489202496
2845,00:00:11.38,-0.0027337642386555203
2846,00:00:11.384,-0.027148513589054353
2847,00:00:11.388,0.00308238877914846
2848,00:00:11.392,0.011964893899858
2849,00:00:11.396,-0.006201931508258001
2850,00:00:11.4,-0.020450937649002285
2851,00:00:11.404,0.02000255149323494
2852,00:00:11.408,0.032771369442343726
2853,00:00:11.412,-0.00357868219725784
2854,00:00:11.416,-0.036889925599098136
2855,00:00:11.42,-0.010678034275770189
2856,00:00:11.424,0.02857614797540011
2857,00:00:11.428,0.010369158757384872
2858,00:00:11.432,-0.02035777922719717
2859,00:00:11.436,-0.01212397054769099
2860,00:00:11.44,0.0045556253753602505
2861,00:00:11.444,0.01229153736494486
2862,00:00:11.448,0.0058303242549300124
2863,00:00:11.452,0.004844326060265313
2864,00:00:11.456,0.008202389348298318
2865,00:00:11.46,-0.016162297222763286
2866,00:00:11.464,-0.01820602023508401
2867,00:00:11.468,-0.003821438993327323
2868,00:00:11.472,-0.0025528143160045104
2869,00:00:11.476,0.01875316491350532
2870,00:00:11.48,0.032144061551662204
2871,00:00:11.484,-0.007553828636446255
2872,00:00:11.488,-0.01399915665388111
2873,00:00:11.492,-0.014915480278432302
2874,00:00:11.496,-0.004533617058768865
2875,00:00:11.5,-0.024986809992697104
2876,00:00:11.504,0.01584078441374005
2877,00:00:11.508,0.0602790964767336
2878,00:00:11.512,-0.009760604240000251
2879,00:00:11.516,-0.02607146592345092
2880,00:00:11.52,-0.029788689455017493
2881,00:00:11.524,0.012939969892613597
2882,00:00:11.528,0.02696821931749586
2883,00:00:11.532,0.00323103996925056
2884,00:00:11.536,-0.02277655049692843
2885,00:00:11.54,-0.012451386894099421
2886,00:00:11.544,0.005042169184889608
2887,00:00:11.548,0.00878705026116223
2888,00:00:11.552,0.012348423479124859
2889,00:00:11.556,0.016771169379353492
2890,00:00:11.56,-0.005011367520637579
2891,00:00:11.564,-0.04302824568003416
2892,00:00:11.568,-0.009290756192058332
2893,00:00:11.572,0.027102999389171573
2894,00:00:11.576,0.018864309415221176
2895,00:00:11.58,0.0161810899153352
2896,00:00:11.584,-0.022760246414691182
2897,00:00:11.588,-0.023717227857559958
2898,00:00:11.592,0.0035139112733304015
2899,00:00:11.596,0.026789107825607072
2900,00:00:11.6,-0.010748800821602358
2901,00:00:11.604,-0.01151478267274797
2902,00:00:11.608,-0.00197369768284261
2903,00:00:11.612,0.00315116881392896
2904,00:00:11.616,0.002495749446097761
2905,00:00:11.62,0.0034320379927522023
2906,00:00:11.624,0.03214417304843666
2907,00:00:11.628,0.002938873134553481
2908,00:00:11.632,-0.034219745110021946
2909,00:00:11.636,-0.03212735895067449
2910,00:00:11.64,0.00566154206171631
2911,00:00:11.644,0.02284909557783974
2912,00:00:11.648,0.017820754495914984
2913,00:00:11.652,-0.01144928298890591
2914,00:00:11.656,-0.0038538752123713485
2915,00:00:11.66,0.019976196577772467
2916,00:00:11.664,-0.013106594153214248
2917,00:00:11.668,-0.00702529330737889
2918,00:00:11.672,-0.007325860671699078
2919,00:00:11.676,-0.010801215772517029
2920,00:00:11.68,0.00212698317773175
2921,00:00:11.684,0.015291916846763337
2922,00:00:11.688,0.04482917301356789
2923,00:00:11.692,0.00032500736415386807
2924,00:00:11.696,-0.03492680238559836
2925,00:00:11.7,-0.047383115626871586
2926,00:00:11.704,-0.00931957038119435
2927,00:00:11.708,0.03873268002644181
2928,00:00:11.712,0.039119862485677025
2929,00:00:11.716,-0.0005600498989224417
2930,00:00:11.72,-0.027133941184729338
2931,00:00:11.724,0.01039888220839202
2932,00:00:11.728,-0.025647932197898654
2933,00:00:11.732,-0.013966906350106039
2934,00:00:11.736,0.01995887374505401
2935,00:00:11.74,0.007806366309523558
2936,00:00:11.744,0.0069678834988735686
2937,00:00:11.748,0.013199558772612335
2938,00:00:11.752,-0.0030734225874766586
2939,00:00:11.756,-0.0012729794252663911
2940,00:00:11.76,-0.026976473629474577
2941,00:00:11.764,-0.027995895594358493
2942,00:00:11.768,0.016656272113323222
2943,00:00:11.772,0.03360452107153832
2944,00:00:11.776,0.01772944082040342
2945,00:00:11.78,-0.01923527545295656
2946,00:00:11.784,-0.008515241672284903
2947,00:00:11.788,-0.0037048640660942
2948,00:00:11.792,0.00108804902993143
2949,00:00:11.796,0.004922569729387727
2950,00:00:11.8,0.010453433031216302
2951,00:00:11.804,-0.03405730758095155
2952,00:00:11.808,-0.012655163649469621
2953,00:00:11.812,0.04433446802431712
2954,00:00:11.816,0.01344598901778227
2955,00:00:11.82,-0.013861953164450831
2956,00:00:11.824,-0.02718278206884864
2957,00:00:11.828,0.007744837086647779
2958,00:00:11.832,0.00972124375402927
2959,00:00:11.836,0.01941755041480072
2960,00:00:11.84,-0.012081694905646149
2961,00:00:11.844,-0.02071212814189492
2962,00:00:11.848,-0.008337537990882991
2963,00:00:11.852,-0.0033960685832425995
2964,00:00:11.856,0.03114843741059297
2965,00:00:11.86,0.020595740992575908
2966,00:00:11.864,-0.01051252277102322
2967,00:00:11.868,-0.007662620162591339
2968,00:00:11.872,-0.01338189374655485
2969,00:00:11.876,0.011052277404814959
2970,00:00:11.88,-0.019598630722612163
2971,00:00:11.884,-0.020144459994298834
2972,00:00:11.888,0.030151913175359382
2973,00:00:11.892,0.007346602506004259
2974,00:00:11.896,-0.01630165241658693
2975,00:00:11.9,0.014609870733693239
2976,00:00:11.904,0.011910070199519429
2977,00:00:11.908,0.0107509452936938
2978,00:00:11.912,-0.017472354462370252
2979,00:00:11.916,-0.014983664033934462
2980,00:00:11.92,-0.01657784753479064
2981,00:00:11.924,0.01799177716020494
2982,00:00:11.928,0.018524245242588208
2983,00:00:11.932,-0.014493260998278856
2984,00:00:11.936,-0.001877984905149788
2985,00:00:11.94,-0.00031669152667746056
2986,00:00:11.944,0.007712763035669919
2987,00:00:11.948,-0.010164004328544255
2988,00:00:11.952,-0.005964731797575941
2989,00:00:11.956,0.014654049067758017
2990,00:00:11.96,0.021655794815160362
2991,00:00:11.964,-0.004640658386051658
2992,00:00:11.968,-0.02260942180873831
2993,00:00:11.972,-0.016523883678019057
2994,00:00:11.976,-0.004915758559945969
2995,00:00:11.98,0.005360386567190259
2996,00:00:11.984,0.010082239576149728
2997,00:00:11.988,0.02779133711010222
2998,00:00:11.992,0.016214665258303288
2999,00:00:11.996,-0.0004098608624189797
3000,00:00:12,-0.05595323815941809
3001,00:00:12.004,-0.01764928223565221
3002,00:00:12.008,0.01670238623046319
3003,00:00:12.012,0.03337209927849475
3004,00:00:12.016,0.018700802960665945
3005,00:00:12.02,-0.01606806018389759
3006,00:00:12.024,-0.026838082121685168
3007,00:00:12.028,0.003538744847901399
3008,00:00:12.032,0.008431436708633557
3009,00:00:12.036,-0.0019026939989998902
3010,00:00:12.04,0.00348278472665697
3011,00:00:12.044,-0.008139777812175501
3012,00:00:12.048,0.015828576404601332
3013,00:00:12.052,0.006799141818191854
3014,00:00:12.056,-0.022053021937608754
3015,00:00:12.06,-0.00272350036539137
3016,00:00:12.064,0.01128860097378492
3017,00:00:12.068,0.007913355075288528
3018,00:00:12.072,-0.01833898655604574
3019,00:00:12.076,-0.0014333080034703016
3020,00:00:12.08,0.0002574789104983202
3021,00:00:12.084,0.018912771018221978
3022,00:00:12.088,0.0063475389033555915
3023,00:00:12.092,-0.0048345637042075396
3024,00:00:12.096,-0.01720859925262628
3025,00:00:12.1,-0.007263419101946073
3026,00:00:12.104,0.02465228061191742
3027,00:00:12.108,-0.0008473098278045585
3028,00:00:12.112,-0.01319295429857447
3029,00:00:12.116,-0.007294214621651881
3030,00:00:12.12,-0.01115827716421336
3031,00:00:12.124,0.013579179765656592
3032,00:00:12.128,0.02779041230678561
3033,00:00:12.132,0.011690949671901759
3034,00:00:12.136,-0.02136941929347816
3035,00:00:12.14,-0.03081856435164808
3036,00:00:12.144,-0.005828014327562411
3037,00:00:12.148,0.0141086740186438
3038,00:00:12.152,0.02663747500628233
3039,00:00:12.156,0.0052434738026932185
3040,00:00:12.16,-0.003679605491924986
3041,00:00:12.164,-0.016892275772988803
3042,00:00:12.168,-0.02100260677980255
3043,00:00:12.172,0.01980904245283457
3044,00:00:12.176,0.01255610701628029
3045,00:00:12.18,-0.01459413976408538
3046,00:00:12.184,0.0005330645799404184
3047,00:00:12.188,0.00612621731124819
3048,00:00:12.192,-0.0015053134411573393
3049,00:00:12.196,-0.014103579334914641
3050,00:00:12.2,0.009742666152305906
3051,00:00:12.204,0.02526605944149197
3052,00:00:12.208,-0.008162716636434201
3053,00:00:12.212,-0.028865557163953774
3054,00:00:12.216,0.011756206396967152
3055,00:00:12.22,0.01563714072108269
3056,00:00:12.224,-0.015283630695194044
3057,00:00:12.228,-0.013895132113248082
3058,00:00:12.232,0.014525073580443842
3059,00:00:12.236,-0.008491409709677069
3060,00:00:12.24,0.03625315625686195
3061,00:00:12.244,0.013836327008902999
3062,00:00:12.248,-0.02830295823514464
3063,00:00:12.252,-0.0456719934009016
3064,00:00:12.256,0.006141555728390811
3065,00:00:12.26,0.008381834253668717
3066,00:00:12.264,0.01536483364179731
3067,00:00:12.268,0.02477944828569888
3068,00:00:12.272,0.021981585363391763
3069,00:00:12.276,-0.027057169005274807
3070,00:00:12.28,-0.037028362974524526
3071,00:00:12.284,0.004527331562712788
3072,00:00:12.288,0.01811865158379078
3073,00:00:12.292,-0.0007853457645978753
3074,00:00:12.296,-0.00995484646409748
3075,00:00:12.3,0.0299238376319408
3076,00:00:12.304,0.006053653080016389
3077,00:00:12.308,-0.029640881344676004
3078,00:00:12.312,-0.01392881758511067
3079,00:00:12.316,-0.0022042587224859918
3080,00:00:12.32,0.013755582273006498
3081,00:00:12.324,0.002407727995887402
3082,00:00:12.328,0.019146418897435027
3083,00:00:12.332,0.002246706702862869
3084,00:00:12.336,-0.0056795392883941505
3085,00:00:12.34,-0.00733536016196012
3086,00:00:12.344,-0.007404301344649859
3087,00:00:12.348,-0.0022449595562647993
3088,00:00:12.352,-0.002180361130740501
3089,00:00:12.356,-0.00515900319442153
3090,00:00:12.36,0.0071969985729083375
3091,00:00:12.364,-0.01245456899050623
3092,00:00:12.368,0.02183247380889953
3093,00:00:12.372,0.034530923701822674
3094,00:00:12.376,-0.00923134852200747
3095,00:00:12.38,-0.03057290404103695
3096,00:00:12.384,-0.01732819664175622
3097,00:00:12.388,-0.009638307208660987
3098,00:00:12.392,0.003996351268142461
3099,00:00:12.396,0.01848116961809861
3100,00:00:12.4,0.01900936570018534
3101,00:00:12.404,0.021751102060079613
3102,00:00:12.408,-0.01388620585203172
3103,00:00:12.412,-0.031155869888607426
3104,00:00:12.416,-0.0008947668829932896
3105,00:00:12.42,0.006532017840072531
3106,00:00:12.424,0.013236865750513974
3107,00:00:12.428,-0.016801980789750818
3108,00:00:12.432,-0.0037491103576030582
3109,00:00:12.436,0.01200510445050895
3110,00:00:12.44,0.01868245168589056
3111,00:00:12.444,-0.013623665290651846
3112,00:00:12.448,-0.01921628462150693
3113,00:00:12.452,0.0070695102622266885
3114,00:00:12.456,0.005616908892989159
