,Elapsed Time,EMG
0,00:00:00,1.035814300179478
1,00:00:00.004,-0.979458548128602
2,00:00:00.008,-0.8253053575754206
3,00:00:00.012,-0.0994956521317358
4,00:00:00.016,0.4342227857559913
5,00:00:00.02,0.5061145499348642
6,00:00:00.024,0.3030929192900654
7,00:00:00.028,0.06646374601405114
8,00:00:00.032,-0.13515715673565876
9,00:00:00.036,-0.21838181093335152
10,00:00:00.04,-0.17177885957062208
11,00:00:00.044,-0.04755656642373654
12,00:00:00.048,0.009846068918705028
13,00:00:00.052,0.06230527581647036
14,00:00:00.056,0.034703654237091514
15,00:00:00.06,0.04917969848611388
16,00:00:00.064,0.0635185707360505
17,00:00:00.068,0.006587284617126002
18,00:00:00.072,-0.0882659014314413
19,00:00:00.076,-0.07083270326256741
20,00:00:00.08,0.0038846028037369295
21,00:00:00.084,0.0498036537319422
22,00:00:00.088,0.028229943054611788
23,00:00:00.092,-0.007004355051321909
24,00:00:00.096,-0.00505076715489849
25,00:00:00.1,0.009781494154594828
26,00:00:00.104,-0.013071512395981678
27,00:00:00.108,-0.024987043347209737
28,00:00:00.112,0.012346812523901421
29,00:00:00.116,0.028659520670771692
30,00:00:00.12,0.009833120886469307
31,00:00:00.124,-0.04044943302869801
32,00:00:00.128,0.000787024153396489
33,00:00:00.132,0.013606285210698881
34,00:00:00.136,-0.004446791252121331
35,00:00:00.14,-0.0012412984506227128
36,00:00:00.144,-0.002492185667506422
37,00:00:00.148,0.01266799215227363
38,00:00:00.152,0.00731985981110485
39,00:00:00.156,-0.01220007374649867
40,00:00:00.16,-0.0012469278299249626
41,00:00:00.164,0.005292923771776261
42,00:00:00.168,-0.028507839888334215
43,00:00:00.172,0.0009878588607534714
44,00:00:00.176,0.0214704116806389
45,00:00:00.18,0.01708202820736911
46,00:00:00.184,0.01242839801125228
47,00:00:00.188,-0.02254641999024902
48,00:00:00.192,-0.023247738834470538
49,00:00:00.196,-0.019377575623366245
50,00:00:00.2,0.03781690352479927
51,00:00:00.204,0.012825288111343999
52,00:00:00.208,0.013020848855376249
53,00:00:00.212,-0.02708187815733251
54,00:00:00.216,-0.014203115599229932
55,00:00:00.22,0.012678374710958446
56,00:00:00.224,0.01469441736117004
57,00:00:00.228,-0.02363138506188989
58,00:00:00.232,-0.026315998518839437
59,00:00:00.236,0.0409619938582182
60,00:00:00.24,0.03929736465215686
61,00:00:00.244,-0.026956046465784318
62,00:00:00.248,-0.02357760351151228
63,00:00:00.252,-0.01065909641329199
64,00:00:00.256,-0.006751122651621699
65,00:00:00.26,0.00751057636443875
66,00:00:00.264,-0.0023260000161826506
67,00:00:00.268,0.048100332263857154
68,00:00:00.272,0.005789042916148972
69,00:00:00.276,-0.03179827379062773
70,00:00:00.28,-0.01502210786566134
71,00:00:00.284,-0.0009950501844287413
72,00:00:00.288,0.018668719800189117
73,00:00:00.292,0.01382488477975134
74,00:00:00.296,-0.006941183819435535
75,00:00:00.3,-0.043624600162729635
76,00:00:00.304,-0.01839869003742937
77,00:00:00.308,0.041635194211267004
78,00:00:00.312,0.038209217134863194
79,00:00:00.316,-0.004991112276911701
80,00:00:00.32,-0.00200578337535262
81,00:00:00.324,-0.007866248022764942
82,00:00:00.328,-0.03173452452756469
83,00:00:00.332,-0.020292372326366572
84,00:00:00.336,0.03174845781177281
85,00:00:00.34,0.0038849750999361294
86,00:00:00.344,0.0187407867051661
87,00:00:00.348,-0.00352677726186812
88,00:00:00.352,-0.013820727705024207
89,00:00:00.356,-0.015965895727276802
90,00:00:00.36,-0.00832537579117344
91,00:00:00.364,0.024836199823766912
92,00:00:00.368,-0.002586365561001011
93,00:00:00.372,0.0005934950895607508
94,00:00:00.376,0.026508373208343972
95,00:00:00.38,-0.03304301574826235
96,00:00:00.384,0.015071196015924191
97,00:00:00.388,0.00030085956677794397
98,00:00:00.392,-0.0149708557873964
99,00:00:00.396,-0.0088495712261647
100,00:00:00.4,-0.002682389109395461
101,00:00:00.404,0.03226348571479319
102,00:00:00.408,0.03493917011655875
103,00:00:00.412,-0.03652964183129371
104,00:00:00.416,-0.051306739915162304
105,00:00:00.42,0.014333548024296771
106,00:00:00.424,0.01386986486613746
107,00:00:00.428,0.00404147640801966
108,00:00:00.432,0.027689612470567303
109,00:00:00.436,-0.004032782046124329
110,00:00:00.44,-0.010180306620895798
111,00:00:00.444,-0.019277631305158173
112,00:00:00.448,0.0015210596611723894
113,00:00:00.452,0.031186562031507496
114,00:00:00.456,-0.010783950798213471
115,00:00:00.46,-0.03013296797871586
116,00:00:00.464,0.009323967038653791
117,00:00:00.468,0.01846179657150055
118,00:00:00.472,-0.02227070240769535
119,00:00:00.476,0.016748487250879397
120,00:00:00.48,0.03457256546244027
121,00:00:00.484,-0.0027189872344024557
122,00:00:00.488,-0.07188953226432206
123,00:00:00.492,0.005066159297712151
124,00:00:00.496,0.03438940923660998
125,00:00:00.5,0.00522110145539046
126,00:00:00.504,0.00645454751793295
127,00:00:00.508,-0.01582131371833383
128,00:00:00.512,0.02791288541629909
129,00:00:00.516,-0.02348903683014215
130,00:00:00.52,-0.015191891230642792
131,00:00:00.524,0.0007780403830110944
132,00:00:00.528,0.0054438113002106495
133,00:00:00.532,-0.005302938865497691
134,00:00:00.536,0.03153912094421685
135,00:00:00.54,-0.0065785184269771
136,00:00:00.544,0.0003740731626749095
137,00:00:00.548,-0.00740892183966936
138,00:00:00.552,0.0038951686583459304
139,00:00:00.556,-0.04364151717163624
140,00:00:00.56,0.01590403076261282
141,00:00:00.564,0.00073573191184551
142,00:00:00.568,0.03719290159642703
143,00:00:00.572,-0.000388705637305976
144,00:00:00.576,0.003911910909664589
145,00:00:00.58,-0.01416111318394538
146,00:00:00.584,-0.01650482392869891
147,00:00:00.588,0.00576425879262387
148,00:00:00.592,-0.0005262175109237402
149,00:00:00.596,-0.006137480493634938
150,00:00:00.6,-0.00699503184296191
151,00:00:00.604,-0.008346999726200014
152,00:00:00.608,0.049174321000464274
153,00:00:00.612,-0.01933732419274745
154,00:00:00.616,-0.01954528258647769
155,00:00:00.62,0.037229628767818185
156,00:00:00.624,-0.0006807153113186351
157,00:00:00.628,-0.020436636055819656
158,00:00:00.632,-0.03381424397230145
159,00:00:00.636,0.023137554991990338
160,00:00:00.64,0.01074143988080322
161,00:00:00.644,0.01166784414090216
162,00:00:00.648,-0.0003117818851023999
163,00:00:00.652,-0.02714945957995947
164,00:00:00.656,0.012873983941972289
165,00:00:00.66,-0.0063613048987463125
166,00:00:00.664,0.010557382483966656
167,00:00:00.668,-0.009056027451151765
168,00:00:00.672,0.009302927181124689
169,00:00:00.676,-0.000833648722618879
170,00:00:00.68,0.0017432782333344186
171,00:00:00.684,0.0011231310199946098
172,00:00:00.688,-0.00901476456783714
173,00:00:00.692,-0.01698480127379295
174,00:00:00.696,0.02605228894390172
175,00:00:00.7,0.01724872086197142
176,00:00:00.704,-0.014374162536114468
177,00:00:00.708,-0.038591485936194644
178,00:00:00.712,0.0093835243023932
179,00:00:00.716,0.02488567214459185
180,00:00:00.72,0.02407254045829177
181,00:00:00.724,-0.0007064421661198486
182,00:00:00.728,-0.031699179671704804
183,00:00:00.732,-0.01901205163449049
184,00:00:00.736,-0.01749621191993355
185,00:00:00.74,0.04089224943891172
186,00:00:00.744,0.04301273659802976
187,00:00:00.748,-0.0046212423476390515
188,00:00:00.752,-0.04608361050486561
189,00:00:00.756,-0.04100969294086098
190,00:00:00.76,0.010274309664964672
191,00:00:00.764,0.059052006341516985
192,00:00:00.768,0.013746051699854477
193,00:00:00.772,-0.03395210253074763
194,00:00:00.776,-0.01887617353349926
195,00:00:00.78,0.02061874838545915
196,00:00:00.784,0.01126159774139523
197,00:00:00.788,-0.0044479556381702215
198,00:00:00.792,-0.01746139745227993
199,00:00:00.796,-0.0007214258657768403
200,00:00:00.8,0.0028856147837359476
201,00:00:00.804,0.029451065231114647
202,00:00:00.808,-0.028359393065329624
203,00:00:00.812,-0.01657087448984385
204,00:00:00.816,-0.000563657726161179
205,00:00:00.82,0.017828205775003877
206,00:00:00.824,0.036629134323448026
207,00:00:00.828,0.002420639764750373
208,00:00:00.832,-0.015268388320691932
209,00:00:00.836,-0.03640665914281276
210,00:00:00.84,-0.03485300857573751
211,00:00:00.844,0.020759228616952948
212,00:00:00.848,0.0615573832765222
213,00:00:00.852,0.00311004766263068
214,00:00:00.856,-0.0467327618971467
215,00:00:00.86,2.2230669856040247e-05
216,00:00:00.864,0.016095600178232417
217,00:00:00.868,-0.0019701345590874535
218,00:00:00.872,0.0264612160390243
219,00:00:00.876,-0.02506337501108652
220,00:00:00.88,-0.0227811574004591
221,00:00:00.884,0.016308741644024842
222,00:00:00.888,0.004526796546997504
223,00:00:00.892,-0.01868282759096477
224,00:00:00.896,0.0023657297715544597
225,00:00:00.9,0.02819543739315127
226,00:00:00.904,0.031956602819263935
227,00:00:00.908,-0.015371477697044642
228,00:00:00.912,-0.04160921904258421
229,00:00:00.916,-0.021099358389619717
230,00:00:00.92,-0.0015019022685009917
231,00:00:00.924,0.021857655374333252
232,00:00:00.928,0.038585226051509366
233,00:00:00.932,0.007171417586505349
234,00:00:00.936,-0.043227307498455034
235,00:00:00.94,-0.0163205843418837
236,00:00:00.944,0.050866271369159194
237,00:00:00.948,0.0019244668073952215
238,00:00:00.952,-0.02416808670386672
239,00:00:00.956,-0.03601068910211326
240,00:00:00.96,0.01122315227985382
241,00:00:00.964,0.0348616736009716
242,00:00:00.968,0.017442980577470735
243,00:00:00.972,-0.025333161465823643
244,00:00:00.976,-0.0187794393859804
245,00:00:00.98,0.0006417824479285688
246,00:00:00.984,0.040768885053694304
247,00:00:00.988,-0.009984560776501922
248,00:00:00.992,-0.03236721217399467
249,00:00:00.996,-0.028551397845149012
250,00:00:01,0.037766854860819876
251,00:00:01.004,0.03951140632852918
252,00:00:01.008,-0.01500422437675297
253,00:00:01.012,-0.02868055785074832
254,00:00:01.016,0.01973695517517625
255,00:00:01.02,0.00780898914672435
256,00:00:01.024,-0.02421416016295553
257,00:00:01.028,-0.007398949936032299
258,00:00:01.032,-0.0023358482867479307
259,00:00:01.036,0.030383720528334417
260,00:00:01.04,-0.02116768417181445
261,00:00:01.044,0.01399445533752439
262,00:00:01.048,0.0024749992880970196
263,00:00:01.052,-0.008055926678935054
264,00:00:01.056,-0.0177018418908119
265,00:00:01.06,-0.006798874586820552
266,00:00:01.064,0.03488061018288138
267,00:00:01.068,0.01928702089935546
268,00:00:01.072,-0.0007387544028461205
269,00:00:01.076,-0.013000113423913719
270,00:00:01.08,-0.023074027965776636
271,00:00:01.084,-0.03059062268584966
272,00:00:01.088,0.01750414888374502
273,00:00:01.092,0.01565698510967198
274,00:00:01.096,-0.00238210661336779
275,00:00:01.1,0.01099297590553766
276,00:00:01.104,-0.0025888385716825394
277,00:00:01.108,0.022419251035898917
278,00:00:01.112,-0.01304570864886047
279,00:00:01.116,-0.007138217333704235
280,00:00:01.12,-0.005924347380641813
281,00:00:01.124,-0.005920666269957979
282,00:00:01.128,0.0011434964835643508
283,00:00:01.132,-0.0049790097400546005
284,00:00:01.136,0.0170549815520644
285,00:00:01.14,0.0021885845344513594
286,00:00:01.144,-0.006065530935302387
287,00:00:01.148,0.0037719747488154033
288,00:00:01.152,-0.02107529481872911
289,00:00:01.156,-0.011560427941731195
290,00:00:01.16,0.037567933322861846
291,00:00:01.164,0.006530869693960998
292,00:00:01.168,0.00226476415991783
293,00:00:01.172,-0.00345752981957047
294,00:00:01.176,-0.021469455445185318
295,00:00:01.18,-0.005561146186664688
296,00:00:01.184,0.0064651594730094
297,00:00:01.188,0.005066587356850511
298,00:00:01.192,-0.005128995748236771
299,00:00:01.196,-0.011971104657277472
300,00:00:01.2,0.02332618704531344
301,00:00:01.204,-0.0158062698319554
302,00:00:01.208,0.01353105553425846
303,00:00:01.212,0.026837696786969824
304,00:00:01.216,-0.016522866746527143
305,00:00:01.22,-0.027014647901523914
306,00:00:01.224,-0.01814266061410305
307,00:00:01.228,0.025190619518980332
308,00:00:01.232,0.01415913365781309
309,00:00:01.236,0.02593982056714601
310,00:00:01.24,-0.04425400448963049
311,00:00:01.244,0.0021861986024305207
312,00:00:01.248,0.0027032445650547725
313,00:00:01.252,-0.007470156764611609
314,00:00:01.256,0.00801513786427678
315,00:00:01.26,0.01747338508721441
316,00:00:01.264,0.01482931408099826
317,00:00:01.268,-0.021536037791520333
318,00:00:01.272,-0.01729469723068173
319,00:00:01.276,-0.01344460272230208
320,00:00:01.28,4.033674485981985e-05
321,00:00:01.284,0.02660320047289129
322,00:00:01.288,0.023343775421381028
323,00:00:01.292,-0.00145394529681652
324,00:00:01.296,-0.02723817015066747
325,00:00:01.3,-0.02174846176058051
326,00:00:01.304,0.01593634323216973
327,00:00:01.308,0.01836667570751158
328,00:00:01.312,0.003143872134387521
329,00:00:01.316,-0.003751385142095381
330,00:00:01.32,-0.02196014311630275
331,00:00:01.324,-0.0068957470357418095
332,00:00:01.328,0.018819883815012876
333,00:00:01.332,0.030410977080464408
334,00:00:01.336,-0.012236321810632951
335,00:00:01.34,-0.021850477904081303
336,00:00:01.344,-0.007132517872378229
337,00:00:01.348,-0.006627061113249514
338,00:00:01.352,0.004834128078073308
339,00:00:01.356,0.01940434938296676
340,00:00:01.36,0.0016889239195734193
341,00:00:01.364,0.00766425940673798
342,00:00:01.368,-0.018532186251832165
343,00:00:01.372,-0.0034921395126730195
344,00:00:01.376,0.00576832110527903
345,00:00:01.38,0.015192693099379541
346,00:00:01.384,-0.008856352884322419
347,00:00:01.388,-0.005861522629857069
348,00:00:01.392,-0.01570411445572973
349,00:00:01.396,0.004985548381227996
350,00:00:01.4,0.0170338889583945
351,00:00:01.404,0.010042582638561729
352,00:00:01.408,0.03460704558528967
353,00:00:01.412,-0.05740690929815168
354,00:00:01.416,-0.04494197200983763
355,00:00:01.42,0.006215361529029899
356,00:00:01.424,0.037727334536612006
357,00:00:01.428,0.032000766135752194
358,00:00:01.432,0.02137614181265237
359,00:00:01.436,-0.011360197240719568
360,00:00:01.44,-0.05087284836918117
361,00:00:01.444,-0.016802695579826873
362,00:00:01.448,0.02889281138777735
363,00:00:01.452,0.037291363812983
364,00:00:01.456,-0.037245336454361705
365,00:00:01.46,-0.01636738068191336
366,00:00:01.464,0.01685331971384583
367,00:00:01.468,0.00570530979894101
368,00:00:01.472,-0.0044218992552487206
369,00:00:01.476,0.0103066872106865
370,00:00:01.48,0.021122263598954274
371,00:00:01.484,-0.031821618322283085
372,00:00:01.488,-0.020711210730951272
373,00:00:01.492,0.010595778468996252
374,00:00:01.496,0.02801848971284931
375,00:00:01.5,-0.005273906164802602
376,00:00:01.504,-0.00572211085818712
377,00:00:01.508,-0.004313788667786868
378,00:00:01.512,-0.00196189119014889
379,00:00:01.516,0.022977189626544728
380,00:00:01.52,-0.04742792341858154
381,00:00:01.524,0.0069431709125638095
382,00:00:01.528,0.03055251366458838
383,00:00:01.532,-0.009021397476317345
384,00:00:01.536,-0.0007992123719305407
385,00:00:01.54,0.01513602747581899
386,00:00:01.544,0.01309154287446294
387,00:00:01.548,-0.019180079107172822
388,00:00:01.552,-0.026542563806287903
389,00:00:01.556,-0.006642274849582421
390,00:00:01.56,-0.00843659322708845
391,00:00:01.564,0.02860435377806422
392,00:00:01.568,0.024686436576303122
393,00:00:01.572,0.021218935027718593
394,00:00:01.576,-0.020025838166475247
395,00:00:01.58,-0.04379474534653127
396,00:00:01.584,-0.01456446014344694
397,00:00:01.588,0.01783316861838102
398,00:00:01.592,0.01719378400593993
399,00:00:01.596,0.01335213147103783
400,00:00:01.6,0.013630199246108528
401,00:00:01.604,-0.020855173002928492
402,00:00:01.608,-0.0202005681348965
403,00:00:01.612,0.028772194869816203
404,00:00:01.616,0.0033011016639648044
405,00:00:01.62,-0.038531968835741365
406,00:00:01.624,0.002437326736981053
407,00:00:01.628,0.02493569115176797
408,00:00:01.632,-0.006828113750088958
409,00:00:01.636,-0.01764363888651129
410,00:00:01.64,0.028836997225880664
411,00:00:01.644,0.03104472719132897
412,00:00:01.648,-0.02525924530345943
413,00:00:01.652,-0.04874384263530371
414,00:00:01.656,0.012835993722546847
415,00:00:01.66,0.017488986486569078
416,00:00:01.664,0.01888582273386418
417,00:00:01.668,0.00010309938807041082
418,00:00:01.672,-0.014275501307565695
419,00:00:01.676,-0.012806130805984146
420,00:00:01.68,-0.00442160991951824
421,00:00:01.684,0.005421425681561228
422,00:00:01.688,0.004881317960098389
423,00:00:01.692,0.01899823965504761
424,00:00:01.696,0.00568881910294294
425,00:00:01.7,-0.01192917593289166
426,00:00:01.704,-0.04352462757378815
427,00:00:01.708,0.038553818070795345
428,00:00:01.712,0.014127816073596481
429,00:00:01.716,-0.030961716547608327
430,00:00:01.72,0.01703168777748943
431,00:00:01.724,0.027313333004713117
432,00:00:01.728,-0.026415635598823428
433,00:00:01.732,-0.0413444694131613
434,00:00:01.736,0.02045447472482922
435,00:00:01.74,0.023204692639410492
436,00:00:01.744,0.01627673674374817
437,00:00:01.748,0.0037486647106561564
438,00:00:01.752,-0.023442934965714767
439,00:00:01.756,-0.01618375116959214
440,00:00:01.76,-0.012017656117677678
441,00:00:01.764,0.002960014273412529
442,00:00:01.768,0.010318274711608007
443,00:00:01.772,0.0167153039947152
444,00:00:01.776,0.02536136296112089
445,00:00:01.78,0.0143172759562731
446,00:00:01.784,-0.034723674412816784
447,00:00:01.788,-0.04456623690202838
448,00:00:01.792,-0.0007908623665571109
449,00:00:01.796,0.030649160966277095
450,00:00:01.8,0.01110663765575737
451,00:00:01.804,0.017218464578036243
452,00:00:01.808,0.0036111844237893802
453,00:00:01.812,-0.02588855777867135
454,00:00:01.816,-0.04767113458365201
455,00:00:01.82,0.029469694010913365
456,00:00:01.824,0.03194794990122321
457,00:00:01.828,0.01878997357562185
458,00:00:01.832,-0.00969836814329029
459,00:00:01.836,-0.04996267519891267
460,00:00:01.84,-0.005485138623043902
461,00:00:01.844,0.03958544577471913
462,00:00:01.848,-0.00682425126433372
463,00:00:01.852,0.00465919729322194
464,00:00:01.856,-0.00016207015141844836
465,00:00:01.86,-0.007010753266513391
466,00:00:01.864,-0.005366569850593731
467,00:00:01.868,-0.0008966657333076
468,00:00:01.872,0.03371989313745863
469,00:00:01.876,-0.0093565674033016
470,00:00:01.88,-0.03975008334964521
471,00:00:01.884,0.005902169999899347
472,00:00:01.888,0.01956962002441287
473,00:00:01.892,-0.01518465764820576
474,00:00:01.896,0.03196372836828234
475,00:00:01.9,-0.008267597411759196
476,00:00:01.904,0.0072979887481778895
477,00:00:01.908,-0.0196183257503435
478,00:00:01.912,-0.043547520879656
479,00:00:01.916,0.01600255048833783
480,00:00:01.92,0.057233764091506614
481,00:00:01.924,-0.003923505311831834
482,00:00:01.928,0.000292069220449772
483,00:00:01.932,-0.02630457095801831
484,00:00:01.936,-0.01935941260308027
485,00:00:01.94,0.005385275930166251
486,00:00:01.944,0.00530905358027667
487,00:00:01.948,-0.00449992180801928
488,00:00:01.952,0.02928276138845835
489,00:00:01.956,0.0135935954749584
490,00:00:01.96,-0.00747395865619182
491,00:00:01.964,-0.01061421289341527
492,00:00:01.968,-0.04478785302489993
493,00:00:01.972,-0.005103969713672901
494,00:00:01.976,0.02112249564379449
495,00:00:01.98,0.04808243177831175
496,00:00:01.984,0.028280370752327165
497,00:00:01.988,-0.04871724697295576
498,00:00:01.992,-0.03193137823836871
499,00:00:01.996,-0.01593123748898506
500,00:00:02,0.03415370360016824
501,00:00:02.004,0.0454446785151959
502,00:00:02.008,-0.04450060380622746
503,00:00:02.012,-0.013183197006583219
504,00:00:02.016,0.02166735799983139
505,00:00:02.02,-0.00950335070956498
506,00:00:02.024,-0.00778237776830793
507,00:00:02.028,0.020251132955309052
508,00:00:02.032,-0.008443460799753668
509,00:00:02.036,-0.01168869039975107
510,00:00:02.04,0.02716010005678979
511,00:00:02.044,0.005616091890260579
512,00:00:02.048,-0.01126471010502428
513,00:00:02.052,-0.016855228663189295
514,00:00:02.056,0.009872388793155551
515,00:00:02.06,-0.024712178390473127
516,00:00:02.064,0.02328100940212607
517,00:00:02.068,-0.0006416959222406097
518,00:00:02.072,-0.00878281984478231
519,00:00:02.076,0.021267534233629714
520,00:00:02.08,-0.012328105163760482
521,00:00:02.084,0.011820598796475679
522,00:00:02.088,-0.0017088773311115834
523,00:00:02.092,-0.03149065398611129
524,00:00:02.096,-0.011045811930671341
525,00:00:02.1,0.0594643540680409
526,00:00:02.104,0.01602276903577148
527,00:00:02.108,-0.06043782038614155
528,00:00:02.112,-0.01399490493349734
529,00:00:02.116,0.012624890543520468
530,00:00:02.12,0.029222660697996658
531,00:00:02.124,0.019085070351138662
532,00:00:02.128,-0.02584061841480431
533,00:00:02.132,-0.006682259496301401
534,00:00:02.136,-0.0006773215718567397
535,00:00:02.14,-0.011812001932412348
536,00:00:02.144,0.02712057763710616
537,00:00:02.148,-0.02197864488698539
538,00:00:02.152,0.007967886282131072
539,00:00:02.156,0.00484889210201803
540,00:00:02.16,0.00977733964100481
541,00:00:02.164,-0.017138251103460813
542,00:00:02.168,0.0036013577509948
543,00:00:02.172,0.004438066796865321
544,00:00:02.176,-0.006011817022226754
545,00:00:02.18,-0.013338140910491379
546,00:00:02.184,0.01788568892516198
547,00:00:02.188,0.031005303142592297
548,00:00:02.192,-0.018514975381549472
549,00:00:02.196,-0.04191621392965325
550,00:00:02.2,0.00128094118554145
551,00:00:02.204,0.017663523445662577
552,00:00:02.208,-0.0006877650739624906
553,00:00:02.212,0.02447507437318571
554,00:00:02.216,0.0380681734532117
555,00:00:02.22,-0.019781985378358496
556,00:00:02.224,-0.05610564164817331
557,00:00:02.228,-0.037398708052933174
558,00:00:02.232,0.041524436790496104
559,00:00:02.236,0.037916390225291266
560,00:00:02.24,-0.0020035701454617157
561,00:00:02.244,0.0008411408343818099
562,00:00:02.248,-0.01605468883644792
563,00:00:02.252,-0.014010938117280599
564,00:00:02.256,-0.02311802515760063
565,00:00:02.26,0.034278444945812225
566,00:00:02.264,0.01883864076808095
567,00:00:02.268,0.0028033078415318907
568,00:00:02.272,-0.0073925516335293495
569,00:00:02.276,-0.00592810194939375
570,00:00:02.28,-0.0320273451507092
571,00:00:02.284,-0.0193241313099861
572,00:00:02.288,0.030269585549831307
573,00:00:02.292,0.0484067611396312
574,00:00:02.296,0.00966990506276484
575,00:00:02.3,-0.049345684354193474
576,00:00:02.304,-0.0081960242241621
577,00:00:02.308,0.010938191007881006
578,00:00:02.312,0.0017692358233034697
579,00:00:02.316,-0.03511875448748468
580,00:00:02.32,0.02992798108607535
581,00:00:02.324,0.03874676441773775
582,00:00:02.328,-0.0034635427873581618
583,00:00:02.332,-0.02965883072465657
584,00:00:02.336,-0.04460405837744466
585,00:00:02.34,0.01771966647356749
586,00:00:02.344,0.0271970801986754
587,00:00:02.348,0.02529251202940945
588,00:00:02.352,0.0027739097713492824
589,00:00:02.356,-0.021954577416181533
590,00:00:02.36,-0.015190033242106427
591,00:00:02.364,0.010236103058559836
592,00:00:02.368,-0.005963082832749932
593,00:00:02.372,-0.0047734943218528374
594,00:00:02.376,-0.009543709456920648
595,00:00:02.38,0.006062392989406387
596,00:00:02.384,0.01666699710767715
597,00:00:02.388,0.022363499738275925
598,00:00:02.392,-0.005872712354175745
599,00:00:02.396,-0.03267266624607141
600,00:00:02.4,-0.011745953466743233
601,00:00:02.404,0.02857581200078125
602,00:00:02.408,0.013861401239410077
603,00:00:02.412,-0.008367240603547543
604,00:00:02.416,-0.029142473009414947
605,00:00:02.42,-0.0019135402981192186
606,00:00:02.424,0.03723080374766139
607,00:00:02.428,0.01034435210749507
608,00:00:02.432,-0.03673845576122406
609,00:00:02.436,-0.02548428485170003
610,00:00:02.44,0.01865374227054417
611,00:00:02.444,0.02182655362412334
612,00:00:02.448,0.030539289116859446
613,00:00:02.452,-0.009510801750366227
614,00:00:02.456,-0.03412193804979325
615,00:00:02.46,-0.010599522618576891
616,00:00:02.464,0.00891242362558842
617,00:00:02.468,0.03309003217145806
618,00:00:02.472,-0.00432810629718006
619,00:00:02.476,-0.042759214527905015
620,00:00:02.48,-0.01130756549537182
621,00:00:02.484,0.029165129642933663
622,00:00:02.488,0.01654452551156283
623,00:00:02.492,-0.00643688393756747
624,00:00:02.496,0.0055615605087950895
625,00:00:02.5,-0.00293601013254374
626,00:00:02.504,0.0035127573646604997
627,00:00:02.508,0.0032717573922127416
628,00:00:02.512,-0.01940373727120463
629,00:00:02.516,-0.007348997984081454
630,00:00:02.52,-5.231262184679812e-05
631,00:00:02.524,-0.016715426929295098
632,00:00:02.528,0.03531380137428643
633,00:00:02.532,0.0293215597048402
634,00:00:02.536,-0.02012602868489921
635,00:00:02.54,-0.011427777964854608
636,00:00:02.544,-0.022018834482878474
637,00:00:02.548,0.016533372516278177
638,00:00:02.552,0.01623501349240539
639,00:00:02.556,-0.02952504996210341
640,00:00:02.56,-0.00811959570273757
641,00:00:02.564,0.029590458376333117
642,00:00:02.568,0.006736703711794689
643,00:00:02.572,0.0004263080190867194
644,00:00:02.576,-0.01222172321286052
645,00:00:02.58,-0.009915051981806701
646,00:00:02.584,0.018252559937536716
647,00:00:02.588,-0.014166668057441722
648,00:00:02.592,0.00801905390108006
649,00:00:02.596,-0.01247120788320899
650,00:00:02.6,-0.00190891767852008
651,00:00:02.604,0.01889586122706533
652,00:00:02.608,0.01687762048095464
653,00:00:02.612,-0.041597092524170896
654,00:00:02.616,-0.011997453970252531
655,00:00:02.62,0.04199711652472615
656,00:00:02.624,0.021459237206727273
657,00:00:02.628,-0.02692355168983349
658,00:00:02.632,-0.031172409653663618
659,00:00:02.636,0.021903725340962396
660,00:00:02.64,0.016115147154778242
661,00:00:02.644,-0.0157223306596279
662,00:00:02.648,-0.00950633664615452
663,00:00:02.652,-0.005700089153833689
664,00:00:02.656,0.01009078510105614
665,00:00:02.66,0.00919420807622373
666,00:00:02.664,0.005343247903510925
667,00:00:02.668,0.01096046878956258
668,00:00:02.672,0.0018691665027290591
669,00:00:02.676,-0.03414577263174587
670,00:00:02.68,0.0009106295183300898
671,00:00:02.684,0.00457613717298955
672,00:00:02.688,-0.00681192288175227
673,00:00:02.692,0.011888000648468742
674,00:00:02.696,0.025827605277299902
675,00:00:02.7,-0.010210782522335649
676,00:00:02.704,-0.00431570480577648
677,00:00:02.708,-0.014982441673055302
678,00:00:02.712,-0.021677001379430332
679,00:00:02.716,0.020598989911377392
680,00:00:02.72,0.02737331576645375
681,00:00:02.724,-0.005158737301826574
682,00:00:02.728,0.0057319400366395695
683,00:00:02.732,-0.03685580193996425
684,00:00:02.736,-0.01688933186233044
685,00:00:02.74,0.00938775605754928
686,00:00:02.744,0.0415019225329161
687,00:00:02.748,0.01369324559345845
688,00:00:02.752,-0.026364438235759784
689,00:00:02.756,-0.010624189162626864
690,00:00:02.76,-0.01362290931865572
691,00:00:02.764,0.03773139207623895
692,00:00:02.768,0.014506976469419897
693,00:00:02.772,-0.05941613460890945
694,00:00:02.776,0.003285207320004711
695,00:00:02.78,0.014602978713810411
696,00:00:02.784,-0.007931593572720884
697,00:00:02.788,0.03575258376076814
698,00:00:02.792,0.009578528581187127
699,00:00:02.796,-0.0273717762902379
700,00:00:02.8,0.00512760179117318
701,00:00:02.804,0.0014296021836344153
702,00:00:02.808,-0.037496755830943675
703,00:00:02.812,0.0029032622842351
704,00:00:02.816,0.03393579623661929
705,00:00:02.82,0.02426061313599349
706,00:00:02.824,-0.01597681734710932
707,00:00:02.828,-0.02632990432903166
708,00:00:02.832,-0.012070165626937527
709,00:00:02.836,0.02052869927138095
710,00:00:02.84,0.010495553608052382
711,00:00:02.844,0.01507657230831682
712,00:00:02.848,-0.03306930151302367
713,00:00:02.852,-0.01942138164304198
714,00:00:02.856,0.03984147981100246
715,00:00:02.86,0.00026253401301800944
716,00:00:02.864,-0.02140977513045069
717,00:00:02.868,0.020528482040390372
718,00:00:02.872,0.0058652047591749735
719,00:00:02.876,-0.03220234857872132
720,00:00:02.88,-0.010141081060282879
721,00:00:02.884,0.044574415311217364
722,00:00:02.888,-0.0031677922233939206
723,00:00:02.892,-0.0030212337151169708
724,00:00:02.896,-0.036794393556192476
725,00:00:02.9,0.015256914775818541
726,00:00:02.904,0.032723600510507815
727,00:00:02.908,-0.020597374998033
728,00:00:02.912,-0.013026390690356512
729,00:00:02.916,0.012014393694698802
730,00:00:02.92,0.0032674060203135105
731,00:00:02.924,-0.0125361932441592
732,00:00:02.928,0.010555628978181632
733,00:00:02.932,-0.00205737445503473
734,00:00:02.936,0.0013936641626059888
735,00:00:02.94,-0.01665854221209883
736,00:00:02.944,0.0225835496094078
737,00:00:02.948,0.02018103445880111
738,00:00:02.952,-0.0155489400494844
739,00:00:02.956,-0.047079852782189915
740,00:00:02.96,0.0031381509033962802
741,00:00:02.964,0.020193769363686418
742,00:00:02.968,0.04646250978112223
743,00:00:02.972,-0.01847107801586386
744,00:00:02.976,-0.03537057572975748
745,00:00:02.98,0.013943874626420442
746,00:00:02.984,0.02539392327889797
747,00:00:02.988,-0.01343837752938269
748,00:00:02.992,-0.00683490268420429
749,00:00:02.996,-0.0002778049965854743
750,00:00:03,-0.02052126289345328
751,00:00:03.004,-0.00773828430101271
752,00:00:03.008,0.03300626855343578
753,00:00:03.012,0.026402241783216658
754,00:00:03.016,-0.018363862764090313
755,00:00:03.02,-0.02618683082982895
756,00:00:03.024,0.006872109952382747
757,00:00:03.028,0.01540112216025589
758,00:00:03.032,-0.0261659747920931
759,00:00:03.036,0.009892696980386972
760,00:00:03.04,0.01732840121258049
761,00:00:03.044,0.02175898663699627
762,00:00:03.048,-0.03220426663756373
763,00:00:03.052,-0.03358907671645288
764,00:00:03.056,0.021859189495444322
765,00:00:03.06,0.022530933434609327
766,00:00:03.064,-0.0036937710829078787
767,00:00:03.068,-0.006779116811230779
768,00:00:03.072,0.0014401585794985294
769,00:00:03.076,0.013730210412177256
770,00:00:03.08,-0.008406342240050442
771,00:00:03.084,-0.0280334213748574
772,00:00:03.088,0.00390084635000676
773,00:00:03.092,0.011796748265624041
774,00:00:03.096,0.00860703876242037
775,00:00:03.1,0.01925341226160527
776,00:00:03.104,0.003241936152335257
777,00:00:03.108,-0.04024504986591637
778,00:00:03.112,-0.008052490913541988
779,00:00:03.116,0.01818957412615415
780,00:00:03.12,0.02224993775598702
781,00:00:03.124,0.00277115008793772
782,00:00:03.128,-0.024162161163985747
783,00:00:03.132,-0.02920458931475883
784,00:00:03.136,0.017129838699474945
785,00:00:03.14,0.02601554518332709
786,00:00:03.144,0.02075349213555458
787,00:00:03.148,-0.013064317870885158
788,00:00:03.152,-0.040657096542418
789,00:00:03.156,0.00756277772597969
790,00:00:03.16,-0.00976442196406424
791,00:00:03.164,0.02108514669816943
792,00:00:03.168,0.039233382791280705
793,00:00:03.172,-0.00031728437170379896
794,00:00:03.176,-0.034367959873634404
795,00:00:03.18,-0.031514627626165734
796,00:00:03.184,0.00163259590044618
797,00:00:03.188,0.032462527044117465
798,00:00:03.192,0.018447118985932365
799,00:00:03.196,-0.01449897687416524
800,00:00:03.2,-0.0073535736300982465
801,00:00:03.204,-0.0051850778982043206
802,00:00:03.208,0.0016035884327720907
803,00:00:03.212,0.0027627511844912018
804,00:00:03.216,-0.023216530360514305
805,00:00:03.22,0.009490084543358533
806,00:00:03.224,0.059998286422342034
807,00:00:03.228,0.014239845681004252
808,00:00:03.232,-0.07292835193220527
809,00:00:03.236,-0.028204197995364652
810,00:00:03.24,-0.007396492059342601
811,00:00:03.244,0.0422071572393179
812,00:00:03.248,0.02118989033624529
813,00:00:03.252,0.01756564085371795
814,00:00:03.256,-0.008487138897180599
815,00:00:03.26,-0.04079099278897052
816,00:00:03.264,0.007378367066849017
817,00:00:03.268,0.023166506784036763
818,00:00:03.272,0.0009900921140797419
819,00:00:03.276,-0.04194980906322599
820,00:00:03.28,-0.0062493213918059995
821,00:00:03.284,0.037276225164532634
822,00:00:03.288,0.025851844111457425
823,00:00:03.292,0.00361624686047435
824,00:00:03.296,-0.03097452968358995
825,00:00:03.3,-0.013273865693918228
826,00:00:03.304,-0.0080804075114429
827,00:00:03.308,0.003941648174077299
828,00:00:03.312,0.029103856533765782
829,00:00:03.316,0.004190621897578241
830,00:00:03.32,-0.030491984332911642
831,00:00:03.324,-0.01886395132169132
832,00:00:03.328,0.02111692971084269
833,00:00:03.332,0.04736186261288823
834,00:00:03.336,-0.01904672547243535
835,00:00:03.34,-0.00552564905956388
836,00:00:03.344,-0.01668968005105853
837,00:00:03.348,-0.0160886412486434
838,00:00:03.352,0.00219485932029784
839,00:00:03.356,0.003114696592092552
840,00:00:03.36,0.01270477962680161
841,00:00:03.364,0.03865417465567589
842,00:00:03.368,-0.00019425747450440949
843,00:00:03.372,-0.05168114509433503
844,00:00:03.376,-0.014660620698123246
845,00:00:03.38,0.02254881127737458
846,00:00:03.384,0.01409675728064033
847,00:00:03.388,-0.0027895381208509194
848,00:00:03.392,0.016957251355052
849,00:00:03.396,-0.010188334155827782
850,00:00:03.4,-0.033306696452200496
851,00:00:03.404,0.00984197761863465
852,00:00:03.408,0.002798615372739739
853,00:00:03.412,0.014781467674765732
854,00:00:03.416,0.016452644951641542
855,00:00:03.42,-0.01338683255016803
856,00:00:03.424,-0.00501107820309699
857,00:00:03.428,-0.022425158182159087
858,00:00:03.432,0.008774700574576851
859,00:00:03.436,0.021830050507560334
860,00:00:03.44,-0.0028614917828235806
861,00:00:03.444,0.00319071661215275
862,00:00:03.448,-0.0034053502604365297
863,00:00:03.452,-0.04079924290999768
864,00:00:03.456,0.01067928737029434
865,00:00:03.46,0.044115505181252956
866,00:00:03.464,0.010161562939174477
867,00:00:03.468,-0.011419780552387262
868,00:00:03.472,-0.0505117624998093
869,00:00:03.476,-0.00764130381867289
870,00:00:03.48,0.054651384241878896
871,00:00:03.484,0.0028956271708011697
872,00:00:03.488,-0.01102099148556589
873,00:00:03.492,0.005480276187881851
874,00:00:03.496,-0.043983323499560356
875,00:00:03.5,-0.001252722460776571
876,00:00:03.504,0.034362312406301485
877,00:00:03.508,0.029255754809128114
878,00:00:03.512,-0.015155339729972215
879,00:00:03.516,-0.022587285842746503
880,00:00:03.52,-0.010367676382884376
881,00:00:03.524,-0.0057256184518337
882,00:00:03.528,0.02905321971047673
883,00:00:03.532,0.01094977848697453
884,00:00:03.536,-0.013437265039101472
885,00:00:03.54,-0.0013720364149776333
886,00:00:03.544,-0.0003052526153624101
887,00:00:03.548,-0.034963371232152055
888,00:00:03.552,0.010594725375995076
889,00:00:03.556,0.032068773172795786
890,00:00:03.56,-0.0060496050864458075
891,00:00:03.564,0.009938688599504529
892,00:00:03.568,0.011605829466134329
893,00:00:03.572,-0.024245704524219005
894,00:00:03.576,-0.002269568154588351
895,00:00:03.58,0.002111393259838221
896,00:00:03.584,-0.04105497035197908
897,00:00:03.588,0.008917239436414086
898,00:00:03.592,0.027330645214533413
899,00:00:03.596,0.023765474557876618
900,00:00:03.6,0.019030357245355838
901,00:00:03.604,-0.028170237550511994
902,00:00:03.608,-0.03624187922105195
903,00:00:03.612,0.01639165775850415
904,00:00:03.616,0.025960196071537243
905,00:00:03.62,-0.0390248494222761
906,00:00:03.624,-0.022970822174102037
907,00:00:03.628,0.0471274880692362
908,00:00:03.632,0.03638924425467853
909,00:00:03.636,0.006043041648808891
910,00:00:03.64,-0.041728549404069816
911,00:00:03.644,-0.04735478106886144
912,00:00:03.648,0.00885122362524271
913,00:00:03.652,0.02415938582271335
914,00:00:03.656,0.02238627662882211
915,00:00:03.66,0.01452078856527806
916,00:00:03.664,0.00832710240501911
917,00:00:03.668,-0.022337532369419967
918,00:00:03.672,-0.04645168455317615
919,00:00:03.676,-0.0016641628462821184
920,00:00:03.68,0.024131071520969237
921,00:00:03.684,0.029469664208591
922,00:00:03.688,-2.18693166971198e-05
923,00:00:03.692,-0.010311987740351476
924,00:00:03.696,-0.0032778779859654523
925,00:00:03.7,-0.018604754470288722
926,00:00:03.704,0.0013772291131317685
927,00:00:03.708,0.01927398843690753
928,00:00:03.712,-0.002090649883029978
929,00:00:03.716,-0.0009652886074036707
930,00:00:03.72,-0.0019093961163889573
931,00:00:03.724,-0.006307164672762159
932,00:00:03.728,0.01710229308810086
933,00:00:03.732,-0.008688460977282384
934,00:00:03.736,-0.03529768902808427
935,00:00:03.74,0.00565366446971892
936,00:00:03.744,0.03432899620383979
937,00:00:03.748,0.02928072796203191
938,00:00:03.752,-0.02323740301653742
939,00:00:03.756,-0.025593584869056933
940,00:00:03.76,0.0212171723105712
941,00:00:03.764,-0.002015049336478121
942,00:00:03.768,-0.018655032850802
943,00:00:03.772,-0.00830290152225644
944,00:00:03.776,0.008828844875097311
945,00:00:03.78,-0.00586333475075662
946,00:00:03.784,0.013355879345908761
947,00:00:03.788,0.03785537791554814
948,00:00:03.792,-0.01507959491573275
949,00:00:03.796,-0.03749370342120528
950,00:00:03.8,-0.006637220423726831
951,00:00:03.804,0.03037289856001727
952,00:00:03.808,0.030482911039143763
953,00:00:03.812,-0.02696784026920798
954,00:00:03.816,-0.04730499535799028
955,00:00:03.82,-0.00869679055176676
956,00:00:03.824,0.0628784978762269
957,00:00:03.828,0.0075664503965526785
958,00:00:03.832,-0.0033235460869036624
959,00:00:03.836,-0.00776390021201223
960,00:00:03.84,-0.01836920669302347
961,00:00:03.844,-0.01862166263163092
962,00:00:03.848,0.01495984103530645
963,00:00:03.852,0.0038473918102681593
964,00:00:03.856,-0.01106551010161638
965,00:00:03.86,0.0217687266413122
966,00:00:03.864,0.01619296194985513
967,00:00:03.868,0.01919978763908152
968,00:00:03.872,-0.0446576802060008
969,00:00:03.876,-0.03192798793315892
970,00:00:03.88,0.00690555106848478
971,00:00:03.884,0.03963117115199561
972,00:00:03.888,0.014072307734750204
973,00:00:03.892,-0.026255882345140008
974,00:00:03.896,-0.02053998736664652
975,00:00:03.9,0.02037889813072975
976,00:00:03.904,0.019813547143712636
977,00:00:03.908,-0.011637290474027381
978,00:00:03.912,-0.016770730726420893
979,00:00:03.916,0.004051279975101358
980,00:00:03.92,-0.00781609024852514
981,00:00:03.924,0.023060125298798077
982,00:00:03.928,0.0171913574449718
983,00:00:03.932,-0.0159819982945919
984,00:00:03.936,-0.02872160961851478
985,00:00:03.94,-0.00652847369201481
986,00:00:03.944,0.01645431318320333
987,00:00:03.948,0.01705744746141136
988,00:00:03.952,-0.0008425472769886212
989,00:00:03.956,-0.01940784440375867
990,00:00:03.96,0.0227952927816659
991,00:00:03.964,0.02141163893975313
992,00:00:03.968,-0.019426419108640434
993,00:00:03.972,-0.06506438599899404
994,00:00:03.976,0.032497039530426264
995,00:00:03.98,0.041759350337088136
996,00:00:03.984,-0.0164364976808429
997,00:00:03.988,0.0022941323331906356
998,00:00:03.992,-0.01966444775462151
999,00:00:03.996,-0.010970833478495479
1000,00:00:04,0.01562870992347602
1001,00:00:04.004,0.0365313543006778
1002,00:00:04.008,0.006838838497060355
1003,00:00:04.012,-0.043752670288085896
1004,00:00:04.016,-0.03625301644206043
1005,00:00:04.02,0.031772415532031986
1006,00:00:04.024,0.03444496355950824
1007,00:00:04.028,-0.018868640705477426
1008,00:00:04.032,-0.00810765894129873
1009,00:00:04.036,0.0014717890881002001
1010,00:00:04.04,-0.005503500346094371
1011,00:00:04.044,0.002914615266490728
1012,00:00:04.048,0.02455310197547074
1013,00:00:04.052,-0.00524076912552119
1014,00:00:04.056,-0.02181480452418328
1015,00:00:04.06,-0.016205431194975993
1016,00:00:04.064,0.01833133283071224
1017,00:00:04.068,0.026108718244358908
1018,00:00:04.072,-0.010846410878002628
1019,00:00:04.076,-0.024766367510892444
1020,00:00:04.08,0.02462412510067225
1021,00:00:04.084,-0.01343206316232679
1022,00:00:04.088,-0.0077852681279182425
1023,00:00:04.092,0.002258910797536321
1024,00:00:04.096,0.007289412431418878
1025,00:00:04.1,0.002296844380907709
1026,00:00:04.104,0.014829741790890728
1027,00:00:04.108,0.010795146634336564
1028,00:00:04.112,-0.033424132969230476
1029,00:00:04.116,-0.00854650512337683
1030,00:00:04.12,0.002804299816489219
1031,00:00:04.124,0.018820611760020253
1032,00:00:04.128,0.006191954948008063
1033,00:00:04.132,-0.006205679703270983
1034,00:00:04.136,-0.01391076942672953
1035,00:00:04.14,-0.012622917536646131
1036,00:00:04.144,0.010699242353439305
1037,00:00:04.148,0.01849157093602112
1038,00:00:04.152,0.014278993941843513
1039,00:00:04.156,0.0010736591648310445
1040,00:00:04.16,-0.01726724818581716
1041,00:00:04.164,-0.02861012262292205
1042,00:00:04.168,-0.009160436689853672
1043,00:00:04.172,0.03065645648166534
1044,00:00:04.176,0.01596477534621957
1045,00:00:04.18,-0.006402750965207819
1046,00:00:04.184,-0.00902284774929282
1047,00:00:04.188,0.00799209624528884
1048,00:00:04.192,-0.0218658404191956
1049,00:00:04.196,-0.011756047082599249
1050,00:00:04.2,0.03816309699323032
1051,00:00:04.204,0.00901180598884822
1052,00:00:04.208,-0.02701090456685052
1053,00:00:04.212,-0.003154399339109661
1054,00:00:04.216,0.01002444047480821
1055,00:00:04.22,0.02062888559885321
1056,00:00:04.224,-0.006254776686546391
1057,00:00:04.228,-0.01556220487691462
1058,00:00:04.232,-0.0179914254695177
1059,00:00:04.236,-0.03240795270539812
1060,00:00:04.24,0.03220306057482959
1061,00:00:04.244,0.06173063209280366
1062,00:00:04.248,-0.003593518418597342
1063,00:00:04.252,-0.03969657607376578
1064,00:00:04.256,-0.00987798266578466
1065,00:00:04.26,-0.026562609244138002
1066,00:00:04.264,0.02868129688431508
1067,00:00:04.268,0.015913067501969608
1068,00:00:04.272,0.02256193477660422
1069,00:00:04.276,-0.027730047644581653
1070,00:00:04.28,-0.03778759436681871
1071,00:00:04.284,0.02451506070792674
1072,00:00:04.288,0.03494749544188377
1073,00:00:04.292,-0.0077833505347371205
1074,00:00:04.296,-0.01671189397166018
1075,00:00:04.3,-0.018614716595038733
1076,00:00:04.304,0.017245778173673853
1077,00:00:04.308,0.009816410136409107
1078,00:00:04.312,-0.011564730259124193
1079,00:00:04.316,0.0011612661182880384
1080,00:00:04.32,-0.014503075974062089
1081,00:00:04.324,0.02008522721007462
1082,00:00:04.328,0.0038605525624007195
1083,00:00:04.332,-0.003221413207938891
1084,00:00:04.336,-0.010614236010951574
1085,00:00:04.34,-0.005054281791672109
1086,00:00:04.344,0.01239440031349659
1087,00:00:04.348,0.020589387742802532
1088,00:00:04.352,-0.028876772965304498
1089,00:00:04.356,-0.00782921444624662
1090,00:00:04.36,0.026716004591435177
1091,00:00:04.364,0.006475059315562251
1092,00:00:04.368,-0.01543147535994653
1093,00:00:04.372,-0.03197970346082011
1094,00:00:04.376,0.0163572710007429
1095,00:00:04.38,0.00890254997648298
1096,00:00:04.384,0.00871055701281875
1097,00:00:04.388,0.00807686662301425
1098,00:00:04.392,-0.00921705100336112
1099,00:00:04.396,0.00717543414793905
1100,00:00:04.4,0.007785689551383251
1101,00:00:04.404,-0.02214904222637411
1102,00:00:04.408,-0.023820588365197203
1103,00:00:04.412,-0.004928993526846171
1104,00:00:04.416,0.03825395181775101
1105,00:00:04.42,0.028124394826591
1106,00:00:04.424,-0.030171883059665557
1107,00:00:04.428,-0.02074916812125592
1108,00:00:04.432,0.02173287607729437
1109,00:00:04.436,-0.013078830670565374
1110,00:00:04.44,-0.006427540734875899
1111,00:00:04.444,0.014052960672415791
1112,00:00:04.448,0.006771166576072579
1113,00:00:04.452,0.017893026117235394
1114,00:00:04.456,-0.00964422943070526
1115,00:00:04.46,-0.02642920613288883
1116,00:00:04.464,0.003718879248481275
1117,00:00:04.468,-0.00550202932208773
1118,00:00:04.472,0.008138140197843313
1119,00:00:04.476,-1.8776627257480194e-05
1120,00:00:04.48,0.015466374345123757
1121,00:00:04.484,0.0035196858225390306
1122,00:00:04.488,-0.016135029494762438
1123,00:00:04.492,0.005783041589893399
1124,00:00:04.496,-0.0033866181038320004
1125,00:00:04.5,-0.01614596485160289
1126,00:00:04.504,0.010950366966426369
1127,00:00:04.508,0.02384738530963659
1128,00:00:04.512,-0.00218868069350719
1129,00:00:04.516,-0.039786723034922034
1130,00:00:04.52,0.010325876064598557
1131,00:00:04.524,0.025228159298421808
1132,00:00:04.528,-0.0064864536398090405
1133,00:00:04.532,-0.01737224112730475
1134,00:00:04.536,0.019650609698146578
1135,00:00:04.54,0.007804775144904855
1136,00:00:04.544,-0.0059584074188023806
1137,00:00:04.548,-0.037977804196998484
1138,00:00:04.552,0.007276246658875604
1139,00:00:04.556,0.02103993389755484
1140,00:00:04.56,0.002841838169842957
1141,00:00:04.564,0.0026736896252259716
1142,00:00:04.568,0.01782284188084308
1143,00:00:04.572,0.008203292556572704
1144,00:00:04.576,-0.03091072686947882
1145,00:00:04.58,-0.04407505755079914
1146,00:00:04.584,0.003931947809178382
1147,00:00:04.588,0.0494345296174288
1148,00:00:04.592,0.02208829997107387
1149,00:00:04.596,-0.01408832310698927
1150,00:00:04.6,-0.02722701348830017
1151,00:00:04.604,0.01001011068001389
1152,00:00:04.608,-0.00970584433525801
1153,00:00:04.612,0.010734511073678732
1154,00:00:04.616,-0.010991211049258699
1155,00:00:04.62,-0.003454451682046051
1156,00:00:04.624,0.01246565883047874
1157,00:00:04.628,0.007353001441515518
1158,00:00:04.632,0.01160501013509929
1159,00:00:04.636,0.005907045677304301
1160,00:00:04.64,-0.02799576357938351
1161,00:00:04.644,-0.02274987869895999
1162,00:00:04.648,0.0018278697971254598
1163,00:00:04.652,0.020885974168777497
1164,00:00:04.656,0.02322648745030171
1165,00:00:04.66,-0.021752810338512098
1166,00:00:04.664,0.00764440512284636
1167,00:00:04.668,-0.01188536788686178
1168,00:00:04.672,0.005845144507475199
1169,00:00:04.676,-0.011261099250987172
1170,00:00:04.68,0.026437627617269758
1171,00:00:04.684,0.006305707007413778
1172,00:00:04.688,-0.020447335205972153
1173,00:00:04.692,-0.010571453836746528
1174,00:00:04.696,-0.011603311169892539
1175,00:00:04.7,0.020388634759001437
1176,00:00:04.704,0.007737062522210179
1177,00:00:04.708,-0.0003288553562015295
1178,00:00:04.712,-0.0015943809412419796
1179,00:00:04.716,0.00278453761711717
1180,00:00:04.72,-0.01131781062576925
1181,00:00:04.724,-0.02121295314282179
1182,00:00:04.728,0.004690516041591781
1183,00:00:04.732,0.04568290803581486
1184,00:00:04.736,0.007556793862022428
1185,00:00:04.74,-0.04351343307644131
1186,00:00:04.744,-0.01187814492732282
1187,00:00:04.748,0.00588974636048077
1188,00:00:04.752,0.00927868892904371
1189,00:00:04.756,0.03780719265341761
1190,00:00:04.76,0.006329589523375038
1191,00:00:04.764,-0.025273442268371603
1192,00:00:04.768,-0.04752238409128043
1193,00:00:04.772,0.009375316323712472
1194,00:00:04.776,0.02177278511226175
1195,00:00:04.78,-0.010675013763830062
1196,00:00:04.784,0.02427825611084696
1197,00:00:04.788,0.0083900381578133
1198,00:00:04.792,0.006918313447386032
1199,00:00:04.796,-0.01201594131998722
1200,00:00:04.8,-0.02568460302427408
1201,00:00:04.804,0.007039416115731
1202,00:00:04.808,-0.0025580022484064085
1203,00:00:04.812,0.006872091558761901
1204,00:00:04.816,0.002768776845186943
1205,00:00:04.82,-0.00161068933084607
1206,00:00:04.824,-0.008912323275580999
1207,00:00:04.828,0.0025783060118555997
1208,00:00:04.832,0.017995337722823017
1209,00:00:04.836,0.014972711680457012
1210,00:00:04.84,-0.03457083739340311
1211,00:00:04.844,0.01913849986158311
1212,00:00:04.848,-0.028932144865393698
1213,00:00:04.852,-0.005215245706494903
1214,00:00:04.856,0.02684271149337288
1215,00:00:04.86,0.0020679631270468513
1216,00:00:04.864,-0.0018819510005414408
1217,00:00:04.868,0.01817739685066049
1218,00:00:04.872,-0.01103469030931592
1219,00:00:04.876,-0.0038568207164644272
1220,00:00:04.88,-0.008394476608373221
1221,00:00:04.884,-0.019043584354221828
1222,00:00:04.888,0.02055452950298791
1223,00:00:04.892,0.004692732356488712
1224,00:00:04.896,-0.01297862199135124
1225,00:00:04.9,-0.01456221460830421
1226,00:00:04.904,0.02202496142126623
1227,00:00:04.908,0.01964776590466498
1228,00:00:04.912,-0.010003900562878705
1229,00:00:04.916,-0.002239880617707999
1230,00:00:04.92,-0.00897844252176583
1231,00:00:04.924,0.014759119600057592
1232,00:00:04.928,-0.009712438099086281
1233,00:00:04.932,-0.0164441504748538
1234,00:00:04.936,0.0052376484673005005
1235,00:00:04.94,0.004487343365326529
1236,00:00:04.944,-0.00789083726704121
1237,00:00:04.948,0.027502409648150216
1238,00:00:04.952,0.00726544891949746
1239,00:00:04.956,-0.02385401865467429
1240,00:00:04.96,-0.012700658582616603
1241,00:00:04.964,0.007526588335167618
1242,00:00:04.968,0.0005062390118837305
1243,00:00:04.972,0.01981804589740931
1244,00:00:04.976,0.001557177674840209
1245,00:00:04.98,-0.0027691829018294386
1246,00:00:04.984,-0.020085738738998778
1247,00:00:04.988,-0.037434544879943195
1248,00:00:04.992,0.02436608477728447
1249,00:00:04.996,0.04538469947874552
1250,00:00:05,0.008988624496851106
1251,00:00:05.004,-0.014197092503309298
1252,00:00:05.008,-0.027864570729434497
1253,00:00:05.012,-0.004963517421856521
1254,00:00:05.016,-0.004351155366748611
1255,00:00:05.02,-0.0072493441402911585
1256,00:00:05.024,0.02408664720132949
1257,00:00:05.028,0.0246515315957367
1258,00:00:05.032,0.01764065655879672
1259,00:00:05.036,-0.035134011413902086
1260,00:00:05.04,-0.03437176579609511
1261,00:00:05.044,-0.0013683486031368305
1262,00:00:05.048,0.0140830783639103
1263,00:00:05.052,0.03193411789834496
1264,00:00:05.056,0.0263248877599835
1265,00:00:05.06,-0.04558718879707163
1266,00:00:05.064,-0.01702009094879033
1267,00:00:05.068,-0.0030102352611720102
1268,00:00:05.072,0.029636868392117297
1269,00:00:05.076,0.017422375502064883
1270,00:00:05.08,-0.01278362574521452
1271,00:00:05.084,-0.03468873724341391
1272,00:00:05.088,-0.00456969672814012
1273,00:00:05.092,0.02770160650834437
1274,00:00:05.096,0.02309549693018197
1275,00:00:05.1,-0.002719399752095319
1276,00:00:05.104,-0.00714875455014408
1277,00:00:05.108,-0.015969648957252468
1278,00:00:05.112,-0.0164115519728512
1279,00:00:05.116,-0.01566739240661263
1280,00:00:05.12,0.030170995974913226
1281,00:00:05.124,0.0301012194249779
1282,00:00:05.128,0.00844764662906528
1283,00:00:05.132,-0.02076891053002332
1284,00:00:05.136,-0.013612867071060464
1285,00:00:05.14,-0.06379048124654221
1286,00:00:05.144,0.01404253861983307
1287,00:00:05.148,0.07813906297087671
1288,00:00:05.152,0.01757590612396598
1289,00:00:05.156,-0.0034186136508651496
1290,00:00:05.16,-0.02990244468674066
1291,00:00:05.164,-0.022432059282437012
1292,00:00:05.168,-0.033229133114218705
1293,00:00:05.172,-0.00818244850961491
1294,00:00:05.176,0.06196259148418902
1295,00:00:05.18,0.02346236957237122
1296,00:00:05.184,-0.014117978978902103
1297,00:00:05.188,-0.02672393014654516
1298,00:00:05.192,0.02297534421086315
1299,00:00:05.196,0.007418244786094918
1300,00:00:05.2,-0.048246759921312346
1301,00:00:05.204,-0.028721982147544598
1302,00:00:05.208,0.045259829610586194
1303,00:00:05.212,0.02177573274821043
1304,00:00:05.216,0.015702853910624995
1305,00:00:05.22,-0.001957834188942794
1306,00:00:05.224,-0.0156260095536709
1307,00:00:05.228,-0.002376992953941219
1308,00:00:05.232,-0.029507629456929862
1309,00:00:05.236,-0.02859415998682378
1310,00:00:05.24,0.020881746895611248
1311,00:00:05.244,0.0394509593024849
1312,00:00:05.248,0.01556069264188409
1313,00:00:05.252,-0.010302852548193193
1314,00:00:05.256,0.0115669931983575
1315,00:00:05.26,-0.02922984433826055
1316,00:00:05.264,-0.02071207811241036
1317,00:00:05.268,0.01351263734977693
1318,00:00:05.272,-0.008386040572077029
1319,00:00:05.276,0.00369957927614451
1320,00:00:05.28,0.03217214159667496
1321,00:00:05.284,0.011306676315143711
1322,00:00:05.288,-0.023791555548086728
1323,00:00:05.292,-0.028267132118344362
1324,00:00:05.296,-0.00532139791175723
1325,00:00:05.3,0.021057338453829358
1326,00:00:05.304,0.029798616189509637
1327,00:00:05.308,-0.007246126420795923
1328,00:00:05.312,-0.00688160723075271
1329,00:00:05.316,-0.021723251789808252
1330,00:00:05.32,-0.02273489953950043
1331,00:00:05.324,0.03675219230353831
1332,00:00:05.328,0.024260996608063606
1333,00:00:05.332,-0.02877016458660371
1334,00:00:05.336,0.009089336264878508
1335,00:00:05.34,-0.0014325086958706101
1336,00:00:05.344,-0.02462278935126963
1337,00:00:05.348,0.01084445137530565
1338,00:00:05.352,0.015427160775288946
1339,00:00:05.356,-0.007449458498740569
1340,00:00:05.36,-0.00911190139595418
1341,00:00:05.364,0.02645615884102886
1342,00:00:05.368,0.00914434052538126
1343,00:00:05.372,-0.02784080291166904
1344,00:00:05.376,-0.02913707937113937
1345,00:00:05.38,0.009794137673452502
1346,00:00:05.384,0.038283950183540624
1347,00:00:05.388,0.003885989106493077
1348,00:00:05.392,-0.01576241734437644
1349,00:00:05.396,-0.01285539963282642
1350,00:00:05.4,-0.015908886678516858
1351,00:00:05.404,-0.0072251886595040594
1352,00:00:05.408,0.06256380700506266
1353,00:00:05.412,-0.010445336811244491
1354,00:00:05.416,-0.0031822121236473296
1355,00:00:05.42,-0.024559265933930898
1356,00:00:05.424,-0.008962925057858218
1357,00:00:05.428,-0.00330206460785121
1358,00:00:05.432,0.0137803177349269
1359,00:00:05.436,0.011848239693790641
1360,00:00:05.44,0.0037134004887775553
1361,00:00:05.444,0.005304802441969511
1362,00:00:05.448,-0.015502162277698602
1363,00:00:05.452,0.00756340730004013
1364,00:00:05.456,-0.00626406585797668
1365,00:00:05.46,-0.041665293276309995
1366,00:00:05.464,0.02133209886960685
1367,00:00:05.468,0.03150669718161228
1368,00:00:05.472,-0.00237516965717077
1369,00:00:05.476,0.007026670908089738
1370,00:00:05.48,-0.005056131165474651
1371,00:00:05.484,-0.027230049774516395
1372,00:00:05.488,-0.0032908368157222798
1373,00:00:05.492,0.01984756824094805
1374,00:00:05.496,0.0011672312393784592
1375,00:00:05.5,-0.00616808980703355
1376,00:00:05.504,0.01778463879600167
1377,00:00:05.508,0.00665019359439606
1378,00:00:05.512,-0.02203735499642787
1379,00:00:05.516,-0.01982822921127082
1380,00:00:05.52,-0.0013180349487811396
1381,00:00:05.524,0.005321981501765549
1382,00:00:05.528,0.031853253487497575
1383,00:00:05.532,0.00928287010174244
1384,00:00:05.536,-0.006253274623304633
1385,00:00:05.54,-0.02644157316535713
1386,00:00:05.544,-0.008440068457275633
1387,00:00:05.548,0.010765473823994379
1388,00:00:05.552,0.01150388922542338
1389,00:00:05.556,0.002690591485588819
1390,00:00:05.56,-0.01652047294192015
1391,00:00:05.564,-7.575028575956908e-05
1392,00:00:05.568,0.02255927340593189
1393,00:00:05.572,-0.00637058017309754
1394,00:00:05.576,-0.021345956760342233
1395,00:00:05.58,-0.0018757730722427299
1396,00:00:05.584,-0.0036195649299770602
1397,00:00:05.588,0.04037504655934757
1398,00:00:05.592,-0.006847981247119609
1399,00:00:05.596,-0.010019226465374228
1400,00:00:05.6,-0.004904058761894739
1401,00:00:05.604,-0.0043427112977951765
1402,00:00:05.608,-0.002649499103426871
1403,00:00:05.612,0.01043222891166807
1404,00:00:05.616,0.01726965606212616
1405,00:00:05.62,-0.01647677621804182
1406,00:00:05.624,-0.03213711240096016
1407,00:00:05.628,0.009868415538221549
1408,00:00:05.632,0.012343421578407251
1409,00:00:05.636,0.038103286176919896
1410,00:00:05.64,-0.0033065925235860097
1411,00:00:05.644,-0.049910774454474394
1412,00:00:05.648,0.004693501279689379
1413,00:00:05.652,0.023357898928225103
1414,00:00:05.656,-0.013945451937615871
1415,00:00:05.66,-0.01359843468526378
1416,00:00:05.664,0.04454860463738437
1417,00:00:05.668,-0.0014777203177800372
1418,00:00:05.672,-0.03575771627947687
1419,00:00:05.676,0.0014112399658188293
1420,00:00:05.68,0.0036045718006789693
1421,00:00:05.684,0.003985840885434256
1422,00:00:05.688,0.00526276137679812
1423,00:00:05.692,0.01645257812924684
1424,00:00:05.696,-0.010711510898545381
1425,00:00:05.7,0.00531968707218767
1426,00:00:05.704,-0.00493765878491104
1427,00:00:05.708,-0.034611163195222616
1428,00:00:05.712,-0.0043358908733353105
1429,00:00:05.716,0.031618789536878425
1430,00:00:05.72,0.035943690687417956
1431,00:00:05.724,-0.01042825385229662
1432,00:00:05.728,-0.03734163846820596
1433,00:00:05.732,-0.014641601926996373
1434,00:00:05.736,0.02173938089981671
1435,00:00:05.74,0.006289100041612991
1436,00:00:05.744,0.011971437372267201
1437,00:00:05.748,-0.01171454368159175
1438,00:00:05.752,-0.010774169466458268
1439,00:00:05.756,-0.0023341968772001443
1440,00:00:05.76,0.029229379724711235
1441,00:00:05.764,-0.01329167443327606
1442,00:00:05.768,-0.0005130562931298984
1443,00:00:05.772,-0.0011358568444848303
1444,00:00:05.776,-0.013554850185755644
1445,00:00:05.78,0.006811840226873721
1446,00:00:05.784,0.02149104932323101
1447,00:00:05.788,-0.02257145894691347
1448,00:00:05.792,-0.01850478560663755
1449,00:00:05.796,0.023736712057143443
1450,00:00:05.8,0.01031874329783024
1451,00:00:05.804,0.003276305506005911
1452,00:00:05.808,-0.014118050225079103
1453,00:00:05.812,-0.01339922531042247
1454,00:00:05.816,0.0018360293470323094
1455,00:00:05.82,-0.003796338278334591
1456,00:00:05.824,0.03211151249706744
1457,00:00:05.828,0.01992404740303755
1458,00:00:05.832,-0.00908770249225199
1459,00:00:05.836,-0.0545951565727591
1460,00:00:05.84,-0.03183944150805473
1461,00:00:05.844,0.03597753308713436
1462,00:00:05.848,0.036846590694040074
1463,00:00:05.852,0.03092996007762845
1464,00:00:05.856,0.013305695611052222
1465,00:00:05.86,-0.0492097185924649
1466,00:00:05.864,-0.05198805290274321
1467,00:00:05.868,0.0008586195763200526
1468,00:00:05.872,0.042723431251943125
1469,00:00:05.876,0.014371465658769015
1470,00:00:05.88,-0.020973525242879987
1471,00:00:05.884,0.01162717374973
1472,00:00:05.888,0.018246025778353207
1473,00:00:05.892,-0.039706706535071065
1474,00:00:05.896,0.004859642009250819
1475,00:00:05.9,0.0024209624207287552
1476,00:00:05.904,0.01235661958344277
1477,00:00:05.908,0.017428651164664227
1478,00:00:05.912,-0.004485165816731751
1479,00:00:05.916,-0.029861935181543172
1480,00:00:05.92,0.004768581857206297
1481,00:00:05.924,-0.0074621243402361905
1482,00:00:05.928,0.01543075106201287
1483,00:00:05.932,0.01357545907376332
1484,00:00:05.936,0.0012242903467267682
1485,00:00:05.94,-0.021893681259825815
1486,00:00:05.944,0.00715542165562511
1487,00:00:05.948,0.014711088733747602
1488,00:00:05.952,-0.01694258116185665
1489,00:00:05.956,-0.013878290395950888
1490,00:00:05.96,-0.00118576182285323
1491,00:00:05.964,0.014165548302116845
1492,00:00:05.968,0.03295154124498366
1493,00:00:05.972,-0.01789003796875473
1494,00:00:05.976,-0.03004965046420693
1495,00:00:05.98,0.011919579468667498
1496,00:00:05.984,0.024060021154582473
1497,00:00:05.988,-0.002128280000761159
1498,00:00:05.992,-0.03123808884993197
1499,00:00:05.996,0.0028549949856824263
1500,00:00:06,0.006654033670201899
1501,00:00:06.004,0.011195261380635202
1502,00:00:06.008,0.00041809026151895
1503,00:00:06.012,0.005825375672429798
1504,00:00:06.016,-0.016242209356278178
1505,00:00:06.02,-0.01400992553681135
1506,00:00:06.024,0.009871321730315678
1507,00:00:06.028,0.028396443463861953
1508,00:00:06.032,0.004177993832854556
1509,00:00:06.036,-0.009264069609343999
1510,00:00:06.04,-0.00782857183367014
1511,00:00:06.044,-0.032656291499733946
1512,00:00:06.048,-0.0021513337269425297
1513,00:00:06.052,0.028000043472275082
1514,00:00:06.056,0.007735806982964253
1515,00:00:06.06,0.014635761268436999
1516,00:00:06.064,-0.03057697182521229
1517,00:00:06.068,0.02901976322755212
1518,00:00:06.072,-0.03571771970018749
1519,00:00:06.076,-0.0030079217394813856
1520,00:00:06.08,0.013703296892345021
1521,00:00:06.084,0.018447638023644658
1522,00:00:06.088,-0.00585847254842519
1523,00:00:06.092,0.01288397237658502
1524,00:00:06.096,-0.018689514370635138
1525,00:00:06.1,-0.01920740609057249
1526,00:00:06.104,-0.0002972322981804592
1527,00:00:06.108,0.014295524932094848
1528,00:00:06.112,0.02556584519334135
1529,00:00:06.116,0.003426975104957808
1530,00:00:06.12,-0.030918260570615533
1531,00:00:06.124,-0.03284125030040745
1532,00:00:06.128,0.013897191252908666
1533,00:00:06.132,0.03109805588610471
1534,00:00:06.136,0.03101094206795098
1535,00:00:06.14,-0.015919057652354268
1536,00:00:06.144,-0.04023651918396353
1537,00:00:06.148,0.012735557509586215
1538,00:00:06.152,-0.0014517307281494197
1539,00:00:06.156,0.004381301006105787
1540,00:00:06.16,-0.00837666308507323
1541,00:00:06.164,0.009322987112682266
1542,00:00:06.168,0.023613991274032707
1543,00:00:06.172,-0.0029164723819121796
1544,00:00:06.176,-0.016158916987478747
1545,00:00:06.18,-0.0312372543849051
1546,00:00:06.184,-0.002252406440675263
1547,00:00:06.188,0.04481073340866715
1548,00:00:06.192,0.02173057384788992
1549,00:00:06.196,-0.027364881010726053
1550,00:00:06.2,-0.0233547985553741
1551,00:00:06.204,-0.0091710218694061
1552,00:00:06.208,0.037319822935387506
1553,00:00:06.212,0.00601419620215893
1554,00:00:06.216,-0.03768248949199919
1555,00:00:06.22,-0.012190155044663697
1556,00:00:06.224,0.04214848927222198
1557,00:00:06.228,-0.0003674733452498618
1558,00:00:06.232,0.01045287394663319
1559,00:00:06.236,-0.007676882727537304
1560,00:00:06.24,-0.03043601289391517
1561,00:00:06.244,0.0015369309112429567
1562,00:00:06.248,0.01238189567811787
1563,00:00:06.252,0.010107758222147819
1564,00:00:06.256,-0.009344405960291598
1565,00:00:06.26,0.00909238774329421
1566,00:00:06.264,-0.0077052667038515175
1567,00:00:06.268,-0.01003539445810022
1568,00:00:06.272,-0.004247616510838271
1569,00:00:06.276,0.008783388882875411
1570,00:00:06.28,0.02520493185147644
1571,00:00:06.284,-0.0018377605301793652
1572,00:00:06.288,-0.01161804096773271
1573,00:00:06.292,0.0043785104062408105
1574,00:00:06.296,-0.01382990065030754
1575,00:00:06.3,-0.009953541011782335
1576,00:00:06.304,-0.02317375829443333
1577,00:00:06.308,0.01551170670245483
1578,00:00:06.312,0.05188204164733182
1579,00:00:06.316,0.004838234744966029
1580,00:00:06.32,-0.03724399767816071
1581,00:00:06.324,-0.013436935376375933
1582,00:00:06.328,0.01934305694885552
1583,00:00:06.332,0.0034551821590866894
1584,00:00:06.336,-0.0009449911303818204
1585,00:00:06.34,-0.02875929279252891
1586,00:00:06.344,-0.0030432770436164005
1587,00:00:06.348,0.028934003785252523
1588,00:00:06.352,0.0175859899027273
1589,00:00:06.356,-0.0096339798765257
1590,00:00:06.36,-0.010401938867289573
1591,00:00:06.364,0.00015904055908323028
1592,00:00:06.368,-0.013203407172113631
1593,00:00:06.372,0.00315504241734743
1594,00:00:06.376,0.005289656110107899
1595,00:00:06.38,-0.0011758650653064208
1596,00:00:06.384,0.02942025847733023
1597,00:00:06.388,-0.01480203820392489
1598,00:00:06.392,-0.01762208368745637
1599,00:00:06.396,0.01018806168576702
1600,00:00:06.4,-0.011949230916798118
1601,00:00:06.404,-0.009412894491106282
1602,00:00:06.408,0.010942854394670578
1603,00:00:06.412,0.0062271149363368715
1604,00:00:06.416,0.01794635679107155
1605,00:00:06.42,0.001881360774859779
1606,00:00:06.424,-0.013313513038156113
1607,00:00:06.428,0.0032433597552880685
1608,00:00:06.432,-0.009166635543806444
1609,00:00:06.436,-0.025036331964656683
1610,00:00:06.44,-0.001049531158059839
1611,00:00:06.444,0.01975603494793177
1612,00:00:06.448,0.019867255818098742
1613,00:00:06.452,0.004709432600066067
1614,00:00:06.456,0.0011063453275710414
1615,00:00:06.46,-0.010070326039567588
1616,00:00:06.464,-0.02990006402251311
1617,00:00:06.468,0.02397070918232199
1618,00:00:06.472,0.00896312342956662
1619,00:00:06.476,-0.006342234381008898
1620,00:00:06.48,-0.03794335108250383
1621,00:00:06.484,0.039527913089841576
1622,00:00:06.488,0.0014807973057031597
1623,00:00:06.492,-0.01351496006827801
1624,00:00:06.496,0.007589123735670011
1625,00:00:06.5,-0.009276405442506077
1626,00:00:06.504,0.006069798953831202
1627,00:00:06.508,0.018554172944277532
1628,00:00:06.512,-0.00633992720395327
1629,00:00:06.516,-0.01835512975230812
1630,00:00:06.52,0.006478504161350429
1631,00:00:06.524,-0.02052470832131801
1632,00:00:06.528,0.007226409856230029
1633,00:00:06.532,0.02687823679298162
1634,00:00:06.536,-0.008377180900424719
1635,00:00:06.54,0.00811817275825884
1636,00:00:06.544,-0.012211953755468132
1637,00:00:06.548,0.010136792727280405
1638,00:00:06.552,-0.01986546488478783
1639,00:00:06.556,-0.007712849648669321
1640,00:00:06.56,0.0074948989786207485
1641,00:00:06.564,0.018906916258856692
1642,00:00:06.568,0.0048996503464877605
1643,00:00:06.572,-0.01790612610056998
1644,00:00:06.576,0.00546770797882345
1645,00:00:06.58,0.00400768150575459
1646,00:00:06.584,-0.00406201207078994
1647,00:00:06.588,-0.0069900716189295106
1648,00:00:06.592,-0.014800193370319948
1649,00:00:06.596,0.030746057163924
1650,00:00:06.6,-0.02471190784126519
1651,00:00:06.604,0.01909427437931298
1652,00:00:06.608,0.02552552474662662
1653,00:00:06.612,-0.01664435397833586
1654,00:00:06.616,-0.03592741396278143
1655,00:00:06.62,-0.01302567985840142
1656,00:00:06.624,0.0438622357323766
1657,00:00:06.628,0.011114531691418957
1658,00:00:06.632,-0.011584257823415104
1659,00:00:06.636,-0.02892272220924501
1660,00:00:06.64,0.006526805460453032
1661,00:00:06.644,0.020823117345571532
1662,00:00:06.648,0.00537656049709767
1663,00:00:06.652,-0.008044103160500499
1664,00:00:06.656,-0.010946587397484102
1665,00:00:06.66,0.00838787388056516
1666,00:00:06.664,0.0012800097465515189
1667,00:00:06.668,0.00042530405335129
1668,00:00:06.672,0.00859392946586013
1669,00:00:06.676,-0.00404034554958344
1670,00:00:06.68,-0.026015961018856688
1671,00:00:06.684,-0.0038930231239646205
1672,00:00:06.688,0.01696637365967038
1673,00:00:06.692,0.0034180362708866787
1674,00:00:06.696,-0.0072609537746757295
1675,00:00:06.7,0.044513714965432855
1676,00:00:06.704,0.02403964055702086
1677,00:00:06.708,-0.06585853919386865
1678,00:00:06.712,-0.04168151353951549
1679,00:00:06.716,-0.0030294056050479403
1680,00:00:06.72,0.03870066348463304
1681,00:00:06.724,0.01939717715140429
1682,00:00:06.728,0.02139179361984134
1683,00:00:06.732,0.01178812608122825
1684,00:00:06.736,-0.04253540746867652
1685,00:00:06.74,0.0008289220277220809
1686,00:00:06.744,-0.019419096992351087
1687,00:00:06.748,0.01934752520173781
1688,00:00:06.752,0.01729768700897694
1689,00:00:06.756,-0.013429153244942428
1690,00:00:06.76,-0.02091364655643698
1691,00:00:06.764,0.0011840410879813148
1692,00:00:06.768,0.01155232102610171
1693,00:00:06.772,0.027645454974845086
1694,00:00:06.776,-0.023241124115884276
1695,00:00:06.78,-0.0024581658653914998
1696,00:00:06.784,-0.00231804838404057
1697,00:00:06.788,0.02984847594052552
1698,00:00:06.792,-0.012331780046224558
1699,00:00:06.796,0.00130630331113934
1700,00:00:06.8,-0.042286113835871206
1701,00:00:06.804,-0.002966504544019699
1702,00:00:06.808,0.02255685138516128
1703,00:00:06.812,0.02048642607405784
1704,00:00:06.816,0.009893898153677591
1705,00:00:06.82,0.0005750209093093889
1706,00:00:06.824,-0.012288593687117063
1707,00:00:06.828,-0.00873256335034966
1708,00:00:06.832,-0.004410820663906641
1709,00:00:06.836,-0.01302129938267172
1710,00:00:06.84,-0.0009299352095695239
1711,00:00:06.844,0.011473156540887427
1712,00:00:06.848,0.0052278325892984815
1713,00:00:06.852,0.019625526620075103
1714,00:00:06.856,0.00230775505769998
1715,00:00:06.86,-0.02053602901287377
1716,00:00:06.864,-0.023345778696238967
1717,00:00:06.868,0.012056545820087201
1718,00:00:06.872,0.02848881494719538
1719,00:00:06.876,0.016436738194897757
1720,00:00:06.88,-0.029127227127901265
1721,00:00:06.884,-0.03394558437867091
1722,00:00:06.888,-0.0026269595691701415
1723,00:00:06.892,0.0446394141763449
1724,00:00:06.896,0.005051820073276755
1725,00:00:06.9,-0.02793797454796727
1726,00:00:06.904,0.006105246808147078
1727,00:00:06.908,0.0225964998826384
1728,00:00:06.912,-0.004089257679879671
1729,00:00:06.916,-0.01870486419647932
1730,00:00:06.92,-0.00560383219271894
1731,00:00:06.924,-0.01018877234309912
1732,00:00:06.928,0.012717510297079612
1733,00:00:06.932,0.022136627463623857
1734,00:00:06.936,0.0063843228854239
1735,00:00:06.94,-0.024704076349735253
1736,00:00:06.944,0.013481290196068571
1737,00:00:06.948,-0.01613931264728304
1738,00:00:06.952,-0.007482968037947988
1739,00:00:06.956,0.01366797462105748
1740,00:00:06.96,-0.007912097033113241
1741,00:00:06.964,0.01923886335134741
1742,00:00:06.968,-0.013218728592619338
1743,00:00:06.972,0.00422648817766454
1744,00:00:06.976,0.015886232256889322
1745,00:00:06.98,-0.0358621990308165
1746,00:00:06.984,0.00404185999650508
1747,00:00:06.988,0.02185411006212232
1748,00:00:06.992,-0.01151234004646539
1749,00:00:06.996,0.016704764217138318
1750,00:00:07,-0.008966904460976359
1751,00:00:07.004,-0.011201119574252509
1752,00:00:07.008,0.01023300853557881
1753,00:00:07.012,0.015769306686706865
1754,00:00:07.016,-0.02111381641589109
1755,00:00:07.02,-0.02544739539735027
1756,00:00:07.024,0.018509656190872175
1757,00:00:07.028,0.0080650884192437
1758,00:00:07.032,0.01719338865950704
1759,00:00:07.036,0.00498583423905075
1760,00:00:07.04,-0.02380783692933621
1761,00:00:07.044,-0.031029456527903735
1762,00:00:07.048,0.02966837165877223
1763,00:00:07.052,0.01768199214711786
1764,00:00:07.056,-0.00012691540177911173
1765,00:00:07.06,0.0027764090336859
1766,00:00:07.064,-0.017363199964165698
1767,00:00:07.068,-0.007819665595889098
1768,00:00:07.072,-0.0005314023292157834
1769,00:00:07.076,-0.0068649777676910405
1770,00:00:07.08,-0.0023850185098126483
1771,00:00:07.084,0.03120584867428988
1772,00:00:07.088,0.011118642054498199
1773,00:00:07.092,-0.016979248728603152
1774,00:00:07.096,-0.007694015730521642
1775,00:00:07.1,-0.011034484487026909
1776,00:00:07.104,0.01833399035967886
1777,00:00:07.108,0.00635120738297701
1778,00:00:07.112,-0.009696153400000152
1779,00:00:07.116,-0.02198817767202853
1780,00:00:07.12,-0.01632391172461212
1781,00:00:07.124,0.03807652293471614
1782,00:00:07.128,0.042314556892961326
1783,00:00:07.132,-0.020314073190093058
1784,00:00:07.136,-0.03778473613783712
1785,00:00:07.14,-0.03264703508466489
1786,00:00:07.144,0.031069528311491033
1787,00:00:07.148,0.02838145475834606
1788,00:00:07.152,0.036390249617397744
1789,00:00:07.156,-0.036304682609625175
1790,00:00:07.16,-0.042318431136663996
1791,00:00:07.164,-0.001310855732299386
1792,00:00:07.168,0.02337618230376389
1793,00:00:07.172,0.01989118149504064
1794,00:00:07.176,-0.008140966601786204
1795,00:00:07.18,-0.0037114350125193613
1796,00:00:07.184,-0.0029566837474703806
1797,00:00:07.188,0.03122993046417832
1798,00:00:07.192,-0.019597916863858682
1799,00:00:07.196,-0.04344175965525213
1800,00:00:07.2,-0.00315647711977359
1801,00:00:07.204,0.041643450036644956
1802,00:00:07.208,0.02649340848438437
1803,00:00:07.212,-0.017102881800383333
1804,00:00:07.216,-0.01138966949656606
1805,00:00:07.22,-0.028479334432631797
1806,00:00:07.224,0.001815813593566449
1807,00:00:07.228,0.030830701813101796
1808,00:00:07.232,0.02657086588442322
1809,00:00:07.236,-0.011715431464835958
1810,00:00:07.24,-0.028293808340095008
1811,00:00:07.244,-0.02172506134957075
1812,00:00:07.248,0.0011714713182300286
1813,00:00:07.252,0.017665473744273196
1814,00:00:07.256,0.029058580286800827
1815,00:00:07.26,-0.014902348164469009
1816,00:00:07.264,0.0022746378308511382
1817,00:00:07.268,-0.0035293747205287097
1818,00:00:07.272,0.008382662432268258
1819,00:00:07.276,-0.007874784525483857
1820,00:00:07.28,-0.02840344887226815
1821,00:00:07.284,0.01108880341053009
1822,00:00:07.288,0.02001899667084219
1823,00:00:07.292,0.007699694717302929
1824,00:00:07.296,-0.01698529603891074
1825,00:00:07.3,-0.0036336027551442302
1826,00:00:07.304,-0.010135381948202862
1827,00:00:07.308,0.01106699276715521
1828,00:00:07.312,0.03657877654768526
1829,00:00:07.316,0.00557730370201171
1830,00:00:07.32,-0.0750127816572785
1831,00:00:07.324,0.00023686373606326971
1832,00:00:07.328,0.03440085146576172
1833,00:00:07.332,0.02720909263007338
1834,00:00:07.336,-0.007939859118778266
1835,00:00:07.34,-0.01043095439672475
1836,00:00:07.344,-0.002438320167129859
1837,00:00:07.348,-0.024639356881380095
1838,00:00:07.352,0.00917705683968962
1839,00:00:07.356,0.005522529972949997
1840,00:00:07.36,0.01696801139041785
1841,00:00:07.364,0.020480439998209508
1842,00:00:07.368,-0.0339297447353602
1843,00:00:07.372,-0.03239946346729989
1844,00:00:07.376,0.03689991822466259
1845,00:00:07.38,0.012603511568158848
1846,00:00:07.384,-0.00490568042732775
1847,00:00:07.388,-0.00842650048434738
1848,00:00:07.392,-0.01775356580037624
1849,00:00:07.396,0.006867933785542799
1850,00:00:07.4,0.03459191706497225
1851,00:00:07.404,-0.006467342725954939
1852,00:00:07.408,-0.03395876614376899
1853,00:00:07.412,-0.004502642899751659
1854,00:00:07.416,0.01256948721129448
1855,00:00:07.42,0.029078902909532186
1856,00:00:07.424,-0.014531054301187401
1857,00:00:07.428,-0.01684861024841671
1858,00:00:07.432,0.005044701276347039
1859,00:00:07.436,-0.01534933996299511
1860,00:00:07.44,0.02895308285951607
1861,00:00:07.444,0.02731840009801092
1862,00:00:07.448,-0.007964946329593669
1863,00:00:07.452,-0.01704537484329192
1864,00:00:07.456,-0.04627487203106288
1865,00:00:07.46,-0.01717862673103809
1866,00:00:07.464,0.02737273040111175
1867,00:00:07.468,0.04336785059422252
1868,00:00:07.472,0.016541589982807643
1869,00:00:07.476,-0.0015531654935330205
1870,00:00:07.48,-0.040683318657102036
1871,00:00:07.484,-0.025499879848212004
1872,00:00:07.488,0.02760578552260997
1873,00:00:07.492,0.02621797355823218
1874,00:00:07.496,-0.0034309754846617636
1875,00:00:07.5,-0.02205504849553113
1876,00:00:07.504,0.007081432202539867
1877,00:00:07.508,-0.01328408857807516
1878,00:00:07.512,-0.01139134366530926
1879,00:00:07.516,0.01165327471289856
1880,00:00:07.52,0.021069753449410193
1881,00:00:07.524,0.004153659683652238
1882,00:00:07.528,0.0010781717719510195
1883,00:00:07.532,-0.021627021953463558
1884,00:00:07.536,-0.002219556365162141
1885,00:00:07.54,-0.005933139938861131
1886,00:00:07.544,0.01846209136419932
1887,00:00:07.548,0.014568160637281835
1888,00:00:07.552,-0.01266348222270606
1889,00:00:07.556,-0.012635125778615468
1890,00:00:07.56,0.008485083933919668
1891,00:00:07.564,-0.00023568343021906948
1892,00:00:07.568,-0.011874491814523911
1893,00:00:07.572,-0.01558670075610284
1894,00:00:07.576,0.01355017954483625
1895,00:00:07.58,0.026445642713952125
1896,00:00:07.584,-0.004251002741511907
1897,00:00:07.588,0.019588911382015784
1898,00:00:07.592,-0.018243882805108996
1899,00:00:07.596,-0.00968127278611064
1900,00:00:07.6,-0.0139342043548822
1901,00:00:07.604,-0.006808351725339904
1902,00:00:07.608,-0.0017581435386091497
1903,00:00:07.612,0.03667435211173144
1904,00:00:07.616,-0.028919578297063715
1905,00:00:07.62,-0.017247794079594314
1906,00:00:07.624,0.042708809953182936
1907,00:00:07.628,0.050278515554964605
1908,00:00:07.632,-0.006115228374255817
1909,00:00:07.636,-0.07774349891860766
1910,00:00:07.64,-0.04784549574833361
1911,00:00:07.644,0.015092858579009761
1912,00:00:07.648,0.056937143090181025
1913,00:00:07.652,0.030496337451040773
1914,00:00:07.656,-0.009757427731528887
1915,00:00:07.66,-0.01075874315574766
1916,00:00:07.664,0.00191806827206165
1917,00:00:07.668,-0.025270161218941184
1918,00:00:07.672,0.0019200297538191106
1919,00:00:07.676,-0.008880706620402634
1920,00:00:07.68,0.005990503559587522
1921,00:00:07.684,0.016850937623530585
1922,00:00:07.688,-0.012778218602761649
1923,00:00:07.692,0.03375295083969827
1924,00:00:07.696,-0.0007946437690407094
1925,00:00:07.7,-0.04279810714069753
1926,00:00:07.704,1.0281335562459335e-05
1927,00:00:07.708,0.00735466985497623
1928,00:00:07.712,0.025255400454625467
1929,00:00:07.716,0.008542780764400999
1930,00:00:07.72,-0.04402061412110917
1931,00:00:07.724,-0.004082011815626186
1932,00:00:07.728,0.028330595232546288
1933,00:00:07.732,-0.001154671655967829
1934,00:00:07.736,0.00410468736663461
1935,00:00:07.74,-0.010352187207899991
1936,00:00:07.744,-0.0064142376650124806
1937,00:00:07.748,0.01759445783682167
1938,00:00:07.752,0.003925319062545897
1939,00:00:07.756,-0.015565512469038322
1940,00:00:07.76,0.0004066852852702002
1941,00:00:07.764,0.0011949470499530374
1942,00:00:07.768,0.01598786818794906
1943,00:00:07.772,-0.006523302290588619
1944,00:00:07.776,-0.029472426977008533
1945,00:00:07.78,-0.009019312623422596
1946,00:00:07.784,0.0452036382630468
1947,00:00:07.788,0.006049713414540751
1948,00:00:07.792,-0.00346281449310482
1949,00:00:07.796,-0.00866382149979472
1950,00:00:07.8,-0.02711853664368389
1951,00:00:07.804,-0.01196194876683871
1952,00:00:07.808,0.02534814272075893
1953,00:00:07.812,0.0497250277549028
1954,00:00:07.816,-0.025345947360619885
1955,00:00:07.82,-0.03075848333537584
1956,00:00:07.824,-0.020194547483697527
1957,00:00:07.828,0.02004131395369765
1958,00:00:07.832,0.02015342237427831
1959,00:00:07.836,0.0071500991471112095
1960,00:00:07.84,-0.018662158574443304
1961,00:00:07.844,-0.0009025948820635659
1962,00:00:07.848,0.016781514976173674
1963,00:00:07.852,-0.0023395712487398815
1964,00:00:07.856,-0.019418643089011298
1965,00:00:07.86,0.002690681256353838
1966,00:00:07.864,-0.00012785836588591034
1967,00:00:07.868,0.00273016979917884
1968,00:00:07.872,-0.004040148109197639
1969,00:00:07.876,0.02152969990856944
1970,00:00:07.88,-0.0002748304978012709
1971,00:00:07.884,-0.010524260811507698
1972,00:00:07.888,-0.02443175669759504
1973,00:00:07.892,0.026485080830752822
1974,00:00:07.896,0.00802035653032363
1975,00:00:07.9,-0.006490149040473628
1976,00:00:07.904,-0.01242910907603804
1977,00:00:07.908,0.007963633688632432
1978,00:00:07.912,-0.00636967644095426
1979,00:00:07.916,0.00700605497695506
1980,00:00:07.92,0.0007380069000646472
1981,00:00:07.924,-0.01534868904855098
1982,00:00:07.928,0.0046578508336097
1983,00:00:07.932,0.00632830103859305
1984,00:00:07.936,-0.0035709540534298815
1985,00:00:07.94,0.011604876257479229
1986,00:00:07.944,0.007701331400312479
1987,00:00:07.948,-0.013377260416746195
1988,00:00:07.952,0.0074040498002432295
1989,00:00:07.956,-0.02004702130216173
1990,00:00:07.96,-0.00806007604114711
1991,00:00:07.964,0.00928483251482248
1992,00:00:07.968,0.03588539641350507
1993,00:00:07.972,0.019527595490217223
1994,00:00:07.976,-0.050979280844330815
1995,00:00:07.98,-0.03050461877137425
1996,00:00:07.984,0.01082446426153183
1997,00:00:07.988,0.0255172129254788
1998,00:00:07.992,0.006874819591757838
1999,00:00:07.996,0.004480832663830363
2000,00:00:08,0.004677986260503527
2001,00:00:08.004,-0.0008029190357774567
2002,00:00:08.008,-0.00973562290892005
2003,00:00:08.012,-0.044454313348978786
2004,00:00:08.016,0.00658211763948202
2005,00:00:08.02,0.042179129784926724
2006,00:00:08.024,0.02001802879385648
2007,00:00:08.028,-0.01944886322598908
2008,00:00:08.032,-0.00720793235814199
2009,00:00:08.036,0.00833109696395695
2010,00:00:08.04,-0.024876754672732128
2011,00:00:08.044,-0.0008795110043138203
2012,00:00:08.048,0.0037408559583127204
2013,00:00:08.052,0.009478807245614004
2014,00:00:08.056,0.010962551168631804
2015,00:00:08.06,-0.03347508655861028
2016,00:00:08.064,0.04893726762384176
2017,00:00:08.068,0.005239539430476719
2018,00:00:08.072,-0.015700802206993148
2019,00:00:08.076,-0.04062865555169986
2020,00:00:08.08,-0.02343801106326278
2021,00:00:08.084,0.02422299003228549
2022,00:00:08.088,0.05683671683073046
2023,00:00:08.092,0.0297607420943677
2024,00:00:08.096,-0.03828616836108267
2025,00:00:08.1,-0.0442135441116989
2026,00:00:08.104,-0.027083772467449266
2027,00:00:08.108,0.014911646052496515
2028,00:00:08.112,0.04464721120893955
2029,00:00:08.116,-0.0011970091145485596
2030,00:00:08.12,0.007355194538831709
2031,00:00:08.124,-0.005804890766739849
2032,00:00:08.128,-0.01772270770743494
2033,00:00:08.132,0.007286021485924719
2034,00:00:08.136,0.0026157442480325708
2035,00:00:08.14,0.0058213627198710795
2036,00:00:08.144,-0.02014683652669192
2037,00:00:08.148,-0.007311769295483809
2038,00:00:08.152,-0.004797511268407098
2039,00:00:08.156,0.04107954259961836
2040,00:00:08.16,0.0006565088406205385
2041,00:00:08.164,-0.029362935340031992
2042,00:00:08.168,0.01500936085358262
2043,00:00:08.172,0.007277332362718879
2044,00:00:08.176,-0.03372258367016907
2045,00:00:08.18,0.00993385724723339
2046,00:00:08.184,0.021826691983733285
2047,00:00:08.188,-0.0071578733623027906
2048,00:00:08.192,0.011321299243718358
2049,00:00:08.196,-0.02466011804062877
2050,00:00:08.2,-0.00718753342516722
2051,00:00:08.204,0.025966079672798504
2052,00:00:08.208,0.00620100623928011
2053,00:00:08.212,0.014396101119928058
2054,00:00:08.216,-0.0457756426185369
2055,00:00:08.22,-0.01505945157259702
2056,00:00:08.224,0.01824159594252705
2057,00:00:08.228,0.01908677304163573
2058,00:00:08.232,-0.008558330126106779
2059,00:00:08.236,0.011314348259475087
2060,00:00:08.24,0.003728114068508164
2061,00:00:08.244,-0.007881234050728405
2062,00:00:08.248,0.0077272973721847025
2063,00:00:08.252,0.002710326865781104
2064,00:00:08.256,-0.02986818063072862
2065,00:00:08.26,-0.0030436619417741795
2066,00:00:08.264,0.0021363603882491606
2067,00:00:08.268,0.004936944445944396
2068,00:00:08.272,0.02226013457402589
2069,00:00:08.276,0.01781932311132544
2070,00:00:08.28,-0.03205254115164277
2071,00:00:08.284,-0.027738244272768508
2072,00:00:08.288,0.0319083761423826
2073,00:00:08.292,0.03712871111929418
2074,00:00:08.296,-0.01887895818799736
2075,00:00:08.3,-0.036920113954693023
2076,00:00:08.304,0.0026753115234896497
2077,00:00:08.308,0.003999527194537225
2078,00:00:08.312,0.0038486194098368317
2079,00:00:08.316,0.0012448170455172814
2080,00:00:08.32,0.0023902105167507804
2081,00:00:08.324,0.01546696224249895
2082,00:00:08.328,0.0049138181966554804
2083,00:00:08.332,-0.02916979091241961
2084,00:00:08.336,0.009410728700459
2085,00:00:08.34,0.01461184583604336
2086,00:00:08.344,-0.00879660248756409
2087,00:00:08.348,0.00156188267283142
2088,00:00:08.352,-0.02022422797745092
2089,00:00:08.356,0.01954152621328833
2090,00:00:08.36,-0.011676436290144943
2091,00:00:08.364,0.017470923950895667
2092,00:00:08.368,-0.022315598558634492
2093,00:00:08.372,0.00796344736590982
2094,00:00:08.376,0.02072584931738676
2095,00:00:08.38,-0.01065545761957765
2096,00:00:08.384,-0.021768789738416706
2097,00:00:08.388,0.01511145406402648
2098,00:00:08.392,0.01846562349237502
2099,00:00:08.396,-0.009788385126739744
2100,00:00:08.4,-0.026915186084806884
2101,00:00:08.404,0.018944912590086443
2102,00:00:08.408,0.007711759652011094
2103,00:00:08.412,-0.005653838161379101
2104,00:00:08.416,-0.011568794026970898
2105,00:00:08.42,-0.007669211830943823
2106,00:00:08.424,0.01468884572386741
2107,00:00:08.428,0.025527317309752093
2108,00:00:08.432,-0.0020745662477565886
2109,00:00:08.436,-0.01800455478951334
2110,00:00:08.44,-0.00671705463901166
2111,00:00:08.444,-0.010492689849343146
2112,00:00:08.448,0.004049038514494899
2113,00:00:08.452,-0.0043264444684609875
2114,00:00:08.456,0.030325157800689284
2115,00:00:08.46,-9.197648614643963e-05
2116,00:00:08.464,-0.012216273811645811
2117,00:00:08.468,-0.0005570263601839594
2118,00:00:08.472,-0.02007049485109745
2119,00:00:08.476,0.01886796951293947
2120,00:00:08.48,0.00621089665219182
2121,00:00:08.484,-0.012749638874083754
2122,00:00:08.488,-0.00977058522403244
2123,00:00:08.492,0.00584319035988301
2124,00:00:08.496,0.02954970521386709
2125,00:00:08.5,0.006437510717660189
2126,00:00:08.504,-0.01877287926618013
2127,00:00:08.508,-0.025883571681333716
2128,00:00:08.512,-0.011070978711359205
2129,00:00:08.516,0.02813992882147427
2130,00:00:08.52,0.012508803745731708
2131,00:00:08.524,-0.006549397949129329
2132,00:00:08.528,0.00570337031967939
2133,00:00:08.532,-0.024143033195286927
2134,00:00:08.536,0.00177020346745849
2135,00:00:08.54,0.0285079879686236
2136,00:00:08.544,-0.006021814420819279
2137,00:00:08.548,-0.014609253499656957
2138,00:00:08.552,-0.015443960204720537
2139,00:00:08.556,0.02001860435120764
2140,00:00:08.56,0.011069626547396202
2141,00:00:08.564,-0.01190054800827057
2142,00:00:08.568,-0.018764755688607672
2143,00:00:08.572,0.03932460397481926
2144,00:00:08.576,-0.02020293776877224
2145,00:00:08.58,-0.008606859129940858
2146,00:00:08.584,-0.0011509414762258148
2147,00:00:08.588,0.01326632822747341
2148,00:00:08.592,-0.0038404660299420496
2149,00:00:08.596,0.009447889809962359
2150,00:00:08.6,-0.006633391109062356
2151,00:00:08.604,0.00162339186499594
2152,00:00:08.608,-0.01599906472256403
2153,00:00:08.612,0.01384937972761691
2154,00:00:08.616,-0.00021807287703268707
2155,00:00:08.62,-0.01792856969404966
2156,00:00:08.624,-0.002622271422296771
2157,00:00:08.628,0.025654811834101527
2158,00:00:08.632,0.02677529677748677
2159,00:00:08.636,-0.017004563473165084
2160,00:00:08.64,-0.013909052126109621
2161,00:00:08.644,-0.014888908190187051
2162,00:00:08.648,-0.021711714798584608
2163,00:00:08.652,0.013744003372266882
2164,00:00:08.656,0.02095931256189939
2165,00:00:08.66,0.00881924852728843
2166,00:00:08.664,0.015909195411950308
2167,00:00:08.668,-0.00227774260565638
2168,00:00:08.672,-0.025674892589449824
2169,00:00:08.676,-0.008049620781093789
2170,00:00:08.68,-0.02082122536376119
2171,00:00:08.684,0.01465985411778092
2172,00:00:08.688,0.02394435112364589
2173,00:00:08.692,0.01304314006119964
2174,00:00:08.696,-0.00109487143345177
2175,00:00:08.7,-0.011536579346284269
2176,00:00:08.704,-0.03324450878426432
2177,00:00:08.708,0.02115234127268195
2178,00:00:08.712,-0.003962336544645948
2179,00:00:08.716,-0.0030664607184007764
2180,00:00:08.72,0.0074140916112810295
2181,00:00:08.724,0.0211764466948808
2182,00:00:08.728,0.007087202582624696
2183,00:00:08.732,-0.012052872683852911
2184,00:00:08.736,-0.030452265171334085
2185,00:00:08.74,-0.014589101308956704
2186,00:00:08.744,0.01998997014015911
2187,00:00:08.748,0.0331227332353592
2188,00:00:08.752,-0.0012832805514335997
2189,00:00:08.756,0.00997447362169624
2190,00:00:08.76,-0.02242129086516802
2191,00:00:08.764,-0.059285322437062804
2192,00:00:08.768,0.01086006476543843
2193,00:00:08.772,0.03577594552189113
2194,00:00:08.776,0.03683173842728135
2195,00:00:08.78,0.00510060600936413
2196,00:00:08.784,-0.02252252260223032
2197,00:00:08.788,-0.01689116354100409
2198,00:00:08.792,-0.02096236497163768
2199,00:00:08.796,0.027998364996165016
2200,00:00:08.8,-0.0035491837188601494
2201,00:00:08.804,-0.025271735619753592
2202,00:00:08.808,0.031332221813499844
2203,00:00:08.812,0.015003482112660957
2204,00:00:08.816,-0.021371081471443173
2205,00:00:08.82,-0.006202190823387355
2206,00:00:08.824,-0.01139726839028299
2207,00:00:08.828,0.019198459922336028
2208,00:00:08.832,0.00015683387755416507
2209,00:00:08.836,0.014982676846557302
2210,00:00:08.84,0.0012568731326609989
2211,00:00:08.844,-0.025349884759634768
2212,00:00:08.848,-0.02593283471651378
2213,00:00:08.852,0.03824602533131833
2214,00:00:08.856,0.0023164248559623883
2215,00:00:08.86,-0.028678551781922593
2216,00:00:08.864,0.0284505551680923
2217,00:00:08.868,0.024842727230861762
2218,00:00:08.872,-0.009725925978273132
2219,00:00:08.876,-0.05001915595494215
2220,00:00:08.88,0.007949497550726
2221,00:00:08.884,0.022798939142376122
2222,00:00:08.888,0.002506807446479801
2223,00:00:08.892,-0.009518806356936709
2224,00:00:08.896,0.013434531167149499
2225,00:00:08.9,0.004570255172438949
2226,00:00:08.904,-0.01900827558711171
2227,00:00:08.908,-0.010679368901946875
2228,00:00:08.912,-0.014120434876531402
2229,00:00:08.916,0.035467853187583415
2230,00:00:08.92,0.01600218610838059
2231,00:00:08.924,0.00140386680141092
2232,00:00:08.928,-0.01151652820408344
2233,00:00:08.932,-0.02662882208824161
2234,00:00:08.936,0.013398832641541972
2235,00:00:08.94,-0.013660586904734387
2236,00:00:08.944,-0.01178139215335252
2237,00:00:08.948,0.02539611654356123
2238,00:00:08.952,0.01767574169207364
2239,00:00:08.956,0.006922659464180468
2240,00:00:08.96,-0.00733116758055986
2241,00:00:08.964,-0.02558427443727851
2242,00:00:08.968,0.001548791769891967
2243,00:00:08.972,0.014584589283913381
2244,00:00:08.976,-0.016939689987339045
2245,00:00:08.98,-0.013388694365858118
2246,00:00:08.984,0.03158780530793595
2247,00:00:08.988,0.030597232514992297
2248,00:00:08.992,-0.0224299924448133
2249,00:00:08.996,-0.05091107729822393
2250,00:00:09,0.006624957080930407
2251,00:00:09.004,0.027636799495667184
2252,00:00:09.008,0.01583118224516511
2253,00:00:09.012,0.005869769491255291
2254,00:00:09.016,-0.0005338378396117986
2255,00:00:09.02,-0.021838672750163827
2256,00:00:09.024,-0.018409352982416742
2257,00:00:09.028,0.013776578241959221
2258,00:00:09.032,-0.0026341381017118697
2259,00:00:09.036,0.0033694156445562783
2260,00:00:09.04,0.008350676216650758
2261,00:00:09.044,-0.01165744313038885
2262,00:00:09.048,0.02392164617776872
2263,00:00:09.052,0.01428831252269447
2264,00:00:09.056,-0.012556633795611564
2265,00:00:09.06,-0.03593620378524057
2266,00:00:09.064,-0.01754582324065268
2267,00:00:09.068,0.02061548200435938
2268,00:00:09.072,0.03354938188567749
2269,00:00:09.076,-0.0010769448126666209
2270,00:00:09.08,-0.0019645759603008637
2271,00:00:09.084,-0.011717487475834787
2272,00:00:09.088,-0.011113707063486803
2273,00:00:09.092,0.011950949497986581
2274,00:00:09.096,-0.0013242415932381848
2275,00:00:09.1,-0.023573381826281502
2276,00:00:09.104,0.010632893070578549
2277,00:00:09.108,0.012768916087225083
2278,00:00:09.112,0.0132112528081052
2279,00:00:09.116,-0.016168682603165504
2280,00:00:09.12,0.017563578177941967
2281,00:00:09.124,-0.01899810973554853
2282,00:00:09.128,-0.013002376770600682
2283,00:00:09.132,0.020076437038369487
2284,00:00:09.136,-0.004000101238489139
2285,00:00:09.14,-0.013402359560132028
2286,00:00:09.144,0.01601679471787061
2287,00:00:09.148,0.008128098445013169
2288,00:00:09.152,0.01040272554382682
2289,00:00:09.156,-0.025031469762325197
2290,00:00:09.16,-0.020516126416623592
2291,00:00:09.164,0.006995109375566241
2292,00:00:09.168,0.006250234495382754
2293,00:00:09.172,0.020375458989292338
2294,00:00:09.176,0.0093393094139174
2295,00:00:09.18,0.00010313768871127995
2296,00:00:09.184,-0.03093112283386295
2297,00:00:09.188,0.007500241510570032
2298,00:00:09.192,0.015136789530515673
2299,00:00:09.196,-0.004947262845234941
2300,00:00:09.2,-0.01976803177967668
2301,00:00:09.204,-0.0039187076035887
2302,00:00:09.208,-0.006543660769239069
2303,00:00:09.212,0.02674051607027646
2304,00:00:09.216,0.03315159957855945
2305,00:00:09.22,-0.0025529740378260595
2306,00:00:09.224,-0.03619999985676256
2307,00:00:09.228,-0.02834992203861472
2308,00:00:09.232,0.006389391026459631
2309,00:00:09.236,0.026935426285490408
2310,00:00:09.24,0.013536553364247049
2311,00:00:09.244,-0.0027697238256223443
2312,00:00:09.248,-0.0041435820749029465
2313,00:00:09.252,0.005733990692533554
2314,00:00:09.256,-0.03854285879060624
2315,00:00:09.26,0.00309671089053152
2316,00:00:09.264,0.02424127096310255
2317,00:00:09.268,0.0026607885811245125
2318,00:00:09.272,0.007741280132904647
2319,00:00:09.276,-0.022378338500857343
2320,00:00:09.28,0.009368862491101018
2321,00:00:09.284,0.003840550780296329
2322,00:00:09.288,0.003219141042791306
2323,00:00:09.292,-0.010959829203784398
2324,00:00:09.296,0.0024531926028430505
2325,00:00:09.3,-0.01429177587851882
2326,00:00:09.304,0.009101733099669222
2327,00:00:09.308,0.0068134098546579515
2328,00:00:09.312,0.012672755983658182
2329,00:00:09.316,0.005807241890579459
2330,00:00:09.32,-0.013539754610974342
2331,00:00:09.324,-0.01695730449864641
2332,00:00:09.328,-0.00899865105748178
2333,00:00:09.332,0.01597064221277833
2334,00:00:09.336,0.012893262319266801
2335,00:00:09.34,0.00464271893724799
2336,00:00:09.344,-0.015085947350598851
2337,00:00:09.348,-0.01278567349072543
2338,00:00:09.352,0.01806028882856485
2339,00:00:09.356,0.0128396111540496
2340,00:00:09.36,-0.017055860953405513
2341,00:00:09.364,-0.007481975888367749
2342,00:00:09.368,0.007148995180614296
2343,00:00:09.372,-0.00736955553293232
2344,00:00:09.376,0.013796212151646569
2345,00:00:09.38,-0.005558153381571214
2346,00:00:09.384,-0.006138540804386139
2347,00:00:09.388,0.013579468097304925
2348,00:00:09.392,0.008047017152421175
2349,00:00:09.396,-0.01259814144577831
2350,00:00:09.4,-0.01881450507789847
2351,00:00:09.404,0.003702153495396491
2352,00:00:09.408,0.01056103303562849
2353,00:00:09.412,0.02251010469626635
2354,00:00:09.416,-0.003255612507928162
2355,00:00:09.42,-0.013366558938287202
2356,00:00:09.424,-0.01761640858603638
2357,00:00:09.428,-0.02528161567170173
2358,00:00:09.432,0.03082670457661149
2359,00:00:09.436,0.01672950421925635
2360,00:00:09.44,0.03060736227780578
2361,00:00:09.444,-0.015395126072689889
2362,00:00:09.448,-0.043588691856712124
2363,00:00:09.452,0.010631856508553009
2364,00:00:09.456,0.0029519117670133667
2365,00:00:09.46,-0.006173398345708849
2366,00:00:09.464,0.00635513290762901
2367,00:00:09.468,0.010767124127596582
2368,00:00:09.472,0.01758618693565947
2369,00:00:09.476,-0.009158549848507414
2370,00:00:09.48,-0.024880516459234055
2371,00:00:09.484,-0.01760316686704755
2372,00:00:09.488,0.04180016682948917
2373,00:00:09.492,0.008448685286566653
2374,00:00:09.496,-0.0037528828834183566
2375,00:00:09.5,-0.046345776878297405
2376,00:00:09.504,-0.00803649728186429
2377,00:00:09.508,0.04201455460861324
2378,00:00:09.512,0.01942814630456271
2379,00:00:09.516,-0.00663382629863921
2380,00:00:09.52,-0.013363276841118928
2381,00:00:09.524,-0.00963788968510926
2382,00:00:09.528,-0.0028787958435714193
2383,00:00:09.532,0.014726279536262151
2384,00:00:09.536,-0.01598118105903272
2385,00:00:09.54,-0.006871505989693109
2386,00:00:09.544,0.021032526041381054
2387,00:00:09.548,0.00185546232387424
2388,00:00:09.552,0.00953412358649075
2389,00:00:09.556,-0.0018144361092708944
2390,00:00:09.56,-0.01844272541347891
2391,00:00:09.564,-0.0147659541107714
2392,00:00:09.568,0.0010458942997502224
2393,00:00:09.572,0.02344984840601684
2394,00:00:09.576,0.007922398392111032
2395,00:00:09.58,-0.02004709653556347
2396,00:00:09.584,0.00614602456334978
2397,00:00:09.588,0.0028041316545568424
2398,00:00:09.592,0.01713525108061735
2399,00:00:09.596,-0.018662194721400786
2400,00:00:09.6,-0.00820463744457811
2401,00:00:09.604,-0.00883633736521006
2402,00:00:09.608,0.011289143934845881
2403,00:00:09.612,0.010527721722610298
2404,00:00:09.616,0.0011665764031931693
2405,00:00:09.62,-0.007003545295447109
2406,00:00:09.624,0.004786597855854775
2407,00:00:09.628,-0.0006032283999957144
2408,00:00:09.632,-0.0011545483139343516
2409,00:00:09.636,0.00341350480448454
2410,00:00:09.64,-0.01896879682317376
2411,00:00:09.644,0.00800381507724527
2412,00:00:09.648,0.0022598295472562296
2413,00:00:09.652,-0.010873268358409419
2414,00:00:09.656,0.00308325898367912
2415,00:00:09.66,0.029131978692021242
2416,00:00:09.664,-0.00047732004895807006
2417,00:00:09.668,-0.013424297445453665
2418,00:00:09.672,0.0019962177029810672
2419,00:00:09.676,-0.025214592460542834
2420,00:00:09.68,0.0006580539047718005
2421,00:00:09.684,0.024132334161549782
2422,00:00:09.688,0.01784988987492402
2423,00:00:09.692,-0.02065404132008554
2424,00:00:09.696,-0.012796477065421636
2425,00:00:09.7,-0.01059569581411779
2426,00:00:09.704,0.01033830270171168
2427,00:00:09.708,0.006414053990738466
2428,00:00:09.712,0.02485616924241183
2429,00:00:09.716,-0.01161132706329224
2430,00:00:09.72,-0.011936787719605541
2431,00:00:09.724,0.007235057186335342
2432,00:00:09.728,-0.0004623456043191259
2433,00:00:09.732,-0.02831066399812699
2434,00:00:09.736,0.006139017990790301
2435,00:00:09.74,0.028114580782130364
2436,00:00:09.744,0.00343469483777876
2437,00:00:09.748,-0.019607800757512416
2438,00:00:09.752,0.01413890975527466
2439,00:00:09.756,-0.012743122599204116
2440,00:00:09.76,0.0026385135715827302
2441,00:00:09.764,0.00723138090688735
2442,00:00:09.768,-0.003955184365622699
2443,00:00:09.772,-0.02598105277866132
2444,00:00:09.776,0.011270322371274254
2445,00:00:09.78,0.0419813217595219
2446,00:00:09.784,-0.02514750626869502
2447,00:00:09.788,-0.01072829263284797
2448,00:00:09.792,-0.0003417376428842497
2449,00:00:09.796,0.006309336051344871
2450,00:00:09.8,0.008470615139231108
2451,00:00:09.804,-0.0014270776300691042
2452,00:00:09.808,0.0051394192742009156
2453,00:00:09.812,-0.02256273757666348
2454,00:00:09.816,0.012661392567679279
2455,00:00:09.82,-0.01340651232749224
2456,00:00:09.824,-0.008914538862882192
2457,00:00:09.828,0.0006272655446082805
2458,00:00:09.832,0.03460742440074682
2459,00:00:09.836,0.016781737096607664
2460,00:00:09.84,-0.01316870539449159
2461,00:00:09.844,-0.026735879015177447
2462,00:00:09.848,-0.00948345591314137
2463,00:00:09.852,0.02768124500289556
2464,00:00:09.856,0.017619421239942312
2465,00:00:09.86,-0.02709414478158581
2466,00:00:09.864,-0.03805787069723003
2467,00:00:09.868,0.0007671329658478498
2468,00:00:09.872,0.02531257318332792
2469,00:00:09.876,0.03668171120807526
2470,00:00:09.88,0.0154480012133718
2471,00:00:09.884,-0.04527261108160018
2472,00:00:09.888,0.0017416225746273994
2473,00:00:09.892,0.023630322888493538
2474,00:00:09.896,-0.01924590719863773
2475,00:00:09.9,-0.02580225095152853
2476,00:00:09.904,0.0008536088280379798
2477,00:00:09.908,0.022797199548222166
2478,00:00:09.912,0.029546889010816813
2479,00:00:09.916,-0.01476234151050447
2480,00:00:09.92,-0.025417509023100193
2481,00:00:09.924,-0.008910871547413992
2482,00:00:09.928,0.002740318646829113
2483,00:00:09.932,0.018611870938912038
2484,00:00:09.936,0.01077013672329483
2485,00:00:09.94,0.00978196156211197
2486,00:00:09.944,0.01025130436755717
2487,00:00:09.948,-0.03048121556639665
2488,00:00:09.952,-0.03771866089664404
2489,00:00:09.956,0.031277249567210626
2490,00:00:09.96,-0.001678109169006349
2491,00:00:09.964,0.002716313872952042
2492,00:00:09.968,0.011109054205007851
2493,00:00:09.972,-0.01466390583664177
2494,00:00:09.976,0.016197536140680327
2495,00:00:09.98,0.01247515040449802
2496,00:00:09.984,-0.02344217151403427
2497,00:00:09.988,-0.01902678911574185
2498,00:00:09.992,0.015980792697519057
2499,00:00:09.996,0.02080827578902244
2500,00:00:10,-0.013140528463736704
2501,00:00:10.004,-0.01494364603422582
2502,00:00:10.008,0.018147314607631467
2503,00:00:10.012,0.008082759799435731
2504,00:00:10.016,0.0022319864365272233
2505,00:00:10.02,-0.019057106459513272
2506,00:00:10.024,-0.024682241491973372
2507,00:00:10.028,0.00390419922769069
2508,00:00:10.032,0.023721331497654354
2509,00:00:10.036,0.032900157617405126
2510,00:00:10.04,-0.01981083187274634
2511,00:00:10.044,-0.008400961756706229
2512,00:00:10.048,-0.02660316089168191
2513,00:00:10.052,0.011722404684405774
2514,00:00:10.056,0.027529295068234184
2515,00:00:10.06,-0.0015146613586694102
2516,00:00:10.064,-0.02867580624297264
2517,00:00:10.068,-0.0006650299765169204
2518,00:00:10.072,0.011353979236446324
2519,00:00:10.076,0.00432041008025408
2520,00:00:10.08,0.009876033756882
2521,00:00:10.084,-0.01611991133540869
2522,00:00:10.088,0.0067219368647783995
2523,00:00:10.092,0.017404615937266516
2524,00:00:10.096,-0.02177888667210937
2525,00:00:10.1,-0.01323908451013267
2526,00:00:10.104,0.0008167279884220037
2527,00:00:10.108,0.01087557419668883
2528,00:00:10.112,0.02366120321676136
2529,00:00:10.116,-0.03145401226356626
2530,00:00:10.12,0.01248494489118457
2531,00:00:10.124,-0.0011261957697570723
2532,00:00:10.128,0.003017967217601841
2533,00:00:10.132,0.018015249399468313
2534,00:00:10.136,-0.010621128443744968
2535,00:00:10.14,-0.023365901433862787
2536,00:00:10.144,0.0020039316732436384
2537,00:00:10.148,0.0032446910627186402
2538,00:00:10.152,-0.0014735451368323889
2539,00:00:10.156,0.0018777090590447196
2540,00:00:10.16,0.023365600965917152
2541,00:00:10.164,0.0033836000366136406
2542,00:00:10.168,-0.028212910285219522
2543,00:00:10.172,0.010057932668132704
2544,00:00:10.176,0.01608936069533226
2545,00:00:10.18,-0.03922435641288754
2546,00:00:10.184,-0.040273470105603386
2547,00:00:10.188,0.07573949452489609
2548,00:00:10.192,0.05535710230469707
2549,00:00:10.196,-0.03376717492938041
2550,00:00:10.2,-0.046361962100490865
2551,00:00:10.204,-0.030572229996323596
2552,00:00:10.208,0.009812344025704037
2553,00:00:10.212,0.03004762576892975
2554,00:00:10.216,0.023585431481478722
2555,00:00:10.22,0.010901675559580302
2556,00:00:10.224,-0.02587514417245982
2557,00:00:10.228,-0.02329531486611813
2558,00:00:10.232,0.011589966132305562
2559,00:00:10.236,-0.01108154188841582
2560,00:00:10.24,-0.015274161007255314
2561,00:00:10.244,0.030319229699671203
2562,00:00:10.248,0.032297733705490765
2563,00:00:10.252,0.010204005986452106
2564,00:00:10.256,-0.03568296134471896
2565,00:00:10.26,-0.02494065184146163
2566,00:00:10.264,-0.012773604365065699
2567,00:00:10.268,0.015415861795190725
2568,00:00:10.272,0.044439771212637466
2569,00:00:10.276,-0.006346284179016958
2570,00:00:10.28,-0.02713393233716488
2571,00:00:10.284,0.0013036511372774605
2572,00:00:10.288,-0.018369786441326197
2573,00:00:10.292,0.010151900816708852
2574,00:00:10.296,0.021857321495190228
2575,00:00:10.3,0.01983299944549807
2576,00:00:10.304,-0.028708305209875138
2577,00:00:10.308,-0.006916552723851046
2578,00:00:10.312,0.00983106181956828
2579,00:00:10.316,-0.0005005646380595853
2580,00:00:10.32,0.00414583797100931
2581,00:00:10.324,-0.01934680063277478
2582,00:00:10.328,-0.009512039832770817
2583,00:00:10.332,0.00907913222908974
2584,00:00:10.336,0.03288783063180749
2585,00:00:10.34,-0.008219826966524098
2586,00:00:10.344,-0.02131042396649718
2587,00:00:10.348,0.0064031039364636005
2588,00:00:10.352,0.01876952825114131
2589,00:00:10.356,-0.003467934729997072
2590,00:00:10.36,-0.01725069299573078
2591,00:00:10.364,-0.010954617522656909
2592,00:00:10.368,0.00414766173344105
2593,00:00:10.372,0.02185847586952145
2594,00:00:10.376,-0.010679659200832282
2595,00:00:10.38,0.00275063747540117
2596,00:00:10.384,0.023178799077868503
2597,00:00:10.388,-0.045625144324731096
2598,00:00:10.392,-0.0038918266072869283
2599,00:00:10.396,0.01702969882171605
2600,00:00:10.4,0.03443702054210006
2601,00:00:10.404,0.004774356420966793
2602,00:00:10.408,-0.031505529535934294
2603,00:00:10.412,-0.027868892124388363
2604,00:00:10.416,-0.00401066918857396
2605,00:00:10.42,0.034439457043845316
2606,00:00:10.424,0.01668395916931331
2607,00:00:10.428,0.00448940554633737
2608,00:00:10.432,-0.01689084380632266
2609,00:00:10.436,-0.021893779747188088
2610,00:00:10.44,0.008335741385963004
2611,00:00:10.444,-0.02075787819921971
2612,00:00:10.448,-0.00012705754488707803
2613,00:00:10.452,0.049452288076281534
2614,00:00:10.456,0.01984320650808516
2615,00:00:10.46,-0.04157246183604005
2616,00:00:10.464,-0.018644395982846642
2617,00:00:10.468,0.014178206911310578
2618,00:00:10.472,0.028240626095794138
2619,00:00:10.476,-0.01889469288289546
2620,00:00:10.48,-0.021122215781360813
2621,00:00:10.484,-0.0110706437844783
2622,00:00:10.488,0.01640485320240259
2623,00:00:10.492,0.03165145404636865
2624,00:00:10.496,-0.000321188301313661
2625,00:00:10.5,-0.01352281647268683
2626,00:00:10.504,-0.02526114624924954
2627,00:00:10.508,-0.01050007343292236
2628,00:00:10.512,0.016554601723328233
2629,00:00:10.516,0.03318883370957343
2630,00:00:10.52,0.001467839349061249
2631,00:00:10.524,-0.02717812685295939
2632,00:00:10.528,-0.005525713786482808
2633,00:00:10.532,0.03759138984605669
2634,00:00:10.536,-0.01731054298579694
2635,00:00:10.54,-0.03486230410635474
2636,00:00:10.544,-0.01354038156569004
2637,00:00:10.548,0.017978323856368633
2638,00:00:10.552,0.04714589286595583
2639,00:00:10.556,0.0014112903154455151
2640,00:00:10.56,-0.00996994785964489
2641,00:00:10.564,-0.03001584950834516
2642,00:00:10.568,-0.00048282498028129946
2643,00:00:10.572,-0.003511697519570577
2644,00:00:10.576,0.02134188264608383
2645,00:00:10.58,-0.0022869310341775404
2646,00:00:10.584,-0.0010086686816066798
2647,00:00:10.588,-0.005602308010566046
2648,00:00:10.592,0.01276745111681521
2649,00:00:10.596,-0.0034568626433610907
2650,00:00:10.6,-0.05145281838485973
2651,00:00:10.604,0.05907896114513275
2652,00:00:10.608,0.00796966906636953
2653,00:00:10.612,-0.030576085322536473
2654,00:00:10.616,0.0068274640943855
2655,00:00:10.62,0.014785893261432691
2656,00:00:10.624,-0.02179124346002934
2657,00:00:10.628,-0.006455100548919284
2658,00:00:10.632,0.03550645580980928
2659,00:00:10.636,0.013728304837968587
2660,00:00:10.64,-0.047758657601661945
2661,00:00:10.644,-0.015601873164996534
2662,00:00:10.648,0.01017398107796907
2663,00:00:10.652,0.01870271889492867
2664,00:00:10.656,-0.005028393119573581
2665,00:00:10.66,0.01716295955702659
2666,00:00:10.664,-0.0024858359247446
2667,00:00:10.668,-0.0015840722480788831
2668,00:00:10.672,0.005045801299274908
2669,00:00:10.676,-0.0158610930666327
2670,00:00:10.68,-0.0011795742902904706
2671,00:00:10.684,-0.00433512963354591
2672,00:00:10.688,0.0030512545490637404
2673,00:00:10.692,0.0320064518600702
2674,00:00:10.696,-0.013871073984773809
2675,00:00:10.7,-0.022130790166556828
2676,00:00:10.704,-0.02420463506132369
2677,00:00:10.708,-0.005206379537412432
2678,00:00:10.712,0.049562269821763
2679,00:00:10.716,0.02035958645865321
2680,00:00:10.72,-0.015176744200289251
2681,00:00:10.724,0.010318941902369209
2682,00:00:10.728,-0.03284097881987699
2683,00:00:10.732,-0.003270776942372315
2684,00:00:10.736,0.001585242105647915
2685,00:00:10.74,-0.0032531700562685797
2686,00:00:10.744,-0.0015907788183540106
2687,00:00:10.748,-0.008050525095313791
2688,00:00:10.752,0.02312488178722556
2689,00:00:10.756,0.04684946872293954
2690,00:00:10.76,-0.006684717081952841
2691,00:00:10.764,-0.039310093503445345
2692,00:00:10.768,-0.057432567758951336
2693,00:00:10.772,0.01393314287997786
2694,00:00:10.776,0.0359407844953239
2695,00:00:10.78,0.02065257891081269
2696,00:00:10.784,0.01948338747024532
2697,00:00:10.788,-0.021659888327121804
2698,00:00:10.792,-0.010703697160352027
2699,00:00:10.796,-0.002719970187172291
2700,00:00:10.8,0.007083874399540901
2701,00:00:10.804,-0.05035181995481253
2702,00:00:10.808,0.0014133192016743098
2703,00:00:10.812,0.06209335848689074
2704,00:00:10.816,0.038591449498198906
2705,00:00:10.82,-0.04625795362517241
2706,00:00:10.824,-0.03647809987887735
2707,00:00:10.828,-0.01524826174136252
2708,00:00:10.832,0.04241749830543992
2709,00:00:10.836,0.0260962173342705
2710,00:00:10.84,-0.0048108291521202756
2711,00:00:10.844,-0.031024190597236177
2712,00:00:10.848,-0.01702254160773011
2713,00:00:10.852,-0.0036115524126216804
2714,00:00:10.856,0.023146493826061463
2715,00:00:10.86,0.0012396577803883743
2716,00:00:10.864,0.013294423464685722
2717,00:00:10.868,0.031080684915650626
2718,00:00:10.872,-0.025171348359435793
2719,00:00:10.876,-0.02176211914047601
2720,00:00:10.88,-0.01093729271087795
2721,00:00:10.884,-0.006110532529419298
2722,00:00:10.888,0.0001417316962033534
2723,00:00:10.892,0.01207983028143644
2724,00:00:10.896,0.043975912267342154
2725,00:00:10.9,-0.00390518340282142
2726,00:00:10.904,-0.04427222756203261
2727,00:00:10.908,-0.00293372804298999
2728,00:00:10.912,0.01271389611065386
2729,00:00:10.916,0.030532732023857506
2730,00:00:10.92,-0.02376380318310112
2731,00:00:10.924,-0.01985015266109257
2732,00:00:10.928,-0.01826864248141646
2733,00:00:10.932,0.03672162943985311
2734,00:00:10.936,0.042494731023907654
2735,00:00:10.94,-0.02548009320162231
2736,00:00:10.944,-0.03704798920080067
2737,00:00:10.948,-0.0026217721460853084
2738,00:00:10.952,0.024876969706383555
2739,00:00:10.956,0.019775113556534028
2740,00:00:10.96,-0.02324148081243043
2741,00:00:10.964,-0.01855212244117865
2742,00:00:10.968,0.019076557597145462
2743,00:00:10.972,-0.0077413255348801596
2744,00:00:10.976,0.006053044984582815
2745,00:00:10.98,0.019116752147965564
2746,00:00:10.984,-0.00339247068041004
2747,00:00:10.988,-0.023947874549776312
2748,00:00:10.992,-0.00166071951389312
2749,00:00:10.996,0.010623971887980586
2750,00:00:11,0.008605508133769021
2751,00:00:11.004,-0.004237100361933701
2752,00:00:11.008,-0.00354277179576456
2753,00:00:11.012,-0.014876643195748258
2754,00:00:11.016,0.0068915868178009996
2755,00:00:11.02,0.010241302312351751
2756,00:00:11.024,0.024096978828310904
2757,00:00:11.028,-0.016121212393045387
2758,00:00:11.032,-0.03293432900682093
2759,00:00:11.036,0.008796082809567451
2760,00:00:11.04,0.01307012198958546
2761,00:00:11.044,-0.00477089360356331
2762,00:00:11.048,0.00020776444580404975
2763,00:00:11.052,0.012053520302288229
2764,00:00:11.056,0.020929473685100702
2765,00:00:11.06,0.01315950672142209
2766,00:00:11.064,-0.04370354209095248
2767,00:00:11.068,-0.02216640952974559
2768,00:00:11.072,-0.02172166388481849
2769,00:00:11.076,0.02267637193290279
2770,00:00:11.08,0.033352247090078904
2771,00:00:11.084,0.012476549018174451
2772,00:00:11.088,-0.015267567243427
2773,00:00:11.092,0.01037255302071569
2774,00:00:11.096,0.02360028121620419
2775,00:00:11.1,-0.03416891954839227
2776,00:00:11.104,-0.034831025637686315
2777,00:00:11.108,-0.0245284097618423
2778,00:00:11.112,0.02558017987757924
2779,00:00:11.116,0.0457596698543057
2780,00:00:11.12,0.01333321444690228
2781,00:00:11.124,-0.01296514249406755
2782,00:00:11.128,-0.014527316336170808
2783,00:00:11.132,-0.009775012731552027
2784,00:00:11.136,-0.001015497196931389
2785,00:00:11.14,0.004188064442132603
2786,00:00:11.144,0.00678952457383275
2787,00:00:11.148,-0.0036921736318618107
2788,00:00:11.152,-0.012505690101534132
2789,00:00:11.156,0.008778088260442012
2790,00:00:11.16,0.006094140931963889
2791,00:00:11.164,-0.01298291527200494
2792,00:00:11.168,0.01013666531071071
2793,00:00:11.172,0.0026208781637251403
2794,00:00:11.176,0.0068748951889574484
2795,00:00:11.18,0.004365877364762129
2796,00:00:11.184,-0.01960940659046173
2797,00:00:11.188,0.010795533366035665
2798,00:00:11.192,-0.005684371571987869
2799,00:00:11.196,-0.020459845662117
2800,00:00:11.2,0.01695262524299329
2801,00:00:11.204,0.027099265716969943
2802,00:00:11.208,-0.034564564150059554
2803,00:00:11.212,-0.0030411262996494796
2804,00:00:11.216,0.02035625465214253
2805,00:00:11.22,0.018761384533718232
2806,00:00:11.224,-0.028025846928358113
2807,00:00:11.228,-0.005057930713519409
2808,00:00:11.232,-0.015244641806930252
2809,00:00:11.236,0.051251180004328475
2810,00:00:11.24,-0.0021327361464500505
2811,00:00:11.244,-0.058129871729761376
2812,00:00:11.248,0.009994708962040001
2813,00:00:11.252,0.03816292947158215
2814,00:00:11.256,0.012486565217841411
2815,00:00:11.26,-0.03546302020549778
2816,00:00:11.264,0.0014049829915166283
2817,00:00:11.268,-0.01424484979361296
2818,00:00:11.272,0.01564517733640973
2819,00:00:11.276,0.016309636295773082
2820,00:00:11.28,0.003641663090093057
2821,00:00:11.284,-0.02714412705972792
2822,00:00:11.288,-0.01424387382576238
2823,00:00:11.292,0.058882347308099284
2824,00:00:11.296,0.000583482265938081
2825,00:00:11.3,-0.03594444645568729
2826,00:00:11.304,-0.037134427751880125
2827,00:00:11.308,0.01812712522223593
2828,00:00:11.312,0.03580836486071349
2829,00:00:11.316,0.007338004128541797
2830,00:00:11.32,-0.01939224964007735
2831,00:00:11.324,-0.008925094385631382
2832,00:00:11.328,-0.004373050760477779
2833,00:00:11.332,0.0183259695768356
2834,00:00:11.336,0.00379924126900733
2835,00:00:11.34,-0.01783765014261007
2836,00:00:11.344,-0.007863324135541909
2837,00:00:11.348,0.013153878491721121
2838,00:00:11.352,0.02696972014382481
2839,00:00:11.356,-0.018452851101756096
2840,00:00:11.36,-0.009718646499095492
2841,00:00:11.364,-0.0246731915976852
2842,00:00:11.368,0.022021880024112688
2843,00:00:11.372,0.0168771285098046
2844,00:00:11.376,-0.01363519288133831
2845,00:00:11.38,0.011284187959972772
2846,00:00:11.384,0.010790124302729978
2847,00:00:11.388,-0.0011928338790312392
2848,00:00:11.392,-0.0407527200877666
2849,00:00:11.396,-0.009974831715226166
2850,00:00:11.4,0.01075561344623565
2851,00:00:11.404,0.01905265962705023
2852,00:00:11.408,0.01262791943736374
2853,00:00:11.412,0.01711140517727473
2854,00:00:11.416,0.0024506743066012894
2855,00:00:11.42,-0.025351211661472937
2856,00:00:11.424,-0.015656200645025816
2857,00:00:11.428,-0.0210025772103108
2858,00:00:11.432,0.023777120281010852
2859,00:00:11.436,0.016202012309804555
2860,00:00:11.44,0.00823660157038832
2861,00:00:11.444,-0.00197791599202901
2862,00:00:11.448,-0.017978614196181297
2863,00:00:11.452,-0.020570131251588478
2864,00:00:11.456,0.01325415575411171
2865,00:00:11.46,-0.00066571030765772
2866,00:00:11.464,0.031074108555912947
2867,00:00:11.468,-0.0029980011863699435
2868,00:00:11.472,-0.00544151756912471
2869,00:00:11.476,9.45675419643504e-05
2870,00:00:11.48,-0.014903816510923202
2871,00:00:11.484,-0.017959720687940717
2872,00:00:11.488,0.0018304713594261635
2873,00:00:11.492,0.006471669767051928
2874,00:00:11.496,0.03931094193831087
2875,00:00:11.5,-0.0002502065617591212
2876,00:00:11.504,-0.026576601434498977
2877,00:00:11.508,-0.01992073028395685
2878,00:00:11.512,0.01314951758831739
2879,00:00:11.516,0.03248457377776506
2880,00:00:11.52,-0.032037905650213354
2881,00:00:11.524,-0.00875502964481712
2882,00:00:11.528,0.008712835144251562
2883,00:00:11.532,0.02123312465846542
2884,00:00:11.536,0.0019815601408482014
2885,00:00:11.54,-0.014623029041104019
2886,00:00:11.544,-0.01606123543751889
2887,00:00:11.548,0.01354499126318842
2888,00:00:11.552,0.024866471299901563
2889,00:00:11.556,-0.019940258061979
2890,00:00:11.56,-0.015809302360139554
2891,00:00:11.564,-0.002894463017582901
2892,00:00:11.568,-0.003991267178207629
2893,00:00:11.572,0.02269946492742748
2894,00:00:11.576,-0.0003047127975150904
2895,00:00:11.58,0.004645214183256026
2896,00:00:11.584,0.0221356544643641
2897,00:00:11.588,-0.02871382585726683
2898,00:00:11.592,-0.010804687743075213
2899,00:00:11.596,-0.01896437443792819
2900,00:00:11.6,0.02417244273237881
2901,00:00:11.604,0.02995134424418211
2902,00:00:11.608,-0.0069628916680812905
2903,00:00:11.612,-0.027258184738457203
2904,00:00:11.616,-0.00822882878128441
2905,00:00:11.62,0.0031979854684323007
2906,00:00:11.624,0.007522800093283832
2907,00:00:11.628,0.031579834991134724
2908,00:00:11.632,-0.0161581189604476
2909,00:00:11.636,-0.00691683404147625
2910,00:00:11.64,-0.006357055157423019
2911,00:00:11.644,-0.012932089040987202
2912,00:00:11.648,-0.003535529598593713
2913,00:00:11.652,0.02911901706829665
2914,00:00:11.656,0.02989231608808037
2915,00:00:11.66,-0.026675633736886056
2916,00:00:11.664,-0.034553531266283216
2917,00:00:11.668,-0.01039706892333925
2918,00:00:11.672,0.0279134721495211
2919,00:00:11.676,0.04242469486780464
2920,00:00:11.68,-0.009608753432985399
2921,00:00:11.684,-0.04762486997060479
2922,00:00:11.688,-0.02127724839374427
2923,00:00:11.692,0.01857112953439352
2924,00:00:11.696,0.043306606821715866
2925,00:00:11.7,0.025446082931011898
2926,00:00:11.704,-0.02898728474974637
2927,00:00:11.708,-0.041591799817979364
2928,00:00:11.712,0.00523290224373338
2929,00:00:11.716,0.019775064080022296
2930,00:00:11.72,0.00421901512891055
2931,00:00:11.724,-0.0036774920299649204
2932,00:00:11.728,-0.015050208661705259
2933,00:00:11.732,0.03891491214744744
2934,00:00:11.736,-0.0184716260991991
2935,00:00:11.74,-0.008709630463272298
2936,00:00:11.744,-0.017814539256505668
2937,00:00:11.748,0.0056399367749690975
2938,00:00:11.752,0.025450517423450978
2939,00:00:11.756,0.026877460069954368
2940,00:00:11.76,-0.024499820778146428
2941,00:00:11.764,-0.06598654296249143
2942,00:00:11.768,0.008590989338699727
2943,00:00:11.772,0.05414853617548948
2944,00:00:11.776,0.03216001158580181
2945,00:00:11.78,0.00439107324928046
2946,00:00:11.784,-0.05259186215698721
2947,00:00:11.788,-0.037585746496915776
2948,00:00:11.792,0.019073387375101447
2949,00:00:11.796,0.04373294673860065
2950,00:00:11.8,0.00498485704883934
2951,00:00:11.804,-0.0338564217090607
2952,00:00:11.808,-0.009461514651775355
2953,00:00:11.812,0.032813805097248364
2954,00:00:11.816,0.009751747827976939
2955,00:00:11.82,-0.024723378475755408
2956,00:00:11.824,-0.027152682188898308
2957,00:00:11.828,0.011906979372724932
2958,00:00:11.832,0.024710024357773343
2959,00:00:11.836,0.00446869072038681
2960,00:00:11.84,-0.008934483863413339
2961,00:00:11.844,-0.00046241097152229134
2962,00:00:11.848,0.003296175040304653
2963,00:00:11.852,-0.00827872904483229
2964,00:00:11.856,-0.005608025705441871
2965,00:00:11.86,-0.0019029760733246803
2966,00:00:11.864,-0.0067082578316331205
2967,00:00:11.868,0.013451057486236097
2968,00:00:11.872,0.005945278331637382
2969,00:00:11.876,0.01561856805346909
2970,00:00:11.88,0.01999638369306919
2971,00:00:11.884,-0.026440583635121598
2972,00:00:11.888,-0.042188064369838754
2973,00:00:11.892,-0.0137517224065959
2974,00:00:11.896,0.026211105752736292
2975,00:00:11.9,0.03911161213181914
2976,00:00:11.904,0.02040890464559202
2977,00:00:11.908,-0.05357741378247741
2978,00:00:11.912,-0.01224498683586717
2979,00:00:11.916,0.005534408614039419
2980,00:00:11.92,0.04532678425312042
2981,00:00:11.924,-0.015357770258560777
2982,00:00:11.928,-0.023891256889328357
2983,00:00:11.932,-0.00044675217941404083
2984,00:00:11.936,0.029253814369440082
2985,00:00:11.94,-0.01612258318345995
2986,00:00:11.944,-0.015607479959726379
2987,00:00:11.948,0.00614178599789739
2988,00:00:11.952,0.024859321420080942
2989,00:00:11.956,0.0025358314160257587
2990,00:00:11.96,-0.021275695413351062
2991,00:00:11.964,-0.0026241745799779888
2992,00:00:11.968,-0.01522237039171159
2993,00:00:11.972,-0.008040877757593979
2994,00:00:11.976,0.03722315188497309
2995,00:00:11.98,0.021370415408455343
2996,00:00:11.984,-0.01661435072310269
2997,00:00:11.988,-0.005844727507792415
2998,00:00:11.992,-0.013144118012860419
2999,00:00:11.996,-0.00291249551810324
3000,00:00:12,0.00547844730317593
3001,00:00:12.004,-0.02821688819676646
3002,00:00:12.008,0.008366370399016889
3003,00:00:12.012,0.04264047602191568
3004,00:00:12.016,0.01384778646752241
3005,00:00:12.02,-0.021225060336291773
3006,00:00:12.024,-0.02218957990407944
3007,00:00:12.028,-0.00114087481051684
3008,00:00:12.032,-0.0006571356207132279
3009,00:00:12.036,0.01732479012571278
3010,00:00:12.04,-0.006939570885151629
3011,00:00:12.044,0.013710149505641315
3012,00:00:12.048,-0.01606937404721976
3013,00:00:12.052,-0.0015295436605811097
3014,00:00:12.056,0.009043493308126926
3015,00:00:12.06,0.0069630548823624945
3016,00:00:12.064,-0.0326105421409011
3017,00:00:12.068,0.0065333163365721685
3018,00:00:12.072,0.00504946336150169
3019,00:00:12.076,0.03415103349834677
3020,00:00:12.08,0.01816638791933652
3021,00:00:12.084,-0.041278379969298826
3022,00:00:12.088,-0.04006230644881721
3023,00:00:12.092,0.01821004250086844
3024,00:00:12.096,0.02657880540937184
3025,00:00:12.1,0.00952456844970585
3026,00:00:12.104,-0.01407024543732405
3027,00:00:12.108,-0.013434766558930281
3028,00:00:12.112,-0.0038801835034974
3029,00:00:12.116,0.03151762951165442
3030,00:00:12.12,-0.00545283814426511
3031,00:00:12.124,0.012546000536531219
3032,00:00:12.128,-0.007587011561554402
3033,00:00:12.132,-0.0283830091357231
3034,00:00:12.136,-0.0149494162760675
3035,00:00:12.14,-0.00046579819172622074
3036,00:00:12.144,0.03027990501141175
3037,00:00:12.148,0.02378688100725408
3038,00:00:12.152,-0.005440077977255032
3039,00:00:12.156,-0.018745540641248188
3040,00:00:12.16,-0.015830066520720717
3041,00:00:12.164,0.011316473595798019
3042,00:00:12.168,0.0010212495690211602
3043,00:00:12.172,-0.001683109207078812
3044,00:00:12.176,0.022216622484847938
3045,00:00:12.18,-0.020583489793352804
3046,00:00:12.184,-0.01188048918265849
3047,00:00:12.188,-0.00618478795513509
3048,00:00:12.192,0.02754562022164461
3049,00:00:12.196,0.023866003379225727
3050,00:00:12.2,-0.023802939220331637
3051,00:00:12.204,-0.01430061901919543
3052,00:00:12.208,0.017138410359621024
3053,00:00:12.212,-0.028822894208133193
3054,00:00:12.216,0.00927961454726756
3055,00:00:12.22,0.004355609795311468
3056,00:00:12.224,0.01268912211526185
3057,00:00:12.228,-0.006261865375563504
3058,00:00:12.232,0.005428460543043913
3059,00:00:12.236,-0.013659586664289262
3060,00:00:12.24,-0.00303313857875764
3061,00:00:12.244,0.005334958434104924
3062,00:00:12.248,0.021718101575970705
3063,00:00:12.252,-0.0032771799014881292
3064,00:00:12.256,-0.0047753225080669
3065,00:00:12.26,-0.008213080116547651
3066,00:00:12.264,-0.017604124965146177
3067,00:00:12.268,-0.005556310527026671
3068,00:00:12.272,0.017319862789008763
3069,00:00:12.276,0.02263988787308335
3070,00:00:12.28,-0.004159639385761698
3071,00:00:12.284,-0.02348031499423088
3072,00:00:12.288,-0.008395893150009208
3073,00:00:12.292,0.02603903878480193
3074,00:00:12.296,0.02814390265848492
3075,00:00:12.3,-0.016619460191577656
3076,00:00:12.304,-0.039489335380494574
3077,00:00:12.308,-0.01508195954374969
3078,00:00:12.312,-0.0018577927839942311
3079,00:00:12.316,0.0575360683724285
3080,00:00:12.32,-0.0015661693178117301
3081,00:00:12.324,-0.011083195859100704
3082,00:00:12.328,-0.003615973633714019
3083,00:00:12.332,0.0021283256355673127
3084,00:00:12.336,0.006705358478939116
3085,00:00:12.34,-0.010236555837764172
3086,00:00:12.344,-0.02079800469800831
3087,00:00:12.348,-0.0021764655830338563
3088,00:00:12.352,0.020803191699087606
3089,00:00:12.356,0.02339338185265655
3090,00:00:12.36,-0.012193970032967658
3091,00:00:12.364,-0.034893579315394184
3092,00:00:12.368,0.01429032534360888
3093,00:00:12.372,0.016568043676670672
3094,00:00:12.376,-0.007699343375861659
3095,00:00:12.38,0.008929869334679093
3096,00:00:12.384,-0.004188755992800001
3097,00:00:12.388,-0.006247960955079185
3098,00:00:12.392,-0.013688799925148501
3099,00:00:12.396,0.02260537561960519
3100,00:00:12.4,-0.003397020627744501
3101,00:00:12.404,-0.002434569672914222
3102,00:00:12.408,-0.010377173428423696
3103,00:00:12.412,0.008729448541998853
3104,00:00:12.416,0.006475385860539929
3105,00:00:12.42,-0.027218796312809032
3106,00:00:12.424,0.017319482984021282
3107,00:00:12.428,0.01687313802540298
3108,00:00:12.432,0.013726793113164628
3109,00:00:12.436,-0.0086567411199212
3110,00:00:12.44,-0.04039578256197272
3111,00:00:12.444,-0.00016229125321842036
3112,00:00:12.448,-0.0009379566181451091
3113,00:00:12.452,0.032259431201964686
3114,00:00:12.456,0.02318121446296572
3115,00:00:12.46,-0.014718978898599739
