,Elapsed Time,EMG
0,00:00:00,-0.587445758283138
1,00:00:00.004,0.5569404587149612
2,00:00:00.008,0.46044614166021325
3,00:00:00.012,0.07427613064646715
4,00:00:00.016,-0.23051142133772373
5,00:00:00.02,-0.3365764506161213
6,00:00:00.024,-0.1885245125740767
7,00:00:00.028,-0.004156005714321503
8,00:00:00.032,0.0994842937216164
9,00:00:00.036,0.1497647031210363
10,00:00:00.04,0.04756008424556057
11,00:00:00.044,0.005839881021529449
12,00:00:00.048,0.026372864667791904
13,00:00:00.052,-0.030576295219361782
14,00:00:00.056,-0.05477704713121065
15,00:00:00.06,-0.00488716171821579
16,00:00:00.064,-0.015399809170048684
17,00:00:00.068,-0.00533117633312938
18,00:00:00.072,0.03328664484433824
19,00:00:00.076,0.027157381176948513
20,00:00:00.08,-0.0015939510194584675
21,00:00:00.084,-0.016157403122633678
22,00:00:00.088,-0.0070678733754903
23,00:00:00.092,0.0021542829927057
24,00:00:00.096,0.004998024553060509
25,00:00:00.1,-0.01581438793800771
26,00:00:00.104,-0.0016190651804208703
27,00:00:00.108,0.01075518666766587
28,00:00:00.112,0.01613244973123074
29,00:00:00.116,-0.004629512128303755
30,00:00:00.12,-0.011885077459737662
31,00:00:00.124,-0.004612340067978903
32,00:00:00.128,-0.02028991747647519
33,00:00:00.132,0.01428949320688842
34,00:00:00.136,0.03761122468858948
35,00:00:00.14,0.01677415519952776
36,00:00:00.144,-0.03766550123691564
37,00:00:00.148,-0.032758409157395425
38,00:00:00.152,-0.010316081345081371
39,00:00:00.156,0.03658365271985526
40,00:00:00.16,0.0421294150874018
41,00:00:00.164,-0.03465835121460255
42,00:00:00.168,-0.02727008913643664
43,00:00:00.172,0.00705880345776677
44,00:00:00.176,0.025791827589273442
45,00:00:00.18,0.01060299330856649
46,00:00:00.184,-0.004215183900669248
47,00:00:00.188,-0.021366437067626927
48,00:00:00.192,-0.0061941551975906025
49,00:00:00.196,-0.0008635976118967
50,00:00:00.2,-0.00029623904265463005
51,00:00:00.204,0.005178079125471419
52,00:00:00.208,0.005064958357252189
53,00:00:00.212,-0.005507287220098077
54,00:00:00.216,0.01669335830956697
55,00:00:00.22,0.01440652878955009
56,00:00:00.224,0.00209171429742128
57,00:00:00.228,-0.04375058854930099
58,00:00:00.232,0.002785832853987821
59,00:00:00.236,0.015448758145794321
60,00:00:00.24,-0.02667542186100038
61,00:00:00.244,0.0037253923364914906
62,00:00:00.248,0.04772457387298344
63,00:00:00.252,0.01194512797519562
64,00:00:00.256,-0.0051080677658319395
65,00:00:00.26,-0.0454313720110804
66,00:00:00.264,-0.02662121155299248
67,00:00:00.268,0.000740817456971854
68,00:00:00.272,0.01982492289971561
69,00:00:00.276,0.04515558201819659
70,00:00:00.28,0.01232541542412943
71,00:00:00.284,-0.01344440481625497
72,00:00:00.288,-0.01129191229119893
73,00:00:00.292,-0.04241374507546426
74,00:00:00.296,-0.009724543313495888
75,00:00:00.3,0.0262230904772879
76,00:00:00.304,0.02124447003006935
77,00:00:00.308,-0.01303139032097533
78,00:00:00.312,0.01825073477812112
79,00:00:00.316,0.01850913488306102
80,00:00:00.32,-0.01907259342260656
81,00:00:00.324,-0.02810105937533079
82,00:00:00.328,2.3479573428629094e-05
83,00:00:00.332,0.01576174923684447
84,00:00:00.336,-0.010066437185741961
85,00:00:00.34,-0.008567027573008082
86,00:00:00.344,-0.0012093634577468003
87,00:00:00.348,0.02410727366805083
88,00:00:00.352,0.02547317941207436
89,00:00:00.356,-0.006569900084286939
90,00:00:00.36,-0.02889746613800529
91,00:00:00.364,-0.01165428408421576
92,00:00:00.368,0.025007044896483442
93,00:00:00.372,-0.005102464463561789
94,00:00:00.376,-0.01615586312254891
95,00:00:00.38,-0.008822126314043999
96,00:00:00.384,0.00439912173897028
97,00:00:00.388,0.01536628790199757
98,00:00:00.392,0.02897752006538215
99,00:00:00.396,-0.0037800695572514143
100,00:00:00.4,-0.02683595987036823
101,00:00:00.404,-0.0003737010010809146
102,00:00:00.408,0.0024473241064697404
103,00:00:00.412,-0.008571064565330742
104,00:00:00.416,-0.00844409409910438
105,00:00:00.42,0.0129079981707037
106,00:00:00.424,0.01628226367756721
107,00:00:00.428,-0.01458163373172287
108,00:00:00.432,0.00740033143665643
109,00:00:00.436,0.017766949895303738
110,00:00:00.44,-0.0032440875656903
111,00:00:00.444,-0.03373343439307065
112,00:00:00.448,-0.010757572017610044
113,00:00:00.452,-0.00629946938715875
114,00:00:00.456,0.05982177611440417
115,00:00:00.46,-0.008911465760320422
116,00:00:00.464,-0.028156497515738017
117,00:00:00.468,0.0229801004752517
118,00:00:00.472,-0.02593584638088943
119,00:00:00.476,-0.00629224418662489
120,00:00:00.48,0.02335501182824369
121,00:00:00.484,0.02157951371191305
122,00:00:00.488,-0.004471169784665171
123,00:00:00.492,-0.03602844334818655
124,00:00:00.496,-0.01439223508350551
125,00:00:00.5,0.01600520254578437
126,00:00:00.504,0.010933261364698448
127,00:00:00.508,0.00715847394894808
128,00:00:00.512,0.01102072885259986
129,00:00:00.516,-0.004920322564430517
130,00:00:00.52,-0.015836310107260988
131,00:00:00.524,-0.013620632722449951
132,00:00:00.528,0.012571819941513256
133,00:00:00.532,0.02248904970474544
134,00:00:00.536,0.01433986797928815
135,00:00:00.54,-0.027401168830692782
136,00:00:00.544,-0.03546181600540882
137,00:00:00.548,0.0006164466612972319
138,00:00:00.552,0.02456571860238909
139,00:00:00.556,0.03334951528813686
140,00:00:00.56,-0.01537122041918338
141,00:00:00.564,-0.02395024616271254
142,00:00:00.568,0.006261654780246319
143,00:00:00.572,-0.0009965810459107091
144,00:00:00.576,0.025756502989679582
145,00:00:00.58,-0.0037768224719911805
146,00:00:00.584,-0.036020891275256844
147,00:00:00.588,0.0032739536836743285
148,00:00:00.592,0.02933830441907044
149,00:00:00.596,-0.0006054777186363892
150,00:00:00.6,-0.008530380320735269
151,00:00:00.604,-0.0021372002083808197
152,00:00:00.608,-0.00753419613465667
153,00:00:00.612,-0.00148528721183538
154,00:00:00.616,0.008209196384996174
155,00:00:00.62,0.005634509027004223
156,00:00:00.624,-0.0016721403226256301
157,00:00:00.628,-0.0009566342923790078
158,00:00:00.632,-0.0017795090097934012
159,00:00:00.636,-0.01431242702528835
160,00:00:00.64,0.02947771013714375
161,00:00:00.644,-0.0037825097097084004
162,00:00:00.648,-0.025261051952838925
163,00:00:00.652,-0.0011468071024864912
164,00:00:00.656,0.008274177322164181
165,00:00:00.66,-0.002281998371472585
166,00:00:00.664,0.01780365043669013
167,00:00:00.668,0.014084442052990202
168,00:00:00.672,-0.01926976582035422
169,00:00:00.676,-0.020045133540406823
170,00:00:00.68,0.0010304818861186504
171,00:00:00.684,0.013794470345601441
172,00:00:00.688,0.002833038743119691
173,00:00:00.692,0.00460037111770362
174,00:00:00.696,0.006560059307958007
175,00:00:00.7,-0.007089767794241196
176,00:00:00.704,-0.01715107238851487
177,00:00:00.708,0.00736209587194026
178,00:00:00.712,0.007045449797260517
179,00:00:00.716,-0.01784098031930622
180,00:00:00.72,0.006240220041945582
181,00:00:00.724,0.021123975748196192
182,00:00:00.728,0.004435172304511072
183,00:00:00.732,0.00024463800946248335
184,00:00:00.736,-0.03555237501859669
185,00:00:00.74,-0.01861696410924194
186,00:00:00.744,0.01864923001267016
187,00:00:00.748,0.04879119293764226
188,00:00:00.752,-0.014865861739963295
189,00:00:00.756,-0.0057090257032541645
190,00:00:00.76,-0.012943345820531249
191,00:00:00.764,-0.01537276967428625
192,00:00:00.768,0.006446182494983079
193,00:00:00.772,0.01968737266724927
194,00:00:00.776,0.00775224925018847
195,00:00:00.78,-0.015387987019494192
196,00:00:00.784,-0.00425816664937884
197,00:00:00.788,-0.0018171693955082431
198,00:00:00.792,-0.0047890895511955005
199,00:00:00.796,0.01091345120221376
200,00:00:00.8,0.007480848347768179
201,00:00:00.804,0.010397624486358798
202,00:00:00.808,-0.018598184455186108
203,00:00:00.812,-0.011314803356071955
204,00:00:00.816,-0.010833801061380658
205,00:00:00.82,0.01593888783827421
206,00:00:00.824,0.010910287732258451
207,00:00:00.828,0.017142403870820992
208,00:00:00.832,-0.00637043057940898
209,00:00:00.836,-0.025729311630129773
210,00:00:00.84,0.006293661543168129
211,00:00:00.844,-0.00093229755293578
212,00:00:00.848,-0.007884712656959893
213,00:00:00.852,0.010484793514478957
214,00:00:00.856,0.03236495051532984
215,00:00:00.86,-0.01510714762844146
216,00:00:00.864,-0.029418225865811123
217,00:00:00.868,-0.014720371691510054
218,00:00:00.872,0.016249777050688807
219,00:00:00.876,0.0165354769560508
220,00:00:00.88,0.02120794402435417
221,00:00:00.884,0.0027309494507790043
222,00:00:00.888,-0.03927443083375692
223,00:00:00.892,-0.012940992834046448
224,00:00:00.896,0.03064049105159938
225,00:00:00.9,-0.0171434371732175
226,00:00:00.904,-0.0072450763545930386
227,00:00:00.908,0.03203328605741264
228,00:00:00.912,0.017920851008966548
229,00:00:00.916,-0.013246165821328738
230,00:00:00.92,-0.0258184680715203
231,00:00:00.924,-0.008307095617055907
232,00:00:00.928,0.005357032525353137
233,00:00:00.932,0.00989184889476746
234,00:00:00.936,-0.0010072207078337695
235,00:00:00.94,-0.0025417325086892102
236,00:00:00.944,-0.006695926014799621
237,00:00:00.948,0.015859909966820844
238,00:00:00.952,0.015978560899384316
239,00:00:00.956,-0.009687735058832912
240,00:00:00.96,-0.015224441653117529
241,00:00:00.964,-0.009156457468634471
242,00:00:00.968,0.005827318411320449
243,00:00:00.972,0.0223159184679389
244,00:00:00.976,-0.0158476289361715
245,00:00:00.98,-0.01175203174352645
246,00:00:00.984,0.0010508601553737302
247,00:00:00.988,0.01883780374191698
248,00:00:00.992,0.006709792651236059
249,00:00:00.996,-0.004050682007800791
250,00:00:01,-0.01020588306710121
251,00:00:01.004,-0.0106757580069825
252,00:00:01.008,0.007406375138089055
253,00:00:01.012,-0.005830934271216449
254,00:00:01.016,0.017224484472535512
255,00:00:01.02,-0.01527802401687948
256,00:00:01.024,0.00617120787501335
257,00:00:01.028,0.01143348752520979
258,00:00:01.032,0.01028666619095021
259,00:00:01.036,0.00062620363314636
260,00:00:01.04,-0.06142423581331968
261,00:00:01.044,0.0061912755481899106
262,00:00:01.048,0.0377651152666659
263,00:00:01.052,0.0136600702535361
264,00:00:01.056,0.004571137251332411
265,00:00:01.06,-0.011971119500231024
266,00:00:01.064,-0.006467590341344519
267,00:00:01.068,-0.01017986796796321
268,00:00:01.072,-0.014757531811483211
269,00:00:01.076,0.01409666694235057
270,00:00:01.08,-0.0008764468402660021
271,00:00:01.084,0.024308660067617918
272,00:00:01.088,0.01456232625059784
273,00:00:01.092,-0.0320144346915186
274,00:00:01.096,-0.015141574433073386
275,00:00:01.1,0.007080050127115121
276,00:00:01.104,0.0029686416964977897
277,00:00:01.108,-0.01043911534361541
278,00:00:01.112,0.015970793843735027
279,00:00:01.116,0.022194888908416064
280,00:00:01.12,0.005414444487541921
281,00:00:01.124,-0.020068050362169743
282,00:00:01.128,-0.029589078389108216
283,00:00:01.132,0.017104588827351122
284,00:00:01.136,-0.00576096796430647
285,00:00:01.14,0.00883946986868976
286,00:00:01.144,0.01070856163278221
287,00:00:01.148,0.013425459095742531
288,00:00:01.152,-0.02191130979917942
289,00:00:01.156,-0.01880363782402125
290,00:00:01.16,0.02961518475785847
291,00:00:01.164,0.003731412813067451
292,00:00:01.168,-0.025516363326460147
293,00:00:01.172,-0.00027939258143303003
294,00:00:01.176,0.008079188002739096
295,00:00:01.18,-0.00754399073775857
296,00:00:01.184,0.014323799638077651
297,00:00:01.188,0.02883568499237301
298,00:00:01.192,-0.017872467637062118
299,00:00:01.196,-0.013168938225135209
300,00:00:01.2,-0.016973283607512706
301,00:00:01.204,-0.01791596726980056
302,00:00:01.208,0.02605154900811613
303,00:00:01.212,0.02914759726263578
304,00:00:01.216,0.002017084392718949
305,00:00:01.22,-0.02473310148343439
306,00:00:01.224,-0.005941518349573039
307,00:00:01.228,0.00413742824457586
308,00:00:01.232,-0.00227546831592921
309,00:00:01.236,0.002932914532721039
310,00:00:01.24,0.0017636870034038995
311,00:00:01.244,0.0021130300592631097
312,00:00:01.248,0.01197757199406623
313,00:00:01.252,0.00503058265894651
314,00:00:01.256,-0.02071332745254035
315,00:00:01.26,-0.01976726483553648
316,00:00:01.264,0.006244597025215628
317,00:00:01.268,0.01572286151349543
318,00:00:01.272,0.01626938884146512
319,00:00:01.276,-0.0026734771672636205
320,00:00:01.28,-0.01980960322543976
321,00:00:01.284,-0.01461559673771257
322,00:00:01.288,0.020994348451495167
323,00:00:01.292,0.01533591822953895
324,00:00:01.296,0.010904779133852575
325,00:00:01.3,-0.0352997090667486
326,00:00:01.304,0.0040256306529045105
327,00:00:01.308,0.0008938345126807707
328,00:00:01.312,-0.00557835957442876
329,00:00:01.316,-0.0031990496790967895
330,00:00:01.32,0.01011783955618739
331,00:00:01.324,0.0076044044690206595
332,00:00:01.328,0.02423435053788129
333,00:00:01.332,-0.005845024730660951
334,00:00:01.336,-0.029156154952943294
335,00:00:01.34,-0.008163889404386284
336,00:00:01.344,-0.01022787531837821
337,00:00:01.348,0.0011030575260519999
338,00:00:01.352,0.035154844546923414
339,00:00:01.356,0.002854119520634419
340,00:00:01.36,-0.0006453759269788803
341,00:00:01.364,-0.014505615661619238
342,00:00:01.368,-0.00393548386637121
343,00:00:01.372,0.001167769543826581
344,00:00:01.376,0.008754480746574714
345,00:00:01.38,0.008385344175621869
346,00:00:01.384,-0.02450058551039547
347,00:00:01.388,-0.000812960555776945
348,00:00:01.392,0.02395843842532481
349,00:00:01.396,-0.011216383427381512
350,00:00:01.4,-0.02507191174663607
351,00:00:01.404,0.021366567350924022
352,00:00:01.408,0.01573984953574841
353,00:00:01.412,0.0038094252813607697
354,00:00:01.416,-0.0011666790232993628
355,00:00:01.42,-0.03311652131378656
356,00:00:01.424,-0.008732873480767008
357,00:00:01.428,0.027160219382494636
358,00:00:01.432,0.0168999574379995
359,00:00:01.436,-0.02410500054247675
360,00:00:01.44,0.0020961510599590847
361,00:00:01.444,0.0105937784537673
362,00:00:01.448,-0.00739809370134026
363,00:00:01.452,0.005436846287921059
364,00:00:01.456,-0.002512771869078281
365,00:00:01.46,0.01086826249957082
366,00:00:01.464,-0.015624265419319269
367,00:00:01.468,-0.023566999938338922
368,00:00:01.472,0.003867129562422634
369,00:00:01.476,0.03351902507711198
370,00:00:01.48,-0.002587510854937135
371,00:00:01.484,0.02004942961502817
372,00:00:01.488,-0.01147900428622961
373,00:00:01.492,-0.04196931370825038
374,00:00:01.496,-0.0010567253921180946
375,00:00:01.5,0.01992075843736526
376,00:00:01.504,0.021803836105391376
377,00:00:01.508,-0.01016075431834906
378,00:00:01.512,0.00042187524377367783
379,00:00:01.516,0.004954196512699119
380,00:00:01.52,-0.015980639873305332
381,00:00:01.524,-0.013206025527324559
382,00:00:01.528,0.01035412878263742
383,00:00:01.532,0.02614841051399703
384,00:00:01.536,-0.009024653816595665
385,00:00:01.54,-0.01736554270610213
386,00:00:01.544,-0.0060812282608822005
387,00:00:01.548,0.011098138988018001
388,00:00:01.552,-0.0075263492180965815
389,00:00:01.556,0.019793018233031
390,00:00:01.56,0.01822309405542911
391,00:00:01.564,-0.006476731447037309
392,00:00:01.568,-0.03450357588008045
393,00:00:01.572,-0.018035162705928053
394,00:00:01.576,0.0232893330976367
395,00:00:01.58,0.01118716178461909
396,00:00:01.584,-0.010864194016903634
397,00:00:01.588,0.00887557340320199
398,00:00:01.592,0.03557360870763661
399,00:00:01.596,-0.00119475577957928
400,00:00:01.6,-0.04713641013950104
401,00:00:01.604,-0.02824821183457974
402,00:00:01.608,0.01295358970673988
403,00:00:01.612,0.021079334896057837
404,00:00:01.616,0.034562192857265486
405,00:00:01.62,0.00016139732906594526
406,00:00:01.624,-0.03193173138424753
407,00:00:01.628,-0.018605378223583102
408,00:00:01.632,-0.008634007419459518
409,00:00:01.636,0.028939384734258077
410,00:00:01.64,0.03369178716093301
411,00:00:01.644,-0.005197923484956844
412,00:00:01.648,-0.03854128718376165
413,00:00:01.652,-0.007383457617834221
414,00:00:01.656,0.014144455897621809
415,00:00:01.66,0.00894883973523974
416,00:00:01.664,-0.0021949282381683605
417,00:00:01.668,-0.0047869174741208605
418,00:00:01.672,0.00145224807783962
419,00:00:01.676,0.01512280528550036
420,00:00:01.68,-6.305632996373659e-05
421,00:00:01.684,-0.017912370851263397
422,00:00:01.688,-0.0187066809739918
423,00:00:01.692,0.00923759862780572
424,00:00:01.696,0.022762656211853027
425,00:00:01.7,0.0007288531051017353
426,00:00:01.704,-0.0016788619686849355
427,00:00:01.708,-0.01932406332343814
428,00:00:01.712,0.002597269834950549
429,00:00:01.716,0.0311983157880604
430,00:00:01.72,-0.01597360731102526
431,00:00:01.724,-0.027482218341901888
432,00:00:01.728,0.005497443838976322
433,00:00:01.732,0.016209769790293642
434,00:00:01.736,0.01820958638563748
435,00:00:01.74,-0.009543559222947803
436,00:00:01.744,-0.007915390189737082
437,00:00:01.748,-0.01765995973255485
438,00:00:01.752,0.007978585315868257
439,00:00:01.756,-0.003810399386566136
440,00:00:01.76,0.03322513843886557
441,00:00:01.764,-0.0035383726935833684
442,00:00:01.768,-0.024730666540563072
443,00:00:01.772,0.003114985069259999
444,00:00:01.776,0.0032700351439416404
445,00:00:01.78,0.004910439834930006
446,00:00:01.784,-0.0068765834439545905
447,00:00:01.788,-0.016829953761771328
448,00:00:01.792,0.01273902214597911
449,00:00:01.796,0.03653413802385336
450,00:00:01.8,-0.014859400689601919
451,00:00:01.804,-0.027420436730608354
452,00:00:01.808,-0.008119106059893959
453,00:00:01.812,0.009130883729085321
454,00:00:01.816,0.02038649911992251
455,00:00:01.82,0.009745820425450812
456,00:00:01.824,-0.02597701456397777
457,00:00:01.828,0.00378557131625712
458,00:00:01.832,0.0003418319392949395
459,00:00:01.836,0.0074074635049328
460,00:00:01.84,-0.010210216976702189
461,00:00:01.844,0.006727058906108082
462,00:00:01.848,0.007198889390565459
463,00:00:01.852,-0.0045321541838347894
464,00:00:01.856,-0.0034797661937773002
465,00:00:01.86,-0.0127158225513995
466,00:00:01.864,-0.0012985593639314192
467,00:00:01.868,0.01240660878829659
468,00:00:01.872,0.02454149327240885
469,00:00:01.876,0.01354828278999775
470,00:00:01.88,-0.030403096228838015
471,00:00:01.884,-0.04682846972718832
472,00:00:01.888,-0.0014214408583939206
473,00:00:01.892,0.05568791483528911
474,00:00:01.896,0.011399564864404963
475,00:00:01.9,-0.022265679668635182
476,00:00:01.904,-0.012465935200452801
477,00:00:01.908,0.006681005819700653
478,00:00:01.912,0.019798037828877568
479,00:00:01.916,-0.01178514340426776
480,00:00:01.92,-0.016371327103115618
481,00:00:01.924,0.0007060038042254711
482,00:00:01.928,-0.00513889640569687
483,00:00:01.932,0.02465843711979689
484,00:00:01.936,0.02324334066361189
485,00:00:01.94,-0.02059988025575873
486,00:00:01.944,-0.023519905284047078
487,00:00:01.948,-0.011904250946827231
488,00:00:01.952,0.018437167051160896
489,00:00:01.956,0.01701623341068626
490,00:00:01.96,-0.0011670293752104
491,00:00:01.964,-0.009434135630726856
492,00:00:01.968,-6.171395216370023e-05
493,00:00:01.972,-0.00043505936628207564
494,00:00:01.976,-0.0017781390342861692
495,00:00:01.98,-0.00787438021507114
496,00:00:01.984,-0.0007324905600398987
497,00:00:01.988,0.00959271262399857
498,00:00:01.992,0.01299589220434427
499,00:00:01.996,-0.01134102605283256
500,00:00:02,-0.00012455371324904436
501,00:00:02.004,-0.005750323180109261
502,00:00:02.008,-0.003452494362136344
503,00:00:02.012,0.00283895013853908
504,00:00:02.016,0.001463823922676963
505,00:00:02.02,0.018659169552847743
506,00:00:02.024,0.009140315931290431
507,00:00:02.028,-0.01279591536149383
508,00:00:02.032,-0.03486601170152426
509,00:00:02.036,-0.0016417328261013617
510,00:00:02.04,0.010197345167398468
511,00:00:02.044,0.03360458416864274
512,00:00:02.048,0.0014662631583632901
513,00:00:02.052,-0.0112541448324918
514,00:00:02.056,-0.009105816250666973
515,00:00:02.06,-0.003278178628534129
516,00:00:02.064,-0.00724593480117619
517,00:00:02.068,-0.01029607627424412
518,00:00:02.072,0.017874250450404385
519,00:00:02.076,0.023353716824203726
520,00:00:02.08,-0.0025637140497565295
521,00:00:02.084,-0.01424069958738982
522,00:00:02.088,-0.01268113683909178
523,00:00:02.092,-0.00482884675147944
524,00:00:02.096,-0.005643470969516784
525,00:00:02.1,0.02042333909776066
526,00:00:02.104,0.021059791324660182
527,00:00:02.108,-0.00655957634444349
528,00:00:02.112,-0.010591692291200118
529,00:00:02.116,2.246978692709836e-05
530,00:00:02.12,-0.0008066700538620387
531,00:00:02.124,-0.02572359819896511
532,00:00:02.128,0.0021004244918003704
533,00:00:02.132,0.013681687414646138
534,00:00:02.136,0.0041360169998370085
535,00:00:02.14,0.0235924802254885
536,00:00:02.144,0.01792509714141494
537,00:00:02.148,-0.02190628414973613
538,00:00:02.152,-0.047517164610326276
539,00:00:02.156,-0.00247722491621971
540,00:00:02.16,0.01104685966856778
541,00:00:02.164,0.011578171979635937
542,00:00:02.168,0.02844733535312119
543,00:00:02.172,0.018931439612060792
544,00:00:02.176,-0.020540725905448153
545,00:00:02.18,-0.01469386229291558
546,00:00:02.184,-0.014412948192330124
547,00:00:02.188,-0.01687369961291551
548,00:00:02.192,-0.00020444765686988917
549,00:00:02.196,0.04207438044250009
550,00:00:02.2,0.023362253094092043
551,00:00:02.204,-0.02757490135263648
552,00:00:02.208,-0.00636733393184841
553,00:00:02.212,-0.0055626356042921595
554,00:00:02.216,-0.034698177361860864
555,00:00:02.22,0.0291529544629157
556,00:00:02.224,0.028775083832442767
557,00:00:02.228,-0.010788609099108702
558,00:00:02.232,-0.010353314690291894
559,00:00:02.236,0.006959625752642751
560,00:00:02.24,-0.00381527235731482
561,00:00:02.244,0.007974737323820622
562,00:00:02.248,-0.01549600939324596
563,00:00:02.252,-0.01296734018251299
564,00:00:02.256,0.01287180790677667
565,00:00:02.26,0.0017865319969132506
566,00:00:02.264,0.01543815038166944
567,00:00:02.268,0.015202629147097517
568,00:00:02.272,-0.022499251179397113
569,00:00:02.276,-0.03733380557969218
570,00:00:02.28,0.016342256683856252
571,00:00:02.284,0.022432442754506978
572,00:00:02.288,0.008284840674605257
573,00:00:02.292,0.0058125322102569035
574,00:00:02.296,-0.006634477525949478
575,00:00:02.3,-0.014539660420268798
576,00:00:02.304,-0.020334017623099537
577,00:00:02.308,-7.18405935913307e-05
578,00:00:02.312,0.01849784504156559
579,00:00:02.316,0.021951874383375976
580,00:00:02.32,-0.00931515125557778
581,00:00:02.324,-0.01389214349910619
582,00:00:02.328,-0.00901455106213684
583,00:00:02.332,0.005244926549494279
584,00:00:02.336,0.015627629356458783
585,00:00:02.34,0.01505172951146963
586,00:00:02.344,0.003188466536812479
587,00:00:02.348,-0.03456315444782373
588,00:00:02.352,-0.01505775121040647
589,00:00:02.356,-0.0019617936777649447
590,00:00:02.36,0.017008968163281648
591,00:00:02.364,0.03537536179646848
592,00:00:02.368,-0.016538168303668492
593,00:00:02.372,-0.0107356328517199
594,00:00:02.376,0.01730205351486799
595,00:00:02.38,-0.01012714114040136
596,00:00:02.384,-0.02354503516107798
597,00:00:02.388,-0.002171333180740481
598,00:00:02.392,0.00588135537691415
599,00:00:02.396,0.02179102052468806
600,00:00:02.4,0.00406921049579974
601,00:00:02.404,0.00630117161199451
602,00:00:02.408,-0.01152410032227635
603,00:00:02.412,-0.02036640141159299
604,00:00:02.416,0.01088607951533049
605,00:00:02.42,-0.01231052062939852
606,00:00:02.424,-0.005714342813007528
607,00:00:02.428,0.02424345817416911
608,00:00:02.432,0.02836124459281565
609,00:00:02.436,-0.012239876203238959
610,00:00:02.44,-0.016070316545665243
611,00:00:02.444,-0.016285910736769438
612,00:00:02.448,-0.010846156161278507
613,00:00:02.452,0.015497661661356691
614,00:00:02.456,0.02241301257163287
615,00:00:02.46,-0.005580836441367868
616,00:00:02.464,-0.026702825212851077
617,00:00:02.468,0.00013778684660793045
618,00:00:02.472,0.040069314767606626
619,00:00:02.476,-0.002683639759197832
620,00:00:02.48,-0.01339879166334867
621,00:00:02.484,-0.00985165522433818
622,00:00:02.488,-0.02363632246851922
623,00:00:02.492,0.0156438041012734
624,00:00:02.496,0.007360368035733701
625,00:00:02.5,0.00850749190431093
626,00:00:02.504,0.0192232709378004
627,00:00:02.508,0.00042179599404335087
628,00:00:02.512,-0.02677797898650167
629,00:00:02.516,-0.025101714301854407
630,00:00:02.52,0.004002889967523494
631,00:00:02.524,0.041726895957253894
632,00:00:02.528,0.010091757401824001
633,00:00:02.532,-0.02275752415880566
634,00:00:02.536,-0.020626884652301673
635,00:00:02.54,-0.01039063604548573
636,00:00:02.544,0.0017224459443241314
637,00:00:02.548,0.02197768213227396
638,00:00:02.552,0.03643271420150996
639,00:00:02.556,0.0057296653976664
640,00:00:02.56,-0.032167889643460484
641,00:00:02.564,-0.04045408638194197
642,00:00:02.568,0.003051185398362578
643,00:00:02.572,0.019545602146536122
644,00:00:02.576,0.0360613986849784
645,00:00:02.58,-0.0021593683923128958
646,00:00:02.584,-0.02066087163984774
647,00:00:02.588,-0.006475088463048452
648,00:00:02.592,-0.00448238803073764
649,00:00:02.596,-0.01936486084014183
650,00:00:02.6,0.01606170018203554
651,00:00:02.604,0.022320699878037017
652,00:00:02.608,0.009880921337753527
653,00:00:02.612,-0.00990418158471584
654,00:00:02.616,-0.018985063245054296
655,00:00:02.62,0.0007507343552788379
656,00:00:02.624,-0.003683035844005645
657,00:00:02.628,-0.003795468714088199
658,00:00:02.632,0.006247674697078771
659,00:00:02.636,0.01680753473192458
660,00:00:02.64,0.024588411673903528
661,00:00:02.644,-0.01256491569802165
662,00:00:02.648,-0.03171116928569973
663,00:00:02.652,0.00011996965622529387
664,00:00:02.656,0.01236933493055401
665,00:00:02.66,-0.01672322815284133
666,00:00:02.664,-0.011252224590862166
667,00:00:02.668,0.025717188837006646
668,00:00:02.672,0.019249602919444442
669,00:00:02.676,-0.0020821441430598497
670,00:00:02.68,-0.011887500440934683
671,00:00:02.684,-0.015067570901010182
672,00:00:02.688,0.015926857478916683
673,00:00:02.692,0.00568149634636939
674,00:00:02.696,-0.0071622286923229694
675,00:00:02.7,-0.02106815343722701
676,00:00:02.704,-0.004782859701663259
677,00:00:02.708,0.024729460477829
678,00:00:02.712,0.01278656919021162
679,00:00:02.716,-0.012019336340017589
680,00:00:02.72,-0.005357758607715365
681,00:00:02.724,0.0033801073441281507
682,00:00:02.728,-0.0067511965753510594
683,00:00:02.732,0.006396959157427783
684,00:00:02.736,0.010205981729086459
685,00:00:02.74,-0.011133907246403348
686,00:00:02.744,-0.004572933132294563
687,00:00:02.748,-0.0087028294801712
688,00:00:02.752,0.011676684429403394
689,00:00:02.756,-0.01198343513533474
690,00:00:02.76,0.018316484231036143
691,00:00:02.764,0.022129677294287862
692,00:00:02.768,-0.013849092414602639
693,00:00:02.772,-0.024156079860404082
694,00:00:02.776,-0.0028435746207833303
695,00:00:02.78,0.00830918340943752
696,00:00:02.784,0.0010291595244780209
697,00:00:02.788,-0.0018607480451464696
698,00:00:02.792,0.01777508459053934
699,00:00:02.796,-0.00196700927335769
700,00:00:02.8,-0.019676534924656153
701,00:00:02.804,0.031440737657248974
702,00:00:02.808,-0.01532881031744183
703,00:00:02.812,-0.02141205593943598
704,00:00:02.816,-0.005042689852416522
705,00:00:02.82,0.01920032291673123
706,00:00:02.824,-0.0014059985987842395
707,00:00:02.828,0.006298188585788029
708,00:00:02.832,0.022874735761433854
709,00:00:02.836,-0.009887441992759713
710,00:00:02.84,-0.01575505174696445
711,00:00:02.844,-0.04266042192466556
712,00:00:02.848,0.022217860911041498
713,00:00:02.852,0.03210149798542262
714,00:00:02.856,-0.00231701880693436
715,00:00:02.86,-0.005580291632213628
716,00:00:02.864,0.017104424536228197
717,00:00:02.868,-0.006392914569005365
718,00:00:02.872,-0.0341285814065486
719,00:00:02.876,0.007878068834543221
720,00:00:02.88,-0.013366445200517779
721,00:00:02.884,0.013204199261963319
722,00:00:02.888,0.02703548036515716
723,00:00:02.892,0.00503374414984137
724,00:00:02.896,-0.006633067852817498
725,00:00:02.9,-0.022125338233308905
726,00:00:02.904,-0.011968391860136736
727,00:00:02.908,0.02283599332440645
728,00:00:02.912,0.017093788133934168
729,00:00:02.916,-0.01972258859314022
730,00:00:02.92,-0.02752958610653878
731,00:00:02.924,0.01313470012973993
732,00:00:02.928,0.022561950550880255
733,00:00:02.932,-0.001070243772119281
734,00:00:02.936,0.0033681504428386628
735,00:00:02.94,-0.002190890198107813
736,00:00:02.944,-0.012423815904185169
737,00:00:02.948,-0.008258526679128412
738,00:00:02.952,0.02664110169280328
739,00:00:02.956,-0.01022697449661791
740,00:00:02.96,-0.02087163354735821
741,00:00:02.964,0.012545560253784059
742,00:00:02.968,-0.005492612137459215
743,00:00:02.972,0.008780458010733131
744,00:00:02.976,-0.00500055705197158
745,00:00:02.98,0.021605793386697728
746,00:00:02.984,0.011241889616940212
747,00:00:02.988,-0.032213166821748
748,00:00:02.992,-0.019308008253574357
749,00:00:02.996,0.0070483412127941795
750,00:00:03,0.046147373970598066
751,00:00:03.004,-0.03518377244472499
752,00:00:03.008,0.012904396106023336
753,00:00:03.012,-0.00643622339703142
754,00:00:03.016,-0.004132014058995994
755,00:00:03.02,0.003589628729969271
756,00:00:03.024,0.002000702603254469
757,00:00:03.028,-0.00905018439516425
758,00:00:03.032,-0.0001884229714050902
759,00:00:03.036,0.01114794192835688
760,00:00:03.04,0.003383062739885643
761,00:00:03.044,-0.01048218715004623
762,00:00:03.048,-0.000273108627879997
763,00:00:03.052,-0.0008322168141603505
764,00:00:03.056,0.021287832729285604
765,00:00:03.06,0.004789666971191771
766,00:00:03.064,-0.02793591446243229
767,00:00:03.068,-0.01399103109724819
768,00:00:03.072,0.00920678325928747
769,00:00:03.076,-0.008997975848615166
770,00:00:03.08,0.02791966777294876
771,00:00:03.084,0.02053555834572761
772,00:00:03.088,-0.02383718313649298
773,00:00:03.092,-0.01587680168449879
774,00:00:03.096,0.011317705415422093
775,00:00:03.1,0.022766375914216083
776,00:00:03.104,-0.02085804659873245
777,00:00:03.108,-0.028043052618158957
778,00:00:03.112,-0.002704196143895391
779,00:00:03.116,0.02886774996295571
780,00:00:03.12,0.03246302343904977
781,00:00:03.124,-0.01000361912883818
782,00:00:03.128,-0.015822322282474502
783,00:00:03.132,-0.015220381545077544
784,00:00:03.136,-0.0058348909951746394
785,00:00:03.14,-0.0012095558049622472
786,00:00:03.144,0.006746548693627159
787,00:00:03.148,0.009334559552371498
788,00:00:03.152,0.01897178596118465
789,00:00:03.156,0.00012235873145982666
790,00:00:03.16,-0.036579104140400893
791,00:00:03.164,0.006962028972338884
792,00:00:03.168,0.010728640307206695
793,00:00:03.172,-0.002876901475247001
794,00:00:03.176,0.005369045189581813
795,00:00:03.18,0.0050922948867082604
796,00:00:03.184,-0.00519713712856174
797,00:00:03.188,0.015691783279180513
798,00:00:03.192,-0.023508342215791313
799,00:00:03.196,-0.01744309929199513
800,00:00:03.2,0.00392297352664169
801,00:00:03.204,0.025929418858140617
802,00:00:03.208,0.006274912273511321
803,00:00:03.212,-0.00877872458659111
804,00:00:03.216,0.0006111967377364583
805,00:00:03.22,0.000233820115681742
806,00:00:03.224,-0.012493408285081388
807,00:00:03.228,-0.011933189234696289
808,00:00:03.232,0.0048961031716317
809,00:00:03.236,0.01804983895272015
810,00:00:03.24,0.0078090845490805805
811,00:00:03.244,0.0006091108953114568
812,00:00:03.248,-0.007959885755553838
813,00:00:03.252,0.0008369422284886215
814,00:00:03.256,-0.01116206101141872
815,00:00:03.26,-0.00995631993282586
816,00:00:03.264,0.0018666675314306796
817,00:00:03.268,0.015393009758554368
818,00:00:03.272,0.0010147679131478002
819,00:00:03.276,0.005560549208894381
820,00:00:03.28,-0.007741399109363599
821,00:00:03.284,0.010032288380898592
822,00:00:03.288,0.00166121986694633
823,00:00:03.292,-0.015636550029739748
824,00:00:03.296,-0.0013110252621118031
825,00:00:03.3,-0.00712005689274519
826,00:00:03.304,0.00028588483110070055
827,00:00:03.308,0.0147324581630528
828,00:00:03.312,0.0034951749257743393
829,00:00:03.316,-0.00013125129044050908
830,00:00:03.32,-0.02012595708947628
831,00:00:03.324,-0.0007495712488890111
832,00:00:03.328,0.028742000344209376
833,00:00:03.332,0.009237191756255925
834,00:00:03.336,-0.02157258661463857
835,00:00:03.34,-0.024084051605313978
836,00:00:03.344,0.008371674091904428
837,00:00:03.348,0.01850118162110445
838,00:00:03.352,0.01062682829797269
839,00:00:03.356,-0.004661314829718315
840,00:00:03.36,-0.003292196197435291
841,00:00:03.364,-0.010961988475173729
842,00:00:03.368,-0.01728595094755292
843,00:00:03.372,0.0035768364323303134
844,00:00:03.376,0.018565533595392487
845,00:00:03.38,0.0006780220428481698
846,00:00:03.384,-0.0007448517717421046
847,00:00:03.388,0.015432454529218374
848,00:00:03.392,-0.002143068122677479
849,00:00:03.396,-0.01480319234542549
850,00:00:03.4,-0.02458155946806077
851,00:00:03.404,0.027172865346074153
852,00:00:03.408,0.00452733971178532
853,00:00:03.412,-0.01031417935155338
854,00:00:03.416,-0.0008162874728440891
855,00:00:03.42,-0.0013933611917309515
856,00:00:03.424,0.016968022100627506
857,00:00:03.428,-0.00969997129868716
858,00:00:03.432,0.0018667120020836384
859,00:00:03.436,-0.004290848097298291
860,00:00:03.44,-0.01582410454284395
861,00:00:03.444,0.009363397024571889
862,00:00:03.448,0.01358470506966118
863,00:00:03.452,0.0029166386229917403
864,00:00:03.456,-0.003408320248126911
865,00:00:03.46,-0.005032952030887792
866,00:00:03.464,0.008915853046346458
867,00:00:03.468,-0.023261003661900783
868,00:00:03.472,-0.011511929333209998
869,00:00:03.476,0.0414301319979132
870,00:00:03.48,0.005737976403906939
871,00:00:03.484,-0.02898055518744514
872,00:00:03.488,-0.015241453379985604
873,00:00:03.492,0.01703796815127133
874,00:00:03.496,0.012555714696645709
875,00:00:03.5,0.002835673280060289
876,00:00:03.504,-0.01443284470587969
877,00:00:03.508,0.014309253077954023
878,00:00:03.512,-0.00996634922921659
879,00:00:03.516,-0.014844461344182543
880,00:00:03.52,0.009348340798169371
881,00:00:03.524,0.007746169576421338
882,00:00:03.528,0.0008017283980734586
883,00:00:03.532,0.00079627707600596
884,00:00:03.536,-0.003318723975098688
885,00:00:03.54,0.01002467353828252
886,00:00:03.544,-0.01642704289406538
887,00:00:03.548,-0.011222552973777044
888,00:00:03.552,0.019699152326211312
889,00:00:03.556,0.0177870314801112
890,00:00:03.56,-0.02722240169532595
891,00:00:03.564,-0.0031301958370022515
892,00:00:03.568,-0.007224156521260801
893,00:00:03.572,0.0067649355623871105
894,00:00:03.576,0.0407527657225728
895,00:00:03.58,-0.01725328111206183
896,00:00:03.584,-0.029426883091218752
897,00:00:03.588,0.004570532124489541
898,00:00:03.592,0.019784898555371896
899,00:00:03.596,0.0030533791868947416
900,00:00:03.6,9.96830640360661e-05
901,00:00:03.604,-0.01129863422829657
902,00:00:03.608,-0.01731652556918561
903,00:00:03.612,-0.006682375911623241
904,00:00:03.616,0.0114273331128061
905,00:00:03.62,0.0236538671888411
906,00:00:03.624,0.01407856063451618
907,00:00:03.628,-0.00905732018873095
908,00:00:03.632,-0.01294922828674316
909,00:00:03.636,-0.02270042058080432
910,00:00:03.64,-0.004605270456522657
911,00:00:03.644,0.023436578456312432
912,00:00:03.648,0.02590228011831637
913,00:00:03.652,-0.017706336919218312
914,00:00:03.656,-0.02559206169098619
915,00:00:03.66,0.018127266492228972
916,00:00:03.664,0.004728517378680411
917,00:00:03.668,-0.01855976122897118
918,00:00:03.672,0.02064556302502751
919,00:00:03.676,-0.005245057749562011
920,00:00:03.68,-0.0037155898753553594
921,00:00:03.684,0.006116696633398559
922,00:00:03.688,0.002171264030039321
923,00:00:03.692,-0.02148927142843603
924,00:00:03.696,0.02160688093863428
925,00:00:03.7,0.007927634113002532
926,00:00:03.704,-0.009519599378109011
927,00:00:03.708,-0.01228931173682209
928,00:00:03.712,-0.016737295314669557
929,00:00:03.716,0.02967597544193265
930,00:00:03.72,0.0002213314874097705
931,00:00:03.724,-0.020013921428471783
932,00:00:03.728,0.01100472966209054
933,00:00:03.732,0.01830477500334382
934,00:00:03.736,-0.0005375638138502802
935,00:00:03.74,-0.009038167423568671
936,00:00:03.744,-0.0025746023748069984
937,00:00:03.748,-0.005988891643937681
938,00:00:03.752,-0.01867834781296549
939,00:00:03.756,0.0010062190704047897
940,00:00:03.76,0.01966104772873224
941,00:00:03.764,0.01006382750347257
942,00:00:03.768,0.01671106001595031
943,00:00:03.772,-0.008493288303725421
944,00:00:03.776,-0.01382952276617292
945,00:00:03.78,-0.0009353169007226799
946,00:00:03.784,-0.028882275568321302
947,00:00:03.788,-0.00071706681046635
948,00:00:03.792,0.027906019240617728
949,00:00:03.796,0.019401512108743198
950,00:00:03.8,-0.012564334087073768
951,00:00:03.804,-0.020858915522694577
952,00:00:03.808,0.00022246642038227038
953,00:00:03.812,0.01195725146681075
954,00:00:03.816,0.026023308280855372
955,00:00:03.82,-0.0031599355861544097
956,00:00:03.824,-0.018090477569785435
957,00:00:03.828,-0.02282828278839589
958,00:00:03.832,-0.011038664029911167
959,00:00:03.836,0.032679788244422525
960,00:00:03.84,0.00951897795312107
961,00:00:03.844,-0.01310911262407895
962,00:00:03.848,-0.004906324786134069
963,00:00:03.852,-0.001443200977519151
964,00:00:03.856,0.02570629166439171
965,00:00:03.86,0.022065322962589586
966,00:00:03.864,-0.03791839629411693
967,00:00:03.868,-0.046113281510770265
968,00:00:03.872,0.01209269696846605
969,00:00:03.876,0.02730823657475404
970,00:00:03.88,0.017108602449297818
971,00:00:03.884,0.012737975455820592
972,00:00:03.888,-0.010552651481702948
973,00:00:03.892,-0.01037677121348679
974,00:00:03.896,-0.0003335166838951434
975,00:00:03.9,-0.0018844460137188409
976,00:00:03.904,-0.036960586905479445
977,00:00:03.908,0.0035944075789302414
978,00:00:03.912,0.032490101177245476
979,00:00:03.916,0.03333691705483938
980,00:00:03.92,-0.008782585908193145
981,00:00:03.924,-0.03991096280515187
982,00:00:03.928,-0.0043321382254362
983,00:00:03.932,0.0201593572273851
984,00:00:03.936,0.01712598185986277
985,00:00:03.94,-0.018864597193896805
986,00:00:03.944,-0.01855233195237818
987,00:00:03.948,0.0012601600028574397
988,00:00:03.952,0.005204687731747978
989,00:00:03.956,0.03159658843651415
990,00:00:03.96,-0.00578382015373791
991,00:00:03.964,0.00028968160040676203
992,00:00:03.968,-0.01245992013718933
993,00:00:03.972,-0.01813628524541855
994,00:00:03.976,0.01999898365465925
995,00:00:03.98,-0.005994835053570566
996,00:00:03.984,-0.01807208059472032
997,00:00:03.988,0.02111956849694252
998,00:00:03.992,-0.001354480278678244
999,00:00:03.996,0.011401813477277731
1000,00:00:04,0.021921043749898658
1001,00:00:04.004,-0.02975630201399328
1002,00:00:04.008,-0.034105093334801495
1003,00:00:04.012,0.013049211498582736
1004,00:00:04.016,0.028086856007575958
1005,00:00:04.02,0.0024291455047205
1006,00:00:04.024,-0.007143554277718071
1007,00:00:04.028,-0.015455075947102156
1008,00:00:04.032,-0.01822325959801676
1009,00:00:04.036,0.035045947181060896
1010,00:00:04.04,0.013243867142591582
1011,00:00:04.044,0.0001767897047102807
1012,00:00:04.048,-0.012891245285572929
1013,00:00:04.052,-0.014756976161152142
1014,00:00:04.056,-0.0018634982407093104
1015,00:00:04.06,-0.00958147994242608
1016,00:00:04.064,0.013396408176049588
1017,00:00:04.068,0.001981923007406289
1018,00:00:04.072,0.011574720905628062
1019,00:00:04.076,0.013120886869728529
1020,00:00:04.08,-0.0008820495568215808
1021,00:00:04.084,-0.03378334501758213
1022,00:00:04.088,-0.015243571251630818
1023,00:00:04.092,0.02650313079357149
1024,00:00:04.096,0.016607161145657297
1025,00:00:04.1,-0.0035916089545935293
1026,00:00:04.104,0.00763410970102995
1027,00:00:04.108,-0.0346681573428214
1028,00:00:04.112,-0.02572235919069503
1029,00:00:04.116,0.0342141855508089
1030,00:00:04.12,0.02082748385146262
1031,00:00:04.124,0.028435819345759214
1032,00:00:04.128,-0.03921282524242993
1033,00:00:04.132,0.0036416656803339702
1034,00:00:04.136,-0.000449500279500999
1035,00:00:04.14,-0.0441298377991188
1036,00:00:04.144,0.016007158788852442
1037,00:00:04.148,0.0156737901270389
1038,00:00:04.152,0.036655334755778264
1039,00:00:04.156,0.012658034102059899
1040,00:00:04.16,-0.03557821363210676
1041,00:00:04.164,-0.03843825682997703
1042,00:00:04.168,0.006398523109965069
1043,00:00:04.172,0.02326040109619497
1044,00:00:04.176,-0.00821090815588831
1045,00:00:04.18,0.02513626124709852
1046,00:00:04.184,0.01754407421685756
1047,00:00:04.188,-0.015694342786446165
1048,00:00:04.192,-0.029181345831602798
1049,00:00:04.196,-0.00592162110842765
1050,00:00:04.2,0.01041962916497141
1051,00:00:04.204,-0.02172861923463641
1052,00:00:04.208,0.03514722781255839
1053,00:00:04.212,0.029613049235194956
1054,00:00:04.216,-0.02037206757813696
1055,00:00:04.22,-0.01401459728367628
1056,00:00:04.224,-0.020387162454426292
1057,00:00:04.228,-0.0005002076504751901
1058,00:00:04.232,0.017862289678305412
1059,00:00:04.236,0.01717668212950229
1060,00:00:04.24,0.00042777182534336957
1061,00:00:04.244,-0.010490143671631789
1062,00:00:04.248,-0.01118821736599784
1063,00:00:04.252,-0.005524424370378271
1064,00:00:04.256,0.009328977670520539
1065,00:00:04.26,0.03436615969985723
1066,00:00:04.264,-0.04097008629469203
1067,00:00:04.268,-0.03332642244640735
1068,00:00:04.272,0.02455033874139187
1069,00:00:04.276,0.03357132710516448
1070,00:00:04.28,0.01947615714743733
1071,00:00:04.284,-0.01494495221413672
1072,00:00:04.288,-0.01231263019144532
1073,00:00:04.292,-0.01386264245957141
1074,00:00:04.296,-0.024128664284944472
1075,00:00:04.3,0.02241132687777283
1076,00:00:04.304,0.008469432126730722
1077,00:00:04.308,-0.011920991237275323
1078,00:00:04.312,0.007680159178562461
1079,00:00:04.316,0.026833138195797808
1080,00:00:04.32,-0.00491132168099284
1081,00:00:04.324,-0.0062350328080356295
1082,00:00:04.328,-0.004500012320932008
1083,00:00:04.332,-0.03209557291120293
1084,00:00:04.336,-0.001490545633714654
1085,00:00:04.34,0.005617045273538677
1086,00:00:04.344,0.025019157212227604
1087,00:00:04.348,0.00659979053307325
1088,00:00:04.352,0.0031670266762376005
1089,00:00:04.356,0.015244037611410039
1090,00:00:04.36,-0.01840493408963085
1091,00:00:04.364,-0.033031186088919674
1092,00:00:04.368,-0.00564622203819453
1093,00:00:04.372,0.018332111416384578
1094,00:00:04.376,0.007922949444036929
1095,00:00:04.38,0.02183706872165207
1096,00:00:04.384,-0.010820214054547247
1097,00:00:04.388,-0.017082429530091762
1098,00:00:04.392,-0.0010959298306261207
1099,00:00:04.396,0.03448183042928574
1100,00:00:04.4,-0.026473046746104928
1101,00:00:04.404,-0.02085759548936042
1102,00:00:04.408,0.00617222326036426
1103,00:00:04.412,0.019576870836317553
1104,00:00:04.416,0.0034447436919435885
1105,00:00:04.42,0.0014093115460127883
1106,00:00:04.424,0.006895753089338538
1107,00:00:04.428,-0.034020175458863405
1108,00:00:04.432,-0.0028585250256583095
1109,00:00:04.436,0.02672416390851148
1110,00:00:04.44,0.00964606925845146
1111,00:00:04.444,-0.01268758915830404
1112,00:00:04.448,-0.00378669705241919
1113,00:00:04.452,-0.0011182178859598987
1114,00:00:04.456,0.0038651545764878414
1115,00:00:04.46,-0.00792151223868133
1116,00:00:04.464,-0.0008878966327756695
1117,00:00:04.468,-0.00896689505316312
1118,00:00:04.472,0.018076097185257815
1119,00:00:04.476,0.016526433872058995
1120,00:00:04.48,-0.008414553711190818
1121,00:00:04.484,-0.021971350302919787
1122,00:00:04.488,-0.00027551129460333997
1123,00:00:04.492,0.016611610481049904
1124,00:00:04.496,0.012224001693539318
1125,00:00:04.5,-0.004953589988872406
1126,00:00:04.504,-0.030005934648215778
1127,00:00:04.508,0.009006844367831932
1128,00:00:04.512,0.03294026758521792
1129,00:00:04.516,-0.0404402911663055
1130,00:00:04.52,-0.01418863190338014
1131,00:00:04.524,0.045096830464899554
1132,00:00:04.528,-0.002578137442469597
1133,00:00:04.532,-0.011085094884037982
1134,00:00:04.536,-0.0015621380880475495
1135,00:00:04.54,0.017563992179930193
1136,00:00:04.544,-0.01099441223777832
1137,00:00:04.548,-0.02557167853228744
1138,00:00:04.552,0.004650507977203231
1139,00:00:04.556,0.03532942413585263
1140,00:00:04.56,-0.01287901634350419
1141,00:00:04.564,-0.036701565142720896
1142,00:00:04.568,0.00670856120996177
1143,00:00:04.572,0.03962380136363203
1144,00:00:04.576,-0.0018027698388323231
1145,00:00:04.58,0.01229023758787665
1146,00:00:04.584,-0.01611264166422189
1147,00:00:04.588,-0.04981461120769379
1148,00:00:04.592,0.02674833571654748
1149,00:00:04.596,0.030600219033658473
1150,00:00:04.6,-0.013059693039394932
1151,00:00:04.604,-0.01618204358965159
1152,00:00:04.608,-0.009431265294551851
1153,00:00:04.612,0.027373715594876596
1154,00:00:04.616,0.0064547248184680895
1155,00:00:04.62,-0.007154970662668351
1156,00:00:04.624,0.00441890140064061
1157,00:00:04.628,-0.01161283697001636
1158,00:00:04.632,-0.0093137258663774
1159,00:00:04.636,-0.01612371625378724
1160,00:00:04.64,0.01182195497676728
1161,00:00:04.644,0.014941739384084888
1162,00:00:04.648,0.026504594949074072
1163,00:00:04.652,-0.001294268527999523
1164,00:00:04.656,-0.028877988457679752
1165,00:00:04.66,-0.01931702517322266
1166,00:00:04.664,0.002887997825837373
1167,00:00:04.668,0.029447617736877898
1168,00:00:04.672,0.00424972176551818
1169,00:00:04.676,-0.0012879096320830546
1170,00:00:04.68,-0.02932012372184544
1171,00:00:04.684,-0.0021936129778623494
1172,00:00:04.688,0.020955542568117342
1173,00:00:04.692,0.01589062856510281
1174,00:00:04.696,-0.00805237097665671
1175,00:00:04.7,-0.031152039358858033
1176,00:00:04.704,0.006360243307426598
1177,00:00:04.708,0.016343526804121176
1178,00:00:04.712,0.008828433114103968
1179,00:00:04.716,0.005364595330320317
1180,00:00:04.72,-0.02030610409565273
1181,00:00:04.724,-0.007279945071786621
1182,00:00:04.728,-0.0076902518048883005
1183,00:00:04.732,0.012197404052130881
1184,00:00:04.736,0.015368899679742788
1185,00:00:04.74,0.020564281148836048
1186,00:00:04.744,-0.00468697329051793
1187,00:00:04.748,-0.02667779475450516
1188,00:00:04.752,-0.011189931887202001
1189,00:00:04.756,-0.011298515019007041
1190,00:00:04.76,-0.004108935128897431
1191,00:00:04.764,0.027908020652830597
1192,00:00:04.768,0.02000347943976527
1193,00:00:04.772,-0.008001206908375025
1194,00:00:04.776,0.010661264881491661
1195,00:00:04.78,-0.0033429320319555665
1196,00:00:04.784,-0.022923270124010752
1197,00:00:04.788,-0.02932776417583223
1198,00:00:04.792,-0.00941994180902839
1199,00:00:04.796,0.0442089531570672
1200,00:00:04.8,0.01740173017606144
1201,00:00:04.804,0.023365860339254182
1202,00:00:04.808,-0.010629866388626402
1203,00:00:04.812,-0.054938952904194586
1204,00:00:04.816,-0.0022397483699023897
1205,00:00:04.82,0.008399965241551417
1206,00:00:04.824,-0.0036488664336502205
1207,00:00:04.828,0.03443117637652909
1208,00:00:04.832,0.03844932571519167
1209,00:00:04.836,-0.03635951736941926
1210,00:00:04.84,-0.03691784106194971
1211,00:00:04.844,-0.010090648778714233
1212,00:00:04.848,0.02211606060154742
1213,00:00:04.852,0.01903129322454333
1214,00:00:04.856,-0.01516230031847956
1215,00:00:04.86,0.01064513006713241
1216,00:00:04.864,0.00981523003429181
1217,00:00:04.868,-0.001415547216311101
1218,00:00:04.872,-0.02310607174877075
1219,00:00:04.876,0.0030704411910846777
1220,00:00:04.88,0.021536496467888352
1221,00:00:04.884,0.0018854197114705987
1222,00:00:04.888,-0.0345100290142
1223,00:00:04.892,-0.01412463164888323
1224,00:00:04.896,0.0208118623122573
1225,00:00:04.9,0.03101625759154563
1226,00:00:04.904,0.004164726996350508
1227,00:00:04.908,-0.030450322665274202
1228,00:00:04.912,-0.004925601824652449
1229,00:00:04.916,0.018182659172453
1230,00:00:04.92,-0.0050419350154697895
1231,00:00:04.924,-0.014599786140024608
1232,00:00:04.928,0.0025586024858057395
1233,00:00:04.932,0.01541249081492423
1234,00:00:04.936,0.014023159397765942
1235,00:00:04.94,-0.01234331191517412
1236,00:00:04.944,-0.014479843608569349
1237,00:00:04.948,0.014470731024630371
1238,00:00:04.952,-0.00501265795901418
1239,00:00:04.956,-0.01963898446410899
1240,00:00:04.96,0.021672859904356297
1241,00:00:04.964,-0.0020660995505750596
1242,00:00:04.968,-0.015263831359334328
1243,00:00:04.972,0.00038586492883041284
1244,00:00:04.976,0.009902155929012222
1245,00:00:04.98,0.032811239128932385
1246,00:00:04.984,-0.002685681101866069
1247,00:00:04.988,-0.02502309723058715
1248,00:00:04.992,-0.01363871525973083
1249,00:00:04.996,-0.0152574237436056
1250,00:00:05,0.012004976568277934
1251,00:00:05.004,0.01002716552466153
1252,00:00:05.008,0.01527207653271035
1253,00:00:05.012,-0.01107062166556715
1254,00:00:05.016,0.02603645296767352
1255,00:00:05.02,0.01792679604841392
1256,00:00:05.024,-0.04473912483081218
1257,00:00:05.028,-0.038481791038066135
1258,00:00:05.032,-0.01281302166171372
1259,00:00:05.036,0.03424792760051788
1260,00:00:05.04,0.04254857357591385
1261,00:00:05.044,0.023272390943020582
1262,00:00:05.048,-0.02089214883744721
1263,00:00:05.052,-0.019512176513671868
1264,00:00:05.056,-0.00964115816168487
1265,00:00:05.06,-0.044738634256646065
1266,00:00:05.064,0.00700863660313189
1267,00:00:05.068,0.03988668683450669
1268,00:00:05.072,0.01637751795351505
1269,00:00:05.076,0.01920289150439204
1270,00:00:05.08,1.7446465790262218e-05
1271,00:00:05.084,-0.023618196602910736
1272,00:00:05.088,-0.03554302104748788
1273,00:00:05.092,-0.011063692742027342
1274,00:00:05.096,0.01809035870246593
1275,00:00:05.1,0.01197513018269092
1276,00:00:05.104,0.03290204587392511
1277,00:00:05.108,-0.009624258207622922
1278,00:00:05.112,-0.01727907406166198
1279,00:00:05.116,-0.005956242559477709
1280,00:00:05.12,-0.002618255501147361
1281,00:00:05.124,0.00788485095836225
1282,00:00:05.128,-0.00424510706216097
1283,00:00:05.132,-0.012027488555759181
1284,00:00:05.136,0.010453527153003992
1285,00:00:05.14,0.018447386100888273
1286,00:00:05.144,0.0013794674305244795
1287,00:00:05.148,0.007673527579754598
1288,00:00:05.152,-0.01943198125809429
1289,00:00:05.156,-0.02415048354305325
1290,00:00:05.16,0.008748480584472421
1291,00:00:05.164,0.010897287022089556
1292,00:00:05.168,0.00025053233548533605
1293,00:00:05.172,0.011225836118683219
1294,00:00:05.176,-0.01783495349809528
1295,00:00:05.18,0.007977410219609739
1296,00:00:05.184,0.00812088418751954
1297,00:00:05.188,-0.00933934981003406
1298,00:00:05.192,-0.002663662977283817
1299,00:00:05.196,0.02742738369852305
1300,00:00:05.2,-0.0074864530470222105
1301,00:00:05.204,-0.01688620215281845
1302,00:00:05.208,-0.01767215458676217
1303,00:00:05.212,-3.768573515117082e-05
1304,00:00:05.216,0.0036382683611009227
1305,00:00:05.22,0.004221325041726228
1306,00:00:05.224,0.014622526708990361
1307,00:00:05.228,0.03748430428095162
1308,00:00:05.232,0.0028562283841893094
1309,00:00:05.236,-0.04607465397566554
1310,00:00:05.24,-0.036947676679119454
1311,00:00:05.244,0.008550849277526102
1312,00:00:05.248,0.020077539607882493
1313,00:00:05.252,0.008763040241319688
1314,00:00:05.256,0.015361045836471021
1315,00:00:05.26,0.01745465770363808
1316,00:00:05.264,-0.0173859118949622
1317,00:00:05.268,-0.0382137643173337
1318,00:00:05.272,0.011045870836824189
1319,00:00:05.276,0.02521149860695006
1320,00:00:05.28,-0.00046316860243678386
1321,00:00:05.284,-0.00672304525505751
1322,00:00:05.288,-0.01955579780042174
1323,00:00:05.292,-0.014751619426533618
1324,00:00:05.296,0.03173775563482199
1325,00:00:05.3,0.019643002189695852
1326,00:00:05.304,0.006027825176715849
1327,00:00:05.308,-0.026116360444575618
1328,00:00:05.312,-0.018120104970876117
1329,00:00:05.316,0.01311341515975073
1330,00:00:05.32,0.00994565244764089
1331,00:00:05.324,-0.014518352691084122
1332,00:00:05.328,-0.00842541380552575
1333,00:00:05.332,0.02799089439213275
1334,00:00:05.336,0.0020629849750548584
1335,00:00:05.34,-0.02294709812849758
1336,00:00:05.344,-0.004960056568961585
1337,00:00:05.348,0.015501325950026509
1338,00:00:05.352,0.012282915413379662
1339,00:00:05.356,0.0019782261661021048
1340,00:00:05.36,-0.012015648535452781
1341,00:00:05.364,-0.014459505211561871
1342,00:00:05.368,-0.0054823281243443385
1343,00:00:05.372,-0.0004880214110017794
1344,00:00:05.376,0.0118208252824843
1345,00:00:05.38,0.012348097749054418
1346,00:00:05.384,0.03292334312573076
1347,00:00:05.388,-0.00411102536600084
1348,00:00:05.392,-0.029816978611052106
1349,00:00:05.396,-0.04805280937580392
1350,00:00:05.4,0.004979410237865519
1351,00:00:05.404,0.021943844854831748
1352,00:00:05.408,0.014561212854459882
1353,00:00:05.412,0.0017107550520449799
1354,00:00:05.416,0.022260638885199982
1355,00:00:05.42,0.01981473481282599
1356,00:00:05.424,-0.03005071263760324
1357,00:00:05.428,-0.04141806624829773
1358,00:00:05.432,-0.0023905816487968003
1359,00:00:05.436,0.02658222976606345
1360,00:00:05.44,0.011721772607415918
1361,00:00:05.444,-0.0006066779606044318
1362,00:00:05.448,-0.010021035501267763
1363,00:00:05.452,0.000792009406723079
1364,00:00:05.456,0.005606048041954631
1365,00:00:05.46,0.01056683855131268
1366,00:00:05.464,-0.007498603546991939
1367,00:00:05.468,-0.018085171934217218
1368,00:00:05.472,-0.007401925977319451
1369,00:00:05.476,0.0378734283149243
1370,00:00:05.48,0.0074728444451465795
1371,00:00:05.484,-0.057857503183186
1372,00:00:05.488,0.027028339682146928
1373,00:00:05.492,0.01748109702020884
1374,00:00:05.496,-0.03531691874377429
1375,00:00:05.5,0.01348587556276468
1376,00:00:05.504,0.01975820085499431
1377,00:00:05.508,0.004381230624858323
1378,00:00:05.512,-0.0122134352568537
1379,00:00:05.516,-0.0027972103562205666
1380,00:00:05.52,-0.00316678464878351
1381,00:00:05.524,-0.007316608913242784
1382,00:00:05.528,0.0089468783698976
1383,00:00:05.532,-0.0055953736882656795
1384,00:00:05.536,0.012419589125784116
1385,00:00:05.54,0.004269735421985391
1386,00:00:05.544,-0.007229612641822308
1387,00:00:05.548,-0.0039155334234238
1388,00:00:05.552,-0.0033786715612222967
1389,00:00:05.556,-0.0017766994424164512
1390,00:00:05.56,0.01500219712033868
1391,00:00:05.564,0.01319269859232004
1392,00:00:05.568,-0.02023424953222275
1393,00:00:05.572,-0.024712666170671548
1394,00:00:05.576,0.019902207888662787
1395,00:00:05.58,0.00851608859375118
1396,00:00:05.584,-0.021352549316361578
1397,00:00:05.588,0.005070358747616403
1398,00:00:05.592,0.01846725190989678
1399,00:00:05.596,0.004433879628777511
1400,00:00:05.6,-0.0015451757353730472
1401,00:00:05.604,-0.012079996668035164
1402,00:00:05.608,-0.006330798991257319
1403,00:00:05.612,0.0033363651018589787
1404,00:00:05.616,0.0009426451870240317
1405,00:00:05.62,0.011105292651336637
1406,00:00:05.624,-0.006680674501694742
1407,00:00:05.628,0.02013027819339189
1408,00:00:05.632,-0.01469962857663635
1409,00:00:05.636,-0.021981388053973202
1410,00:00:05.64,-0.0033983271569013604
1411,00:00:05.644,0.01314420287963003
1412,00:00:05.648,0.011692710861098026
1413,00:00:05.652,0.0020538028329610794
1414,00:00:05.656,-0.00036908430047333067
1415,00:00:05.66,-0.005423807655461127
1416,00:00:05.664,-0.004135713446885269
1417,00:00:05.668,0.0009586839005351101
1418,00:00:05.672,0.0033098787534982005
1419,00:00:05.676,0.0004167324514128285
1420,00:00:05.68,-0.0018719699000939712
1421,00:00:05.684,-0.0187447642092593
1422,00:00:05.688,0.0064569059759378294
1423,00:00:05.692,0.015093855676241212
1424,00:00:05.696,0.0232878103852272
1425,00:00:05.7,-0.009940588381141422
1426,00:00:05.704,-0.01492958201561126
1427,00:00:05.708,-0.02094886265695095
1428,00:00:05.712,0.002801995258778338
1429,00:00:05.716,0.027723051141947497
1430,00:00:05.72,0.00814087630715221
1431,00:00:05.724,-0.02943323832005262
1432,00:00:05.728,-0.01244639279320835
1433,00:00:05.732,0.00237282714806497
1434,00:00:05.736,0.020288574974983882
1435,00:00:05.74,0.0334017938002944
1436,00:00:05.744,-0.0007398559246212313
1437,00:00:05.748,-0.03501764917746186
1438,00:00:05.752,-0.026146233547478918
1439,00:00:05.756,-0.00026741588953881784
1440,00:00:05.76,0.02238198358099906
1441,00:00:05.764,0.01803827541880311
1442,00:00:05.768,0.02594555355608466
1443,00:00:05.772,-0.01857418147847053
1444,00:00:05.776,-0.03315122053027154
1445,00:00:05.78,-0.01992314448580146
1446,00:00:05.784,0.004373041505459687
1447,00:00:05.788,0.030462020076811317
1448,00:00:05.792,0.01613561611156907
1449,00:00:05.796,0.02450833888724447
1450,00:00:05.8,-0.008151227608323097
1451,00:00:05.804,-0.04907059483230114
1452,00:00:05.808,-0.02901177201420074
1453,00:00:05.812,0.017193270381540032
1454,00:00:05.816,0.02226971974596379
1455,00:00:05.82,0.030925021972507225
1456,00:00:05.824,0.00223956396803259
1457,00:00:05.828,-0.024754375685006342
1458,00:00:05.832,-0.012809254229068721
1459,00:00:05.836,0.010806599399074865
1460,00:00:05.84,-0.005072335305158048
1461,00:00:05.844,-0.0038439081326941942
1462,00:00:05.848,-0.013298800098709769
1463,00:00:05.852,0.02426536084385588
1464,00:00:05.856,0.024115948239341378
1465,00:00:05.86,-0.01972241373732687
1466,00:00:05.864,-0.018411160097457427
1467,00:00:05.868,-0.006472663604654372
1468,00:00:05.872,0.002043628162937237
1469,00:00:05.876,0.02090509049594403
1470,00:00:05.88,0.02603898334200498
1471,00:00:05.884,-0.009698372799903151
1472,00:00:05.888,-0.030978654278442267
1473,00:00:05.892,-0.015518372412770962
1474,00:00:05.896,0.0059479416813701304
1475,00:00:05.9,0.017803399357944682
1476,00:00:05.904,0.00499597715679557
1477,00:00:05.908,-0.003404255810892207
1478,00:00:05.912,0.007350984727963805
1479,00:00:05.916,0.01251341856550426
1480,00:00:05.92,-0.005758473329478878
1481,00:00:05.924,-0.020339566675829715
1482,00:00:05.928,-0.013931455556303242
1483,00:00:05.932,-0.01383567776065325
1484,00:00:05.936,0.013298311270773409
1485,00:00:05.94,0.03827300970442601
1486,00:00:05.944,0.0179293812252582
1487,00:00:05.948,-0.019461427349597212
1488,00:00:05.952,-0.03016110695898531
1489,00:00:05.956,-0.00034299161052331936
1490,00:00:05.96,0.02688046090770508
1491,00:00:05.964,-0.011010203976184131
1492,00:00:05.968,-0.02684243349358431
1493,00:00:05.972,0.01128140510991216
1494,00:00:05.976,0.01887672394514084
1495,00:00:05.98,0.01494253263808791
1496,00:00:05.984,-0.01670637715142222
1497,00:00:05.988,-0.011093803681433199
1498,00:00:05.992,0.01102367183193565
1499,00:00:05.996,-0.01146595831960437
1500,00:00:06,0.005775677189376446
1501,00:00:06.004,-0.0005564701277762599
1502,00:00:06.008,0.008936239872127771
1503,00:00:06.012,-0.00577788590453565
1504,00:00:06.016,0.0016467187087982893
1505,00:00:06.02,-0.0038292537792585786
1506,00:00:06.024,-0.0061954068951308805
1507,00:00:06.028,0.01924489904195074
1508,00:00:06.032,-0.02088197460398079
1509,00:00:06.036,0.002544169081375
1510,00:00:06.04,0.022181344218552158
1511,00:00:06.044,-0.0030320944497361797
1512,00:00:06.048,-0.027793340617790863
1513,00:00:06.052,0.02379512414336203
1514,00:00:06.056,-0.015378434793092338
1515,00:00:06.06,-0.01779434678610419
1516,00:00:06.064,0.014152036514133177
1517,00:00:06.068,0.0258384752087295
1518,00:00:06.072,0.014964418718591329
1519,00:00:06.076,-0.01805006107315417
1520,00:00:06.08,-0.02334782504476607
1521,00:00:06.084,-0.014578009024262428
1522,00:00:06.088,0.01572857273276894
1523,00:00:06.092,0.02449445321690286
1524,00:00:06.096,-0.0037325462326407506
1525,00:00:06.1,-0.02192671643570062
1526,00:00:06.104,0.012266745659871958
1527,00:00:06.108,0.019925694679841427
1528,00:00:06.112,-0.00674498011358083
1529,00:00:06.116,-0.03387836599722505
1530,00:00:06.12,0.0005932769272476513
1531,00:00:06.124,-0.0003354731015861104
1532,00:00:06.128,0.018267683684825932
1533,00:00:06.132,0.011825932189822171
1534,00:00:06.136,0.004768871702253809
1535,00:00:06.14,0.010628362651914362
1536,00:00:06.144,-0.025831732316873985
1537,00:00:06.148,-0.01842015422880649
1538,00:00:06.152,0.00507817533798516
1539,00:00:06.156,0.024792534299194802
1540,00:00:06.16,-0.0027916126418858697
1541,00:00:06.164,-0.01799677568487821
1542,00:00:06.168,0.0015374806243926308
1543,00:00:06.172,-0.02519945683889094
1544,00:00:06.176,0.02317037200555209
1545,00:00:06.18,0.049703952856361866
1546,00:00:06.184,-0.00437243131455034
1547,00:00:06.188,-0.03338563162833449
1548,00:00:06.192,-0.0203430486144498
1549,00:00:06.196,-0.0005265353247523303
1550,00:00:06.2,0.008766712970100341
1551,00:00:06.204,0.019861165899783373
1552,00:00:06.208,-0.0064085693447850575
1553,00:00:06.212,-0.007490272168070069
1554,00:00:06.216,0.006694380193948749
1555,00:00:06.22,-0.021637042751535728
1556,00:00:06.224,0.01306045125238597
1557,00:00:06.228,0.03338821721263224
1558,00:00:06.232,-0.01083754398860039
1559,00:00:06.236,-0.0228823741344968
1560,00:00:06.24,-0.010810358915477991
1561,00:00:06.244,0.013351572793908412
1562,00:00:06.248,-0.0045055895461700865
1563,00:00:06.252,-0.001901215990073979
1564,00:00:06.256,0.01834999257698655
1565,00:00:06.26,0.0025936873862519795
1566,00:00:06.264,0.0183647940866649
1567,00:00:06.268,-0.016899721289519224
1568,00:00:06.272,-0.03353999741375445
1569,00:00:06.276,-0.021473908331245198
1570,00:00:06.28,0.016675596045388392
1571,00:00:06.284,0.04761509771924459
1572,00:00:06.288,0.01084479875862598
1573,00:00:06.292,-0.0080914214486256
1574,00:00:06.296,-0.013942799298092768
1575,00:00:06.3,-0.02389696147292848
1576,00:00:06.304,-0.03102987259626388
1577,00:00:06.308,0.02042644494213168
1578,00:00:06.312,0.030235367128625512
1579,00:00:06.316,0.00733215245418251
1580,00:00:06.32,0.01053728212718852
1581,00:00:06.324,0.01659317757003014
1582,00:00:06.328,-0.05008744215592741
1583,00:00:06.332,-0.036622117389924824
1584,00:00:06.336,0.02467782446183258
1585,00:00:06.34,0.03510900540277361
1586,00:00:06.344,0.00233100587502122
1587,00:00:06.348,-0.010847740923054522
1588,00:00:06.352,-0.002292573743034148
1589,00:00:06.356,2.9132817871869478e-05
1590,00:00:06.36,0.005866348830750208
1591,00:00:06.364,-0.03199380123987796
1592,00:00:06.368,0.00909116165712475
1593,00:00:06.372,0.021936628036200972
1594,00:00:06.376,-0.00591792759951202
1595,00:00:06.38,-0.0038345288485288195
1596,00:00:06.384,0.004481432493776111
1597,00:00:06.388,-0.0037316113011911078
1598,00:00:06.392,0.010942257940769199
1599,00:00:06.396,0.0021615792647935797
1600,00:00:06.4,-0.006780726136639699
1601,00:00:06.404,-0.027499751537106938
1602,00:00:06.408,0.004151653512963101
1603,00:00:06.412,-0.002483335090801151
1604,00:00:06.416,0.03514341893605891
1605,00:00:06.42,0.021157584618777023
1606,00:00:06.424,-0.01557419262826439
1607,00:00:06.428,-0.03059053095057601
1608,00:00:06.432,-0.007519875769503439
1609,00:00:06.436,0.01766249188221991
1610,00:00:06.44,-0.005067155929282311
1611,00:00:06.444,-0.01155325374566019
1612,00:00:06.448,0.00462861312553287
1613,00:00:06.452,0.02239351114258166
1614,00:00:06.456,0.008215562746045176
1615,00:00:06.46,-0.0026661397423595216
1616,00:00:06.464,-0.0036805324489250796
1617,00:00:06.468,-0.03236181475222118
1618,00:00:06.472,-0.008708676556125288
1619,00:00:06.476,0.051690686494112
1620,00:00:06.48,-0.010854623949853709
1621,00:00:06.484,-0.014125539455562828
1622,00:00:06.488,-0.01509410503786055
1623,00:00:06.492,-0.009823331609368324
1624,00:00:06.496,0.043722162023186656
1625,00:00:06.5,0.0063682410400360805
1626,00:00:06.504,-0.002604227513074869
1627,00:00:06.508,-0.016848168859723945
1628,00:00:06.512,-0.030489875920466175
1629,00:00:06.516,0.015517900930717591
1630,00:00:06.52,0.01075367524754256
1631,00:00:06.524,-0.00535721605410799
1632,00:00:06.528,0.0040591157448943635
1633,00:00:06.532,0.01832487480714921
1634,00:00:06.536,-0.0004565486451610593
1635,00:00:06.54,-0.01627377187833191
1636,00:00:06.544,-0.02699375897645952
1637,00:00:06.548,0.013424263335764412
1638,00:00:06.552,0.029253525193780678
1639,00:00:06.556,0.007916983042377937
1640,00:00:06.56,-0.013224479742348201
1641,00:00:06.564,-0.020548932952806315
1642,00:00:06.568,0.0012130069080740205
1643,00:00:06.572,0.0102595523931086
1644,00:00:06.576,-0.0080100625636987
1645,00:00:06.58,0.001563814003020532
1646,00:00:06.584,0.01336920267203823
1647,00:00:06.588,0.00028058059979230903
1648,00:00:06.592,-0.01969432784244418
1649,00:00:06.596,0.00468440353870392
1650,00:00:06.6,0.02564529445953669
1651,00:00:06.604,-0.01720971299801024
1652,00:00:06.608,-0.0077260616235435
1653,00:00:06.612,0.006258719251491133
1654,00:00:06.616,-0.004322940330894198
1655,00:00:06.62,-0.0034035024000331785
1656,00:00:06.624,0.008980438346043233
1657,00:00:06.628,0.01838163472712039
1658,00:00:06.632,-0.018345022894209286
1659,00:00:06.636,-0.012063559261150663
1660,00:00:06.64,0.01189774647355079
1661,00:00:06.644,-0.0033970920194406045
1662,00:00:06.648,-0.013061433332040889
1663,00:00:06.652,0.0132331318454817
1664,00:00:06.656,0.02202896063681693
1665,00:00:06.66,-0.00977883755695075
1666,00:00:06.664,-0.009089658036828078
1667,00:00:06.668,-0.018327374011278152
1668,00:00:06.672,0.01016295817680657
1669,00:00:06.676,0.01138438028283413
1670,00:00:06.68,-0.00023830105783417566
1671,00:00:06.684,0.007591562578454621
1672,00:00:06.688,-0.0055021715816110294
1673,00:00:06.692,-0.03939289443951572
1674,00:00:06.696,0.030898816417902708
1675,00:00:06.7,0.028828252106905025
1676,00:00:06.704,-0.01965228002518411
1677,00:00:06.708,-0.01624440157320353
1678,00:00:06.712,-0.00350142153911293
1679,00:00:06.716,0.009800897212699049
1680,00:00:06.72,0.00187207420822233
1681,00:00:06.724,0.0080165956169367
1682,00:00:06.728,0.0024208607501350356
1683,00:00:06.732,0.002822903334163131
1684,00:00:06.736,-0.007180755783338097
1685,00:00:06.74,-0.0066149812191724985
1686,00:00:06.744,-0.01919250958599145
1687,00:00:06.748,-0.004059775672430988
1688,00:00:06.752,0.02280220645479854
1689,00:00:06.756,0.02966034295968709
1690,00:00:06.76,-0.0026477271458134003
1691,00:00:06.764,-0.022993615595623892
1692,00:00:06.768,-0.01994285348337145
1693,00:00:06.772,-0.010706251650844933
1694,00:00:06.776,0.01999094057828188
1695,00:00:06.78,0.02318233362166216
1696,00:00:06.784,0.0028408577200025407
1697,00:00:06.788,-0.0052957152947783505
1698,00:00:06.792,-0.004725161037640644
1699,00:00:06.796,-0.017361531034111973
1700,00:00:06.8,0.008061615633778278
1701,00:00:06.804,-0.00017737870803102677
1702,00:00:06.808,-0.017794355168007318
1703,00:00:06.812,0.01813789410516619
1704,00:00:06.816,0.03551413631066684
1705,00:00:06.82,-0.02437751216348264
1706,00:00:06.824,-0.034460040740668794
1707,00:00:06.828,-0.01897237007506189
1708,00:00:06.832,0.03821867541410029
1709,00:00:06.836,0.05211308272555468
1710,00:00:06.84,-0.003010374377481644
1711,00:00:06.844,-0.036532972357235856
1712,00:00:06.848,-0.043925694189965704
1713,00:00:06.852,0.0013034875737503197
1714,00:00:06.856,0.0429286444559693
1715,00:00:06.86,0.02276306389831007
1716,00:00:06.864,0.003427368355914946
1717,00:00:06.868,-0.0637600366026163
1718,00:00:06.872,-0.010592465638183108
1719,00:00:06.876,0.022766730748116925
1720,00:00:06.88,0.019956145231844868
1721,00:00:06.884,0.034342886414378895
1722,00:00:06.888,0.0071341225411743195
1723,00:00:06.892,-0.023567513097077643
1724,00:00:06.896,-0.01641389029100537
1725,00:00:06.9,-0.026520135230384777
1726,00:00:06.904,-0.024790418567135916
1727,00:00:06.908,0.023612598888576048
1728,00:00:06.912,0.01731570868287236
1729,00:00:06.916,0.02381817623972897
1730,00:00:06.92,0.02825817465782161
1731,00:00:06.924,-0.017060493119060993
1732,00:00:06.928,-0.037423505331389634
1733,00:00:06.932,-0.00965617550536994
1734,00:00:06.936,0.019621867162641103
1735,00:00:06.94,-0.002269648713991051
1736,00:00:06.944,-0.014354919549077711
1737,00:00:06.948,0.0017790279525797777
1738,00:00:06.952,0.0174200339242816
1739,00:00:06.956,0.01317040808498859
1740,00:00:06.96,0.002328037284314631
1741,00:00:06.964,-0.018547141924500462
1742,00:00:06.968,-0.015586427995003763
1743,00:00:06.972,0.01685042167082429
1744,00:00:06.976,-0.009717242792248691
1745,00:00:06.98,0.011959535506321103
1746,00:00:06.984,-0.0004900292333331888
1747,00:00:06.988,0.027344909962266635
1748,00:00:06.992,-0.005099401227198539
1749,00:00:06.996,-0.04200951289385557
1750,00:00:07,-0.02821465488523247
1751,00:00:07.004,0.01406277110800147
1752,00:00:07.008,0.050648808479309144
1753,00:00:07.012,0.011485003982670598
1754,00:00:07.016,-0.025978908990509763
1755,00:00:07.02,-0.011680764262564475
1756,00:00:07.024,0.0013282620348036012
1757,00:00:07.028,0.01900121709331868
1758,00:00:07.032,0.02037815004587173
1759,00:00:07.036,-0.05917699309065938
1760,00:00:07.04,-0.01743506477214396
1761,00:00:07.044,0.018219294928712774
1762,00:00:07.048,0.032900787889957386
1763,00:00:07.052,0.013457888533594085
1764,00:00:07.056,0.006355818826705241
1765,00:00:07.06,-0.00710557593265548
1766,00:00:07.064,-0.009684590680990377
1767,00:00:07.068,-0.018080476846080266
1768,00:00:07.072,-0.015216745203360919
1769,00:00:07.076,-0.0024357048678211885
1770,00:00:07.08,0.0018619630718603656
1771,00:00:07.084,0.01953254197724168
1772,00:00:07.088,0.01592118479311466
1773,00:00:07.092,0.01709774811752143
1774,00:00:07.096,-0.006247748708119599
1775,00:00:07.1,-0.03232715604826813
1776,00:00:07.104,-0.00814205966889859
1777,00:00:07.108,0.00458490726305172
1778,00:00:07.112,-0.00215950328856708
1779,00:00:07.116,0.014079177286475899
1780,00:00:07.12,0.01464304747059937
1781,00:00:07.124,0.00177049171179533
1782,00:00:07.128,-0.014117993181571321
1783,00:00:07.132,-0.022576742572709897
1784,00:00:07.136,0.02280470659025011
1785,00:00:07.14,0.00436265068128705
1786,00:00:07.144,0.011326786087010982
1787,00:00:07.148,-0.01591159764211625
1788,00:00:07.152,-0.015680139244068397
1789,00:00:07.156,0.001323129283264279
1790,00:00:07.16,0.005193677265196969
1791,00:00:07.164,0.006331384240183984
1792,00:00:07.168,-0.005951103754341602
1793,00:00:07.172,0.011174945859238509
1794,00:00:07.176,0.011136244633235011
1795,00:00:07.18,0.002966808388009671
1796,00:00:07.184,-0.02358803013339634
1797,00:00:07.188,-0.009175872037303634
1798,00:00:07.192,0.0005938492395216595
1799,00:00:07.196,0.013799997512251132
1800,00:00:07.2,0.0002670418471097996
1801,00:00:07.204,0.0017126654274761694
1802,00:00:07.208,0.015811633784323972
1803,00:00:07.212,-0.005586618557572372
1804,00:00:07.216,-0.02680567163042731
1805,00:00:07.22,0.0007393597043119372
1806,00:00:07.224,-0.003311415435746321
1807,00:00:07.228,0.0006779080722481004
1808,00:00:07.232,0.04065675940364604
1809,00:00:07.236,0.03782859927741808
1810,00:00:07.24,-0.04832115303724997
1811,00:00:07.244,-0.03936911933124072
1812,00:00:07.248,-0.027599016902968242
1813,00:00:07.252,0.027156371623277633
1814,00:00:07.256,0.028047162573784597
1815,00:00:07.26,0.018010167157626693
1816,00:00:07.264,0.016344905830919722
1817,00:00:07.268,-0.02283639321103691
1818,00:00:07.272,-0.04572536761406809
1819,00:00:07.276,0.019011070020496797
1820,00:00:07.28,0.009727991593535988
1821,00:00:07.284,0.01856716675683859
1822,00:00:07.288,0.01195126806851478
1823,00:00:07.292,-0.02328966581262649
1824,00:00:07.296,-0.023258928675204498
1825,00:00:07.3,-0.001994243073568219
1826,00:00:07.304,0.006501764524728084
1827,00:00:07.308,0.01638969453051684
1828,00:00:07.312,0.02517586993053559
1829,00:00:07.316,-0.01478193653747441
1830,00:00:07.32,-0.02939174743369221
1831,00:00:07.324,0.01984791364520787
1832,00:00:07.328,0.017635114607401157
1833,00:00:07.332,-0.02563427016139027
1834,00:00:07.336,-0.00746724416967482
1835,00:00:07.34,0.007813540287315858
1836,00:00:07.344,-0.005075884750112921
1837,00:00:07.348,0.01010862499242651
1838,00:00:07.352,0.00393958901986477
1839,00:00:07.356,-0.001018095819745212
1840,00:00:07.36,0.02207002975046635
1841,00:00:07.364,-0.02174188639037314
1842,00:00:07.368,-0.011771525256335732
1843,00:00:07.372,-0.00403033988550301
1844,00:00:07.376,0.00181010109372437
1845,00:00:07.38,0.011010638159859773
1846,00:00:07.384,-0.0072924587402667315
1847,00:00:07.388,0.012397103011608119
1848,00:00:07.392,0.00568651733919978
1849,00:00:07.396,-0.0017341319471597706
1850,00:00:07.4,0.00493785156868398
1851,00:00:07.404,-0.012935450416989621
1852,00:00:07.408,-0.023166577331721828
1853,00:00:07.412,0.02405333227397928
1854,00:00:07.416,0.012666423805058051
1855,00:00:07.42,-0.02439945272635665
1856,00:00:07.424,-0.009922077908413455
1857,00:00:07.428,0.018902909941971267
1858,00:00:07.432,0.009250794537365438
1859,00:00:07.436,0.00241725868545472
1860,00:00:07.44,-0.02089890139177438
1861,00:00:07.444,-0.011375536210834898
1862,00:00:07.448,0.026241817045956906
1863,00:00:07.452,0.016518865711986998
1864,00:00:07.456,0.0021902442676946503
1865,00:00:07.46,-0.022589159663766574
1866,00:00:07.464,-0.0180024215951562
1867,00:00:07.468,-0.00403628149069845
1868,00:00:07.472,0.02145608980208631
1869,00:00:07.476,0.021591235650703342
1870,00:00:07.48,-0.01268395847000647
1871,00:00:07.484,-0.042201243806630324
1872,00:00:07.488,0.011182428686879579
1873,00:00:07.492,0.03596959728747608
1874,00:00:07.496,0.02173459762707354
1875,00:00:07.5,-0.01572370226494968
1876,00:00:07.504,-0.04349150368943808
1877,00:00:07.508,-0.004267191514372822
1878,00:00:07.512,0.02505955612286927
1879,00:00:07.516,0.00855011845123954
1880,00:00:07.52,0.01318767643533647
1881,00:00:07.524,-0.01630734838545318
1882,00:00:07.528,-0.02316597080789507
1883,00:00:07.532,0.00630472099874169
1884,00:00:07.536,0.03485789208207275
1885,00:00:07.54,0.0002207875950261943
1886,00:00:07.544,-0.014249332190956913
1887,00:00:07.548,-0.021832925151102286
1888,00:00:07.552,-0.01251669693738221
1889,00:00:07.556,0.03037924878299231
1890,00:00:07.56,0.009877565695205709
1891,00:00:07.564,-0.01357658312190324
1892,00:00:07.568,-0.00812973687425255
1893,00:00:07.572,0.012080488493666077
1894,00:00:07.576,0.0111890584230423
1895,00:00:07.58,-0.02050955826416612
1896,00:00:07.584,-0.025111598341027316
1897,00:00:07.588,0.02671221829950813
1898,00:00:07.592,0.037779320206027436
1899,00:00:07.596,-0.007440839894115926
1900,00:00:07.6,-0.023251730948686593
1901,00:00:07.604,-0.02241218928247687
1902,00:00:07.608,0.0006493309047073612
1903,00:00:07.612,0.01501636789180334
1904,00:00:07.616,0.010937573853880132
1905,00:00:07.62,-0.003868923522532
1906,00:00:07.624,-0.008102730149403216
1907,00:00:07.628,0.01994234742596743
1908,00:00:07.632,-0.00266444869339467
1909,00:00:07.636,-0.012729553505778337
1910,00:00:07.64,-0.00864870846271515
1911,00:00:07.644,-0.02389101358130575
1912,00:00:07.648,0.01342763716820627
1913,00:00:07.652,0.031128116563195425
1914,00:00:07.656,0.0173258709255606
1915,00:00:07.66,0.004265894414857028
1916,00:00:07.664,-0.031721282051876194
1917,00:00:07.668,-0.01563415926648304
1918,00:00:07.672,-0.00368150405120105
1919,00:00:07.676,0.01247809879714624
1920,00:00:07.68,0.0014513268251903381
1921,00:00:07.684,0.0165331056341529
1922,00:00:07.688,-0.016680392145644925
1923,00:00:07.692,0.0012989384704269503
1924,00:00:07.696,-0.005766999442130331
1925,00:00:07.7,-0.0003730371827259599
1926,00:00:07.704,0.02344917738810183
1927,00:00:07.708,0.017051718721631918
1928,00:00:07.712,-0.030625762883573777
1929,00:00:07.716,-0.005166057031601697
1930,00:00:07.72,-0.016574187786318393
1931,00:00:07.724,0.007477919803932279
1932,00:00:07.728,0.023000949528068308
1933,00:00:07.732,-0.0017793131992220887
1934,00:00:07.736,-0.008913113502785522
1935,00:00:07.74,-0.01042297668755055
1936,00:00:07.744,0.01762982393847775
1937,00:00:07.748,-0.00540022109635175
1938,00:00:07.752,-0.004846655065193769
1939,00:00:07.756,0.0068818518193438614
1940,00:00:07.76,0.008173275506123928
1941,00:00:07.764,-0.01354437298141419
1942,00:00:07.768,0.0026650186628103295
1943,00:00:07.772,-0.005621864926069978
1944,00:00:07.776,0.00926592422183603
1945,00:00:07.78,0.00829393428284675
1946,00:00:07.784,-0.02558409888297319
1947,00:00:07.788,-0.009872949769487601
1948,00:00:07.792,0.03631765209138395
1949,00:00:07.796,0.00296584155876189
1950,00:00:07.8,-0.0028967782855033875
1951,00:00:07.804,-0.01489220815710723
1952,00:00:07.808,-0.008949602837674289
1953,00:00:07.812,-0.01639474392868578
1954,00:00:07.816,0.033902928233146626
1955,00:00:07.82,0.01987260696478186
1956,00:00:07.824,-0.023005496710538868
1957,00:00:07.828,-0.02182707018801013
1958,00:00:07.832,0.006669716298347339
1959,00:00:07.836,0.012487940432038162
1960,00:00:07.84,0.007550172740593553
1961,00:00:07.844,0.008861603448167445
1962,00:00:07.848,-0.01384608494117855
1963,00:00:07.852,-0.015510930214077241
1964,00:00:07.856,-0.00655886949971319
1965,00:00:07.86,0.02804138069041069
1966,00:00:07.864,0.011463809525594119
1967,00:00:07.868,-0.01049543940462171
1968,00:00:07.872,-0.0073536299460101855
1969,00:00:07.876,-0.023668035515584072
1970,00:00:07.88,0.005159430536878064
1971,00:00:07.884,0.008272674866020683
1972,00:00:07.888,0.010650452459231042
1973,00:00:07.892,-0.0028728310717269787
1974,00:00:07.896,-0.0010250504128634496
1975,00:00:07.9,0.03326900268439212
1976,00:00:07.904,-0.027024396695196615
1977,00:00:07.908,-0.027796218870207733
1978,00:00:07.912,0.0003194699529558403
1979,00:00:07.916,0.030474787112325423
1980,00:00:07.92,0.004205903271213179
1981,00:00:07.924,-0.00623844540677969
1982,00:00:07.928,0.00327745289541781
1983,00:00:07.932,-0.01157959643751379
1984,00:00:07.936,-0.024812101735733498
1985,00:00:07.94,0.01540364418178796
1986,00:00:07.944,0.038698487449437366
1987,00:00:07.948,-0.02511143602896481
1988,00:00:07.952,-0.01190688111819329
1989,00:00:07.956,0.0023678323486820314
1990,00:00:07.96,0.006187703576870259
1991,00:00:07.964,0.002304091583937409
1992,00:00:07.968,0.013350099638046231
1993,00:00:07.972,0.0006472049863077783
1994,00:00:07.976,-0.028501621447503525
1995,00:00:07.98,-0.00999252533074468
1996,00:00:07.984,0.01209167111665009
1997,00:00:07.988,0.020786575740203272
1998,00:00:07.992,-0.0065901689231395695
1999,00:00:07.996,0.0067360843531787395
2000,00:00:08,0.007395369466394179
2001,00:00:08.004,-0.01345450780354439
2002,00:00:08.008,-0.02258777571842078
2003,00:00:08.012,0.01247197529301047
2004,00:00:08.016,0.0058294821064919285
2005,00:00:08.02,5.3635580115958537e-05
2006,00:00:08.024,0.004181936150416729
2007,00:00:08.028,-0.0010683055734261831
2008,00:00:08.032,0.00391425378620624
2009,00:00:08.036,-0.00335566001012922
2010,00:00:08.04,-0.007166380528360602
2011,00:00:08.044,-0.011523167137056593
2012,00:00:08.048,0.007211704272776839
2013,00:00:08.052,0.01007243827916678
2014,00:00:08.056,0.005504743836354465
2015,00:00:08.06,0.004036283164168698
2016,00:00:08.064,-0.015697021095547797
2017,00:00:08.068,0.00906027806922794
2018,00:00:08.072,-0.0102947602281347
2019,00:00:08.076,0.003381973219802603
2020,00:00:08.08,-0.002319559745956208
2021,00:00:08.084,0.00260523799806833
2022,00:00:08.088,0.011534722267242614
2023,00:00:08.092,-0.006264459807425742
2024,00:00:08.096,0.003555568653609952
2025,00:00:08.1,-0.007785089663229879
2026,00:00:08.104,-0.010233978973701591
2027,00:00:08.108,0.01981574343517421
2028,00:00:08.112,-0.019772598985582573
2029,00:00:08.116,-0.01755581796169274
2030,00:00:08.12,0.027686791465384893
2031,00:00:08.124,0.019072817754931772
2032,00:00:08.128,0.012231082655489452
2033,00:00:08.132,-0.006856738473288729
2034,00:00:08.136,-0.03774950222577898
2035,00:00:08.14,-0.026501986663788543
2036,00:00:08.144,0.01864327443763613
2037,00:00:08.148,0.02515347258304242
2038,00:00:08.152,0.0201040138490498
2039,00:00:08.156,0.0108549240976572
2040,00:00:08.16,-0.028702692507067733
2041,00:00:08.164,-0.035232238122262005
2042,00:00:08.168,0.021828943165019127
2043,00:00:08.172,0.00476159574463964
2044,00:00:08.176,-0.00649519381113347
2045,00:00:08.18,0.020402486319653728
2046,00:00:08.184,0.0006360387051245163
2047,00:00:08.188,-0.021225460339337587
2048,00:00:08.192,0.011609259119723016
2049,00:00:08.196,0.017092769499868148
2050,00:00:08.2,-0.003060428891330961
2051,00:00:08.204,-0.03832633516867646
2052,00:00:08.208,-0.01120674959383905
2053,00:00:08.212,0.040911878691986175
2054,00:00:08.216,0.00843410391826184
2055,00:00:08.22,-0.003674472682178029
2056,00:00:08.224,-0.0020284578204154986
2057,00:00:08.228,-0.02523653628304601
2058,00:00:08.232,0.010329325130442156
2059,00:00:08.236,0.025019943481311167
2060,00:00:08.24,-0.03291980596259233
2061,00:00:08.244,-0.019077699864283208
2062,00:00:08.248,0.02523853583261371
2063,00:00:08.252,0.02872219320852313
2064,00:00:08.256,0.0038339467719196493
2065,00:00:08.26,-0.02486266242340203
2066,00:00:08.264,-0.02430943783838302
2067,00:00:08.268,0.01804762100800869
2068,00:00:08.272,0.009888534819765475
2069,00:00:08.276,0.01070884894579649
2070,00:00:08.28,0.0023636366240680304
2071,00:00:08.284,-0.02820310209062875
2072,00:00:08.288,-0.00522878521587699
2073,00:00:08.292,0.02506647119298578
2074,00:00:08.296,-0.007069305342156435
2075,00:00:08.3,-0.01328226644545789
2076,00:00:08.304,0.006114357616752381
2077,00:00:08.308,-0.0009052874520420803
2078,00:00:08.312,0.00440772878937424
2079,00:00:08.316,0.002698793541640039
2080,00:00:08.32,0.01250286702997982
2081,00:00:08.324,0.0013746238546446
2082,00:00:08.328,-0.02075637853704394
2083,00:00:08.332,-0.01278808258939532
2084,00:00:08.336,0.01146293361671274
2085,00:00:08.34,0.02230877056717877
2086,00:00:08.344,-0.0034455842687748355
2087,00:00:08.348,0.00402270676568154
2088,00:00:08.352,-0.03589301137253637
2089,00:00:08.356,-0.013913329225033546
2090,00:00:08.36,0.03498114785179492
2091,00:00:08.364,0.016772239003330504
2092,00:00:08.368,-0.02170107862912119
2093,00:00:08.372,0.011981356772594147
2094,00:00:08.376,0.00037591834552586035
2095,00:00:08.38,0.015560624771751429
2096,00:00:08.384,-0.02301070955581963
2097,00:00:08.388,-0.02310766046866777
2098,00:00:08.392,-0.01358486595563591
2099,00:00:08.396,0.01751223286555614
2100,00:00:08.4,0.03131163399666547
2101,00:00:08.404,0.0201467431616038
2102,00:00:08.408,-0.01128859422169625
2103,00:00:08.412,-0.03180869272910056
2104,00:00:08.416,-0.0015884165186434993
2105,00:00:08.42,0.029315048130229098
2106,00:00:08.424,-0.01647364278323944
2107,00:00:08.428,-0.02874475845601411
2108,00:00:08.432,0.01328875287435947
2109,00:00:08.436,0.02397261839359998
2110,00:00:08.44,-0.014373452169820672
2111,00:00:08.444,-0.003366094169905411
2112,00:00:08.448,0.01582719548605382
2113,00:00:08.452,-0.006919824052602051
2114,00:00:08.456,0.00782860373146832
2115,00:00:08.46,0.031229088519467
2116,00:00:08.464,-0.02644832432270046
2117,00:00:08.468,-0.07559636887162927
2118,00:00:08.472,0.050114851765101734
2119,00:00:08.476,0.009502836968749762
2120,00:00:08.48,0.0001962088863365312
2121,00:00:08.484,0.02168727456592028
2122,00:00:08.488,-0.006995526142418379
2123,00:00:08.492,-0.009703575022285808
2124,00:00:08.496,0.0016475422307849399
2125,00:00:08.5,0.006690007401630283
2126,00:00:08.504,-0.020911292172968367
2127,00:00:08.508,-0.013149452221114199
2128,00:00:08.512,-0.006237151916138901
2129,00:00:08.516,0.033639366156421616
2130,00:00:08.52,0.0313435653224587
2131,00:00:08.524,-0.027886310068424763
2132,00:00:08.528,-0.01298013376072051
2133,00:00:08.532,0.013730274979025122
2134,00:00:08.536,-0.025809557177126397
2135,00:00:08.54,-0.00160928349941968
2136,00:00:08.544,0.021403319668024817
2137,00:00:08.548,-0.00425695584272035
2138,00:00:08.552,0.02249993802979592
2139,00:00:08.556,-0.010067532100947579
2140,00:00:08.56,-0.01008972595445812
2141,00:00:08.564,-0.02547569631133232
2142,00:00:08.568,0.005377495195716618
2143,00:00:08.572,0.02230618370231245
2144,00:00:08.576,0.017183101124828685
2145,00:00:08.58,0.005828351539093998
2146,00:00:08.584,-0.017494144383817918
2147,00:00:08.588,-0.027758923359215346
2148,00:00:08.592,-0.005736880877520898
2149,00:00:08.596,0.020767429843544974
2150,00:00:08.6,0.01708371471613646
2151,00:00:08.604,0.0042147094500251045
2152,00:00:08.608,-0.020356907043606036
2153,00:00:08.612,-0.032601929269731
2154,00:00:08.616,0.01119941519573331
2155,00:00:08.62,0.06442775992036323
2156,00:00:08.624,0.001335380598902671
2157,00:00:08.628,-0.05097633111290631
2158,00:00:08.632,0.00017880392260849042
2159,00:00:08.636,-0.00036805495619773865
2160,00:00:08.64,0.0003705915296450205
2161,00:00:08.644,0.020744180306792294
2162,00:00:08.648,-0.014547861719620412
2163,00:00:08.652,-0.0157731716753915
2164,00:00:08.656,0.012742415594402695
2165,00:00:08.66,0.014052726794034241
2166,00:00:08.664,0.00319396727718412
2167,00:00:08.668,0.00931383459828794
2168,00:00:08.672,-0.00239606527611613
2169,00:00:08.676,-0.03179246187210077
2170,00:00:08.68,-0.004024830064736308
2171,00:00:08.684,-0.00883682828862221
2172,00:00:08.688,0.031176340766251115
2173,00:00:08.692,0.0105977519415319
2174,00:00:08.696,-0.0005804535467177582
2175,00:00:08.7,-0.0013778690481558494
2176,00:00:08.704,-0.01002124632941559
2177,00:00:08.708,-0.036445662073674695
2178,00:00:08.712,0.015452508116140969
2179,00:00:08.716,0.022617619950324318
2180,00:00:08.72,0.021809370256960416
2181,00:00:08.724,-0.0029263340402394594
2182,00:00:08.728,-0.030500338878482566
2183,00:00:08.732,-0.013939926400780669
2184,00:00:08.736,0.0100043825805187
2185,00:00:08.74,0.004005919210612779
2186,00:00:08.744,0.01610140688717369
2187,00:00:08.748,0.012433864874765192
2188,00:00:08.752,-0.02105088671669364
2189,00:00:08.756,-0.014510345179587639
2190,00:00:08.76,0.0021263553062454213
2191,00:00:08.764,0.01712376432260496
2192,00:00:08.768,-0.0023308959789574302
2193,00:00:08.772,0.00670139724388719
2194,00:00:08.776,0.008304860093630847
2195,00:00:08.78,-0.016015800851164323
2196,00:00:08.784,-0.017642725171754185
2197,00:00:08.788,-0.009329106251243502
2198,00:00:08.792,0.014289890357758848
2199,00:00:08.796,0.02437925478443502
2200,00:00:08.8,0.0020369281410239064
2201,00:00:08.804,0.0007414339343085902
2202,00:00:08.808,-0.00787281058728688
2203,00:00:08.812,-0.012881354865385239
2204,00:00:08.816,-0.017801509238779593
2205,00:00:08.82,-0.00239122251514343
2206,00:00:08.824,0.029225107253296342
2207,00:00:08.828,-0.014388662530109288
2208,00:00:08.832,0.012658954132348351
2209,00:00:08.836,0.02371864859014745
2210,00:00:08.84,0.0018603103235363897
2211,00:00:08.844,-0.015619756653904908
2212,00:00:08.848,-0.03098492557182905
2213,00:00:08.852,-0.007307910011149947
2214,00:00:08.856,0.01717693777754903
2215,00:00:08.86,0.007775713107548651
2216,00:00:08.864,-0.009043272788403554
2217,00:00:08.868,0.01684510288760069
2218,00:00:08.872,-0.0010627042502164797
2219,00:00:08.876,0.006441299541620537
2220,00:00:08.88,-0.007841331535018967
2221,00:00:08.884,-0.014369077412993654
2222,00:00:08.888,0.01094617508351806
2223,00:00:08.892,-0.003763873828575009
2224,00:00:08.896,0.001359020243398846
2225,00:00:08.9,0.00564245588611811
2226,00:00:08.904,-0.00986191164702177
2227,00:00:08.908,-0.0020491634495556224
2228,00:00:08.912,0.024429296958260262
2229,00:00:08.916,-0.006538881454616769
2230,00:00:08.92,-0.040010455530136824
2231,00:00:08.924,0.028349941170745338
2232,00:00:08.928,0.01341307582333679
2233,00:00:08.932,-0.02197149978019294
2234,00:00:08.936,0.00963491126458391
2235,00:00:08.94,-0.0036118302668910834
2236,00:00:08.944,0.009868755238130739
2237,00:00:08.948,0.01031415164470673
2238,00:00:08.952,-0.011522348504513499
2239,00:00:08.956,-0.028174122271593622
2240,00:00:08.96,0.013872024661395662
2241,00:00:08.964,0.026340984622947882
2242,00:00:08.968,-0.006650307157542554
2243,00:00:08.972,-0.01436041051056236
2244,00:00:08.976,-0.021217370755039145
2245,00:00:08.98,0.02413389808498323
2246,00:00:08.984,0.01380398496985441
2247,00:00:08.988,-0.0018228667322546278
2248,00:00:08.992,-0.00955646764487026
2249,00:00:08.996,-0.00029214913956820965
2250,00:00:09,0.007531187497079369
2251,00:00:09.004,-0.016181764192879238
2252,00:00:09.008,-0.00862362701445818
2253,00:00:09.012,0.007691022008657459
2254,00:00:09.016,0.003453691431786866
2255,00:00:09.02,0.01112624630331996
2256,00:00:09.024,0.006977076176553971
2257,00:00:09.028,-0.00866236630827191
2258,00:00:09.032,-0.018191831462900113
2259,00:00:09.036,0.0138208968564868
2260,00:00:09.04,0.018831325636710982
2261,00:00:09.044,-0.004126049199840055
2262,00:00:09.048,-0.02992551052011551
2263,00:00:09.052,0.0028058504685759492
2264,00:00:09.056,0.003261259756982331
2265,00:00:09.06,0.0035503359977156006
2266,00:00:09.064,0.011553531629033382
2267,00:00:09.068,0.000627482833806426
2268,00:00:09.072,-0.0010390774405095778
2269,00:00:09.076,0.0011367455590516368
2270,00:00:09.08,-0.003015487920492872
2271,00:00:09.084,-0.02162087615579362
2272,00:00:09.088,-0.0065712517825886494
2273,00:00:09.092,0.034230277524329764
2274,00:00:09.096,0.01380551187321543
2275,00:00:09.1,-0.01215089461766183
2276,00:00:09.104,-0.0019103807862848004
2277,00:00:09.108,-0.029209632426500293
2278,00:00:09.112,-0.0032904392573982004
2279,00:00:09.116,0.01810212410055101
2280,00:00:09.12,0.02053736173547801
2281,00:00:09.124,0.0037728275638073613
2282,00:00:09.128,-0.019651622751553098
2283,00:00:09.132,-0.01691123633645473
2284,00:00:09.136,-0.00027495436370374854
2285,00:00:09.14,0.03546843305230146
2286,00:00:09.144,0.0002420821729174293
2287,00:00:09.148,-0.0399840492755175
2288,00:00:09.152,0.005636756957756003
2289,00:00:09.156,0.01220652530901133
2290,00:00:09.16,0.01236600801348686
2291,00:00:09.164,0.014599998015910401
2292,00:00:09.168,0.007636528869625155
2293,00:00:09.172,-0.01770960469730198
2294,00:00:09.176,-0.04054585937410589
2295,00:00:09.18,-0.01524735521525147
2296,00:00:09.184,0.0161272175610065
2297,00:00:09.188,0.0296487994492054
2298,00:00:09.192,0.01821120281238109
2299,00:00:09.196,0.01392960571683941
2300,00:00:09.2,-0.012993955053389022
2301,00:00:09.204,-0.02947242325171828
2302,00:00:09.208,-0.015483388211578122
2303,00:00:09.212,0.00848876289092003
2304,00:00:09.216,0.001722492277622261
2305,00:00:09.22,0.014948249037843203
2306,00:00:09.224,0.01952203013934195
2307,00:00:09.228,-0.01844940311275423
2308,00:00:09.232,-0.0020801521313842373
2309,00:00:09.236,-0.01717232447117566
2310,00:00:09.24,0.020150004420429468
2311,00:00:09.244,0.01558290855609808
2312,00:00:09.248,-0.014202877180650834
2313,00:00:09.252,-0.01900824951007963
2314,00:00:09.256,-0.023996223462745547
2315,00:00:09.26,0.026660792063921683
2316,00:00:09.264,0.01730442547705029
2317,00:00:09.268,0.01158584584482014
2318,00:00:09.272,0.001351197715848679
2319,00:00:09.276,-0.0043903371843043775
2320,00:00:09.28,-0.012998309917747971
2321,00:00:09.284,-0.008629115764051683
2322,00:00:09.288,-0.02225819788873195
2323,00:00:09.292,0.02713208459317676
2324,00:00:09.296,0.01887962198816237
2325,00:00:09.3,-0.025502203032374413
2326,00:00:09.304,-0.008880319073796272
2327,00:00:09.308,0.01922079408541322
2328,00:00:09.312,0.006302256602793929
2329,00:00:09.316,-0.0032476622436661364
2330,00:00:09.32,0.010403264663182171
2331,00:00:09.324,-0.011823976616142321
2332,00:00:09.328,-0.023918167222291238
2333,00:00:09.332,0.00626032217405737
2334,00:00:09.336,0.02549649076536299
2335,00:00:09.34,0.0048571522347629105
2336,00:00:09.344,-0.02688604121794921
2337,00:00:09.348,-0.00960569549351931
2338,00:00:09.352,0.02198198414407665
2339,00:00:09.356,0.02236109273508187
2340,00:00:09.36,-0.025642404099926363
2341,00:00:09.364,-0.01089646387845276
2342,00:00:09.368,0.006296681453022755
2343,00:00:09.372,0.01826199708739292
2344,00:00:09.376,0.012358304578810922
2345,00:00:09.38,-0.03517084568738942
2346,00:00:09.384,-0.01699619065038859
2347,00:00:09.388,0.014393550110980842
2348,00:00:09.392,0.02748903131578111
2349,00:00:09.396,0.006600921857170757
2350,00:00:09.4,-0.027759012300521108
2351,00:00:09.404,-0.0016627997392788534
2352,00:00:09.408,0.005673753330484039
2353,00:00:09.412,0.012853432155679903
2354,00:00:09.416,-0.01705490669701251
2355,00:00:09.42,2.0155712263660377e-05
2356,00:00:09.424,0.003398647531867121
2357,00:00:09.428,0.010569679696345697
2358,00:00:09.432,-0.01555960858240726
2359,00:00:09.436,0.009439112152904279
2360,00:00:09.44,0.014299503643997059
2361,00:00:09.444,-0.0016600763192400362
2362,00:00:09.448,-0.02030267450027166
2363,00:00:09.452,0.0046276431530714
2364,00:00:09.456,-0.01027974160388112
2365,00:00:09.46,-0.005807305686175851
2366,00:00:09.464,0.02786221052519981
2367,00:00:09.468,0.01760037615895274
2368,00:00:09.472,-0.02883282734546815
2369,00:00:09.476,-0.021168982842937164
2370,00:00:09.48,0.02399533631978558
2371,00:00:09.484,0.00929278973490001
2372,00:00:09.488,-0.006788997445255509
2373,00:00:09.492,-0.019838318359688818
2374,00:00:09.496,0.0008878537919372298
2375,00:00:09.5,0.019366263411939148
2376,00:00:09.504,0.021330428309738608
2377,00:00:09.508,-0.023956609889864894
2378,00:00:09.512,-0.011049253400415179
2379,00:00:09.516,0.014871525228954848
2380,00:00:09.52,-0.008104339474812152
2381,00:00:09.524,0.0024126911303028417
2382,00:00:09.528,0.00805029273033141
2383,00:00:09.532,-0.01493495306931436
2384,00:00:09.536,-0.0009490279771853286
2385,00:00:09.54,0.008710587630048401
2386,00:00:09.544,-0.009761384455487139
2387,00:00:09.548,-0.00782897952012717
2388,00:00:09.552,0.0358671578651411
2389,00:00:09.556,-0.001850722241215413
2390,00:00:09.56,3.7128338590269525e-05
2391,00:00:09.564,-0.03799700899980963
2392,00:00:09.568,0.01556508347857748
2393,00:00:09.572,0.01910734362900256
2394,00:00:09.576,-0.015111871995031872
2395,00:00:09.58,-0.01160045876167715
2396,00:00:09.584,-0.01001390349119902
2397,00:00:09.588,0.015573847573250562
2398,00:00:09.592,0.03287923685275023
2399,00:00:09.596,-0.01123312674462795
2400,00:00:09.6,-0.00778875325340778
2401,00:00:09.604,-0.0006510927341878301
2402,00:00:09.608,-0.00841041037347167
2403,00:00:09.612,-0.012340597109869119
2404,00:00:09.616,0.0011068435851484502
2405,00:00:09.62,0.010197964089456942
2406,00:00:09.624,0.0019994812319055217
2407,00:00:09.628,0.006486340425908559
2408,00:00:09.632,-0.0012445033062249526
2409,00:00:09.636,0.004407935979543257
2410,00:00:09.64,0.009905841900035739
2411,00:00:09.644,-0.01871619094163179
2412,00:00:09.648,-0.02183307148516176
2413,00:00:09.652,0.011449208428530259
2414,00:00:09.656,0.02073049620958045
2415,00:00:09.66,0.0046829676139168415
2416,00:00:09.664,-0.00014901044778525612
2417,00:00:09.668,-0.03158156527206295
2418,00:00:09.672,-0.01781558431684974
2419,00:00:09.676,0.029242997989058574
2420,00:00:09.68,0.030658601317554667
2421,00:00:09.684,-0.0029151338371775654
2422,00:00:09.688,-0.0060743595240637625
2423,00:00:09.692,-0.03052723722066732
2424,00:00:09.696,0.012914282735437151
2425,00:00:09.7,0.01603583060204983
2426,00:00:09.704,-0.03270550735760477
2427,00:00:09.708,-0.01390312169678509
2428,00:00:09.712,0.00731570582138375
2429,00:00:09.716,0.05025436030700807
2430,00:00:09.72,0.010242845688480886
2431,00:00:09.724,-0.01420277752913532
2432,00:00:09.728,-0.02828236017376184
2433,00:00:09.732,-0.00754450917156647
2434,00:00:09.736,0.0034165047109126698
2435,00:00:09.74,0.00893782125785944
2436,00:00:09.744,0.00360949453897776
2437,00:00:09.748,0.0070534753613174205
2438,00:00:09.752,-0.02094445051625371
2439,00:00:09.756,-0.00442750519141555
2440,00:00:09.76,0.01794329285621644
2441,00:00:09.764,0.015138205228140578
2442,00:00:09.768,0.02216440648771824
2443,00:00:09.772,-0.01767602236941459
2444,00:00:09.776,-0.03433513455092906
2445,00:00:09.78,-0.020351782266516197
2446,00:00:09.784,-0.00557848322205247
2447,00:00:09.788,0.02850423450581733
2448,00:00:09.792,0.026122827548533765
2449,00:00:09.796,0.00762940850108862
2450,00:00:09.8,0.019613744239904876
2451,00:00:09.804,-0.029841251554898914
2452,00:00:09.808,-0.02414478594437244
2453,00:00:09.812,-0.00921585317701102
2454,00:00:09.816,-0.00241570908110588
2455,00:00:09.82,0.024048110237345065
2456,00:00:09.824,0.00401064031757414
2457,00:00:09.828,-0.00976755074225362
2458,00:00:09.832,4.288520722184306e-05
2459,00:00:09.836,0.01597321568988263
2460,00:00:09.84,0.01201514399144798
2461,00:00:09.844,-0.02216974762268361
2462,00:00:09.848,-0.013533686244045386
2463,00:00:09.852,0.0121042364044115
2464,00:00:09.856,0.00795816665049642
2465,00:00:09.86,-0.02196503186132764
2466,00:00:09.864,0.00972450454719364
2467,00:00:09.868,-0.0014175554970279106
2468,00:00:09.872,-0.00998750689905134
2469,00:00:09.876,0.021714607486501312
2470,00:00:09.88,0.029348563402891117
2471,00:00:09.884,-0.008261965704150493
2472,00:00:09.888,-0.0319141950458288
2473,00:00:09.892,0.0010846881195902902
2474,00:00:09.896,-0.0012226526159793104
2475,00:00:09.9,-0.007627442479133609
2476,00:00:09.904,0.0020579356933012596
2477,00:00:09.908,-0.0035937037318945
2478,00:00:09.912,0.012102300766855461
2479,00:00:09.916,0.015341705642640613
2480,00:00:09.92,-0.00017416071204934616
2481,00:00:09.924,-0.00829143862938508
2482,00:00:09.928,-0.0021014888770878593
2483,00:00:09.932,0.01503723720088599
2484,00:00:09.936,-0.023686426691710998
2485,00:00:09.94,-0.02902405546046791
2486,00:00:09.944,0.02735175471025284
2487,00:00:09.948,0.020469228737056186
2488,00:00:09.952,0.0051749362610281
2489,00:00:09.956,0.002274956845212733
2490,00:00:09.96,-0.013214667364081818
2491,00:00:09.964,-0.01329892850480974
2492,00:00:09.968,-0.024637876078486443
2493,00:00:09.972,0.00905358127783984
2494,00:00:09.976,0.0511059453710914
2495,00:00:09.98,-0.02292614243924622
2496,00:00:09.984,-0.02074344269931314
2497,00:00:09.988,0.015695856884121902
2498,00:00:09.992,0.02285471349023283
2499,00:00:09.996,-0.00568339484743777
2500,00:00:10,-0.032495405059307786
2501,00:00:10.004,-0.01121931092347954
2502,00:00:10.008,0.01903265435248613
2503,00:00:10.012,0.02251796796917916
2504,00:00:10.016,-0.0038066956622060354
2505,00:00:10.02,-0.01006803382188082
2506,00:00:10.024,-0.0026510250172577738
2507,00:00:10.028,-0.0052855589892715615
2508,00:00:10.032,-0.00501753704156727
2509,00:00:10.036,-0.0033673136204015464
2510,00:00:10.04,0.0317695762496442
2511,00:00:10.044,0.005775198340415951
2512,00:00:10.048,-0.015444394768564969
2513,00:00:10.052,-0.03565372060984377
2514,00:00:10.056,-0.0027367350412532705
2515,00:00:10.06,0.03060956858098504
2516,00:00:10.064,0.04187779978383337
2517,00:00:10.068,-0.01370757608674467
2518,00:00:10.072,-0.03730655740946532
2519,00:00:10.076,-0.020360193680971892
2520,00:00:10.08,0.021144014084711706
2521,00:00:10.084,0.02644014707766473
2522,00:00:10.088,-0.0476954560726882
2523,00:00:10.092,0.011906004045158618
2524,00:00:10.096,0.053332728333771146
2525,00:00:10.1,0.021608333103358697
2526,00:00:10.104,-0.06120232958346599
2527,00:00:10.108,-0.046122963074594694
2528,00:00:10.112,0.023976307275006527
2529,00:00:10.116,0.027282952563837178
2530,00:00:10.12,0.01483445406120154
2531,00:00:10.124,0.009122557901719112
2532,00:00:10.128,-0.01535458583384752
2533,00:00:10.132,-0.02363338368013503
2534,00:00:10.136,0.003735814854735512
2535,00:00:10.14,-0.005626633530482651
2536,00:00:10.144,0.02739745797589427
2537,00:00:10.148,0.0019424636120675119
2538,00:00:10.152,-0.007784374058246611
2539,00:00:10.156,-0.005648407619446518
2540,00:00:10.16,-0.01385133643634617
2541,00:00:10.164,0.01097181648947301
2542,00:00:10.168,0.005151501449290663
2543,00:00:10.172,0.003084099444095044
2544,00:00:10.176,0.011389795923605553
2545,00:00:10.18,-0.012975965393707111
2546,00:00:10.184,-0.02506489865481855
2547,00:00:10.188,-0.008559249399695545
2548,00:00:10.192,0.03150917775928978
2549,00:00:10.196,0.018813072187185736
2550,00:00:10.2,-0.002135286486009134
2551,00:00:10.204,-0.013242429355159398
2552,00:00:10.208,-0.02300093648955227
2553,00:00:10.212,0.00633914186619223
2554,00:00:10.216,0.030737173976376677
2555,00:00:10.22,-0.006482148543000218
2556,00:00:10.224,-0.012081792927347134
2557,00:00:10.228,-0.01657944219186902
2558,00:00:10.232,-0.01252543949522073
2559,00:00:10.236,0.008733707392821088
2560,00:00:10.24,0.05241136206313966
2561,00:00:10.244,0.002700921148061747
2562,00:00:10.248,-0.01816580421291296
2563,00:00:10.252,-0.02931171492673454
2564,00:00:10.256,-0.004387567983940247
2565,00:00:10.26,-0.021465387195348712
2566,00:00:10.264,0.030751553480513387
2567,00:00:10.268,0.021997337229549892
2568,00:00:10.272,0.00956787820905446
2569,00:00:10.276,-0.0023308796808123606
2570,00:00:10.28,-0.02584057534113527
2571,00:00:10.284,-0.014988139271736148
2572,00:00:10.288,0.0013528144918382098
2573,00:00:10.292,0.012540051015093917
2574,00:00:10.296,0.01487076911143959
2575,00:00:10.3,-0.00620897230692205
2576,00:00:10.304,0.006890539545565841
2577,00:00:10.308,0.008549207355827109
2578,00:00:10.312,-0.01652554655447602
2579,00:00:10.316,-0.016402481589466333
2580,00:00:10.32,-0.02021393319591878
2581,00:00:10.324,0.02664221916347746
2582,00:00:10.328,0.02509960415773093
2583,00:00:10.332,-0.0009327563457191012
2584,00:00:10.336,0.00442989717703313
2585,00:00:10.34,-0.03119905455969273
2586,00:00:10.344,-0.01382846990600229
2587,00:00:10.348,0.005739619489759198
2588,00:00:10.352,0.02261026622727517
2589,00:00:10.356,0.02072885312372816
2590,00:00:10.36,0.007129465637262914
2591,00:00:10.364,-0.044002806302160004
2592,00:00:10.368,-0.02775093005038798
2593,00:00:10.372,0.00628986442461609
2594,00:00:10.376,0.0556121645495295
2595,00:00:10.38,0.01375968265347183
2596,00:00:10.384,-0.009618664247682316
2597,00:00:10.388,-0.03557276073843245
2598,00:00:10.392,-0.026799111627042294
2599,00:00:10.396,0.0178905643988401
2600,00:00:10.4,0.03245306666940454
2601,00:00:10.404,-0.0055919187143445015
2602,00:00:10.408,-0.00803167474077782
2603,00:00:10.412,-0.0017982082208618548
2604,00:00:10.416,0.01076351862866431
2605,00:00:10.42,-0.0154763632453978
2606,00:00:10.424,-0.01035957624844742
2607,00:00:10.428,0.00971489958465101
2608,00:00:10.432,0.03168073901906609
2609,00:00:10.436,-0.002657284494489421
2610,00:00:10.44,-0.04444792144931854
2611,00:00:10.444,0.014160122897010297
2612,00:00:10.448,-0.022004414699040402
2613,00:00:10.452,0.033495691401185475
2614,00:00:10.456,0.02435898967087266
2615,00:00:10.46,-0.02257368434220553
2616,00:00:10.464,-0.01840655866544694
2617,00:00:10.468,0.0019144618418067685
2618,00:00:10.472,0.006573446560651071
2619,00:00:10.476,0.02757039922289548
2620,00:00:10.48,-0.0015287920832633998
2621,00:00:10.484,-0.034488649573177155
2622,00:00:10.488,-0.00976004265248771
2623,00:00:10.492,0.02624692302197221
2624,00:00:10.496,0.01797084719873964
2625,00:00:10.5,-0.03953433595597749
2626,00:00:10.504,-0.0009242132655344938
2627,00:00:10.508,0.01302477950230241
2628,00:00:10.512,0.01376445591449738
2629,00:00:10.516,0.006613177596591414
2630,00:00:10.52,-0.01602242887020107
2631,00:00:10.524,-0.0027330906596034713
2632,00:00:10.528,0.00236397376284003
2633,00:00:10.532,0.00684760184958578
2634,00:00:10.536,0.017947145970538245
2635,00:00:10.54,-0.013079227413982156
2636,00:00:10.544,-0.03404187597334381
2637,00:00:10.548,0.009014393552206422
2638,00:00:10.552,-0.01238954300060868
2639,00:00:10.556,0.02028805529698734
2640,00:00:10.56,0.03439711779356002
2641,00:00:10.564,-0.011000942555256191
2642,00:00:10.568,-0.0164862469537184
2643,00:00:10.572,0.016960510518401892
2644,00:00:10.576,-0.01653179526329037
2645,00:00:10.58,-0.01012720260769126
2646,00:00:10.584,-0.01844636420719328
2647,00:00:10.588,0.017592687392607366
2648,00:00:10.592,0.010293732397258282
2649,00:00:10.596,0.017099654825869982
2650,00:00:10.6,0.0011255514109507203
2651,00:00:10.604,-0.0006171357817947933
2652,00:00:10.608,-0.02037411369383335
2653,00:00:10.612,-0.03574128006584945
2654,00:00:10.616,0.02387902420014141
2655,00:00:10.62,0.04698670035577378
2656,00:00:10.624,-0.016606631688773632
2657,00:00:10.628,-0.024513739976100596
2658,00:00:10.632,-0.015069015164044706
2659,00:00:10.636,0.02208596700802444
2660,00:00:10.64,0.02901578304590655
2661,00:00:10.644,-0.0188653662335128
2662,00:00:10.648,-0.01884905737824743
2663,00:00:10.652,-0.0069031174352858285
2664,00:00:10.656,0.03313047904521227
2665,00:00:10.66,-0.0022622008691541885
2666,00:00:10.664,-0.0436629857867956
2667,00:00:10.668,0.01836292725056408
2668,00:00:10.672,0.02471695444546644
2669,00:00:10.676,0.00162574893329293
2670,00:00:10.68,-0.0054694572463631595
2671,00:00:10.684,-0.0076552977552637475
2672,00:00:10.688,-0.02004488138481972
2673,00:00:10.692,0.007985799893504016
2674,00:00:10.696,0.02102172211743891
2675,00:00:10.7,0.01160101592540741
2676,00:00:10.704,-0.020596571168425754
2677,00:00:10.708,-0.00041689979843795993
2678,00:00:10.712,-0.01265661907382309
2679,00:00:10.716,-0.01374020951334387
2680,00:00:10.72,0.02661229786463089
2681,00:00:10.724,0.011849032714963001
2682,00:00:10.728,-0.01306910975836217
2683,00:00:10.732,0.0010229098261334043
2684,00:00:10.736,0.023629535804502638
2685,00:00:10.74,-0.015086160914506808
2686,00:00:10.744,-0.017931366048287652
2687,00:00:10.748,-0.02380352746695279
2688,00:00:10.752,0.012942516128532571
2689,00:00:10.756,0.03755092303617857
2690,00:00:10.76,0.01606036443263292
2691,00:00:10.764,-0.02507735649123791
2692,00:00:10.768,-0.02421009738463914
2693,00:00:10.772,-0.01238942565396425
2694,00:00:10.776,0.012005466269329199
2695,00:00:10.78,0.02761829935479908
2696,00:00:10.784,-0.0031809870270080925
2697,00:00:10.788,-0.0006907444912940199
2698,00:00:10.792,0.009942095726728441
2699,00:00:10.796,-0.01147332647815347
2700,00:00:10.8,-0.012873787345597552
2701,00:00:10.804,-0.0035964815469924313
2702,00:00:10.808,-0.014700429208460264
2703,00:00:10.812,-0.0009137904271483499
2704,00:00:10.816,0.026160217239521482
2705,00:00:10.82,0.05046818929258733
2706,00:00:10.824,-0.0017037877114489592
2707,00:00:10.828,-0.05509469710523267
2708,00:00:10.832,-0.028006995096802722
2709,00:00:10.836,-0.01577006094157696
2710,00:00:10.84,0.04282058775424964
2711,00:00:10.844,0.0107653500745073
2712,00:00:10.848,0.01756539382040504
2713,00:00:10.852,-0.00015994673594832095
2714,00:00:10.856,-0.01328849021228962
2715,00:00:10.86,-0.02705389319453391
2716,00:00:10.864,-0.00016819947632030292
2717,00:00:10.868,0.022500310093164402
2718,00:00:10.872,0.01037486153654754
2719,00:00:10.876,-0.00015182851348071965
2720,00:00:10.88,-0.0038677619886584506
2721,00:00:10.884,-0.023246020078659013
2722,00:00:10.888,0.0016129697905853371
2723,00:00:10.892,-0.010858389985514801
2724,00:00:10.896,0.03183575440198181
2725,00:00:10.9,0.01688183797523379
2726,00:00:10.904,-0.02445928659290078
2727,00:00:10.908,-0.021643118408974232
2728,00:00:10.912,0.013883540406823169
2729,00:00:10.916,0.019954884890466967
2730,00:00:10.92,0.00781869480852037
2731,00:00:10.924,-0.03608474880456923
2732,00:00:10.928,-0.01848481746856118
2733,00:00:10.932,0.02378303790464997
2734,00:00:10.936,0.02443748619407415
2735,00:00:10.94,0.008997449127491565
2736,00:00:10.944,-0.005535388481803244
2737,00:00:10.948,-0.01607249584048987
2738,00:00:10.952,-0.016830022195790637
2739,00:00:10.956,-0.012464122031815367
2740,00:00:10.96,0.0019221103284507999
2741,00:00:10.964,0.04282657732255757
2742,00:00:10.968,0.016451777191832658
2743,00:00:10.972,-0.01504728337749839
2744,00:00:10.976,-0.03201886452734473
2745,00:00:10.98,-0.024412977596512037
2746,00:00:10.984,0.017858068691566583
2747,00:00:10.988,0.019032628624700006
2748,00:00:10.992,0.02234688168391588
2749,00:00:10.996,-0.0032278958569804737
2750,00:00:11,-0.01239626714959744
2751,00:00:11.004,-0.00031693396158516017
2752,00:00:11.008,-0.02272604627069088
2753,00:00:11.012,-0.015802662353962656
2754,00:00:11.016,0.033704361878335504
2755,00:00:11.02,0.02020731347147376
2756,00:00:11.024,-0.00929790863301605
2757,00:00:11.028,-0.007052983331959692
2758,00:00:11.032,-0.010859103407710784
2759,00:00:11.036,-0.004659158992581061
2760,00:00:11.04,0.006162162229884416
2761,00:00:11.044,0.007408519973978401
2762,00:00:11.048,-0.008768285479163751
2763,00:00:11.052,-0.013716096291318529
2764,00:00:11.056,0.02625108603388072
2765,00:00:11.06,0.0151524291140959
2766,00:00:11.064,-0.00405454484280199
2767,00:00:11.068,-0.028397253132425238
2768,00:00:11.072,-0.0236200635554269
2769,00:00:11.076,0.02158429427072408
2770,00:00:11.08,0.03281853720545767
2771,00:00:11.084,0.006502429256215711
2772,00:00:11.088,-0.014671767130494081
2773,00:00:11.092,-0.029572256375104234
2774,00:00:11.096,-0.009953636676073097
2775,00:00:11.1,0.021740755531936915
2776,00:00:11.104,0.01882601622492077
2777,00:00:11.108,-0.015751626109704372
2778,00:00:11.112,0.0012012186925858311
2779,00:00:11.116,0.02258128370158376
2780,00:00:11.12,-0.01642788480967284
2781,00:00:11.124,-0.02863523969426751
2782,00:00:11.128,0.0036411456821951954
2783,00:00:11.132,0.023613327415660062
2784,00:00:11.136,0.01311797020025552
2785,00:00:11.14,-0.00584865885321051
2786,00:00:11.144,-0.02229586907196795
2787,00:00:11.148,0.011695652268826937
2788,00:00:11.152,0.021353885065764154
2789,00:00:11.156,-0.019384080427698788
2790,00:00:11.16,-0.017129734507761937
2791,00:00:11.164,-0.00912845646962524
2792,00:00:11.168,0.01770542107988151
2793,00:00:11.172,0.006941616593394427
2794,00:00:11.176,0.01616258709691464
2795,00:00:11.18,8.960568811744018e-05
2796,00:00:11.184,-0.03478765953332178
2797,00:00:11.188,-0.001569887157529599
2798,00:00:11.192,0.02558500040322535
2799,00:00:11.196,0.0301443058997393
2800,00:00:11.2,-0.015234602149575999
2801,00:00:11.204,-0.04366680467501281
2802,00:00:11.208,-0.01833735266700387
2803,00:00:11.212,0.029048950178548732
2804,00:00:11.216,0.03828306868672375
2805,00:00:11.22,-0.01481759711168706
2806,00:00:11.224,-0.0009896880947053493
2807,00:00:11.228,-0.025411271602251904
2808,00:00:11.232,0.0016361864400096294
2809,00:00:11.236,0.013966455502668392
2810,00:00:11.24,0.0037670590681955296
2811,00:00:11.244,-0.0113046218175441
2812,00:00:11.248,0.0013758126879110906
2813,00:00:11.252,0.02059572562575345
2814,00:00:11.256,0.007479412481188771
2815,00:00:11.26,-0.00551657101004818
2816,00:00:11.264,-0.0444301029201597
2817,00:00:11.268,0.0011697145528159984
2818,00:00:11.272,0.00627318583428859
2819,00:00:11.276,0.02855263417586687
2820,00:00:11.28,0.018410770397167642
2821,00:00:11.284,-0.012196722207590941
2822,00:00:11.288,-0.026998832821846057
2823,00:00:11.292,-0.020119255292229375
2824,00:00:11.296,0.04636505898088218
2825,00:00:11.3,0.004569858312606749
2826,00:00:11.304,-0.02594711503479627
2827,00:00:11.308,0.004345692635979508
2828,00:00:11.312,0.00849382183514535
2829,00:00:11.316,-0.00943317858036607
2830,00:00:11.32,-0.011543458444066382
2831,00:00:11.324,0.03716603526845579
2832,00:00:11.328,-0.02112440951168542
2833,00:00:11.332,-0.030254368553869482
2834,00:00:11.336,0.02621600357815623
2835,00:00:11.34,0.02365098532754929
2836,00:00:11.344,0.004181106080068275
2837,00:00:11.348,-0.02502958476543429
2838,00:00:11.352,-0.023160041309893124
2839,00:00:11.356,0.00296686287038028
2840,00:00:11.36,0.020295303314924254
2841,00:00:11.364,0.019207262434065342
2842,00:00:11.368,-0.01342221722006797
2843,00:00:11.372,-0.012092225544620298
2844,00:00:11.376,0.00400410452857614
2845,00:00:11.38,0.01121463160961866
2846,00:00:11.384,0.00997907831333578
2847,00:00:11.388,-0.03285261150449517
2848,00:00:11.392,0.0014527044768328776
2849,00:00:11.396,0.005465283291414421
2850,00:00:11.4,0.010561157949268842
2851,00:00:11.404,-0.01203066762536764
2852,00:00:11.408,0.01188451237976551
2853,00:00:11.412,0.035363869741559056
2854,00:00:11.416,-0.030830043833702837
2855,00:00:11.42,-0.0489009236916899
2856,00:00:11.424,0.015931558795273332
2857,00:00:11.428,0.039949468919076
2858,00:00:11.432,0.016211678448598832
2859,00:00:11.436,-0.04845078336074951
2860,00:00:11.44,0.005920178547967224
2861,00:00:11.444,0.02367994585074484
2862,00:00:11.448,-0.004518200177699291
2863,00:00:11.452,-0.010719525627791889
2864,00:00:11.456,0.01864275708794592
2865,00:00:11.46,-0.013071789871901279
2866,00:00:11.464,-0.027388982940465233
2867,00:00:11.468,0.019258633721619813
2868,00:00:11.472,0.01701352745294572
2869,00:00:11.476,-0.00787410768680275
2870,00:00:11.48,-0.008031429373659143
2871,00:00:11.484,-0.005703505186829713
2872,00:00:11.488,0.0009351092157885493
2873,00:00:11.492,0.03208222592365933
2874,00:00:11.496,0.00039211381226777857
2875,00:00:11.5,-0.03189331479370598
2876,00:00:11.504,-0.00786053435876969
2877,00:00:11.508,0.009660447016358351
2878,00:00:11.512,-0.00734664686024189
2879,00:00:11.516,0.02125408709980548
2880,00:00:11.52,0.011691240011714399
2881,00:00:11.524,-0.0014598033158108605
2882,00:00:11.528,-0.019380232319235798
2883,00:00:11.532,-0.00782720686402172
2884,00:00:11.536,-0.00793005432933569
2885,00:00:11.54,-0.01472370955161749
2886,00:00:11.544,0.0410707909613848
2887,00:00:11.548,0.020966045558452676
2888,00:00:11.552,-0.03071836126036944
2889,00:00:11.556,0.005188258364796641
2890,00:00:11.56,0.02630618744296955
2891,00:00:11.564,-0.01775455754250288
2892,00:00:11.568,-0.024819693993777068
2893,00:00:11.572,-0.029377326136454922
2894,00:00:11.576,0.02422635699622333
2895,00:00:11.58,0.02645227964967485
2896,00:00:11.584,0.0106050388421863
2897,00:00:11.588,-0.006247804500162551
2898,00:00:11.592,-0.004444100995897319
2899,00:00:11.596,-0.013539406005293131
2900,00:00:11.6,-0.00922774150967593
2901,00:00:11.604,-0.002847243500582407
2902,00:00:11.608,0.005306233651936051
2903,00:00:11.612,0.018979119136929467
2904,00:00:11.616,0.00940908677875995
2905,00:00:11.62,-0.0007763076573610297
2906,00:00:11.624,-0.01722309272736314
2907,00:00:11.628,-0.00615346361882984
2908,00:00:11.632,0.0068912139395251905
2909,00:00:11.636,0.0016965767408692062
2910,00:00:11.64,0.00484259286895395
2911,00:00:11.644,-0.016063854225649286
2912,00:00:11.648,-0.0144189689308405
2913,00:00:11.652,0.01191918598487973
2914,00:00:11.656,0.027386275120079503
2915,00:00:11.66,0.012523965211585122
2916,00:00:11.664,-0.007333535584621133
2917,00:00:11.668,-0.02030562699656006
2918,00:00:11.672,-0.02189413784071805
2919,00:00:11.676,-0.004457545001059766
2920,00:00:11.68,0.02872592769563198
2921,00:00:11.684,0.025609761942178
2922,00:00:11.688,-0.02388640306890008
2923,00:00:11.692,-0.01906291616614901
2924,00:00:11.696,0.006670247996225914
2925,00:00:11.7,0.01840800116769969
2926,00:00:11.704,0.00119679933413867
2927,00:00:11.708,-0.02579856943339106
2928,00:00:11.712,0.01036940515041348
2929,00:00:11.716,0.00707090052310377
2930,00:00:11.72,0.002027486450970169
2931,00:00:11.724,-0.018117180326953558
2932,00:00:11.728,0.01521626813337207
2933,00:00:11.732,0.007070338469929989
2934,00:00:11.736,-0.0030754874460399116
2935,00:00:11.74,-0.00503036240115762
2936,00:00:11.744,0.00096442725043745
2937,00:00:11.748,0.009978746529668542
2938,00:00:11.752,-0.02015508874319492
2939,00:00:11.756,-0.014655909501016157
2940,00:00:11.76,0.02100837707985194
2941,00:00:11.764,0.01557830593083053
2942,00:00:11.768,-0.0010652802884578705
2943,00:00:11.772,-0.02911256160587072
2944,00:00:11.776,0.009872524649836149
2945,00:00:11.78,0.03151723206974571
2946,00:00:11.784,-0.021929050795733897
2947,00:00:11.788,-0.004226367454975839
2948,00:00:11.792,-0.02793953334912658
2949,00:00:11.796,0.016427241760538898
2950,00:00:11.8,0.024491251795552657
2951,00:00:11.804,0.0089867187198252
2952,00:00:11.808,-0.012242638884345094
2953,00:00:11.812,-0.02462958707474172
2954,00:00:11.816,0.01534355850890279
2955,00:00:11.82,0.005831962756928985
2956,00:00:11.824,0.00131582038011402
2957,00:00:11.828,-0.009403489995747798
2958,00:00:11.832,0.005766547983512289
2959,00:00:11.836,0.0003320579271530802
2960,00:00:11.84,-0.01331993774510915
2961,00:00:11.844,0.01521820342168215
2962,00:00:11.848,0.001235557021573179
2963,00:00:11.852,-0.01728152157738804
2964,00:00:11.856,-0.01571058400440961
2965,00:00:11.86,0.02767110452987249
2966,00:00:11.864,0.030416830442845863
2967,00:00:11.868,-0.01320596830919385
2968,00:00:11.872,-0.03029164671897886
2969,00:00:11.876,-0.009267977438867108
2970,00:00:11.88,0.02246805629692973
2971,00:00:11.884,0.01414551818743349
2972,00:00:11.888,-0.007365429060882889
2973,00:00:11.892,-0.01611266098916533
2974,00:00:11.896,-0.0009512425167486098
2975,00:00:11.9,0.02010185108520087
2976,00:00:11.904,-0.01852750893158369
2977,00:00:11.908,0.00320633390219882
2978,00:00:11.912,0.01502969674766064
2979,00:00:11.916,0.005661904579028491
2980,00:00:11.92,-0.01736252615228294
2981,00:00:11.924,-0.026352581568062257
2982,00:00:11.928,0.026115692686289615
2983,00:00:11.932,0.02127540996298196
2984,00:00:11.936,-0.031155194854363834
2985,00:00:11.94,-0.008522284566424771
2986,00:00:11.944,0.034449972139555085
2987,00:00:11.948,0.00511446024756882
2988,00:00:11.952,-0.03685665258672093
2989,00:00:11.956,0.017888613743707503
2990,00:00:11.96,0.014731829985976238
2991,00:00:11.964,-0.013599966187030077
2992,00:00:11.968,-0.00707997893914581
2993,00:00:11.972,-0.00519254186656326
2994,00:00:11.976,0.0064286116976291
2995,00:00:11.98,0.01690730010159314
2996,00:00:11.984,-0.009398771217092868
2997,00:00:11.988,-0.005238441022811462
2998,00:00:11.992,-0.01009836868615821
2999,00:00:11.996,0.00014009675942361008
3000,00:00:12,0.02847955701872707
3001,00:00:12.004,-0.005178271501790737
3002,00:00:12.008,-0.01595385069958861
3003,00:00:12.012,-0.005028984509408471
3004,00:00:12.016,0.005052993277786301
3005,00:00:12.02,-0.0004913352895528095
3006,00:00:12.024,0.006534976069815509
3007,00:00:12.028,0.008528131758794138
3008,00:00:12.032,0.00023157475516199957
3009,00:00:12.036,0.002399972174316649
3010,00:00:12.04,-0.014607559423893638
3011,00:00:12.044,-0.020753624616190812
3012,00:00:12.048,0.006997512653470041
3013,00:00:12.052,0.0034477928420528796
3014,00:00:12.056,0.033829867839813205
3015,00:00:12.06,-0.013952153502032189
3016,00:00:12.064,-0.004003658890724152
3017,00:00:12.068,0.006147598614916205
3018,00:00:12.072,-0.012011111713945869
3019,00:00:12.076,0.00014258449664338794
3020,00:00:12.08,-0.0013096240290906243
3021,00:00:12.084,-0.004849613411352021
3022,00:00:12.088,0.00039865938015282024
3023,00:00:12.092,-0.00997693859972064
3024,00:00:12.096,0.0167225650511682
3025,00:00:12.1,0.02036785101518031
3026,00:00:12.104,0.0113662909716368
3027,00:00:12.108,-0.02059018891304733
3028,00:00:12.112,-0.04314919258467856
3029,00:00:12.116,0.02009669365361333
3030,00:00:12.12,0.02830214798450474
3031,00:00:12.124,-0.01839327160269019
3032,00:00:12.128,-0.00612340669613332
3033,00:00:12.132,0.020073899067938362
3034,00:00:12.136,-0.021767260390333828
3035,00:00:12.14,0.00740538840182125
3036,00:00:12.144,0.024029810971114764
3037,00:00:12.148,-0.015228215837851174
3038,00:00:12.152,-0.021123405545949943
3039,00:00:12.156,0.01090789167210459
3040,00:00:12.16,0.010880771558731791
3041,00:00:12.164,-0.004021298373118041
3042,00:00:12.168,0.01002419937140076
3043,00:00:12.172,-0.01687741768546398
3044,00:00:12.176,-0.001567198720294977
3045,00:00:12.18,-0.0197988542131498
3046,00:00:12.184,0.014229970518499651
3047,00:00:12.188,0.047928021289408186
3048,00:00:12.192,-0.005591483481111937
3049,00:00:12.196,-0.040318327955901644
3050,00:00:12.2,-0.028359439224004676
3051,00:00:12.204,0.028313770890235946
3052,00:00:12.208,0.0337522597983479
3053,00:00:12.212,-0.01026925875339656
3054,00:00:12.216,-0.019947667606175015
3055,00:00:12.22,0.02149161347188055
3056,00:00:12.224,-0.029278616653755283
3057,00:00:12.228,-0.005872154259122908
3058,00:00:12.232,0.01774769369512797
3059,00:00:12.236,0.01520340214483443
3060,00:00:12.24,0.02470108726993206
3061,00:00:12.244,-0.03332059015519919
3062,00:00:12.248,-0.0543704044539481
3063,00:00:12.252,0.025444290600717078
3064,00:00:12.256,0.03575181314954534
3065,00:00:12.26,0.00897480268031354
3066,00:00:12.264,-0.010016173589974638
3067,00:00:12.268,-0.014499396085739127
3068,00:00:12.272,0.0035162556450814
3069,00:00:12.276,0.014509698958136138
3070,00:00:12.28,-0.0013110251165926387
3071,00:00:12.284,-0.0164455862250179
3072,00:00:12.288,-0.02245826320722698
3073,00:00:12.292,0.00833454536041245
3074,00:00:12.296,0.020831342786550522
3075,00:00:12.3,0.0056863542413339
3076,00:00:12.304,0.01182055182289336
3077,00:00:12.308,-0.002194807515479618
3078,00:00:12.312,-0.024560613790527028
3079,00:00:12.316,-0.01700958330184223
3080,00:00:12.32,0.01542231754865498
3081,00:00:12.324,0.0066267740912735445
3082,00:00:12.328,0.00830730563029647
3083,00:00:12.332,0.004587959498167042
3084,00:00:12.336,-0.0027480921708047425
3085,00:00:12.34,-0.020906546618789455
3086,00:00:12.344,0.008323800750076823
3087,00:00:12.348,0.009210070769768207
3088,00:00:12.352,0.008296756539493801
3089,00:00:12.356,-0.00938409881200639
3090,00:00:12.36,-0.0076351449824869615
3091,00:00:12.364,-0.009683608019258817
3092,00:00:12.368,-0.01005701208487153
3093,00:00:12.372,0.017405420541763326
3094,00:00:12.376,0.03307413775473832
3095,00:00:12.38,-0.01034184033051133
3096,00:00:12.384,-0.015262137865647694
3097,00:00:12.388,-0.01146244257688522
3098,00:00:12.392,0.0046375630190596
3099,00:00:12.396,0.005500576575286681
3100,00:00:12.4,-0.00838454929180444
3101,00:00:12.404,0.002741605683695527
3102,00:00:12.408,0.01644850848242639
3103,00:00:12.412,-0.01600517355836929
3104,00:00:12.416,0.00659463787451386
3105,00:00:12.42,-0.00262635994658922
3106,00:00:12.424,0.0051492671482265
3107,00:00:12.428,0.00604616757482286
3108,00:00:12.432,0.010356637241784488
3109,00:00:12.436,-0.02498624846339224
3110,00:00:12.44,-0.028839669888839105
3111,00:00:12.444,0.025388263631612083
3112,00:00:12.448,0.01155537646263838
