Elapsed Time,EMG1,EMG2,EMG3,BioRadio Event,
00:00:00,1.99690043926239,1.08770871162415,-0.161910846829414,0,
00:00:00.004,-1.90026021003723,-1.03506898880005,0.154075145721436,0,
00:00:00.008,-1.58172106742859,-0.86250627040863,0.134306684136391,0,
00:00:00.012,-0.168335661292076,-0.0824897065758705,0.0058072516694665,0,
00:00:00.016,0.814428985118866,0.43533393740654,-0.0811388269066811,0,
00:00:00.02,0.986784636974335,0.527936995029449,-0.0568136088550091,0,
00:00:00.024,0.602042257785797,0.33073964715004,-0.0361242219805717,0,
00:00:00.028,0.079334445297718,0.046244740486145,-0.0149271292611957,0,
00:00:00.032,-0.285620868206024,-0.144139632582664,0.00426337169483304,0,
00:00:00.036,-0.404590427875519,-0.211920812726021,0.0154418628662825,0,
00:00:00.04,-0.278395891189575,-0.167688369750977,0.0355381183326244,0,
00:00:00.044,-0.104691073298454,-0.065822146832943,0.0247475914657116,0,
00:00:00.048,0.0421734973788261,0.0251056030392647,0.000911732437089086,0,
00:00:00.052,0.112579382956028,0.069356270134449,-0.00340866181068122,0,
00:00:00.056,0.101450048387051,0.0581062138080597,-0.0188870392739773,0,
00:00:00.06,0.0576256066560745,0.0278993528336287,-0.0121219186112285,0,
00:00:00.064,-0.00288230716250837,0.00109089829493314,-0.00113484915345907,0,
00:00:00.068,-0.0350293964147568,-0.0315003134310246,0.0222784783691168,0,
00:00:00.072,-0.03056432120502,-0.017067926004529,0.0199698563665152,0,
00:00:00.076,-0.0100103542208672,0.00155271252151579,-0.0222513359040022,0,
00:00:00.08,-0.00369576876983047,0.0119010526686907,-0.0460966974496841,0,
00:00:00.084,0.00194338045548648,0.00400852924212813,0.000765120843425393,0,
00:00:00.088,0.00490407459437847,-0.00816993787884712,0.0269877072423697,0,
00:00:00.092,0.00696842465549707,-0.00670759426429868,0.0207344684749842,0,
00:00:00.096,-0.00105404783971608,-0.00127479259390384,0.00773863401263952,0,
00:00:00.1,0.00104246707633138,0.000746559700928628,-0.00754849705845118,0,
00:00:00.104,0.000580197374802083,0.00800779741257429,-0.00666659232228994,0,
00:00:00.108,-0.000398084026528522,0.0045350412838161,0.0077231484465301,0,
00:00:00.112,0.00529777351766825,0.00567181361839175,-0.0120392628014088,0,
00:00:00.116,-0.010931764729321,-0.00924916658550501,-0.0244257487356663,0,
00:00:00.12,-0.00140111520886421,-0.0206709466874599,0.033031202852726,0,
00:00:00.124,-0.00344781787134707,-0.00278458674438298,0.0295586585998535,0,
00:00:00.128,0.00910057593137026,0.0223079565912485,-0.0364969559013844,0,
00:00:00.132,0.0108044706285,0.0213378220796585,-0.042017724364996,0,
00:00:00.136,0.000781522016040981,-0.00306233763694763,0.00200475845485926,0,
00:00:00.14,-0.023178668692708,-0.0173723567277193,0.0220600627362728,0,
00:00:00.144,0.00192839396186173,-0.00995990354567766,0.0279554408043623,0,
00:00:00.148,0.0167680885642767,0.000161129486514255,0.0112807247787714,0,
00:00:00.152,0.00425403192639351,0.00340870697982609,-0.0113838631659746,0,
00:00:00.156,-0.0113809136673808,-0.000895590579602867,0.0122372852638364,0,
00:00:00.16,-0.0120541919022799,0.00162809016183019,-0.000715768954250962,0,
00:00:00.164,0.00776885077357292,0.00555456941947341,-0.0323215015232563,0,
00:00:00.168,0.00581627665087581,0.00722975237295032,-0.0226782336831093,0,
00:00:00.172,0.00627867877483368,-0.00233224290423095,0.00882805790752172,0,
00:00:00.176,-0.00679139699786901,-0.00980972032994032,0.0159743949770927,0,
00:00:00.18,-0.00326554547064006,0.00158140703570098,0.00920158065855503,0,
00:00:00.184,-0.000412929890444502,-0.00637946929782629,0.0304574705660343,0,
00:00:00.188,-0.000972050824202597,0.00156066636554897,-0.0054952846840024,0,
00:00:00.192,0.00333592691458762,0.00709668500348926,-0.024892445653677,0,
00:00:00.196,0.00457896199077368,0.00438682781532407,-0.0307036321610212,0,
00:00:00.2,-0.00577385630458593,5.23442577105016E-05,0.00162813160568476,0,
00:00:00.204,0.00323535781353712,-0.00262515456415713,0.020373547449708,0,
00:00:00.208,-0.000352816947270185,-0.000900047016330063,0.00968538597226143,0,
00:00:00.212,0.0048040384426713,-0.00169694412034005,0.00631479918956757,0,
00:00:00.216,-0.0111271999776363,-0.00595501717180014,-0.00163119565695524,0,
00:00:00.22,0.000869477516971529,0.000947529100812972,0.0106813898310065,0,
00:00:00.224,-0.00298063759692013,0.00132064172066748,-0.019193347543478,0,
00:00:00.228,-0.000439640542026609,0.00275140115991235,-0.00920174084603786,0,
00:00:00.232,0.0191893707960844,0.00888072326779366,0.0043157790787518,0,
00:00:00.236,0.00445799203589559,-0.00257394998334348,-0.00309080234728754,0,
00:00:00.24,-0.0282382611185312,-0.00927105359733105,0.0142601393163204,0,
00:00:00.244,0.00921626295894384,0.000639332109130919,0.00420326506718993,0,
00:00:00.248,0.00542365806177258,0.00897417776286602,-0.0102619472891092,0,
00:00:00.252,-0.00571278715506196,-0.00839197635650635,-0.00474265264347196,0,
00:00:00.256,0.00169302686117589,-0.00293661723844707,-0.00600974028930068,0,
00:00:00.26,0.00248934142291546,0.00807531923055649,0.0169027019292116,0,
00:00:00.264,0.0030241971835494,-0.0044799018651247,0.00181692244950682,0,
00:00:00.268,-0.00461624749004841,0.00797019898891449,-0.00657776556909084,0,
00:00:00.272,0.00122946011833847,-0.00193019595462829,-0.0111066466197371,0,
00:00:00.276,-0.00354722677730024,-0.0107471412047744,0.00101458735298365,0,
00:00:00.28,0.000989770865999162,-0.00125436449889094,0.0109210396185517,0,
00:00:00.284,0.00182740320451558,0.0105131547898054,0.00852627027779818,0,
00:00:00.288,0.00105868920218199,0.00323586002923548,-0.00869578029960394,0,
00:00:00.292,0.00419602636247873,-0.00192203267943114,0.00395642034709454,0,
00:00:00.296,-0.00658571952953935,-0.00980887468904257,-0.00593497836962342,0,
00:00:00.3,-0.0081759300082922,-0.000874530815053731,0.00584174878895283,0,
00:00:00.304,0.0130561403930187,0.0060413652099669,0.00222853664308786,0,
00:00:00.308,-0.00334284175187349,0.00241247960366309,-0.0196621958166361,0,
00:00:00.312,-0.00113577698357403,0.00480108242481947,-0.0120429527014494,0,
00:00:00.316,0.00266785803250968,-0.00222127209417522,0.0125192794948816,0,
00:00:00.32,0.0032218701671809,-0.00607317872345448,0.0217681247740984,0,
00:00:00.324,-0.000838229840155691,0.00131706008687615,0.00847079139202833,0,
00:00:00.328,-0.00956558156758547,-0.000941548438277096,-0.0113592846319079,0,
00:00:00.332,0.00695294421166182,0.00364087452180684,-0.0172586403787136,0,
00:00:00.336,-0.000356693373760208,-0.0076596993021667,0.00801231898367405,0,
00:00:00.34,-0.0167590398341417,-0.000472357642138377,0.000831674202345312,0,
00:00:00.344,0.0145432846620679,0.00988536048680544,0.00399948935955763,0,
00:00:00.348,0.00756779313087463,-0.00195982400327921,-0.003479462582618,0,
00:00:00.352,-0.00151617894880474,-0.00497592659667134,0.00585995148867369,0,
00:00:00.356,0.000693663663696498,0.00536537496373057,-0.00555337499827147,0,
00:00:00.36,0.00199230876751244,0.00486516254022717,-0.0171142872422934,0,
00:00:00.364,-0.0139098567888141,-0.00977873057126999,0.00719968322664499,0,
00:00:00.368,-0.0106620863080025,-0.00130439177155495,0.0224698018282652,0,
00:00:00.372,0.0156252328306437,0.00390813825652003,0.0118040069937706,0,
00:00:00.376,0.00936124939471483,-0.00203565694391727,-0.015545692294836,0,
00:00:00.38,-0.00158311694394797,0.00550551852211356,-0.0244962759315968,0,
00:00:00.384,-0.00685446616262197,-0.00665299175307155,-0.00281444960273802,0,
00:00:00.388,-0.00585781782865524,-0.000965987390372902,0.00695183733478189,0,
00:00:00.392,0.0106086237356067,0.012774677015841,0.016834381967783,0,
00:00:00.396,0.000379614706616849,-0.0049689500592649,0.0144000994041562,0,
00:00:00.4,-0.00791154149919748,-0.0149043295532465,-0.0123044680804014,0,
00:00:00.404,-0.00783315859735012,0.00742642907425761,-0.00833313819020987,0,
00:00:00.408,0.00780493672937155,0.00595605792477727,-0.0102662742137909,0,
00:00:00.412,0.0117196189239621,0.00204549892805517,0.00355254695750773,0,
00:00:00.416,-0.00168313144240528,0.000993555411696434,0.00467913644388318,0,
00:00:00.42,-0.00336391478776932,-0.00220139580778778,0.00233359914273024,0,
00:00:00.424,-0.00810319930315018,-0.00759884249418974,-0.00385786849074066,0,
00:00:00.428,-0.000808459997642785,-0.000623987230937928,0.0221296139061451,0,
00:00:00.432,0.00670632580295205,0.0046366355381906,-0.00240075122565031,0,
00:00:00.436,-0.00520155020058155,-0.00123618543148041,-0.0116374967619777,0,
00:00:00.44,-0.00596574228256941,-0.00433215731754899,-0.0098965372890234,0,
00:00:00.444,0.0151683818548918,0.00956755597144365,-0.00363073055632412,0,
00:00:00.448,0.00389298214577138,0.00524144386872649,0.0040764007717371,0,
00:00:00.452,-0.00111185596324503,-0.003884372767061,-0.00362858711741865,0,
00:00:00.456,-0.0071725370362401,-0.00540228607133031,0.000127957478980534,0,
00:00:00.46,-0.00536840688437223,-0.00107058032881469,0.0106128240004182,0,
00:00:00.464,-0.0012447132030502,-0.000124164100270718,-0.00470592873170972,0,
00:00:00.468,0.00394790107384324,-0.00614958582445979,0.0315894037485123,0,
00:00:00.472,0.0112749440595508,0.00826341472566128,0.00278230360709131,0,
00:00:00.476,-0.0238824654370546,-0.00283991871401668,-0.0409550331532955,0,
00:00:00.48,0.00414266297593713,0.00115309248212725,-0.0117854978889227,0,
00:00:00.484,0.0171829238533974,0.00864057987928391,0.00779071124270558,0,
00:00:00.488,0.00324466614983976,-0.00226508686318994,0.0156324841082096,0,
00:00:00.492,-0.00615997985005379,-0.00474724173545837,-0.00691357767209411,0,
00:00:00.496,-0.00154339347500354,-0.00309508596546948,0.0103614237159491,0,
00:00:00.5,-0.00399469910189509,-0.00258242897689343,-0.0108828470110893,0,
00:00:00.504,-0.00228407699614763,0.00529760681092739,0.00512643018737435,0,
00:00:00.508,0.000206445605726913,0.00135659333318472,0.0167288258671761,0,
00:00:00.512,0.00585884554311633,0.00593920983374119,0.00456698331981897,0,
00:00:00.516,-0.00832214765250683,-0.0107569508254528,-0.0180875230580568,0,
00:00:00.52,-0.00454190373420715,-0.00770001672208309,-0.0185170862823725,0,
00:00:00.524,0.0230356901884079,0.00643198098987341,0.00920824147760868,0,
00:00:00.528,-0.00155038957018405,0.0119309313595295,0.00707613676786423,0,
00:00:00.532,-0.0106964791193604,0.00383305153809488,-0.0104200579226017,0,
00:00:00.536,-0.00458456203341484,-0.00807603355497122,0.0064028175547719,0,
00:00:00.54,-0.00431571342051029,-0.00473539531230927,-0.00280870054848492,0,
00:00:00.544,0.0101203173398972,0.000375082221580669,0.00658167153596878,0,
00:00:00.548,0.00366682326421142,0.000590369454585016,0.0105063710361719,0,
00:00:00.552,-0.00352254323661327,-0.00212321663275361,0.00843418203294277,0,
00:00:00.556,-0.003406445030123,-0.000367920933058485,-0.00693323323503137,0,
00:00:00.56,-0.00725667644292116,-0.00265793967992067,-0.02445781044662,0,
00:00:00.564,0.0130797335878015,0.0101003311574459,-0.00928039383143187,0,
00:00:00.568,-0.00355938356369734,0.000667174870613962,0.027803797274828,0,
00:00:00.572,-0.00132218201179057,-0.000585219182539731,0.00392736122012138,0,
00:00:00.576,0.000506482843775302,-0.0107808904722333,-0.0119163226336241,0,
00:00:00.58,0.00311686005443335,0.00101991137489676,0.010016180574894,0,
00:00:00.584,0.00488590216264129,0.0110206194221973,-0.0141699509695172,0,
00:00:00.588,-0.00346505246125162,-0.000116894589154981,-0.00749556347727776,0,
00:00:00.592,-0.0116487396880984,0.000362608610885218,0.00354411033913493,0,
00:00:00.596,0.00461517879739404,-0.0113110681995749,0.00450732512399554,0,
00:00:00.6,-0.00773464236408472,-0.00462225032970309,0.0111610507592559,0,
00:00:00.604,0.00851366575807333,0.0116634834557772,0.0245481301099062,0,
00:00:00.608,0.00984478089958429,0.00274883420206606,-0.00665179546922445,0,
00:00:00.612,-0.00217397185042501,-0.00137188320513815,-0.0361681170761585,0,
00:00:00.616,-0.00245051481761038,-0.00436562485992908,-0.0046578454785049,0,
00:00:00.62,-0.00481266621500254,-0.00164930720347911,0.00296850991435349,0,
00:00:00.624,0.00826395116746426,0.00945406872779131,-0.00238513667136431,0,
00:00:00.628,-0.0111276339739561,-0.0036654316354543,0.0135986777022481,0,
00:00:00.632,-0.00201733596622944,-0.00280265649780631,0.0331086255609989,0,
00:00:00.636,0.000628618989139795,-0.0100576039403677,-0.0176052693277597,0,
00:00:00.64,0.00351137109100819,0.00328062707558274,-0.0155107947066426,0,
00:00:00.644,0.00799752399325371,0.0131548289209604,-0.00636897003278136,0,
00:00:00.648,0.00444505689665675,0.00302475783973932,0.00776545936241746,0,
00:00:00.652,-0.0112629532814026,-0.00583807146176696,0.011591674759984,0,
00:00:00.656,-0.00678059784695506,-0.009744543582201,-0.0142566496506333,0,
00:00:00.66,0.00512791564688087,-0.000270622462267056,-0.0083496943116188,0,
00:00:00.664,0.0073671517893672,0.00827521644532681,0.00474677048623562,0,
00:00:00.668,-0.000251762743573636,0.00644202111288905,0.00826867669820786,0,
00:00:00.672,-0.00502770440652967,-0.00720128882676363,0.00561495218425989,0,
00:00:00.676,0.00148141547106206,-0.00349917123094201,0.00731340656057,0,
00:00:00.68,-0.00340308248996735,0.00381901580840349,-0.00197078683413565,0,
00:00:00.684,0.00093042739899829,-0.00466997036710382,-0.0162779204547405,0,
00:00:00.688,0.00584324263036251,0.00236842618323863,-0.0122762443497777,0,
00:00:00.692,0.00117049959953874,0.00237102154642344,0.0127076879143715,0,
00:00:00.696,-0.021718692034483,-0.0119653278961778,0.0174815747886896,0,
00:00:00.7,0.0117754768580198,0.00887972488999367,-0.00336072407662869,0,
00:00:00.704,0.0102981301024556,0.0106333615258336,-0.0109156183898449,0,
00:00:00.708,0.00924416724592447,0.00197974476031959,-0.00208905804902315,0,
00:00:00.712,-0.012867066077888,-0.00492983963340521,-0.0140158971771598,0,
00:00:00.716,-0.0078146243467927,-0.0107454052194953,0.00647904863581061,0,
00:00:00.72,0.00111320335417986,-0.00240340386517346,0.013979384675622,0,
00:00:00.724,0.00538815790787339,0.00867383647710085,0.0163896735757589,0,
00:00:00.728,0.00664244312793016,-0.00217071291990578,-0.00186565588228405,0,
00:00:00.732,-0.0130994552746415,0.00194619747344404,-0.0197714436799288,0,
00:00:00.736,-0.00178501312620938,-0.013973112218082,-0.00324688595719635,0,
00:00:00.74,0.00627575535327196,0.00231647794134915,-0.000839250453282148,0,
00:00:00.744,0.00501861795783043,0.0219102650880814,-0.000584446650464088,0,
00:00:00.748,-0.00302598485723138,-0.00378745584748685,0.000411565910326317,0,
00:00:00.752,0.0042342827655375,0.00328321312554181,0.00169036420993507,0,
00:00:00.756,0.00281661166809499,-0.000597265549004078,0.00858507677912712,0,
00:00:00.76,-0.00920917559415102,-0.0172705892473459,0.00449242582544684,0,
00:00:00.764,-0.00373384892009199,-0.00422416068613529,-0.00118963595014066,0,
00:00:00.768,-0.0014954925281927,0.00980163458734751,-0.00836777035146952,0,
00:00:00.772,0.00661596888676286,-0.000107393672806211,-0.00426176097244024,0,
00:00:00.776,0.00214297277852893,-0.00477298488840461,0.0155383870005608,0,
00:00:00.78,-0.00224665994755924,0.00487360963597894,-0.0103040020912886,0,
00:00:00.784,-0.00109963736031204,-0.0012828417820856,-0.00421480508521199,0,
00:00:00.788,0.00269092712551355,0.0075092357583344,0.00438120681792498,0,
00:00:00.792,0.00134575320407748,0.0118075190111995,-0.00375005998648703,0,
00:00:00.796,0.00346330460160971,-0.00997146777808666,-0.00108560244552791,0,
00:00:00.8,-0.00558876292780042,-0.0112186130136251,0.00451454473659396,0,
00:00:00.804,-0.0109006920829415,-0.00674389069899917,-0.00264299940317869,0,
00:00:00.808,0.00917901936918497,0.00787013210356236,0.0129008013755083,0,
00:00:00.812,0.0132922753691673,0.00654663890600204,-0.00654651084914804,0,
00:00:00.816,-0.0161531828343868,-0.00696018990129232,-0.010771899484098,0,
00:00:00.82,-0.0240428205579519,-0.00681409845128655,0.00458586029708385,0,
00:00:00.824,0.0312088169157505,0.0112503422424197,0.0307152681052685,0,
00:00:00.828,0.0253197401762009,0.0147567968815565,-0.013293107971549,0,
00:00:00.832,-0.0202243514358997,-0.005286970641464,-0.0372782684862614,0,
00:00:00.836,-0.014808832667768,-0.013778199441731,-0.00353921600617468,0,
00:00:00.84,-0.0022931972052902,-0.00426931353285909,0.0137507226318121,0,
00:00:00.844,0.0054946388117969,0.00847554951906204,0.0134951658546925,0,
00:00:00.848,0.00655490253120661,0.00683689024299383,0.0148360505700111,0,
00:00:00.852,-0.00691606989130378,-0.00935899280011654,-0.00607352890074253,0,
00:00:00.856,0.00119520584121346,-0.00588718615472317,0.00427090004086494,0,
00:00:00.86,0.000909433525521308,0.00110824697185308,-0.0117497025057673,0,
00:00:00.864,0.0037659015506506,0.00488992594182491,-0.00335165066644549,0,
00:00:00.868,0.00580918276682496,0.0129044959321618,-0.00184137932956219,0,
00:00:00.872,-0.00693697156384587,-0.00791546516120434,-0.00943046342581511,0,
00:00:00.876,-0.00340007059276104,-0.00516447797417641,0.00375665491446853,0,
00:00:00.88,-0.0046692923642695,-0.00107767363078892,0.00745834596455097,0,
00:00:00.884,0.00503538502380252,0.00563905015587807,0.00537394685670733,0,
00:00:00.888,0.00678850803524256,0.00430992618203163,-0.000623321218881756,0,
00:00:00.892,0.00142572820186615,-0.00794798415154219,-0.0120607782155275,0,
00:00:00.896,-0.00917934067547321,-0.00720976432785392,0.00872637704014778,0,
00:00:00.9,0.00397753575816751,0.0149544235318899,0.02021106146276,0,
00:00:00.904,-0.00793690513819456,-0.0043905470520258,-0.0110117755830288,0,
00:00:00.908,0.00848610978573561,-0.0120701119303703,0.00260540680028498,0,
00:00:00.912,0.00310942879877985,0.0022397565189749,-0.0240660980343819,0,
00:00:00.916,-0.00146371405571699,0.00688345776870847,-0.0155542194843292,0,
00:00:00.92,-0.0155706182122231,0.00733624072745442,0.0201035849750042,0,
00:00:00.924,0.00948059652000666,0.00361576094292104,0.0070628821849823,0,
00:00:00.928,0.00917898956686258,-0.00309009687043726,0.0182585939764977,0,
00:00:00.932,-0.000270463991910219,-0.0102312257513404,-0.0159513019025326,0,
00:00:00.936,-0.00591562036424875,-0.0030243219807744,-0.00737789925187826,0,
00:00:00.94,0.0046931067481637,0.00145165889989585,-0.00143868115264922,0,
00:00:00.944,-0.0099725965410471,0.00302108912728727,0.0185898598283529,0,
00:00:00.948,-0.00252781738527119,0.00249564391560853,-0.0065345442853868,0,
00:00:00.952,0.00311000505462289,-0.000993833527900279,0.00411647651344538,0,
00:00:00.956,0.00883260648697615,0.0017678007716313,-0.00423752143979073,0,
00:00:00.96,0.00132113811559975,0.00285489554516971,-0.0238226018846035,0,
00:00:00.964,-0.00249217939563096,-0.00681731989607215,0.000451916886959225,0,
00:00:00.968,-0.00518832402303815,0.000973416317719966,0.0243379268795252,0,
00:00:00.972,0.00213607121258974,0.00409630360081792,0.00603023637086153,0,
00:00:00.976,-0.0027231106068939,-0.00326361507177353,-0.0144519060850143,0,
00:00:00.98,0.00336266751401126,-0.000115657625428867,-0.00927147641777992,0,
00:00:00.984,-0.000272452220087871,0.0026235596742481,0.0112149119377136,0,
00:00:00.988,0.0032913270406425,-0.00165744440164417,0.0217194873839617,0,
00:00:00.992,-0.0146759571507573,-0.00581209594383836,-0.00435029063373804,0,
00:00:00.996,0.00888710748404264,0.00359409698285162,-0.0160843078047037,0,
00:00:01,0.00840559881180525,0.00396976340562105,-0.00941730290651321,0,
00:00:01.004,-0.00276350229978561,-0.00074149650754407,-0.0166881885379553,0,
00:00:01.008,-0.00187698728404939,0.007201855070889,0.0147398766130209,0,
00:00:01.012,0.00250002462416887,-0.00615860894322395,0.0162388551980257,0,
00:00:01.016,-0.00714576384052634,-0.00830043666064739,-0.00777731416746974,0,
00:00:01.02,-0.00374034768901765,-0.00200285483151674,0.00525511847808957,0,
00:00:01.024,0.00562675949186087,0.00956946145743132,0.0192474406212568,0,
00:00:01.028,0.00211550830863416,-0.00315055786632001,-0.00130964838899672,0,
00:00:01.032,0.000287592702079564,0.00243254890665412,-0.0246932804584503,0,
00:00:01.036,-0.000487855984829366,0.0019305010791868,-0.0213468540459871,0,
00:00:01.04,-0.00476624350994825,-0.00425104144960642,0.00857260636985302,0,
00:00:01.044,0.00146072939969599,0.000433709967182949,0.019045839086175,0,
00:00:01.048,0.013426742516458,0.0119838789105415,0.0097734946757555,0,
00:00:01.052,-0.00791305769234896,-0.00681661767885089,-0.00553985871374607,0,
00:00:01.056,-0.00595521461218596,-0.0102263716980815,-0.0114235617220402,0,
00:00:01.06,0.00230989512056112,-0.00114912411663681,-0.00805753096938133,0,
00:00:01.064,-0.0109417485073209,-0.00288539496250451,0.0196709595620632,0,
00:00:01.068,0.00915486272424459,0.0160872470587492,0.00956134311854839,0,
00:00:01.072,0.00828419346362352,0.00135077070444822,-0.0193687789142132,0,
00:00:01.076,-0.00253008492290974,9.22391409403645E-05,-0.0117715690284967,0,
00:00:01.08,-0.00353325554169714,-0.0100894309580326,0.0102238701656461,0,
00:00:01.084,0.000622957770247012,-0.00736804911866784,0.00752726104110479,0,
00:00:01.088,0.000561494962312281,0.00130841694772244,0.00445903232321143,0,
00:00:01.092,-0.00242858869023621,0.010419781319797,0.00689569255337119,0,
00:00:01.096,0.00532272644340992,0.0124217523261905,-0.0206808373332024,0,
00:00:01.1,-0.0029487288556993,-0.00628282129764557,-0.00897380150854588,0,
00:00:01.104,-0.0032871866133064,-0.0090853264555335,0.0099856173619628,0,
00:00:01.108,-0.000969577464275062,-0.0090704346075654,-0.000865035050082952,0,
00:00:01.112,0.00106011203024536,0.00613221619278193,0.0129025438800454,0,
00:00:01.116,0.00177354633342475,0.00430358061566949,0.00588084012269974,0,
00:00:01.12,-0.000721132790204138,0.00407517654821277,-0.00540606863796711,0,
00:00:01.124,0.00451661180704832,-0.0039651095867157,-0.00131673691794276,0,
00:00:01.128,-0.00270238565281034,-0.000613233831245452,-0.0168231278657913,0,
00:00:01.132,0.00195427075959742,0.00659284042194486,0.0107033560052514,0,
00:00:01.136,-0.00192118913400918,-0.00561113562434912,-0.0159098319709301,0,
00:00:01.14,0.00221077259629965,-0.00491209281608462,0.00943546742200851,0,
00:00:01.144,-0.00665433425456285,-0.00694282352924347,0.00940136518329382,0,
00:00:01.148,-0.000781009963247925,0.0124004306271672,0.00462792441248894,0,
00:00:01.152,0.000184141827048734,-0.00228040595538914,0.00994534231722355,0,
00:00:01.156,0.00254525453783572,0.00714419595897198,-0.00694747874513268,0,
00:00:01.16,0.0113670313730836,0.00661740498617291,-0.0177105963230133,0,
00:00:01.164,-0.00606607925146818,-0.0113233178853989,-0.0100829666480422,0,
00:00:01.168,-0.0147878620773554,-0.0128860399127007,0.0197500921785831,0,
00:00:01.172,0.00812191423028708,0.00492373434826732,-0.00788625702261925,0,
00:00:01.176,0.0106446612626314,0.00748163694515824,-0.0041165011934936,0,
00:00:01.18,0.00437693623825908,0.00389273278415203,0.0145704513415694,0,
00:00:01.184,-0.0106404256075621,0.00181943201459944,-0.000404396443627775,0,
00:00:01.188,-0.00806740298867226,-0.00446443259716034,0.00544179975986481,0,
00:00:01.192,0.00301936897449195,-5.63829635211732E-05,-0.00937814451754093,0,
00:00:01.196,0.00176253565587103,-0.00343664735555649,-0.00655847787857056,0,
00:00:01.2,-0.000634442258160561,-0.00651694182306528,0.00192197307478637,0,
00:00:01.204,0.0030305553227663,-0.00440015969797969,0.00381029513664544,0,
00:00:01.208,0.00420620711520314,0.0127626797184348,0.0190504528582096,0,
00:00:01.212,-0.00184572453144938,0.00676700519397855,-0.0112946005538106,0,
00:00:01.216,-0.00492137437686324,0.0023011330049485,-0.020206157118082,0,
00:00:01.22,-0.00171366997528821,-0.00756319705396891,-0.00410808250308037,0,
00:00:01.224,0.00355579890310764,-0.00158597179688513,0.00499983178451657,0,
00:00:01.228,0.00268069957382977,-0.00293995393440127,0.00763657269999385,0,
00:00:01.232,0.000325098313624039,-0.00517036998644471,0.0245625525712967,0,
00:00:01.236,0.00288807228207588,0.00910926423966885,-0.000813695718534291,0,
00:00:01.24,-0.011735612526536,-0.000894549826625735,-0.0166795924305916,0,
00:00:01.244,0.0037554728332907,-0.001510274480097,-0.0103030446916819,0,
00:00:01.248,-0.00168836966622621,0.00221066200174391,-0.0108617935329676,0,
00:00:01.252,0.00704719871282578,0.00541046541184187,0.0107682645320892,0,
00:00:01.256,0.00542260892689228,-0.000280039850622416,0.000909361231606454,0,
00:00:01.26,-0.00576313678175211,-0.00860996544361115,0.00394882541149855,0,
00:00:01.264,-0.00982878915965557,-0.0111027956008911,0.0245728362351656,0,
00:00:01.268,0.00209922739304602,0.00256213336251676,0.00291571510024369,0,
00:00:01.272,0.00264874822460115,0.0148457661271095,-0.0259364917874336,0,
00:00:01.276,0.00500671193003654,0.00775868725031614,-0.0169579368084669,0,
00:00:01.28,0.00208673812448978,-0.00383156375028193,0.0058511714451015,0,
00:00:01.284,-0.00107498711440712,-0.00463251769542694,0.0100860241800547,0,
00:00:01.288,0.00167489983141422,-0.00454384041950107,3.03235683531966E-05,0,
00:00:01.292,-0.0102220280095935,-0.00687089329585433,0.00905484333634377,0,
00:00:01.296,-0.00230587390251458,-0.000522528192959726,-0.009674989618361,0,
00:00:01.3,0.0134797291830182,0.00656332029029727,-0.00251143216155469,0,
00:00:01.304,-0.0116482013836503,0.00962893199175596,0.0301346331834793,0,
00:00:01.308,0.00274944584816694,-0.00224735611118376,-0.0171373728662729,0,
00:00:01.312,0.00264790118671954,-0.00883057154715061,-0.0207201670855284,0,
00:00:01.316,0.00815303809940815,-0.0010522116208449,0.00680219475179911,0,
00:00:01.32,-0.00732468347996473,0.00485497061163187,-0.0109485872089863,0,
00:00:01.324,-0.00547664053738117,0.00734516652300954,0.0112867765128613,0,
00:00:01.328,0.00415120040997863,-0.00601116940379143,0.0201987847685814,0,
00:00:01.332,0.00763381412252784,-0.00114639394450933,-0.00963286403566599,0,
00:00:01.336,-0.00363229843787849,-0.000699594325851649,-0.0113725420087576,0,
00:00:01.34,-0.00300053926184773,-0.00499223032966256,-0.00576615985482931,0,
00:00:01.344,-0.00233312509953976,0.00133591319900006,0.0342257469892502,0,
00:00:01.348,-0.00932743400335312,-0.000920015620067716,0.00667304871603847,0,
00:00:01.352,0.00615498935803771,0.00637144083157182,-0.0233206618577242,0,
00:00:01.356,0.0075987670570612,0.00606945203617215,-0.0304455887526274,0,
00:00:01.36,0.00346551509574056,-0.00227374420501292,-0.0103954216465354,0,
00:00:01.364,-0.00292818387970328,-0.00450239842757583,0.0177303720265627,0,
00:00:01.368,0.00313317286781967,0.00302660604938865,0.0347139798104763,0,
00:00:01.372,-0.00516000995412469,-0.0109197404235601,0.0135698989033699,0,
00:00:01.376,-0.00870894268155098,-0.00210483162663877,-0.0208973698318005,0,
00:00:01.38,0.00695606367662549,0.0104581937193871,-0.00975957419723272,0,
00:00:01.384,-0.00114634400233626,-0.00232544727623463,-0.00244165584445,0,
00:00:01.388,0.00153908354695886,0.00275096786208451,-0.00308848358690739,0,
00:00:01.392,0.00147457409184426,0.00384766003116965,-0.00463814940303564,0,
00:00:01.396,0.00460026320070028,0.00376972928643227,-0.00443773902952671,0,
00:00:01.4,-0.00646796124055982,-0.0114364475011826,0.0118876611813903,0,
00:00:01.404,-0.00416430085897446,-0.00903906207531691,0.0126953711733222,0,
00:00:01.408,0.00678772293031216,0.00499084079638124,0.0137037802487612,0,
00:00:01.412,-0.00900223013013601,0.00912337377667427,-0.0124107906594872,0,
00:00:01.416,0.00816733483225107,0.00392965087667108,-0.0339905209839344,0,
00:00:01.42,0.00388119276612997,-0.00781008042395115,0.026631835848093,0,
00:00:01.424,-0.000499323185067624,-0.00222394848242402,-0.00437578465789557,0,
00:00:01.428,-0.000595266523305327,0.00962653383612633,-0.002019336912781,0,
00:00:01.432,-0.00456571439281106,-0.00564697803929448,-0.0102032506838441,0,
00:00:01.436,-0.00293046259321272,-0.00302378507331014,0.000797570333816111,0,
00:00:01.44,-6.94660047884099E-05,0.00165275495965034,0.0214979164302349,0,
00:00:01.444,0.00383675750344992,0.00119282852392644,0.00994039047509432,0,
00:00:01.448,0.00629544211551547,-0.00429874937981367,-0.000658849952742457,0,
00:00:01.452,-0.0187487602233887,-0.00100799545180053,-0.0257754269987345,0,
00:00:01.456,0.00905751530081034,0.0065682833082974,-0.00719807995483279,0,
00:00:01.46,0.00768643012270331,-0.000664315186440945,0.0101460367441177,0,
00:00:01.464,-0.00190546724479645,0.00084967544535175,-0.00472257751971483,0,
00:00:01.468,0.0101779261603951,-6.71010639052838E-05,0.00261401059105992,0,
00:00:01.472,-0.012336254119873,-0.00308707286603749,0.0146358963102102,0,
00:00:01.476,-0.00915410928428173,0.000779678812250495,0.00145245972089469,0,
00:00:01.48,0.00595669494941831,0.00296686869114637,-0.00885911658406258,0,
00:00:01.484,0.0056142769753933,-0.00191685592290014,0.00066430791048333,0,
00:00:01.488,-0.000857233651913702,0.00200464529916644,0.00235609663650393,0,
00:00:01.492,-0.00207851268351078,-0.00467498833313584,-0.0138991847634315,0,
00:00:01.496,-0.0032218808773905,-0.0110072949901223,-0.00206317170523107,0,
00:00:01.5,-2.99756702588638E-05,0.00449020648375154,0.0231291595846415,0,
00:00:01.504,0.00851074233651161,0.021397365257144,0.0026280046440661,0,
00:00:01.508,0.000710882188286632,0.00680551631376147,-0.0245451405644417,0,
00:00:01.512,-0.00759065104648471,-0.0225819908082485,0.0151449972763658,0,
00:00:01.516,0.000184048170922324,-0.00527622131630778,-0.00986656174063683,0,
00:00:01.52,-0.00488914176821709,-0.00822490639984608,0.000845124654006213,0,
00:00:01.524,0.00437109032645822,0.0137444213032722,0.0100760571658611,0,
00:00:01.528,0.00872312020510435,0.00893532764166594,-0.00516155082732439,0,
00:00:01.532,-0.00441081076860428,0.00385431991890073,0.00189058191608638,0,
00:00:01.536,-0.00235526100732386,0.00119967956561595,-0.0120607269927859,0,
00:00:01.54,0.00124587491154671,-0.0181419514119625,-0.00656746700406075,0,
00:00:01.544,-0.0143161723390222,-0.0084713539108634,0.039980374276638,0,
00:00:01.548,0.0169368777424097,0.016492048278451,-0.00910438317805529,0,
00:00:01.552,0.00837542396038771,0.00597076443955302,-0.0252586212009192,0,
00:00:01.556,-0.0108730681240559,-0.0078532574698329,0.0096304239705205,0,
00:00:01.56,-0.00180302036460489,-0.000609209353569895,0.00404088338837028,0,
00:00:01.564,-0.00425378838554025,0.00118573720101267,-0.0134938778355718,0,
00:00:01.568,0.0016031718114391,-0.00130426662508398,0.0152178881689906,0,
00:00:01.572,0.0049121743068099,0.00400504563003778,-0.0064304918050766,0,
00:00:01.576,-0.00220887665636837,-0.000840595050249249,-0.0045475959777832,0,
00:00:01.58,0.000697382551152259,-0.0019718362018466,0.00583338504657149,0,
00:00:01.584,0.00082604808267206,0.00081455142935738,-0.00124106253497303,0,
00:00:01.588,0.00218405132181942,-3.64394290954806E-05,0.000608758651651442,0,
00:00:01.592,-0.000362637132639065,-0.000931245158426464,0.0294536557048559,0,
00:00:01.596,-0.012513997964561,-0.0113223539665341,-0.0193315427750349,0,
00:00:01.6,0.00777110317721963,0.00744764739647508,-0.0247054807841778,0,
00:00:01.604,0.00518257403746247,0.0084000900387764,0.00381197594106197,0,
00:00:01.608,0.00316579034551978,0.00305641582235694,0.00732124270871282,0,
00:00:01.612,-0.00363524700514972,0.00225941394455731,0.00364566780626774,0,
00:00:01.616,-0.00609382055699825,-0.0078639155253768,-0.00600785482674837,0,
00:00:01.62,0.00638629030436277,-0.00652974983677268,0.0111148310825229,0,
00:00:01.624,-0.00178965856321156,-0.00375381484627724,-0.00164284324273467,0,
00:00:01.628,-0.0176416840404272,0.00618966110050678,0.00834686029702425,0,
00:00:01.632,0.0165497362613678,0.000988521729595959,-0.00152546004392207,0,
00:00:01.636,0.00395373068749905,0.00515380082651973,-0.00671644834801555,0,
00:00:01.64,-0.000661904166918248,-0.00253252172842622,-0.0104284612461925,0,
00:00:01.644,0.00248292018659413,-0.000190941602340899,0.00324640981853008,0,
00:00:01.648,0.00514358375221491,-0.00220329058356583,0.00212055630981922,0,
00:00:01.652,-0.0158332455903292,0.00355716142803431,-0.00475911376997828,0,
00:00:01.656,-0.00666374713182449,-0.000926134816836566,-0.00143768731504679,0,
00:00:01.66,-0.00362452585250139,0.00023148104082793,0.0257340557873249,0,
00:00:01.664,0.0146164372563362,-0.00927715748548508,-0.0171422734856606,0,
00:00:01.668,0.0127289891242981,0.00636246427893639,-0.00620512617751956,0,
00:00:01.672,0.00134672468993813,0.00551309064030647,0.0142771573737264,0,
00:00:01.676,-0.0108474604785442,-0.00148726941552013,0.00311449146829546,0,
00:00:01.68,-0.00628639524802566,-0.00284901796840131,-0.0183620285242796,0,
00:00:01.684,0.000251906749326736,-0.00169661326799542,-0.00852722115814686,0,
00:00:01.688,0.00550515251234174,0.0019580596126616,0.00860556308180094,0,
00:00:01.692,-0.0134353572502732,-0.00735234376043081,0.0144040435552597,0,
00:00:01.696,0.00903182756155729,0.00736597226932645,0.013553012162447,0,
00:00:01.7,-0.00229863845743239,0.00547597836703062,-0.017896169796586,0,
00:00:01.704,0.0130866654217243,-0.00628440268337727,-0.0058158989995718,0,
00:00:01.708,-0.0057908589951694,0.00245509529486299,-0.00345714134164155,0,
00:00:01.712,-0.00366440555080771,-0.000839603191707283,-0.00385418254882097,0,
00:00:01.716,-0.000828870513942093,-0.00772828795015812,0.00458153337240219,0,
00:00:01.72,0.0029484941624105,0.00714630214497447,0.00624108500778675,0,
00:00:01.724,0.00338586955331266,0.00713427318260074,-0.000290203490294516,0,
00:00:01.728,-0.00281246611848474,-0.00240873056463897,0.00445778435096145,0,
00:00:01.732,-0.00127780192997307,-0.00731305498629808,-0.00473624933511019,0,
00:00:01.736,-0.00555540295317769,-0.00382676930166781,0.00387269002385437,0,
00:00:01.74,0.00285779754631221,-0.00134534819517285,0.00772743904963136,0,
00:00:01.744,-0.00114993553142995,0.00511478120461106,-0.0205060131847858,0,
00:00:01.748,0.00065719906706363,0.00262058596126735,0.015917856246233,0,
00:00:01.752,0.0043559530749917,0.0078536020591855,0.00740930298343301,0,
00:00:01.756,0.00851200055330992,-0.00739369262009859,-0.0436570644378662,0,
00:00:01.76,-0.0127547299489379,0.00497955782338977,0.00964340940117836,0,
00:00:01.764,-0.00526979519054294,-0.0098222279921174,0.0395125560462475,0,
00:00:01.768,0.00840449333190918,-0.00497367279604077,0.01143529266119,0,
00:00:01.772,0.00751775782555342,0.00862064678221941,-0.0464343875646591,0,
00:00:01.776,0.00577943585813046,0.00602323329076171,-0.00349977053701878,0,
00:00:01.78,-0.0237985104322433,8.97137942956761E-05,0.0094453701749444,0,
00:00:01.784,-0.00895058829337358,-0.00350965978577733,0.00663776462897658,0,
00:00:01.788,0.0124232955276966,-0.0037767575122416,0.0307132694870234,0,
00:00:01.792,0.00802047550678253,-0.00822253804653883,-0.0182650033384562,0,
00:00:01.796,0.0104363597929478,0.00396130001172423,-0.0153032457455993,0,
00:00:01.8,-0.00325290649197996,0.00415928894653916,-0.00568634271621704,0,
00:00:01.804,-0.0046389028429985,0.00566658424213529,0.00442914804443717,0,
00:00:01.808,-0.00262880534864962,0.00190177350305021,-0.000401953468099236,0,
00:00:01.812,-0.0049119982868433,0.000343276711646467,0.00726703833788633,0,
00:00:01.816,-0.00219399505294859,-0.00514076882973313,-0.000917397672310472,0,
00:00:01.82,0.00103087106253952,-0.00834494363516569,0.00667232181876898,0,
00:00:01.824,0.00265531893819571,0.00484729977324605,0.00448991265147924,0,
00:00:01.828,0.00247064442373812,0.00254921731539071,-0.0130697302520275,0,
00:00:01.832,-0.00288573140278459,0.000820538261905313,0.0055883270688355,0,
00:00:01.836,0.00185926666017622,0.00187726400326937,-0.00336238322779536,0,
00:00:01.84,0.0107068885117769,-0.00253690360113978,0.00729075400158763,0,
00:00:01.844,-0.00690926099196076,-0.00419619958847761,-0.00806756410747766,0,
00:00:01.848,-0.00505279190838337,0.00574087584391236,-0.00425938330590725,0,
00:00:01.852,-0.00194674602244049,0.000649668218102306,-0.00640085665509105,0,
00:00:01.856,-0.00149751838762313,-0.00804033968597651,0.0040671918541193,0,
00:00:01.86,0.00370162981562316,0.00190856726840138,0.0116225127130747,0,
00:00:01.864,0.00325531116686761,0.00186420767568052,0.00771763455122709,0,
00:00:01.868,0.00101096509024501,0.0063815088942647,-0.00987533200532198,0,
00:00:01.872,0.0033203277271241,0.00388735765591264,-0.000975101429503411,0,
00:00:01.876,-0.00545566575601697,-0.00673477910459042,-0.0145892817527056,0,
00:00:01.88,0.00175368716008961,-0.00582860037684441,0.0212900377810001,0,
00:00:01.884,-0.0171072371304035,-0.0077128536067903,0.00666899047791958,0,
00:00:01.888,0.00268891081213951,0.00991241168230772,-0.00985265709459782,0,
00:00:01.892,0.0141970179975033,0.00592690892517567,-0.0159614607691765,0,
00:00:01.896,0.00636082980781794,-0.00100431893952191,0.000320383638609201,0,
00:00:01.9,0.00784447137266397,-5.02766088175122E-05,0.000708772975485772,0,
00:00:01.904,-0.0118776112794876,-0.00114840839523822,0.0125038679689169,0,
00:00:01.908,-0.000382121739676222,0.00240126578137279,0.0162810515612364,0,
00:00:01.912,-0.0171978715807199,-0.00532790599390864,-0.00992483738809824,0,
00:00:01.916,0.00289220758713782,-0.00169775367248803,-0.0115650808438659,0,
00:00:01.92,0.00150020304135978,-0.00201363931410015,-0.0067726825363934,0,
00:00:01.924,0.0113253369927406,0.00282032252289355,0.00374512188136578,0,
00:00:01.928,0.00835707876831293,0.000555898761376739,0.0144790271297097,0,
00:00:01.932,-0.00917461514472961,-0.00748350052163005,-0.00177306565456092,0,
00:00:01.936,-0.00476353522390127,0.00687667913734913,0.00258388090878725,0,
00:00:01.94,0.00180875847581774,0.00925071630626917,-0.0200455952435732,0,
00:00:01.944,0.00419941078871489,0.00865827966481447,0.00278032245114446,0,
00:00:01.948,-0.00139991426840425,-0.0116182584315538,0.00958183966577053,0,
00:00:01.952,-0.00233214185573161,-0.00642773415893316,-0.00774542847648263,0,
00:00:01.956,-0.00330275716260076,-0.00696955295279622,0.000362579972716048,0,
00:00:01.96,0.00418474432080984,0.00393763324245811,0.013836108148098,0,
00:00:01.964,-0.00151589943561703,0.0049481550231576,0.0120488246902823,0,
00:00:01.968,0.00351656577549875,0.0024282110389322,-0.0181807950139046,0,
00:00:01.972,-0.000825961353257298,-0.0063681285828352,0.00116409687325358,0,
00:00:01.976,-0.00367846642620862,0.000366896681953222,-0.0125708663836122,0,
00:00:01.98,0.00108896789606661,0.00542551139369607,-0.000114717564429156,0,
00:00:01.984,0.00166891468688846,0.000983857898972929,0.0179196316748858,0,
00:00:01.988,0.00279509485699236,0.00145145459100604,-0.0145870679989457,0,
00:00:01.992,-0.0022392300888896,-0.000869418843649328,-0.00319678033702075,0,
00:00:01.996,-0.0044208038598299,-0.00232302723452449,0.00944476947188377,0,
00:00:02,0.00118741940241307,-7.52929045120254E-05,-0.000993452500551939,0,
00:00:02.004,0.00637857476249337,-0.00297444802708924,0.0194291416555643,0,
00:00:02.008,0.0014873780310154,-0.0035057554487139,-0.0107584148645401,0,
00:00:02.012,-0.015493132174015,0.0068472302518785,-0.00794831290841103,0,
00:00:02.016,0.00149570603389293,-0.00466831028461456,-0.00189143093302846,0,
00:00:02.02,0.00908909551799297,-0.00169146072585136,-0.000211566861253232,0,
00:00:02.024,0.0159996636211872,0.0151039958000183,-0.00590372458100319,0,
00:00:02.028,-0.022271690890193,-0.00786410272121429,0.00862100813537836,0,
00:00:02.032,0.000326285167830065,-0.00312025425955653,0.00785835459828377,0,
00:00:02.036,0.00734280236065388,-0.000624616455752403,-0.010599828325212,0,
00:00:02.04,-0.000941537553444505,-0.00367471552453935,0.00247348798438907,0,
00:00:02.044,0.00226600118912756,0.00882351957261562,-0.00568549614399672,0,
00:00:02.048,-0.00245234672911465,-0.000145115031045862,0.00145483925007284,0,
00:00:02.052,-0.00259734597057104,-0.00481082079932094,0.00432802038267255,0,
00:00:02.056,0.0010932992445305,0.00610369443893433,0.00556328287348151,0,
00:00:02.06,-0.00349705945700407,-0.00274573313072324,-0.0029916106723249,0,
00:00:02.064,0.00364413694478571,-0.0102322138845921,0.00135092681739479,0,
00:00:02.068,-0.00150331214535981,0.00403716368600726,0.00583281647413969,0,
00:00:02.072,0.00185915757901967,0.00340534118004143,-0.00606821849942207,0,
00:00:02.076,0.00366154219955206,0.000198479741811752,-0.0113430507481098,0,
00:00:02.08,-0.00173155916854739,0.00279243988916278,0.000630367139820009,0,
00:00:02.084,-0.0065622772090137,0.00333576160483062,-0.00616695592179894,0,
00:00:02.088,0.00897338707000017,-0.00067901739384979,-0.00526331411674619,0,
00:00:02.092,-0.0025063450448215,-0.00745165394619107,0.0461551323533058,0,
00:00:02.096,-0.00996137782931328,-0.011771003715694,0.00384368211962283,0,
00:00:02.1,-0.00167608319316059,0.0177030600607395,-0.0306219272315502,0,
00:00:02.104,0.0159223172813654,0.00653430726379156,-0.0205436609685421,0,
00:00:02.108,0.00540445791557431,-0.00876724626868963,0.0195503253489733,0,
00:00:02.112,-0.00995162595063448,-0.00421308120712638,-0.00885554775595665,0,
00:00:02.116,-0.00105350778903812,0.00614732783287764,-0.00599141931161284,0,
00:00:02.12,-0.00245503545738757,-0.00189899874385446,0.0116604911163449,0,
00:00:02.124,-0.00120786018669605,-0.0007477265316993,0.00673484662547708,0,
00:00:02.128,0.000457824702607468,-0.00304829352535307,0.00332813919521868,0,
00:00:02.132,0.00138023437466472,-0.00301073468290269,0.00640156865119934,0,
00:00:02.136,0.00343803269788623,0.00326370005495846,-0.00588886579498649,0,
00:00:02.14,-0.00536127435043454,0.00371648976579309,-0.00968114193528891,0,
00:00:02.144,0.00446333596482873,0.00795060489326715,-0.000262621702859178,0,
00:00:02.148,0.00491905910894275,-0.00629091262817383,0.0118419891223311,0,
00:00:02.152,-0.00901927147060633,-0.0146725215017796,-0.00489227892830968,0,
00:00:02.156,-0.00257881451398134,0.00594489416107535,-0.0100045930594206,0,
00:00:02.16,0.00421136850491166,0.0103983506560326,-0.0125615010038018,0,
00:00:02.164,0.0035956057254225,0.00177451176568866,0.0018385840812698,0,
00:00:02.168,0.00293023907579482,-0.000629901944193989,0.0155664049088955,0,
00:00:02.172,-0.00113688479177654,-0.00135686004068702,0.0137613201513886,0,
00:00:02.176,-0.00961843226104975,-0.00990317482501268,0.00883866660296917,0,
00:00:02.18,0.00289283390156925,-0.00398263800889254,-0.00152999034617096,0,
00:00:02.184,-0.000468221900518984,0.00287545449100435,-0.0293773617595434,0,
00:00:02.188,0.00294301542453468,0.00980682484805584,-0.0148908635601401,0,
00:00:02.192,0.00211773370392621,0.00260126171633601,0.0108645288273692,0,
00:00:02.196,-0.00182973453775048,-0.00373201118782163,0.0248202942311764,0,
00:00:02.2,0.00301907793618739,0.00108635053038597,-0.0122394040226936,0,
00:00:02.204,0.00667214533314109,-0.0026118780951947,-0.00427705701440573,0,
00:00:02.208,-0.014361628331244,-0.000234694161918014,0.0151647618040442,0,
00:00:02.212,0.000336057302774861,-0.000556128507014364,0.00326231238432229,0,
00:00:02.216,-0.0157805196940899,-0.0091209439560771,-0.0105279060080647,0,
00:00:02.22,0.015138229355216,0.00533485226333141,-0.00891772843897343,0,
00:00:02.224,0.0165603458881378,0.00448889844119549,0.00167877436615527,0,
00:00:02.228,0.00610387278720737,0.0109880417585373,0.000817399122752249,0,
00:00:02.232,-0.0103020602837205,-0.00736962491646409,-0.00908463262021542,0,
00:00:02.236,-0.0130775300785899,-0.00761436484754086,0.00935858301818371,0,
00:00:02.24,-0.00729430420324206,0.00183086527977139,0.00725960591807961,0,
00:00:02.244,0.00858300644904375,0.00433382159098983,0.00910023972392082,0,
00:00:02.248,0.00553389173001051,-0.00778514984995127,-0.000741410825867206,0,
00:00:02.252,0.0019211407052353,-0.00281180627644062,-0.00967997405678034,0,
00:00:02.256,-0.00480812089517713,0.00757719436660409,-0.0122984480112791,0,
00:00:02.26,0.0043429215438664,0.00781039893627167,-0.00499051902443171,0,
00:00:02.264,0.00191977864596993,0.000868297705892473,0.0153310839086771,0,
00:00:02.268,-0.00600552977994084,-0.00215594354085624,-0.00719237048178911,0,
00:00:02.272,-0.00557896634563804,-0.0154325049370527,0.00248823850415647,0,
00:00:02.276,0.010942105203867,-0.00100502767600119,0.0289207324385643,0,
00:00:02.28,-0.00132366933394223,0.0121087590232491,-0.0152615262195468,0,
00:00:02.284,-0.00568100670352578,0.000332994444761425,-0.013132693246007,0,
00:00:02.288,0.00217293365858495,0.000383953010896221,0.000675024290103465,0,
00:00:02.292,-0.00209279241971672,-0.000598995829932392,-0.00678544864058495,0,
00:00:02.296,-0.00218078983016312,0.000883478962350637,-0.000574846286326647,0,
00:00:02.3,0.00806296616792679,-0.00305783282965422,0.00319841899909079,0,
00:00:02.304,-7.29505336494185E-05,-0.00218272651545703,0.00636383472010493,0,
00:00:02.308,0.0084789153188467,0.00400671269744635,0.0117401359602809,0,
00:00:02.312,-0.0111897764727473,0.00141541706398129,0.000375423027435318,0,
00:00:02.316,-0.0105953263118863,-0.0120127089321613,-0.00799253117293119,0,
00:00:02.32,0.00139804708305746,-0.000957652635406703,-0.000412232184316963,0,
00:00:02.324,0.0166577957570553,0.0124399373307824,0.00432079285383224,0,
00:00:02.328,0.00189653213601559,0.00520541053265333,-0.0132994186133146,0,
00:00:02.332,-0.0222303755581379,-0.00103752710856497,-0.00956116430461407,0,
00:00:02.336,0.00533563271164894,-0.00392868649214506,0.00419312389567494,0,
00:00:02.34,0.00757210655137897,-0.00785333756357431,0.00484492722898722,0,
00:00:02.344,0.00672191986814141,0.00418226653710008,0.0110021885484457,0,
00:00:02.348,0.00277351401746273,0.00763907982036471,0.00362293934449553,0,
00:00:02.352,-0.00355274463072419,-0.00598553940653801,-0.00545219099149108,0,
00:00:02.356,-0.00604746397584677,-0.00541755184531212,0.00258432980626822,0,
00:00:02.36,-0.00663502002134919,-0.00710148736834526,0.0208730138838291,0,
00:00:02.364,-0.00352225732058287,0.0125756533816457,-0.0290200877934694,0,
00:00:02.368,0.000741361000109464,0.0063276756554842,-0.0141927739605308,0,
00:00:02.372,0.0119137922301888,-0.00466428184881806,-0.00737498700618744,0,
00:00:02.376,0.00247445493005216,-0.00213057035580277,0.0125632490962744,0,
00:00:02.38,0.000776131404563785,-0.00285748625174165,0.0237309150397778,0,
00:00:02.384,-0.00204650638625026,-0.000184620395884849,0.00703944638371468,0,
00:00:02.388,-0.00733000552281737,0.0100591946393251,-0.00603188294917345,0,
00:00:02.392,0.00564215751364827,-0.00591938104480505,-0.0125587098300457,0,
00:00:02.396,-0.00155516236554831,-0.00343515095300972,-0.00185382238123566,0,
00:00:02.4,-0.00243679736740887,0.00138181308284402,-0.0174501538276672,0,
00:00:02.404,-0.0029747171793133,-0.00510197132825851,0.00638031959533691,0,
00:00:02.408,0.000586437876336277,0.00377783179283142,0.0205027349293232,0,
00:00:02.412,0.00705396570265293,0.00413829972967505,0.00645803427323699,0,
00:00:02.416,-0.00109212344978005,0.00357231078669429,-0.0172429755330086,0,
00:00:02.42,0.000152031643665396,-0.00497971987351775,-0.000876045320183039,0,
00:00:02.424,0.00776496157050133,0.00049109966494143,0.00117989093996584,0,
00:00:02.428,-0.0152186146005988,0.00204882794059813,0.00629461696371436,0,
00:00:02.432,-0.00369676225818694,-0.00937754847109318,0.00400275038555264,0,
00:00:02.436,0.00783057510852814,-0.00326041714288294,-0.00858290959149599,0,
00:00:02.44,0.00369126629084349,0.0162827912718058,-0.0201836079359055,0,
00:00:02.444,-0.00774956727400422,-0.00146106351166964,0.0265856310725212,0,
00:00:02.448,0.0109261907637119,-0.0135406861081719,0.0158883221447468,0,
00:00:02.452,0.00322299799881876,0.00680595310404897,-0.00824815779924393,0,
00:00:02.456,-0.00761669129133224,0.00238051987253129,-0.0289262570440769,0,
00:00:02.46,-0.00574116641655564,0.00269655650481582,-0.00399351818487048,0,
00:00:02.464,0.00335117103531957,0.0020201625302434,0.015791991725564,0,
00:00:02.468,0.00482716970145702,0.000138013347168453,0.00777760520577431,0,
00:00:02.472,-0.010152236558497,-0.00579313561320305,-0.00209061824716628,0,
00:00:02.476,0.0048283888027072,-0.0129710305482149,-0.00572493718937039,0,
00:00:02.48,0.00286345812492073,0.0109270308166742,0.000281106680631638,0,
00:00:02.484,-0.00122762576211244,0.00228196126408875,0.0271420031785965,0,
00:00:02.488,0.00147779972758144,-0.00823086313903332,0.00520851975306869,0,
00:00:02.492,0.000665479979943484,0.00580107932910323,-0.0341952778398991,0,
00:00:02.496,-0.000620450417045504,0.012858547270298,-0.0231501795351505,0,
00:00:02.5,-0.00117865484207869,-0.00146450730971992,0.00153047638013959,0,
00:00:02.504,-0.00094551348593086,-0.00652927719056606,0.0245584174990654,0,
00:00:02.508,-0.000339051650371403,-0.00553163746371865,0.021421080455184,0,
00:00:02.512,0.000206396158318967,0.00200699851848185,-0.0116370292380452,0,
00:00:02.516,-0.00161314022261649,-0.000995603273622692,-0.00483649969100952,0,
00:00:02.52,0.00655363267287612,-0.00505268527194858,-0.0102355647832155,0,
00:00:02.524,-0.00208039372228086,0.00416145799681544,0.0237582344561815,0,
00:00:02.528,-0.00516653945669532,-0.00189502839930356,0.000916890043299645,0,
00:00:02.532,-0.00556279020383954,0.00538919726386666,-0.0201903488487005,0,
00:00:02.536,0.010160556063056,0.0018446339527145,-0.0210335254669189,0,
00:00:02.54,0.00445616245269775,0.00220096274279058,0.0103722587227821,0,
00:00:02.544,0.00127265590708703,0.00350150326266885,0.0150063363835216,0,
00:00:02.548,-0.00522097572684288,-0.00652647810056806,0.004063974134624,0,
00:00:02.552,-0.00673828972503543,-0.0079597057774663,-0.00427689263597131,0,
00:00:02.556,0.00244956556707621,-0.00183435541111976,0.000357337383320555,0,
00:00:02.56,0.00902391970157623,0.00741071021184325,0.00773707963526249,0,
00:00:02.564,-0.0155211891978979,0.00281107006594539,0.000929997360799462,0,
00:00:02.568,-0.00616989331319928,-0.0020505515858531,-0.00319914170540869,0,
00:00:02.572,0.0123075423762202,-0.00126196315977722,-0.00641077570617199,0,
00:00:02.576,0.0190900955349207,0.00864266417920589,-0.011682384647429,0,
00:00:02.58,-0.00087799021275714,-0.00685610063374043,0.00185777677688748,0,
00:00:02.584,-0.0140612870454788,-0.0016184119740501,-0.00210645189508796,0,
00:00:02.588,-0.0117940315976739,-0.00451693497598171,0.0130278579890728,0,
00:00:02.592,0.00268983002752066,0.00175620045047253,0.0148757565766573,0,
00:00:02.596,0.00596651481464505,0.00117422500625253,-0.00994636304676533,0,
00:00:02.6,0.00611850572749972,0.00207695434801281,-0.00824022013694048,0,
00:00:02.604,-0.00310136750340462,0.0102880075573921,-0.0114698670804501,0,
00:00:02.608,0.00122289860155433,-0.00697325868532062,0.00477419840171933,0,
00:00:02.612,-0.00231173681095243,-0.00270090508274734,0.0195394083857536,0,
00:00:02.616,-0.00399265112355351,-0.0056708175688982,0.00465995259582996,0,
00:00:02.62,0.00367177254520357,0.00107798469252884,-0.0170445386320353,0,
00:00:02.624,-0.00162543915212154,0.00107861694414169,-0.00600325502455235,0,
00:00:02.628,-0.00253285910002887,0.00859727896749973,0.00563806015998125,0,
00:00:02.632,0.0074314521625638,-0.0035435613244772,0.0107315089553595,0,
00:00:02.636,0.00152598333079368,-0.00163315702229738,-0.0116122793406248,0,
00:00:02.64,-0.00195019773673266,-0.000612947042100132,-0.00928879994899035,0,
00:00:02.644,-0.00273289508186281,-7.65726217650808E-05,0.0100145386531949,0,
00:00:02.648,-0.00179079093504697,0.000160837356816046,-0.00608981493860483,0,
00:00:02.652,-0.000361695390893146,0.00435750978067517,0.0256156027317047,0,
00:00:02.656,-0.00347572518512607,-0.00795576628297567,-0.00405791820958257,0,
00:00:02.66,0.0091114304959774,0.00695047620683908,-0.00760403042659163,0,
00:00:02.664,0.00218457821756601,-0.0050855902954936,-0.00801545660942793,0,
00:00:02.668,-0.0108267832547426,-0.00925949681550264,-0.0089619867503643,0,
00:00:02.672,0.0021435811650008,0.0114158727228642,0.00136861740611494,0,
00:00:02.676,0.004083217587322,0.00855867378413677,-0.00256702257320285,0,
00:00:02.68,0.00396016985177994,-0.00384203437715769,0.000794747436884791,0,
00:00:02.684,-0.0066844173707068,-0.00102703412994742,0.0189857445657253,0,
00:00:02.688,0.00476007256656885,-0.00228884862735868,0.0207073297351599,0,
00:00:02.692,0.00386488903313875,-0.00693006347864866,-0.00819725170731544,0,
00:00:02.696,-0.0211323089897633,0.000101290301245172,-0.0235728826373816,0,
00:00:02.7,0.00401778472587466,0.00508818868547678,-0.0153352478519082,0,
00:00:02.704,0.0184117332100868,0.000963543367106467,0.00493872165679932,0,
00:00:02.708,-0.0012595544103533,-0.000178486749064177,0.0147684058174491,0,
00:00:02.712,-0.0035789986141026,-0.00232394714839756,0.00603330414742231,0,
00:00:02.716,-0.00358904106542468,-0.000196168912225403,-0.0110338199883699,0,
00:00:02.72,-0.00417002150788903,0.00361184636130929,0.00417652307078242,0,
00:00:02.724,0.0016612404724583,0.00388916325755417,0.00674372585490346,0,
00:00:02.728,0.00459467899054289,0.00146682420745492,-0.00330621795728803,0,
00:00:02.732,-0.000589676143135875,-0.00753382546827197,-0.0144721195101738,0,
00:00:02.736,-0.00159403134603053,-0.00518749980255961,0.0247627012431622,0,
00:00:02.74,-0.00295440154150128,-0.0023421230725944,0.00747844437137246,0,
00:00:02.744,-3.07738264382351E-05,0.00489609129726887,-0.0307980868965387,0,
00:00:02.748,0.00628453260287642,0.00297285011038184,-0.00991215091198683,0,
00:00:02.752,0.000449245766503736,0.00422566290944815,0.00787344109266996,0,
00:00:02.756,-0.00406223116442561,-0.000983335776254535,0.0113773327320814,0,
00:00:02.76,0.00407597376033664,0.00433901092037559,0.00510392989963293,0,
00:00:02.764,-0.00955444015562534,-0.00714383739978075,0.00734489131718874,0,
00:00:02.768,0.00497231259942055,0.00303437118418515,-0.00724760675802827,0,
00:00:02.772,0.00452147517353296,-0.00408762926235795,-0.0154994344338775,0,
00:00:02.776,-0.00375711149536073,-0.01389538962394,0.0136595629155636,0,
00:00:02.78,-0.000496064894832671,0.00521378824487329,0.00837322045117617,0,
00:00:02.784,0.00255934335291386,0.0139923170208931,-0.00880043394863606,0,
00:00:02.788,-0.00360625446774065,0.00664928462356329,-0.00618921779096127,0,
00:00:02.792,0.000460482406197116,-0.00624125730246305,-0.00209550745785236,0,
00:00:02.796,-0.00280162738636136,-0.00854218471795321,-0.00710895750671625,0,
00:00:02.8,0.00686059659346938,0.00566055858507752,0.00429569790139794,0,
00:00:02.804,0.00551792373880744,0.000811142614111304,0.012764735147357,0,
00:00:02.808,-0.00150982348714024,-0.00217121071182191,0.00257016974501312,0,
00:00:02.812,-0.00959440320730209,-0.00246333912946284,-0.00356904556974769,0,
00:00:02.816,-0.0155341001227498,-0.00738504342734814,0.00775636220350862,0,
00:00:02.82,0.0109280506148934,5.84830850129947E-05,0.0103369662538171,0,
00:00:02.824,0.0167020801454782,0.012079956009984,-0.0149243930354714,0,
00:00:02.828,-0.00303311599418521,0.00672814901918173,-0.0264644287526608,0,
00:00:02.832,-0.00146922585554421,-0.0074485563673079,-0.00512491725385189,0,
00:00:02.836,-0.00240008253604174,0.000476765097118914,0.0106748715043068,0,
00:00:02.84,-0.000555551145225763,-0.000313095224555582,0.0146395592018962,0,
00:00:02.844,-0.0057708490639925,-0.00408189836889505,0.00772590888664126,0,
00:00:02.848,0.00204823585227132,-0.000203475152375177,0.00411742180585861,0,
00:00:02.852,-0.00190061738248914,-0.00150969391688704,0.00840510055422783,0,
00:00:02.856,0.00449842540547252,-0.00379452458582819,-0.0153100490570068,0,
00:00:02.86,0.000547153293155134,0.00576504785567522,-0.0155762219801545,0,
00:00:02.864,-0.00476962188258767,0.00518866581842303,0.0085532171651721,0,
00:00:02.868,0.00337111367844045,0.00139182398561388,-0.00216581369750202,0,
00:00:02.872,0.00722263380885124,0.000380844459868968,-0.00545169785618782,0,
00:00:02.876,-0.00767273548990488,-0.00678576761856675,0.00364098139107227,0,
00:00:02.88,0.00123156455811113,0.000334865384502336,0.00637499522417784,0,
00:00:02.884,0.00317961303517222,0.00291967811062932,0.00237217009998858,0,
00:00:02.888,-0.00478549161925912,-0.00414726231247187,-0.00331550091505051,0,
00:00:02.892,-0.0136847672984004,-0.00648974720388651,0.0120301404967904,0,
00:00:02.896,0.0100928638130426,0.00281252129934728,0.00478039961308241,0,
00:00:02.9,0.0209577307105064,0.00370552879758179,0.00133489596191794,0,
00:00:02.904,-0.00857011694461107,0.00825750175863504,-0.023205766454339,0,
00:00:02.908,-0.019470414146781,0.0089934803545475,-0.0208517927676439,0,
00:00:02.912,0.00965237244963646,-0.00878780987113714,0.00251811137422919,0,
00:00:02.916,0.00672705238685012,-0.0119856772944331,0.0127750411629677,0,
00:00:02.92,0.000578165287151933,0.00173492694739252,0.0103467628359795,0,
00:00:02.924,-0.00731653766706586,-0.00111335690598935,0.0127603206783533,0,
00:00:02.928,-0.00375641253776848,0.000833612401038408,0.014669993892312,0,
00:00:02.932,0.00119587522931397,0.000466551224235445,-0.00156879797577858,0,
00:00:02.936,0.00979458633810282,-0.00167924573179334,-0.0299139078706503,0,
00:00:02.94,-0.000721323827747256,0.0131060536950827,-0.00292084901593626,0,
00:00:02.944,-0.001480498816818,0.00320932455360889,-0.00801756791770458,0,
00:00:02.948,-0.0087283793836832,-0.00648524379357696,-0.00103034905623645,0,
00:00:02.952,-0.000400318414904177,-0.00664362451061606,0.0080824363976717,0,
00:00:02.956,0.00796503759920597,-0.00503060780465603,0.01879240013659,0,
00:00:02.96,0.00419102422893047,0.00266187987290323,0.00309991370886564,0,
00:00:02.964,-0.00524888560175896,0.00414628721773624,-0.00519578624516726,0,
00:00:02.968,0.00234457827173173,0.00468087010085583,-0.00478855520486832,0,
00:00:02.972,-0.010284811258316,-0.00360622652806342,-0.0127431070432067,0,
00:00:02.976,0.0031680972315371,-0.000659753277432173,0.00937968399375677,0,
00:00:02.98,0.00512402271851897,-0.00197192444466054,-0.00189479941036552,0,
00:00:02.984,0.00253242254257202,0.00411670748144388,0.0027156553696841,0,
00:00:02.988,-0.00456835329532623,-0.000431521213613451,0.00146337214391679,0,
00:00:02.992,0.00825211219489574,-0.00369471521116793,0.00358133856207132,0,
00:00:02.996,-0.00866401288658381,0.000858834537211806,-0.0116668958216906,0,
00:00:03,0.00051016197539866,0.00353281595744193,-0.0047977096401155,0,
00:00:03.004,-0.0029245235491544,-0.0013308166526258,0.0080424640327692,0,
00:00:03.008,0.00388611643575132,0.000228900840738788,0.00533135700970888,0,
00:00:03.012,-0.0017195378895849,-0.000656256685033441,-0.00403360603377223,0,
00:00:03.016,0.00564689049497247,-0.00742390751838684,0.00544911623001099,0,
00:00:03.02,0.00155359937343746,0.00296217296272516,0.0196276307106018,0,
00:00:03.024,-0.0194540396332741,-0.00363625586032867,-0.0152046531438828,0,
00:00:03.028,0.0138283278793097,0.0166617371141911,-0.0147573351860046,0,
00:00:03.032,-0.00179689633660018,0.000530953810084611,-0.00419147638604045,0,
00:00:03.036,0.0073187300004065,-0.00584982195869088,-0.00626616040244699,0,
00:00:03.04,0.000546008057426661,-0.00359657360240817,0.00194589898455888,0,
00:00:03.044,-0.00313330045901239,-0.00459901476278901,0.0183421336114407,0,
00:00:03.048,-0.00353656290099025,-0.003291972912848,-0.00149965344462544,0,
00:00:03.052,6.58532735542394E-05,0.00591068482026458,0.00493334047496319,0,
00:00:03.056,-2.6593897928251E-05,0.00674255238845944,0.0145081728696823,0,
00:00:03.06,-0.00668187579140067,-0.00734809413552284,-0.0016384000191465,0,
00:00:03.064,0.00140954193193465,-0.00165409129112959,-0.0094132786616683,0,
00:00:03.068,0.00686128344386816,0.00426380336284637,-0.028395963832736,0,
00:00:03.072,0.00623387936502695,0.00306734791956842,-0.0170361641794443,0,
00:00:03.076,-0.00411215052008629,0.000179283248144202,0.014404465444386,0,
00:00:03.08,-0.000191385261132382,0.000347607478033751,0.0232981704175472,0,
00:00:03.084,-0.0033746543340385,-0.00400694878771901,0.0136791197583079,0,
00:00:03.088,-0.0022954074665904,-0.00288432464003563,-0.00137603119947016,0,
00:00:03.092,-0.00224632793106139,-0.000355701486114413,-0.0158315934240818,0,
00:00:03.096,0.00323835900053382,0.00140272057615221,-0.00980515033006668,0,
00:00:03.1,0.00941905193030834,0.00387505860999227,0.035256564617157,0,
00:00:03.104,-0.00888358056545258,0.00130407512187958,-0.00288313766941428,0,
00:00:03.108,-0.00573019869625568,-0.00539716333150864,-0.0224577914923429,0,
00:00:03.112,0.00534001598134637,-0.0064584999345243,-0.0180423501878977,0,
00:00:03.116,0.00707374420017004,0.00967562943696976,-0.0107970321550965,0,
00:00:03.12,-0.00281064352020621,0.00448642717674375,0.0146791348233819,0,
00:00:03.124,-0.00139815104193985,-0.000518468674272299,0.0159611068665981,0,
00:00:03.128,-0.00115887832362205,-0.000904006301425397,0.00581397209316492,0,
00:00:03.132,0.00122217810712755,-0.00488792732357979,0.00787435472011566,0,
00:00:03.136,-0.00231329258531332,-0.00311652687378228,-0.011007790453732,0,
00:00:03.14,0.00681828940287232,0.00405535846948624,0.00276017654687166,0,
00:00:03.144,-0.0159522369503975,-0.00626475922763348,0.00641418714076281,0,
00:00:03.148,0.00468923663720489,0.000736926856916398,0.00463263830170035,0,
00:00:03.152,-0.00519318738952279,2.50833109021187E-05,-0.0236242599785328,0,
00:00:03.156,0.0171649437397718,0.0119403284043074,-0.0128290699794888,0,
00:00:03.16,0.00482781464233994,0.00505606085062027,-0.00282162032090127,0,
00:00:03.164,-0.0014963581925258,-0.00548479007557034,0.00705712847411633,0,
00:00:03.168,-0.00822145119309425,-0.0049805692397058,0.0189528297632933,0,
00:00:03.172,-0.00634028436616063,-0.0080955121666193,0.00870051514357328,0,
00:00:03.176,-0.00380335724912584,0.00216348958201706,-0.00496428599581122,0,
00:00:03.18,0.00595403695479035,0.00163666461594403,-0.00399001827463508,0,
00:00:03.184,0.000792442762758583,0.00406834343448281,-0.00302119320258498,0,
00:00:03.188,0.0071981898508966,0.00392645224928856,-0.00802134443074465,0,
00:00:03.192,-0.00438884785398841,-0.00260594883002341,-0.00503162201493979,0,
00:00:03.196,0.000421969540184364,-0.00960197951644659,0.0316892750561237,0,
00:00:03.2,-0.00628231978043914,-0.00195365701802075,0.00810331758111715,0,
00:00:03.204,-0.0014214834664017,0.000747991492971778,-0.0280405096709728,0,
00:00:03.208,0.0116428006440401,0.0207941606640816,-0.00954104866832495,0,
00:00:03.212,0.00281399884261191,0.0035887504927814,-0.00517155276611447,0,
00:00:03.216,-0.00766120804473758,-0.0114226723089814,-0.0035732036922127,0,
00:00:03.22,-0.0053516486659646,-0.0076088267378509,0.000508434372022748,0,
00:00:03.224,0.00381666654720902,-0.00278109614737332,0.0172871723771095,0,
00:00:03.228,0.00300652626901865,0.00305847986601293,0.0178292486816645,0,
00:00:03.232,-0.00404944038018584,0.000710513035301119,-0.000676921859849244,0,
00:00:03.236,-0.0059896488673985,0.000875581346917897,-0.0103861354291439,0,
00:00:03.24,0.00949355959892273,0.00324421771802008,-0.0042026718147099,0,
00:00:03.244,0.00823184568434954,0.00103443744592369,0.00141554547008127,0,
00:00:03.248,-0.00685212016105652,-0.00534046860411763,-0.00777627388015389,0,
00:00:03.252,-0.00437404215335846,-0.00419415300711989,0.00237688235938549,0,
00:00:03.256,-0.00152772199362516,0.00577846122905612,-0.0102846855297685,0,
00:00:03.26,-0.00151867826934904,0.00279181101359427,0.0160272661596537,0,
00:00:03.264,0.00341008976101875,0.00287650758400559,0.00276161194778979,0,
00:00:03.268,0.00708713755011559,0.00167233473621309,-0.00938847754150629,0,
00:00:03.272,-0.00312940077856183,-0.00252457545138896,-0.0041955984197557,0,
00:00:03.276,-0.00621616654098034,-0.00636834371834993,0.00459607457742095,0,
00:00:03.28,-0.00187326222658157,-0.00746543519198895,0.00943239871412516,0,
00:00:03.284,0.00422985851764679,0.00254454067908227,-0.00156912871170789,0,
00:00:03.288,0.00558709353208542,0.0163873285055161,-0.0185138024389744,0,
00:00:03.292,-0.00114464538637549,-0.00310658430680633,0.0340148918330669,0,
00:00:03.296,-0.00700285192579031,-0.00866209622472525,0.00374292023479939,0,
00:00:03.3,0.00195705960504711,-0.00783781707286835,-0.0339722223579884,0,
00:00:03.304,0.0152752557769418,0.0119164092466235,-0.0100656263530254,0,
00:00:03.308,-0.0233104713261127,0.00341568002477288,-0.00111491628922522,0,
00:00:03.312,0.00337447971105576,-0.00126078247558326,0.00993863958865404,0,
00:00:03.316,0.0034175873734057,-0.00266912579536438,0.0210852138698101,0,
00:00:03.32,0.0033685767557472,3.38506179105025E-05,0.000429738633101806,0,
00:00:03.324,0.00423980038613081,-0.00060252845287323,-0.000970051216427237,0,
00:00:03.328,0.000558732484932989,-0.00529475230723619,-0.00834714528173208,0,
00:00:03.332,-0.000327059853589162,-0.00105493783485144,0.00508168479427695,0,
00:00:03.336,-0.00712832063436508,0.0050391904078424,-0.0082451244816184,0,
00:00:03.34,0.000410092441597953,0.00405017752200365,0.000560428889002651,0,
00:00:03.344,-0.00504262838512659,-0.00526451505720615,-0.00142457510810345,0,
00:00:03.348,0.00621456606313586,0.0065962141379714,-0.00276763853617013,0,
00:00:03.352,0.00251906341873109,0.00287963845767081,-0.00152122904546559,0,
00:00:03.356,0.00216926168650389,-0.00259955413639545,-0.00128290324937552,0,
00:00:03.36,-0.00504842819646001,-0.00684999395161867,0.0148022035136819,0,
00:00:03.364,-0.00072913256008178,-0.00370756164193153,0.00072106794686988,0,
00:00:03.368,0.000867056543938816,-0.00154307775665075,0.00454776547849178,0,
00:00:03.372,0.000959018070716411,0.00695342291146517,-0.0176257025450468,0,
00:00:03.376,0.000461793533759192,0.000555983278900385,-0.00434978259727359,0,
00:00:03.38,-4.5937758841319E-05,0.00421924656257033,0.0104098571464419,0,
00:00:03.384,-0.00445998413488269,-0.00334372813813388,0.0170207396149635,0,
00:00:03.388,0.00363851990550756,-0.0026461526285857,-0.0123751470819116,0,
00:00:03.392,0.00311602861620486,0.00396616058424115,-0.0168431755155325,0,
00:00:03.396,0.000349422422004864,-0.000552850600797683,0.000237824191572145,0,
00:00:03.4,-0.00158908450976014,-0.00176430575083941,0.000902544532436877,0,
00:00:03.404,-0.00401543127372861,0.00085596734425053,0.0147708998993039,0,
00:00:03.408,0.00286776456050575,-0.00217934674583375,0.00816476903855801,0,
00:00:03.412,0.00160160392988473,-0.00319677568040788,-0.00980529002845287,0,
00:00:03.416,-0.00700945360586047,0.00667081912979484,-0.000850787619128823,0,
00:00:03.42,0.00829824805259705,-0.00302347424440086,0.00207787472754717,0,
00:00:03.424,-0.00450472859665751,-0.00201177666895092,0.00122764252591878,0,
00:00:03.428,-0.00944863725453615,0.000860808184370399,0.0055405143648386,0,
00:00:03.432,0.0108885560184717,0.00845177192240953,-0.0286138691008091,0,
00:00:03.436,0.00602811016142368,2.07216398848686E-05,-0.00170504744164646,0,
00:00:03.44,-0.00205156276933849,-0.0104339038953185,0.0263963304460049,0,
00:00:03.444,-0.00138949300162494,0.00169497053138912,0.00503130862489343,0,
00:00:03.448,6.35708493064158E-05,0.000834463688079268,-0.00473978091031313,0,
00:00:03.452,-0.00593698443844914,-0.00127597479149699,-0.0147037087008357,0,
00:00:03.456,0.00351082300767303,0.00685267336666584,-0.00639807339757681,0,
00:00:03.46,-0.00655044475570321,-0.00394102279096842,0.0158315189182758,0,
00:00:03.464,0.000371572299627587,0.00310717546381056,0.0146504342556,0,
00:00:03.468,0.00597553746774793,-0.00575629016384482,-0.0188245456665754,0,
00:00:03.472,0.00389248738065362,-0.0048936465755105,0.00788427144289017,0,
00:00:03.476,0.000196771899936721,0.00767942657694221,0.00415320368483663,0,
00:00:03.48,0.00408784998580813,0.00322420173324645,-0.0205962155014277,0,
00:00:03.484,-0.0146394651383162,0.0059958272613585,0.00655224127694964,0,
00:00:03.488,0.00156486441846937,-0.0119127361103892,0.0182785633951426,0,
00:00:03.492,-0.00402323435992002,-0.00487258704379201,-0.0161976683884859,0,
00:00:03.496,0.0142479268833995,0.00377185479737818,-0.00711106089875102,0,
00:00:03.5,-0.00176813313737512,0.00451419409364462,-0.00450703082606196,0,
00:00:03.504,-0.00208076671697199,0.00628341408446431,0.0116178123280406,0,
00:00:03.508,-0.00178245862480253,-0.00638084765523672,0.00583421671763062,0,
00:00:03.512,-0.00307848816737533,-0.00292577408254147,0.0045694075524807,0,
00:00:03.516,0.00388482073321939,0.00385363632813096,0.00622252514585853,0,
00:00:03.52,5.22131267643999E-05,-0.0070680771023035,-0.00301349651999772,0,
00:00:03.524,-0.00299473153427243,-0.00226699514314532,-0.0189779158681631,0,
00:00:03.528,0.00136601808480918,0.00969890970736742,0.00207969429902732,0,
00:00:03.532,0.00369153660722077,0.00555004272609949,-0.00132801430299878,0,
00:00:03.536,-0.0035316008143127,-0.00318613299168646,0.0018306674901396,0,
00:00:03.54,-0.00426683807745576,-0.00678533362224698,0.0186252295970917,0,
00:00:03.544,0.0108517110347748,0.00126188702415675,-0.0163515359163284,0,
00:00:03.548,-0.00637465808540583,-0.000596497615333647,0.000234133374760859,0,
00:00:03.552,-0.00270536635071039,-0.00220821308903396,0.00341208558529615,0,
00:00:03.556,0.00694864988327026,0.0046835164539516,-0.00246126437559724,0,
00:00:03.56,-0.00173092423938215,0.00264895823784173,-0.00483803544193506,0,
00:00:03.564,-0.00724200857803226,-0.0110765090212226,0.00348917557857931,0,
00:00:03.568,0.00452554365620017,0.0137515105307102,0.0157585181295872,0,
00:00:03.572,0.00165696232579648,-0.00186949444469064,-0.0128962760791183,0,
00:00:03.576,-0.00415213732048869,-0.0132629619911313,0.00397272454574704,0,
00:00:03.58,0.0053922925144434,0.00925151910632849,0.0250785071402788,0,
00:00:03.584,-0.0013643599813804,0.00896802451461554,-0.0407641753554344,0,
00:00:03.588,0.00456461543217301,-0.00672477623447776,-0.0210947636514902,0,
00:00:03.592,0.00417421665042639,-0.00885226298123598,0.0343615263700485,0,
00:00:03.596,-0.0265435501933098,-0.00617597904056311,0.0117667382583022,0,
00:00:03.6,0.00811646785587072,0.00966515578329563,-0.0171086955815554,0,
00:00:03.604,0.0100564286112785,0.00852580741047859,-0.00421999115496874,0,
00:00:03.608,0.00716592324897647,0.00637531373649836,0.0254725832492113,0,
00:00:03.612,-0.000224562580115162,-0.00672256760299206,-0.00480447011068463,0,
00:00:03.616,-0.0110098775476217,-0.00973531696945429,-0.0100625585764647,0,
00:00:03.62,0.000825704250019044,0.00253270962275565,-0.0203377511352301,0,
00:00:03.624,9.20845268410631E-05,-0.00373895326629281,-0.00325498799793422,0,
00:00:03.628,0.000461755989817902,0.00170216814149171,0.0339284874498844,0,
00:00:03.632,-0.00127944862470031,0.00325781083665788,-0.00344327208586037,0,
00:00:03.636,0.00271938950754702,0.00443079881370068,-0.017516428604722,0,
00:00:03.64,0.00412446493282914,0.00282424967736006,0.0140430694445968,0,
00:00:03.644,-0.00177345529664308,-0.0125051848590374,0.0061224433593452,0,
00:00:03.648,-0.00478132022544742,-0.000794237887021154,-0.0120448265224695,0,
00:00:03.652,-0.00158287258818746,0.00850085448473692,-0.00812389701604843,0,
00:00:03.656,0.00778464460745454,0.00456790719181299,0.000181163384695537,0,
00:00:03.66,-0.00125246704556048,-0.00527462642639875,0.0237850304692984,0,
00:00:03.664,-0.00713319052010775,-0.00208272971212864,-0.0020500763785094,0,
00:00:03.668,0.00229775556363165,0.0037516332231462,-0.0364158898591995,0,
00:00:03.672,0.0137636726722121,-0.00981405563652515,0.00589002063497901,0,
00:00:03.676,-0.0188189446926117,0.00318888807669282,0.0245805438607931,0,
00:00:03.68,0.00318797212094069,0.00705937389284372,0.0216581150889397,0,
00:00:03.684,0.0122175486758351,0.00248999008908868,-0.0288679040968418,0,
00:00:03.688,-0.0160643216222525,-0.00826549530029297,-0.0182918794453144,0,
00:00:03.692,0.00353458384051919,0.00226861331611872,0.00449953228235245,0,
00:00:03.696,0.00237558945082128,-0.00194460700731725,0.0195429641753435,0,
00:00:03.7,0.00908737443387508,0.00372525863349438,0.00255156215280294,0,
00:00:03.704,0.000438148330431432,-0.000454649096354842,-0.0165349245071411,0,
00:00:03.708,-0.00614305725321174,-0.00130958028603345,0.0280237104743719,0,
00:00:03.712,-0.00451709656044841,-0.000750092673115432,-0.0185843501240015,0,
00:00:03.716,0.00120758987031877,-0.00204658042639494,-0.0240757018327713,0,
00:00:03.72,0.00592887587845325,0.00452762562781572,0.017319168895483,0,
00:00:03.724,-0.00525955762714148,0.0022503724321723,0.0179960820823908,0,
00:00:03.728,-0.00147166941314936,-0.00523181864991784,0.00725631508976221,0,
00:00:03.732,0.00284927152097225,-0.00274632452055812,-0.0326963141560555,0,
00:00:03.736,-0.000500633555930108,0.00725069222971797,0.00826457235962152,0,
00:00:03.74,-0.00258059403859079,-0.00316151138395071,0.00572852790355682,0,
00:00:03.744,0.00636227848008275,-0.000532351259607822,-0.00511634582653642,0,
00:00:03.748,-0.00373934861272573,0.0045398916117847,-0.0061074523255229,0,
00:00:03.752,-0.00887617375701666,-0.00560318166390061,-0.00592065788805485,0,
00:00:03.756,0.0251597855240107,-0.00323301972821355,0.0358788035809994,0,
00:00:03.76,-0.0147580560296774,0.00109231157694012,0.00971703603863716,0,
00:00:03.764,-0.0165969766676426,0.00528582604601979,-0.0271714888513088,0,
00:00:03.768,0.0140388561412692,0.000796502339653671,-0.0218684114515781,0,
00:00:03.772,0.00710080796852708,0.00978282745927572,0.00190002552699298,0,
00:00:03.776,0.00255526578985155,-0.0106483660638332,0.0154019864276052,0,
00:00:03.78,-0.00712858838960528,-0.0129176191985607,0.0145171517506242,0,
00:00:03.784,-0.00522220740094781,0.0110801151022315,-0.00671867281198502,0,
00:00:03.788,0.0055722719989717,-0.00257179932668805,-0.00794124603271484,0,
00:00:03.792,-0.00563957076519728,0.000907923502381891,-0.00286491611041129,0,
00:00:03.796,0.0020227727945894,0.00451233610510826,0.00781634636223316,0,
00:00:03.8,0.00297171226702631,0.00202375068329275,0.00350401783362031,0,
00:00:03.804,0.00136689958162606,-0.00104048370849341,-0.0104901194572449,0,
00:00:03.808,0.00172779429703951,0.00170399982016534,0.00138509762473404,0,
00:00:03.812,-0.00314684445038438,-0.00398281123489141,-0.00934227835386992,0,
00:00:03.816,-0.00272266776300967,-0.00615003891289234,0.019461689516902,0,
00:00:03.82,-0.00276094488799572,-0.00586771499365568,0.00556652620434761,0,
00:00:03.824,0.00497245090082288,0.008421640843153,-0.0132519621402025,0,
00:00:03.828,0.00109998695552349,0.000936764408834279,-0.00848511885851622,0,
00:00:03.832,-0.00247939233668149,0.00753607135266066,0.00466758338734508,0,
00:00:03.836,0.00337683246470988,0.00239160633645952,0.00785961654037237,0,
00:00:03.84,-0.00491674523800612,-0.00520532019436359,0.00260884128510952,0,
00:00:03.844,0.00653369817882776,0.00108469184488058,-0.0126654813066125,0,
00:00:03.848,0.000498483947012573,-0.0101456847041845,0.00384713150560856,0,
00:00:03.852,-0.0070011829957366,-0.0126374615356326,0.0156076112762094,0,
00:00:03.856,0.00295505905523896,0.0150916129350662,-0.00820213183760643,0,
00:00:03.86,-0.00643188133835793,0.0128953782841563,-0.00558087462559342,0,
00:00:03.864,0.000748093763832003,0.000446145830210298,-0.00952919851988554,0,
00:00:03.868,0.00415793666616082,-0.00521268835291266,-0.00110744591802359,0,
00:00:03.872,0.00794492289423943,-0.00754832429811358,-0.00876218173652887,0,
00:00:03.876,-0.0024060751311481,0.00109283498022705,0.0354919768869877,0,
00:00:03.88,-0.00187615107279271,-0.00252687116153538,0.00619675172492862,0,
00:00:03.884,2.99420353258029E-05,0.00627352111041546,-0.00956655386835337,0,
00:00:03.888,-0.00356356124393642,-0.00140414852648973,-0.0207670368254185,0,
00:00:03.892,-0.00643009040504694,-0.00617286376655102,0.0126194655895233,0,
00:00:03.896,0.00611711200326681,0.00348619208671153,-0.0168554652482271,0,
00:00:03.9,0.00497465534135699,0.00828230753540993,-0.0104848332703114,0,
00:00:03.904,-0.00563825899735093,-0.0107066184282303,0.0304787885397673,0,
00:00:03.908,0.00152760150376707,0.00579478405416012,0.00669566495344043,0,
00:00:03.912,0.00622156076133251,0.00647394871339202,-0.00896442495286465,0,
00:00:03.916,-0.00966642703860998,-0.00687945308163762,0.00491271028295159,0,
00:00:03.92,-0.00233659637160599,-0.00554107874631882,-0.00956482905894518,0,
00:00:03.924,0.0156082781031728,0.00562257692217827,-0.0095513854175806,0,
00:00:03.928,-0.00531970942392945,-0.00319453584961593,-0.00107586057856679,0,
00:00:03.932,-0.00491107627749443,0.000428875879151747,0.00725700333714485,0,
00:00:03.936,-0.00434807222336531,-0.000563539448194206,0.00440549198538065,0,
00:00:03.94,0.00014825766265858,0.00311895343475044,0.00852895900607109,0,
00:00:03.944,0.00932134874165058,0.00195565610192716,-0.00765703432261944,0,
00:00:03.948,-0.000540906738024205,0.00399144226685166,-0.00191658118274063,0,
00:00:03.952,-0.0030568977817893,-0.0053659281693399,-0.00241203722544014,0,
00:00:03.956,-0.00421896623447537,-0.00476876460015774,-0.00022202318359632,0,
00:00:03.96,0.00156471249647439,-0.00117144151590765,0.00972367916256189,0,
00:00:03.964,0.00242762896232307,0.00165935454424471,9.93691355688497E-06,0,
00:00:03.968,-0.00288345594890416,-0.00161968532484025,-0.0115173403173685,0,
00:00:03.972,0.0100842416286469,0.00786790065467358,-0.0055940318852663,0,
00:00:03.976,-0.00140027015004307,0.00187026441562921,0.00640525948256254,0,
00:00:03.98,-0.0219413433223963,-0.00591841945424676,0.00403167400509119,0,
00:00:03.984,0.0136474100872874,0.00533201498910785,-0.000171698076883331,0,
00:00:03.988,0.0140485130250454,0.001492052921094,0.0083500724285841,0,
00:00:03.992,-0.00711475824937224,-0.00956542231142521,-0.0114051271229982,0,
00:00:03.996,-0.00612285546958447,-0.00493580149486661,3.33311945723835E-05,0,
00:00:04,-0.00477360747754574,0.00174496532417834,0.0068723177537322,0,
00:00:04.004,0.000309304072288796,0.00913578364998102,-0.006386439781636,0,
00:00:04.008,0.00764742819592357,0.00459433440119028,-0.00552935339510441,0,
00:00:04.012,0.00178758276160806,-0.00747564388439059,0.0203394014388323,0,
00:00:04.016,-0.00124952488113195,0.00182559329550713,-0.0080252243205905,0,
00:00:04.02,-0.00198472035117447,0.00121783558279276,-0.0158694665879011,0,
00:00:04.024,0.00277908355928957,-0.00317041203379631,0.000992057728581131,0,
00:00:04.028,-0.00847121793776751,-9.70929831964895E-05,0.0160753820091486,0,
00:00:04.032,0.00727743608877063,-0.0061018574051559,-0.00309214554727077,0,
00:00:04.036,-0.00857055187225342,0.0016450269613415,0.0188190843909979,0,
00:00:04.04,-0.000589486036915332,0.00664637237787247,-0.00973358284682035,0,
00:00:04.044,0.00893259420990944,0.00374727672897279,-0.0259227026253939,0,
00:00:04.048,0.00549160735681653,0.00167690089438111,-0.00758610013872385,0,
00:00:04.052,-0.000384044367820024,-0.00471029570326209,0.00342865940183401,0,
00:00:04.056,-0.00383419543504715,-0.00445287860929966,0.0206760056316853,0,
00:00:04.06,-0.0040260162204504,0.000372731825336814,0.0106820417568088,0,
00:00:04.064,-0.00428451597690582,-0.00116892950609326,-0.00421494711190462,0,
00:00:04.068,0.00814390182495117,0.00443412316963077,-0.0105058830231428,0,
00:00:04.072,-0.00713305873796344,-0.00449248775839806,0.00848449766635895,0,
00:00:04.076,0.00285538728348911,-0.00380233419127762,-0.00118785339873284,0,
00:00:04.08,-0.00106230960227549,0.00410887924954295,-0.00289143715053797,0,
00:00:04.084,-0.00163394713308662,0.00509336171671748,0.00221121939830482,0,
00:00:04.088,0.00801037345081568,0.00463357754051685,-0.0046464903280139,0,
00:00:04.092,0.00990747753530741,0.00175038201268762,-0.019847959280014,0,
00:00:04.096,-0.0225826855748892,-0.00565595366060734,-0.0154572706669569,0,
00:00:04.1,0.00217470503412187,0.00060002354439348,0.0528608188033104,0,
00:00:04.104,0.0112287197262049,-0.0125038046389818,0.0118144983425736,0,
00:00:04.108,2.12911418202566E-05,-0.000237082087551244,-0.0265922825783491,0,
00:00:04.112,-0.00765888299793005,0.0050759338773787,-0.0120776258409023,0,
00:00:04.116,0.00730226188898087,0.0113505832850933,0.00161156395915896,0,
00:00:04.12,-0.00768626807257533,-0.00747087644413114,0.00941025093197823,0,
00:00:04.124,-0.00612821662798524,-0.00729645695537329,0.00828364863991737,0,
00:00:04.128,0.0124771203845739,0.0111780371516943,-0.0141183799132705,0,
00:00:04.132,0.00288418331183493,0.00201024045236409,-0.00796505995094776,0,
00:00:04.136,-0.00217304541729391,-0.00251303310506046,0.00455085188150406,0,
00:00:04.14,-0.001269516418688,0.000856829981785268,0.00770273385569453,0,
00:00:04.144,-0.00213604257442057,-0.0038943444378674,0.00302348402328789,0,
00:00:04.148,-0.0061931312084198,-0.00971048139035702,0.00284345797263086,0,
00:00:04.152,-0.00115589867345989,-0.00133811752311885,0.00360780372284353,0,
00:00:04.156,0.00753452908247709,0.0140594942495227,-0.000646999513264745,0,
00:00:04.16,0.000543452042620629,0.00342106493189931,-0.0144465314224362,0,
00:00:04.164,0.0058293305337429,0.00210260227322578,0.00518459174782038,0,
00:00:04.168,-0.0120735438540578,-0.0157263539731503,-0.00734518747776747,0,
00:00:04.172,0.00963246077299118,2.73471741820686E-05,0.00985405873507261,0,
00:00:04.176,-0.00751277338713408,0.00945746339857578,-0.0101464912295341,0,
00:00:04.18,0.00439844746142626,0.0046646730042994,0.000304192741168663,0,
00:00:04.184,0.00291243381798267,-0.00161971361376345,0.00100305979140103,0,
00:00:04.188,-0.00305454758927226,-0.00866440497338772,0.0047124745324254,0,
00:00:04.192,-0.00719019025564194,-0.00613315729424357,0.00937969796359539,0,
00:00:04.196,0.00505176605656743,0.0139679526910186,-0.00325172324664891,0,
00:00:04.2,0.00213527120649815,-0.00402228534221649,0.0149071970954537,0,
00:00:04.204,0.00022484025976155,-0.0044106193818152,-0.0128027433529496,0,
00:00:04.208,0.0035031430888921,0.00388286169618368,-0.020096305757761,0,
00:00:04.212,-0.0109148053452373,-0.00551569694653153,0.00281003606505692,0,
00:00:04.216,0.00637313770130277,0.00561402691528201,0.0121067641302943,0,
00:00:04.22,-0.00357099040411413,0.00659535732120276,-0.00271744932979345,0,
00:00:04.224,0.00308246864005923,0.00249462202191353,-0.00226169498637319,0,
00:00:04.228,0.00478452118113637,-0.00814565364271402,-0.0071313357912004,0,
00:00:04.232,0.000490037142299116,-0.00647996319457889,0.0211255569010973,0,
00:00:04.236,-0.00907775573432446,-0.00341490493156016,0.00102579407393932,0,
00:00:04.24,-0.00162921485025436,0.000313430064124987,-0.000573939934838563,0,
00:00:04.244,0.00690806237980723,0.0133128948509693,-0.0271120071411133,0,
00:00:04.248,0.00375643675215542,0.00204054522328079,0.0141182858496904,0,
00:00:04.252,0.00527099845930934,-0.00303850066848099,0.0056178867816925,0,
00:00:04.256,-0.0257900450378656,-0.00583436759188771,-0.00242067128419876,0,
00:00:04.26,0.0100697986781597,0.00179185101296753,0.00138718611560762,0,
00:00:04.264,0.00533129274845123,-0.00276053161360323,-0.000542483001481742,0,
00:00:04.268,0.0026376296300441,0.0034864442422986,-0.0208303779363632,0,
00:00:04.272,0.00685887364670634,0.00194153259508312,0.0137047208845615,0,
00:00:04.276,-0.00456908717751503,-0.00276438030414283,0.0139361508190632,0,
00:00:04.28,-0.0102512128651142,-0.0102985482662916,0.00576051417738199,0,
00:00:04.284,0.00281497812829912,0.0120410770177841,-0.00662885326892138,0,
00:00:04.288,0.00563804805278778,0.00592571822926402,-0.0130128087475896,0,
00:00:04.292,-0.00105493667069823,-0.00320239388383925,-0.00554697075858712,0,
00:00:04.296,-0.0152199054136872,-0.00462034996598959,0.00458340952172875,0,
00:00:04.3,0.0100956056267023,0.00156054296530783,0.00406877463683486,0,
00:00:04.304,0.00770392641425133,-0.0081859203055501,0.011796623468399,0,
00:00:04.308,-5.25465220562182E-05,-0.00207783910445869,-0.00392235396429896,0,
00:00:04.312,-0.00231746397912502,0.00849835947155952,-0.0126508986577392,0,
00:00:04.316,0.00212394213303924,0.0083971070125699,0.00453492999076843,0,
00:00:04.32,-0.00281552853994071,0.00100057770032436,0.00098203809466213,0,
00:00:04.324,-0.0031823986209929,-0.00649302545934916,0.00711074098944664,0,
00:00:04.328,-0.00144196627661586,-0.00554040819406509,-0.0110898269340396,0,
00:00:04.332,0.000424915080657229,-0.00386458798311651,0.00587401492521167,0,
00:00:04.336,-0.00482043856754899,0.00330322212539613,0.0192097835242748,0,
00:00:04.34,0.00731606362387538,0.00210089585743845,-0.0246743075549603,0,
00:00:04.344,0.0119320740923285,0.00838007405400276,-0.00513857137411833,0,
00:00:04.348,-0.00531535875052214,-0.00229225307703018,-0.00271852826699615,0,
00:00:04.352,-0.0119746783748269,-0.00854198634624481,-0.00133395625744015,0,
00:00:04.356,0.0102398684248328,0.0013078540796414,0.0305639039725065,0,
00:00:04.36,-0.0166703648865223,0.00513556692749262,0.00133997783996165,0,
00:00:04.364,0.00474828295409679,0.00380491558462381,-0.0230964235961437,0,
00:00:04.368,0.0147302597761154,-0.00574385141953826,-0.000779113674070686,0,
00:00:04.372,-0.00749434344470501,-0.0087001221254468,0.00682980893179774,0,
00:00:04.376,0.00079309253487736,0.00128585915081203,0.0034044305793941,0,
00:00:04.38,0.00764581095427275,0.0115866763517261,-0.00317368260584772,0,
00:00:04.384,-0.0164362117648125,-0.00129139644559473,0.000978442840278149,0,
00:00:04.388,0.0016005476936698,-0.00315170013345778,-0.00699235033243895,0,
00:00:04.392,0.0145191289484501,0.00274332612752914,-0.00867779273539782,0,
00:00:04.396,-0.00368035072460771,-0.00149091030471027,0.00666524982079864,0,
00:00:04.4,-0.00180235248990357,0.00620368355885148,0.0261115431785584,0,
00:00:04.404,-0.00444594537839293,-0.0151974419131875,-0.00617390079423785,0,
00:00:04.408,-0.00642748922109604,-0.00671997247263789,-0.00871344096958637,0,
00:00:04.412,0.00655152089893818,0.0151240490376949,-0.0139096742495894,0,
00:00:04.416,0.00333479046821594,0.00366364442743361,-0.00825863052159548,0,
00:00:04.42,0.000699690368492156,0.00337770697660744,0.0213789604604244,0,
00:00:04.424,-0.000811958452686667,-0.00164067721925676,-0.000551628065295517,0,
00:00:04.428,-0.00120532675646245,-0.00870673172175884,-0.00777162658050656,0,
00:00:04.432,-0.00501675391569734,-0.00227372744120657,-0.00123968231491745,0,
00:00:04.436,0.00367089547216892,-0.000728968938346952,0.0147548401728272,0,
00:00:04.44,0.00761993369087577,0.00647695316001773,-0.000486363162053749,0,
00:00:04.444,-0.0052978596650064,0.00567429652437568,0.00717013888061047,0,
00:00:04.448,-0.00474729016423225,-0.0068042678758502,-0.0163003075867891,0,
00:00:04.452,-0.000715387286618352,-0.00677016889676452,-0.0157063268125057,0,
00:00:04.456,0.00628099963068962,0.0064024911262095,0.00975050125271082,0,
00:00:04.46,0.000787814671639353,0.00498244445770979,0.00614146469160914,0,
00:00:04.464,0.000489778816699982,-0.00598726328462362,0.00316100870259106,0,
00:00:04.468,-0.00789369735866785,0.00521799083799124,0.000709575193468481,0,
00:00:04.472,0.011778773739934,-0.000138217495987192,-0.00499859545379877,0,
00:00:04.476,-0.0212520565837622,-0.0069311922416091,-0.00157827627845109,0,
00:00:04.48,0.00948799401521683,-0.00284474063664675,0.0164912659674883,0,
00:00:04.484,0.0107106892392039,0.0061433631926775,-0.00883266609162092,0,
00:00:04.488,-0.00125994766131043,0.00203949538990855,-0.00752725498750806,0,
00:00:04.492,0.000369286688510329,-0.00222286093048751,0.00150566140655428,0,
00:00:04.496,-0.00432237470522523,0.00102335959672928,-0.00666529266163707,0,
00:00:04.5,-0.00362718245014548,0.00282553932629526,0.00583234755322337,0,
00:00:04.504,-0.00316571956500411,-0.00225636619143188,0.00148291722871363,0,
00:00:04.508,0.00506834220141172,-0.00042942215804942,-0.00273889303207397,0,
00:00:04.512,-0.00266257533803582,-0.00295094447210431,0.00332694198004901,0,
00:00:04.516,0.00604541739448905,-0.00739133730530739,0.0122516322880983,0,
00:00:04.52,0.00298781530000269,0.0110135516151786,0.00832725875079632,0,
00:00:04.524,-0.00568906683474779,0.00278427498415113,-0.0212255958467722,0,
00:00:04.528,-0.00169668532907963,0.000781795650254935,-0.00607597921043634,0,
00:00:04.532,0.000241162095335312,-0.00639055110514164,-0.00789054669439793,0,
00:00:04.536,0.000849914620630443,0.000728442915715277,0.00223275762982666,0,
00:00:04.54,0.0027941579464823,0.00105255772359669,0.00469249906018376,0,
00:00:04.544,-0.00165704591199756,-0.00428875256329775,0.029186962172389,0,
00:00:04.548,-0.00583149446174502,-0.00516061019152403,-0.00419195927679539,0,
00:00:04.552,0.00355996354483068,0.0125860963016748,-0.0091466112062335,0,
00:00:04.556,0.0101407589390874,0.00688238395377994,-0.0282358657568693,0,
00:00:04.56,-0.00465946272015572,-0.0104803955182433,0.0100064128637314,0,
00:00:04.564,-0.0205166134983301,-0.00493442779406905,0.0285327900201082,0,
00:00:04.568,0.0176127403974533,0.00254379236139357,-0.0182357262820005,0,
00:00:04.572,0.00245900452136993,0.00311651243828237,-0.0057054185308516,0,
00:00:04.576,0.00490159960463643,0.00129367981571704,0.00139129487797618,0,
00:00:04.58,-0.00499113136902452,-0.000449846789706498,0.00155984004959464,0,
00:00:04.584,-0.000964720034971833,0.00502671115100384,0.00894874706864357,0,
00:00:04.588,-0.00380258844234049,-0.00903074629604816,-0.00968756433576345,0,
00:00:04.592,-0.00225998321548104,-0.00959697272628546,0.00622724182903767,0,
00:00:04.596,0.000200835012947209,0.0113455457612872,0.00625802669674158,0,
00:00:04.6,-0.00242602825164795,0.00412686914205551,-0.0136359911412001,0,
00:00:04.604,0.0120750870555639,0.00407109269872308,0.0019785282202065,0,
00:00:04.608,0.000596590747591108,-0.0015753370244056,3.14247372443788E-05,0,
00:00:04.612,-0.012563438154757,-0.0193688552826643,0.0139878587797284,0,
00:00:04.616,0.00369161576963961,0.00323236268013716,0.00287753948941827,0,
00:00:04.62,-0.00155890989117324,0.0135406069457531,-0.0180284678936005,0,
00:00:04.624,0.0029324539937079,0.00891144666820765,-0.0146824736148119,0,
00:00:04.628,0.0071934936568141,-0.00783243961632252,-0.000612919102422893,0,
00:00:04.632,-0.00275060394778848,-0.00775737361982465,0.0341349393129349,0,
00:00:04.636,-0.00185298966243863,0.00164936727378517,-0.00656418828293681,0,
00:00:04.64,0.00651269871741533,0.00206097541376948,-0.00428494950756431,0,
00:00:04.644,-0.0174827389419079,-0.00593016808852553,0.00104089244268835,0,
00:00:04.648,0.00300029804930091,0.00712662562727928,-0.0120615586638451,0,
00:00:04.652,0.00632101390510798,-0.00214527663774788,0.0020244219340384,0,
00:00:04.656,0.00326413568109274,0.00247787707485259,0.00283094472251832,0,
00:00:04.66,-0.0127607015892863,-0.00122238311450928,0.0174051895737648,0,
00:00:04.664,0.00768819637596607,-0.00345729175023735,-0.0245108660310507,0,
00:00:04.668,0.0077600977383554,0.0036180904135108,-0.00351224094629288,0,
00:00:04.672,0.00377610721625388,0.00419301958754659,0.0221341252326965,0,
00:00:04.676,-0.00301314727403224,-0.00684628682211041,0.00750443711876869,0,
00:00:04.68,-0.00806747283786535,-0.00808144640177488,-0.01246009580791,0,
00:00:04.684,-0.00696729682385921,0.00716287270188332,-0.00495740259066224,0,
00:00:04.688,0.00188349199015647,0.0132688377052546,-0.0153854582458735,0,
00:00:04.692,0.00454752380028367,-0.00596483936533332,8.99895312613808E-05,0,
00:00:04.696,0.00768431462347507,-0.0071544349193573,0.0159040372818708,0,
00:00:04.7,-0.00269855372607708,0.00161814538296312,0.00234458362683654,0,
00:00:04.704,-0.0101430807262659,-0.000301741994917393,0.00666810525581241,0,
00:00:04.708,0.00206149555742741,0.0019680738914758,0.0051665585488081,0,
00:00:04.712,0.0114776873961091,-0.00150778028182685,-0.00818516686558723,0,
00:00:04.716,-0.00239746063016355,-0.00508669391274452,-0.000615693395957351,0,
00:00:04.72,-0.00649550324305892,0.0063917632214725,-0.0120823178440332,0,
00:00:04.724,0.00397095549851656,0.00234053190797567,-0.00994232483208179,0,
00:00:04.728,0.000103912003396545,-0.00453207269310951,0.00248331855982542,0,
00:00:04.732,-0.0035643195733428,0.0024556580465287,0.00987427495419979,0,
00:00:04.736,0.0068487492389977,0.00606379844248295,0.00738863041624427,0,
00:00:04.74,-0.00683307647705078,-0.00633491901680827,0.0105796959251165,0,
00:00:04.744,-0.00242817844264209,0.00328291696496308,0.00508324569091201,0,
00:00:04.748,-0.00316695822402835,-0.0124747892841697,0.0016352110542357,0,
00:00:04.752,0.0124944830313325,9.13300846150378E-06,-0.0319201350212097,0,
00:00:04.756,0.00344123528338969,0.00979123078286648,-0.00146338122431189,0,
00:00:04.76,-0.0201971419155598,0.00154329580254853,0.00450805621221662,0,
00:00:04.764,0.00815062690526247,0.00338400504551828,-0.000806723372079432,0,
00:00:04.768,0.00719885108992457,-0.000705472193658352,0.00555757619440556,0,
00:00:04.772,0.00216020504012704,-0.00568369822576642,-0.00416789436712861,0,
00:00:04.776,-0.00187261728569865,-0.00374701176770031,0.0235931854695082,0,
00:00:04.78,-0.00325510581023991,-0.00235636415891349,-0.00388994673267007,0,
00:00:04.784,0.00167505862191319,0.0060232924297452,-0.00767175480723381,0,
00:00:04.788,-0.0110052991658449,0.00203994195908308,-0.0206779520958662,0,
00:00:04.792,0.00113228242844343,-0.00826531276106834,0.0258203186094761,0,
00:00:04.796,0.00979757402092218,0.00924475211650133,0.000377132033463568,0,
00:00:04.8,0.00292497966438532,0.00590190105140209,-0.00590595556423068,0,
00:00:04.804,-0.00141526910010725,-0.00337004126049578,-0.0168517287820578,0,
00:00:04.808,-0.000769301725085825,-0.00114824634511024,-0.00598864676430821,0,
00:00:04.812,-0.00627386150881648,-0.00935088004916906,0.0265541225671768,0,
00:00:04.816,-0.00254808505997062,-0.0038472549058497,0.0052724308334291,0,
00:00:04.82,0.0038442756049335,0.00681117596104741,-0.0135885532945395,0,
00:00:04.824,0.00776000367477536,0.00556937698274851,0.000626424211077392,0,
00:00:04.828,-0.000655476294923574,-0.000839578337036073,-0.00212185527198017,0,
00:00:04.832,-0.00813992973417044,-0.00198988127522171,-0.00644774409011006,0,
00:00:04.836,0.000477875291835517,-0.00322049646638334,0.0241166669875383,0,
00:00:04.84,-0.00424584932625294,0.00190512684639543,-0.00896762870252132,0,
00:00:04.844,0.00489778583869338,0.00216017058119178,-0.0156580470502377,0,
00:00:04.848,0.00684364605695009,0.00280979066155851,0.0103888157755136,0,
00:00:04.852,0.00576432887464762,-0.00461140554398298,-0.0098918853327632,0,
00:00:04.856,-0.0150876073166728,-0.00280277687124908,0.0201094392687082,0,
00:00:04.86,-0.00152398005593568,0.00259028631262481,-0.0175814628601074,0,
00:00:04.864,0.00129035289864987,0.00233834120444953,0.00294810510240495,0,
00:00:04.868,0.00741625810042024,0.00881222262978554,0.0056384545750916,0,
00:00:04.872,-0.00299704354256392,-0.0129209160804749,-0.00613290257751942,0,
00:00:04.876,0.00216981489211321,-0.00799636542797089,0.00658378237858415,0,
00:00:04.88,0.00106695329304785,0.00570184597745538,-0.000255695136729628,0,
00:00:04.884,-0.000980817596428096,0.00475808279588819,0.00671857409179211,0,
00:00:04.888,-0.00188179838005453,0.00714429328218102,-0.00679291039705276,0,
00:00:04.892,-0.00357488659210503,-0.00314517389051616,-0.0107495216652751,0,
00:00:04.896,0.0035382816568017,-2.24852938117692E-05,0.0103128300979733,0,
00:00:04.9,0.00210983399301767,0.000331211631419137,-0.00471650529652834,0,
00:00:04.904,-0.00266854115761817,-0.0047575905919075,-0.000883391126990318,0,
00:00:04.908,-0.00403707195073366,-0.0120346611365676,-0.00232008588500321,0,
00:00:04.912,0.00198181811720133,0.00513063697144389,0.00428086146712303,0,
00:00:04.916,0.000826050178147852,0.0123024554923177,0.0108960894867778,0,
00:00:04.92,0.00768930139020085,-0.00134228356182575,0.000281383079709485,0,
00:00:04.924,-0.00652200216427445,-0.00112684536725283,-0.00753373047336936,0,
00:00:04.928,-0.000151175336213782,-0.00334037793800235,-0.00176113413181156,0,
00:00:04.932,0.00100386654958129,-0.00120991840958595,-0.0158559810370207,0,
00:00:04.936,-0.00378086068667471,0.00712049379944801,0.00842395424842834,0,
00:00:04.94,0.0098289530724287,-0.00225750682875514,0.0128604918718338,0,
00:00:04.944,0.00299312663264573,-0.00163927569519728,-0.0013461991911754,0,
00:00:04.948,-0.0233653280884027,-0.00799981784075499,0.00299314805306494,0,
00:00:04.952,0.00463303364813328,0.00468621216714382,-0.00319394795224071,0,
00:00:04.956,0.00790471024811268,0.000514219398610294,0.00180423620622605,0,
00:00:04.96,0.00766482809558511,0.000909268681425601,-0.0148875564336777,0,
00:00:04.964,0.00161630799993873,0.00563556142151356,0.00687955366447568,0,
00:00:04.968,0.00307186646386981,0.00135132053401321,-0.00855047907680273,0,
00:00:04.972,-0.0145617062225938,-0.00489194365218282,0.011898654513061,0,
00:00:04.976,-0.00409379368647933,-0.00406815996393561,0.00802471674978733,0,
00:00:04.98,-0.00013324803148862,-0.00523539446294308,0.00145733740646392,0,
00:00:04.984,0.00584767805412412,0.00936916749924421,-0.0158891510218382,0,
00:00:04.988,0.00678655738011003,0.00138595560565591,-0.0076857446692884,0,
00:00:04.992,-0.00473692500963807,-0.00552301993593574,0.00530142989009619,0,
00:00:04.996,0.00107254541944712,0.00245737261138856,0.0103149265050888,0,
00:00:05,0.000930985843297094,0.00467767845839262,0.00536782620474696,0,
00:00:05.004,-0.000516830768901855,0.00262762373313308,0.00546078011393547,0,
00:00:05.008,-0.00131038588006049,-0.0109617486596107,-0.0100098559632897,0,
00:00:05.012,-0.00114508939441293,0.000952263013459742,-0.0131895411759615,0,
00:00:05.016,-0.00253490754403174,-0.00132955866865814,0.00328763294965029,0,
00:00:05.02,0.000110835608211346,0.00113021547440439,0.00171768898144364,0,
00:00:05.024,0.00624816073104739,0.00902821030467749,0.000916149176191539,0,
00:00:05.028,0.00453459890559316,-0.00136020872741938,0.0092495447024703,0,
00:00:05.032,-0.0121775027364492,-0.00590019067749381,0.0015642021317035,0,
00:00:05.036,0.00479059992358088,-0.000589722709264606,-0.00503781111910939,0,
00:00:05.04,0.00382998236455023,0.00325421942397952,0.00221934332512319,0,
00:00:05.044,-0.0152547871693969,-0.00291270250454545,-0.00277567212469876,0,
00:00:05.048,0.0044141011312604,0.000810257974080741,-0.00354208843782544,0,
00:00:05.052,0.0125186359509826,-0.002806490752846,-0.00389507762156427,0,
00:00:05.056,0.00299721211194992,0.00665758363902569,0.00230840872973204,0,
00:00:05.06,0.00307581946253777,0.00114182161632925,-0.00295821810141206,0,
00:00:05.064,-0.016991039738059,0.000229132347158156,0.00786536652594805,0,
00:00:05.068,-0.00240864558145404,-0.00435803644359112,-0.00933360029011965,0,
00:00:05.072,0.00346260634250939,-0.00102914101444185,0.0156706776469946,0,
00:00:05.076,0.00405683880671859,-0.00443149218335748,0.0143183516338468,0,
00:00:05.08,0.00228540087118745,0.00390839669853449,-0.0224015526473522,0,
00:00:05.084,-0.00391553016379476,-0.00482137268409133,-0.00687364535406232,0,
00:00:05.088,0.00501896347850561,0.00865455623716116,0.011409287340939,0,
00:00:05.092,6.4349704189226E-05,0.00534015381708741,-0.0082921739667654,0,
00:00:05.096,-0.00417353305965662,-0.000985069200396538,-0.00721499463543296,0,
00:00:05.1,0.00200241501443088,-0.00237089698202908,-0.00212922156788409,0,
00:00:05.104,0.00495060021057725,-0.0083066551014781,0.0133911557495594,0,
00:00:05.108,-0.00720014795660973,-0.00997102074325085,0.0184954460710287,0,
00:00:05.112,-0.0134472288191319,0.00560380006209016,5.17487242177594E-05,0,
00:00:05.116,0.00800778064876795,0.00912556238472462,-0.012821595184505,0,
00:00:05.12,0.00582351116463542,0.00996697787195444,-0.00949922017753124,0,
00:00:05.124,0.00836450513452291,-0.00107229384593666,-0.00654164841398597,0,
00:00:05.128,0.00198982027359307,-0.00377232627943158,-0.0121706360951066,0,
00:00:05.132,-0.00160027062520385,-0.00745849683880806,0.0187378711998463,0,
00:00:05.136,-0.00739226909354329,-0.00633003609254956,0.0112635241821408,0,
00:00:05.14,-0.00343634118326008,0.00626324070617557,-0.00556992320343852,0,
00:00:05.144,-0.00324126495979726,0.00254283682443202,0.0110946390777826,0,
00:00:05.148,0.000343670370057225,-0.00614598672837019,-0.00426095491275191,0,
00:00:05.152,0.0111857168376446,0.00299184466712177,-0.00801824778318405,0,
00:00:05.156,-0.0192436166107655,0.00200670026242733,-0.00746555114164948,0,
00:00:05.16,0.00917623098939657,0.00383536913432181,0.00505950441583991,0,
00:00:05.164,0.0152031239122152,0.00108334643300623,0.00179485720582306,0,
00:00:05.168,-0.000212787417694926,0.00255868770182133,-0.00835166499018669,0,
00:00:05.172,-0.00626822654157877,-0.00647206651046872,0.00321059697307646,0,
00:00:05.176,-0.00798803474754095,-0.00932417437434196,0.0123177776113153,0,
00:00:05.18,0.00131674797739834,0.00505883200094104,0.00839585810899735,0,
00:00:05.184,-0.00199748296290636,0.00552844349294901,-0.0267861820757389,0,
00:00:05.188,-0.00156265601981431,-0.000284649315290153,-0.00299506448209286,0,
00:00:05.192,0.0129390461370349,-0.00557923642918468,0.0211614351719618,0,
00:00:05.196,0.00688825454562902,0.00520998798310757,0.0184959731996059,0,
00:00:05.2,-0.023135419934988,0.00131514191161841,-0.016510246321559,0,
00:00:05.204,0.00214713113382459,0.00330077274702489,-0.0301753804087639,0,
00:00:05.208,0.000875763362273574,-0.00953176151961088,0.00311625353060663,0,
00:00:05.212,0.00581536442041397,-0.000351805530954152,0.013393584638834,0,
00:00:05.216,0.00879834499210119,-0.00151349534280598,0.012714215554297,0,
00:00:05.22,-0.00474035181105137,0.0021097136195749,-0.00674304040148854,0,
00:00:05.224,0.00342943263240159,0.0163920633494854,0.0102040953934193,0,
00:00:05.228,-0.00303540797904134,-0.00258281081914902,-9.91064825939247E-06,0,
00:00:05.232,-0.00909848883748055,-0.0128734651952982,-0.00915806088596582,0,
00:00:05.236,0.000639709876850247,-0.00491339946165681,-0.0119448322802782,0,
00:00:05.24,0.00278655113652349,-0.00298851123079658,0.00350269395858049,0,
00:00:05.244,-0.0104926889762282,0.0118771893903613,-0.00705052632838488,0,
00:00:05.248,0.0124372681602836,0.000698979361914098,0.00833038985729218,0,
00:00:05.252,0.00953375548124313,0.000698797113727778,0.013605241663754,0,
00:00:05.256,-0.00365160033106804,0.00152764027006924,-0.0017548562027514,0,
00:00:05.26,-0.00147127453237772,-0.00125069101341069,0.00577901070937514,0,
00:00:05.264,-0.00499690184369683,-0.00284499092958868,-0.0127459401264787,0,
00:00:05.268,-0.00125952647067606,-0.00449667125940323,-0.00462877796962857,0,
00:00:05.272,-0.00650180457159877,-0.00722662778571248,0.00214029545895755,0,
00:00:05.276,0.00396749610081315,0.00802381429821253,0.00425124960020185,0,
00:00:05.28,0.00524396263062954,0.00999585632234812,-0.0034044140484184,0,
00:00:05.284,0.00474035181105137,-0.00144074216950685,-0.00214040232822299,0,
00:00:05.288,-0.00636655231937766,-0.00167699414305389,-0.00544857606291771,0,
00:00:05.292,0.000490737147629261,-0.00439593102782965,0.0123913493007421,0,
00:00:05.296,0.00121910125017166,-5.63756184419617E-05,-0.00317299249581993,0,
00:00:05.3,0.00429082987830043,0.00685845455154777,0.0144398529082537,0,
00:00:05.304,-0.00676414417102933,-0.00774808879941702,-0.0102106034755707,0,
00:00:05.308,0.00404018443077803,-0.00513462210074067,-0.0163365844637156,0,
00:00:05.312,-0.0134332571178675,0.00497477827593684,0.00951278675347567,0,
00:00:05.316,0.00485183112323284,0.00230274419300258,0.00647131958976388,0,
00:00:05.32,0.00759485876187682,-0.0032912464812398,0.000903684936929494,0,
00:00:05.324,0.00595740508288145,0.00604034215211868,-0.0108521822839975,0,
00:00:05.328,-0.000371376110706478,0.00297521520406008,0.00275039812549949,0,
00:00:05.332,-0.0126566998660564,-0.00790903065353632,0.00471842894330621,0,
00:00:05.336,0.00332864979282022,8.53112724144012E-05,0.00844406243413687,0,
00:00:05.34,0.0103722447529435,0.00174356228671968,-0.00857031531631947,0,
00:00:05.344,-0.0134204309433699,0.000985818332992494,-0.00486847199499607,0,
00:00:05.348,-0.00703442562371492,0.00199207500554621,-0.00273268274031579,0,
00:00:05.352,0.0076067172922194,-0.000533670303411782,0.00177873054053634,0,
00:00:05.356,0.01667096093297,-0.00422039302065969,0.0101473769173026,0,
00:00:05.36,-0.0043558357283473,-5.91986963627278E-06,-0.00474508060142398,0,
00:00:05.364,-0.00368779129348695,-0.00122206925880164,0.000327637622831389,0,
00:00:05.368,-0.00409540813416243,-0.00572430808097124,-0.00571753736585379,0,
00:00:05.372,-0.00927609670907259,0.007682497613132,0.0179240927100182,0,
00:00:05.376,0.000760317547246814,0.0045665237121284,-0.0120703270658851,0,
00:00:05.38,0.00554431322962046,0.00749276438727975,-0.0062078507617116,0,
00:00:05.384,0.013616799376905,-0.00497956154868007,-0.000617116573266685,0,
00:00:05.388,-0.0074876076541841,-0.00483254250138998,-0.00578669225797057,0,
00:00:05.392,-0.00296635203994811,-0.00792103447020054,0.0109246829524636,0,
00:00:05.396,-0.00519502116367221,-0.00390464090742171,0.0229916125535965,0,
00:00:05.4,0.00585227506235242,0.0096924789249897,-0.0127597581595182,0,
00:00:05.404,-0.00261271186172962,0.00487791560590267,-0.017657145857811,0,
00:00:05.408,0.0051046758890152,0.000507229182403535,-0.00649598008021712,0,
00:00:05.412,0.00392534723505378,0.00222865957766771,0.00205148826353252,0,
00:00:05.416,-0.00625176029279828,-0.0062833484262228,0.00610679807141423,0,
00:00:05.42,-0.00739445677027106,-0.0047662639990449,0.0267309248447418,0,
00:00:05.424,-0.00123320426791906,-0.00481673050671816,-0.00592585885897279,0,
00:00:05.428,0.00568439578637481,0.00823251623660326,-0.0215748138725758,0,
00:00:05.432,0.0131042636930943,0.00207511056214571,0.00758941797539592,0,
00:00:05.436,-0.0106030721217394,0.000477397377835587,-0.000617203768342733,0,
00:00:05.44,-0.0101077379658818,0.00630749063566327,-0.000206337383133359,0,
00:00:05.444,0.0104045020416379,-0.00402568513527513,-0.013340231962502,0,
00:00:05.448,0.00292183132842183,-0.00730827776715159,0.000632578623481095,0,
00:00:05.452,-0.00308403768576682,0.00146813946776092,0.0174823291599751,0,
00:00:05.456,-0.000151041720528156,-0.00204328098334372,0.00970442034304142,0,
00:00:05.46,0.002135269343853,0.00660439068451524,-0.0079928319901228,0,
00:00:05.464,-0.000221541791688651,0.000720758049283177,-0.00196834467351437,0,
00:00:05.468,-0.0103259272873402,-0.0104037672281265,-0.00685340166091919,0,
00:00:05.472,0.00585642457008362,0.00563167408108711,0.0069643585011363,0,
00:00:05.476,-0.00265258084982634,0.00133076275233179,-0.00681183533743024,0,
00:00:05.48,0.0130939818918705,0.000724596320651472,0.00340489111840725,0,
00:00:05.484,-0.00594222079962492,0.0027339227963239,-0.00526454299688339,0,
00:00:05.488,-0.00177094852551818,0.00248948205262423,-0.0149987488985062,0,
00:00:05.492,0.00130500528030097,-0.00161992001812905,0.00951904803514481,0,
00:00:05.496,-0.000438782415585592,-0.00170805351808667,0.00934322644025087,0,
00:00:05.5,-0.00390552519820631,-0.00723047740757465,-0.00113269302528352,0,
00:00:05.504,-0.00386184733361006,-0.0111845331266522,0.0231071878224611,0,
00:00:05.508,0.00291894702240825,0.0121170915663242,0.0243391674011946,0,
00:00:05.512,0.00386645179241896,0.00885090697556734,-0.044637568295002,0,
00:00:05.516,-0.00203921599313617,0.00254441448487341,-0.0183963235467672,0,
00:00:05.52,0.00602459628134966,-0.000135822512675077,-0.0121212312951684,0,
00:00:05.524,5.54299258510582E-05,-0.00793788861483336,0.00413427501916885,0,
00:00:05.528,-0.00478405458852649,-0.0048055169172585,0.0243530068546534,0,
00:00:05.532,-0.000767753401305527,0.00433496944606304,0.0248295348137617,0,
00:00:05.536,-0.00181453081313521,0.00115852581802756,-0.0182222910225391,0,
00:00:05.54,0.00847708620131016,0.00412895157933235,-0.0168038308620453,0,
00:00:05.544,-2.21542431972921E-05,-0.00625762483105063,0.0236645936965942,0,
00:00:05.548,-0.0211285818368196,-0.00555662717670202,0.00169845344498754,0,
00:00:05.552,0.00722425151616335,0.0136000392958522,-0.0155662167817354,0,
00:00:05.556,0.00691168010234833,-0.00678737042471766,-0.0080577414482832,0,
00:00:05.56,0.0133843161165714,-0.00511125382035971,0.00207384605892003,0,
00:00:05.564,0.0023635036777705,0.00717659154906869,0.00460962438955903,0,
00:00:05.568,-0.013277193531394,0.00455807615071535,-0.000707957718987018,0,
00:00:05.572,-0.00745725445449352,-0.00491070793941617,0.00104671181179583,0,
00:00:05.576,-0.00111371406819671,0.000288916751742363,0.000554315047338605,0,
00:00:05.58,0.00282928324304521,-0.00227276957593858,0.00427404418587685,0,
00:00:05.584,0.00376020814292133,0.000748701742850244,0.000343095423886552,0,
00:00:05.588,0.000526240037288517,-0.00171082280576229,0.00350570748560131,0,
00:00:05.592,0.00481596915051341,-0.00254818005487323,0.009820356965065,0,
00:00:05.596,-0.00306509854272008,0.000892163836397231,-0.0219234097748995,0,
00:00:05.6,-0.0027772318571806,0.00508349994197488,0.0185826700180769,0,
00:00:05.604,0.00365529838018119,0.00492554623633623,-0.0160481408238411,0,
00:00:05.608,-0.000808764598332345,-0.00239120284095407,-0.0253475159406662,0,
00:00:05.612,-0.00185522949323058,-0.00595831591635942,0.00544112641364336,0,
00:00:05.616,-0.00116069184150547,-0.00254057557322085,0.0220687855035067,0,
00:00:05.62,-7.47623489587568E-05,0.00532604660838842,0.0133129581809044,0,
00:00:05.624,-0.00143628439400345,0.00086299394024536,0.004598259460181,0,
00:00:05.628,0.000683304620906711,-0.000941817415878177,-0.0130800157785416,0,
00:00:05.632,0.0124424695968628,0.000983193051069975,0.00130943011026829,0,
00:00:05.636,-0.0080220689997077,-0.00250484282150865,0.0037082601338625,0,
00:00:05.64,-0.0116398148238659,-0.00364073435775936,-0.00150397862307727,0,
00:00:05.644,0.00265328260138631,0.00012481068552006,-0.017542527988553,0,
00:00:05.648,0.0106546748429537,0.00487175723537803,-0.00967715587466955,0,
00:00:05.652,0.00265975948423147,0.00515481270849705,0.0170492008328438,0,
00:00:05.656,-0.00226349662989378,-0.00406390987336636,0.00185477430932224,0,
00:00:05.66,-0.00362376403063536,0.000507330056279898,0.000349033914972097,0,
00:00:05.664,-0.000500157533679158,-0.00053880107589066,-0.000541545276064426,0,
00:00:05.668,-0.00685051269829273,-0.00589662604033947,-0.000470165512524545,0,
00:00:05.672,0.00926066748797894,0.00230051018297672,6.31858565611765E-05,0,
00:00:05.676,0.00676315929740667,0.00470539089292288,0.010904585942626,0,
00:00:05.68,-0.0209514796733856,-0.00744447438046336,0.00946928095072508,0,
00:00:05.684,-0.00363381905481219,-0.00473282393068075,0.00772738782688975,0,
00:00:05.688,0.016534935683012,0.00947096850723028,-0.0179971400648355,0,
00:00:05.692,0.0108242621645331,0.00714220805093646,-0.0409726649522781,0,
00:00:05.696,-0.00213844422250986,0.00276683177798986,-0.00861799344420433,0,
00:00:05.7,-0.00674869026988745,-0.00568050611764193,0.0178012251853943,0,
00:00:05.704,-0.00774498376995325,-0.00408750586211681,0.0309507828205824,0,
00:00:05.708,-0.000306355825159699,-0.00498928315937519,0.0188867338001728,0,
00:00:05.712,0.00241086934693158,-0.00334914680570364,-0.00532978400588036,0,
00:00:05.716,0.00240712170489132,0.00403016014024615,-0.0113750863820314,0,
00:00:05.72,0.00127059093210846,0.0048308614641428,-0.01523691508919,0,
00:00:05.724,0.00424753176048398,0.00673664733767509,0.00591557659208775,0,
00:00:05.728,-0.00660402979701757,-0.00395840033888817,-0.00538196321576834,0,
00:00:05.732,-0.0040672761388123,-0.0110393241047859,-0.00328278518281877,0,
00:00:05.736,0.000760606781113893,0.00176720053423196,0.00151985452976078,0,
00:00:05.74,0.0074740587733686,0.0137403570115566,0.00416941847652197,0,
00:00:05.744,0.00121727434452623,-0.00190750905312598,0.00388148822821677,0,
00:00:05.748,-0.00391410570591688,-0.00769571261480451,-0.00433422019705176,0,
00:00:05.752,-0.000360187579644844,-0.00380811677314341,0.00364135997369885,0,
00:00:05.756,0.00228783278726041,0.00514725502580404,0.0075507489964366,0,
00:00:05.76,-0.0020246310159564,0.00555975548923016,0.00278214714489877,0,
00:00:05.764,-0.00605157529935241,-0.010436711832881,-0.00478804623708129,0,
00:00:05.768,0.00770090194419026,0.00197140616364777,-0.00742763793095946,0,
00:00:05.772,0.000125418504467234,0.00617498811334372,-0.0135167269036174,0,
00:00:05.776,-0.00386443501338363,0.000119692835141905,0.00056182750267908,0,
00:00:05.78,0.000751266430597752,-0.00405944604426622,0.0146372318267822,0,
00:00:05.784,0.0035888641141355,0.00226350384764373,-0.00140768452547491,0,
00:00:05.788,-0.00329980440437794,0.00101480609737337,0.0138929495587945,0,
00:00:05.792,0.00640949094668031,-0.00320641999132931,-0.015692163258791,0,
00:00:05.796,-0.00506929401308298,-0.00405568396672606,-0.00263861590065062,0,
00:00:05.8,-0.0127886300906539,-0.00190613872837275,0.0304008815437555,0,
00:00:05.804,0.00519619043916464,0.00922583416104317,-0.0196271315217018,0,
00:00:05.808,0.0127811031416059,0.00305150635540485,-0.0214661546051502,0,
00:00:05.812,0.00519589055329561,-0.00339558371342719,-0.00444566970691085,0,
00:00:05.816,-0.00714709423482418,-0.000954493589233607,0.0193724259734154,0,
00:00:05.82,-0.00451468024402857,0.00339573412202299,0.000446408084826544,0,
00:00:05.824,7.06754144630395E-05,-0.00264800759032369,0.00817415025085211,0,
00:00:05.828,-0.00404386641457677,-0.00782652199268341,0.00260395277291536,0,
00:00:05.832,0.00144974293652922,-6.89792213961482E-05,-0.00777123775333166,0,
00:00:05.836,0.00276425736956298,0.00345130008645356,0.000152971682837233,0,
00:00:05.84,-0.000181214403710328,0.00349735841155052,-0.013473560102284,0,
00:00:05.844,0.00243180757388473,0.00593560608103871,0.00305970688350499,0,
00:00:05.848,0.00105968350544572,-0.0123311998322606,0.0176954530179501,0,
00:00:05.852,-0.000738227099645883,0.00137897918466479,0.00344331888481975,0,
00:00:05.856,-0.00361306476406753,0.0110378256067634,-0.0192939341068268,0,
00:00:05.86,0.000694929040037096,0.00133689225185663,-0.00958714541047812,0,
00:00:05.864,0.00528504233807325,-0.00658495631068945,0.0183368511497974,0,
00:00:05.868,-0.00771431252360344,-0.007496009580791,0.000228998775128275,0,
00:00:05.872,0.00246877572499216,0.00051741924835369,-0.0092032803222537,0,
00:00:05.876,0.000475279550300911,0.00123442627955228,0.0129424491897225,0,
00:00:05.88,-0.00615376140922308,0.00695645110681653,0.0100895883515477,0,
00:00:05.884,0.00607303762808442,0.000913260504603386,-0.02285560593009,0,
00:00:05.888,0.00929021835327148,-0.00174072373192757,-0.010470206849277,0,
00:00:05.892,-0.00326007115654647,3.27357884088997E-05,0.00400465819984674,0,
00:00:05.896,-0.00784748699516058,-0.00315570295788348,0.0207299347966909,0,
00:00:05.9,-0.00152528309263289,0.000296430720482022,0.0153742460533977,0,
00:00:05.904,0.0075548542663455,-0.00370473065413535,-0.00632699858397245,0,
00:00:05.908,-0.0144114689901471,-0.00022927307873033,-0.0380383469164371,0,
00:00:05.912,0.00622383505105972,0.00700116343796253,0.00115694710984826,0,
00:00:05.916,0.00803974270820618,-0.00062902393983677,0.0177104435861111,0,
00:00:05.92,0.00518933963030577,0.00065577682107687,0.00729333329945803,0,
00:00:05.924,-0.00363751617260277,0.00385843892581761,-0.00346193742007017,0,
00:00:05.928,-0.00738610420376062,-0.00717296497896314,0.0035597407259047,0,
00:00:05.932,0.000798874185420573,-0.0066730878315866,0.00251191481947899,0,
00:00:05.936,-0.000744122604373842,0.00870192889124155,-0.00715581607073545,0,
00:00:05.94,-0.00414424575865269,-0.000914470641873777,-0.00566429318860173,0,
00:00:05.944,0.00485804118216038,0.000656543765217066,-0.00107811659108847,0,
00:00:05.948,0.00444189226254821,0.00241345493122935,0.000218458124436438,0,
00:00:05.952,0.00323398225009441,-0.000202678464120254,-0.00105653877835721,0,
00:00:05.956,-0.00136125751305372,-7.45482102502137E-05,0.0139419948682189,0,
00:00:05.96,-0.00383311160840094,-0.0104321641847491,0.00383238983340561,0,
00:00:05.964,-0.00962643697857857,-0.00717782182618976,-0.00830446556210518,0,
00:00:05.968,-0.00377103080973029,0.0148580567911267,0.00981221534311771,0,
00:00:05.972,0.0134126851335168,0.0105930948629975,-0.0215647779405117,0,
00:00:05.976,0.0128620862960815,0.00254566362127662,-0.00904996227473021,0,
00:00:05.98,-0.00626698834821582,-0.00795230641961098,0.0154203530400991,0,
00:00:05.984,-0.013080601580441,-0.0167218707501888,-0.00104685989208519,0,
00:00:05.988,-0.000726830214262009,0.00382395111955702,-0.00572583731263876,0,
00:00:05.992,0.00770247960463166,0.00716428784653544,0.0283658839762211,0,
00:00:05.996,0.00147950125392526,-0.00232852343469858,0.00145145307760686,0,
00:00:06,-0.0162292923778296,0.00591116165742278,-0.0204005260020494,0,
00:00:06.004,0.011669110506773,0.000741320836823434,-0.0111341150477529,0,
00:00:06.008,0.010345802642405,-0.00175500416662544,0.0121667664498091,0,
00:00:06.012,-0.000738301139790565,-0.00418010493740439,-0.00601257756352425,0,
00:00:06.016,-0.00307228066958487,0.00277460901997983,-0.00338609423488379,0,
00:00:06.02,-0.00460241828113794,-0.000543130387086421,-0.00355828506872058,0,
00:00:06.024,-0.00778488721698523,-0.00095924228662625,0.0154746575281024,0,
00:00:06.028,0.00267816847190261,0.00383260706439614,0.00318165472708642,0,
00:00:06.032,2.12452523555839E-05,-0.00570337707176805,0.0109662814065814,0,
00:00:06.036,-0.0020711321849376,-0.00696596130728722,-0.0123357009142637,0,
00:00:06.04,0.0112936804071069,0.00766357779502869,0.000652970687951893,0,
00:00:06.044,0.0058546606451273,0.00903015211224556,-0.0155241852626204,0,
00:00:06.048,-0.00627965573221445,0.00175900850445032,-0.00465847039595246,0,
00:00:06.052,-0.00415799114853144,-0.0102664493024349,0.00665465975180268,0,
00:00:06.056,-0.00216078641824424,-0.00160681293345988,0.00582698872312903,0,
00:00:06.06,0.00585070485249162,0.00542553467676044,0.00223033921793103,0,
00:00:06.064,-0.00929578952491283,-0.000418805604567751,-0.00241892598569393,0,
00:00:06.068,-0.00397521257400513,-0.0066043334081769,-0.00122818408999592,0,
00:00:06.072,0.0096888467669487,-0.00207285163924098,0.0195233821868896,0,
00:00:06.076,0.00459379330277443,0.00479983957484365,0.000627475674264133,0,
00:00:06.08,0.0021335135679692,0.0043858103454113,-0.0104056652635336,0,
00:00:06.084,-0.00636500352993608,0.00354293687269092,-0.0194876659661531,0,
00:00:06.088,-0.00219430355355144,-0.00509496731683612,2.58735298075408E-07,0,
00:00:06.092,-0.00208629458211362,-0.00378334918059409,0.00483461888507009,0,
00:00:06.096,0.00488560507073998,0.00798021350055933,0.00640392769128084,0,
00:00:06.1,0.00259249401278794,-0.00397187378257513,-0.00567488605156541,0,
00:00:06.104,-0.00503123877570033,-0.00644112657755613,0.00734883407130837,0,
00:00:06.108,-0.000604465662036091,-0.00121217756532133,0.0236519649624825,0,
00:00:06.112,0.00111029099207371,0.00314578297547996,-0.00773398345336318,0,
00:00:06.116,-0.00296619371511042,0.0103869419544935,-0.0196943301707506,0,
00:00:06.12,0.00659916456788778,-0.00329960230737925,0.00804735720157623,0,
00:00:06.124,0.00124710227828473,-0.00251060375012457,-0.0269855037331581,0,
00:00:06.128,-0.00376364239491522,0.000344252883223817,-0.00145849620457739,0,
00:00:06.132,-0.00237650028429925,-0.00484768114984035,0.0286187380552292,0,
00:00:06.136,0.00632217200472951,0.000360771111445501,0.00592201994732022,0,
00:00:06.14,-0.000312193995341659,0.00404000701382756,-0.00495418533682823,0,
00:00:06.144,-0.00949589349329472,-0.000378843687940389,0.0077566234394908,0,
00:00:06.148,0.000913773896172643,-0.00106888148002326,-0.0135615533217788,0,
00:00:06.152,0.00375392963178456,-0.00252974592149258,-0.00313024688512087,0,
00:00:06.156,0.00899659842252731,0.00218565855175257,-0.00584974279627204,0,
00:00:06.16,-0.0135050881654024,0.00419833278283477,0.00290795997716486,0,
00:00:06.164,0.00632627634331584,-0.00141585420351475,0.0160671882331371,0,
00:00:06.168,-0.00544154876843095,-0.00858939252793789,0.00263343029655516,0,
00:00:06.172,0.0048901317641139,0.00669238483533263,-0.0190766323357821,0,
00:00:06.176,0.00393380131572485,0.00295844953507185,-0.00475286226719618,0,
00:00:06.18,0.00226378929801285,0.00173034961335361,0.0108136320486665,0,
00:00:06.184,-0.00221686228178442,-0.00176428316626698,-0.000974989146925509,0,
00:00:06.188,-0.00835217721760273,-0.00744311092421412,-0.0085899019613862,0,
00:00:06.192,-0.00139339955057949,0.00349778402596712,0.0161206685006619,0,
00:00:06.196,0.00219290936365724,0.0026589201297611,0.0134429596364498,0,
00:00:06.2,0.00289090792648494,-0.00866289623081684,-0.000443901575636119,0,
00:00:06.204,-0.00225913873873651,-0.00231903558596969,-0.0202268771827221,0,
00:00:06.208,0.00440194271504879,0.00867319386452436,-0.00938595458865166,0,
00:00:06.212,0.00477206520736218,0.00660584913566709,-0.0048478739336133,0,
00:00:06.216,-0.00255645764991641,0.0010350130032748,0.0019675912335515,0,
00:00:06.22,-0.00405667629092932,-0.00503059662878513,0.00412713177502155,0,
00:00:06.224,-0.00252280384302139,0.0021945673506707,0.0147275738418102,0,
00:00:06.228,0.0038267255295068,-0.00290564517490566,0.00398669065907598,0,
00:00:06.232,-0.00903438031673431,-0.00991470459848642,0.00269344123080373,0,
00:00:06.236,0.00414295494556427,0.00195235491264611,0.00915458239614964,0,
00:00:06.24,0.00354282953776419,0.0030912400688976,-0.0140894521027803,0,
00:00:06.244,0.00866015255451202,0.0078158974647522,-0.0296085979789495,0,
00:00:06.248,-0.00303647248074412,0.000695139111485332,0.0115477042272687,0,
00:00:06.252,-0.00956463627517223,-0.000430765881901607,0.00368392118252814,0,
00:00:06.256,0.00891614612191916,-0.00683316215872765,0.00233012437820435,0,
00:00:06.26,-0.0133035918697715,-0.00123425491619855,0.0192254092544317,0,
00:00:06.264,0.00528950663283467,0.0013252740027383,-0.00921567808836699,0,
