Elapsed Time,EMG1,EMG2,EMG3,BioRadio Event,Unnamed: 5
00:00:00,0.38609510660171503,-2.8126819133758505,2.92062258720398,0,
00:00:00.004,-0.36948573589325,2.6786377429962203,-2.7896575927734397,0,
00:00:00.008,-0.309671998023987,2.22299289703369,-2.2921748161315896,0,
00:00:00.012,-0.0170580204576254,0.24447239935398102,-0.250859946012497,0,
00:00:00.016,0.141495928168297,-1.1563122272491497,1.17786908149719,0,
00:00:00.02,0.206490784883499,-1.3907005786895799,1.44239890575409,0,
00:00:00.024,0.112996600568295,-0.8453745245933529,0.894924223423004,0,
00:00:00.028,0.011851143091917002,-0.10099846124649,0.120835050940514,0,
00:00:00.032,-0.0699662640690804,0.401783555746078,-0.429328501224518,0,
00:00:00.036,-0.0748626738786697,0.5493845343589779,-0.5730162262916559,0,
00:00:00.04,-0.0487741567194462,0.413500040769577,-0.43954300880432107,0,
00:00:00.044,-0.00795380119234324,0.148303508758545,-0.16983495652675598,0,
00:00:00.048,0.0096462070941925,-0.0683863386511803,0.0843688622117043,0,
00:00:00.052,0.00610355800017715,-0.16825720667839097,0.196401700377464,0,
00:00:00.056,0.0219206344336271,-0.140509381890297,0.132472738623619,0,
00:00:00.06,0.0277251563966274,-0.0717197209596634,0.0582018457353115,0,
00:00:00.064,-0.0112122930586338,0.00998963415622711,0.019872548058628998,0,
00:00:00.068,-0.0203191004693508,0.0294828824698925,-0.0385175533592701,0,
00:00:00.072,-0.0042399363592267,0.0438196361064911,-0.0583438761532307,0,
00:00:00.076,0.0059356507845223,0.0298855882138014,-0.0303063057363033,0,
00:00:00.08,0.0117729166522622,0.016794715076684997,0.000168441940331832,0,
00:00:00.084,-0.010292056016624,-0.00684296619147062,-0.00102204759605229,0,
00:00:00.088,-0.00850185845047235,-0.0190327670425177,0.0106270238757133,0,
00:00:00.092,0.0224252697080374,-0.0192536246031523,0.0173943880945444,0,
00:00:00.096,-0.00405482994392514,-0.00364738167263567,0.0131602259352803,0,
00:00:00.1,-0.00301086599938571,0.0139988604933023,-0.013236042112111998,0,
00:00:00.104,-0.0132458349689841,-0.00207502674311399,-0.008003567345440391,0,
00:00:00.108,-0.0131825096905231,0.00493635702878237,0.0139142889529467,0,
00:00:00.112,0.0101015828549862,0.00253334338776767,-0.0103621408343315,0,
00:00:00.116,0.0204733330756426,-0.007369388360530141,-0.00985667854547501,0,
00:00:00.12,0.0168380010873079,-0.00317097012884915,0.0191386062651873,0,
00:00:00.124,-0.00395575072616339,0.0104853818193078,-0.008628741838037971,0,
00:00:00.128,-0.038956418633461,-0.0016148249851539698,-0.007377551402896641,0,
00:00:00.132,-0.0101392082870007,0.000779045221861452,-0.0037048989906907103,0,
00:00:00.136,0.014531197026372001,-0.00133876723702997,0.0320153757929802,0,
00:00:00.14,0.0205554962158203,-0.00474560493603349,-0.0111121274530888,0,
00:00:00.144,0.0146146900951862,-0.000205614138394594,-0.0130783496424556,0,
00:00:00.148,-0.0159750320017338,-0.00320978160016239,-0.00984641257673502,0,
00:00:00.152,-0.00810629967600107,0.00687317503616214,0.00761403376236558,0,
00:00:00.156,-0.00751488143578172,0.00177271175198257,0.0125070810317993,0,
00:00:00.16,0.010022004134953001,-0.00736052868887782,-0.0130680585280061,0,
00:00:00.164,-0.00515752518549562,-0.00216281181201339,0.00311735784634948,0,
00:00:00.168,-0.00685039442032576,0.00545663991943002,0.0101766446605325,0,
00:00:00.172,0.00429792422801256,0.0133197465911508,0.0032323698978871103,0,
00:00:00.176,0.0202172081917524,-0.0021709098946303103,0.00034104779479093904,0,
00:00:00.18,0.00390673708170652,-0.0119700273498893,-0.0226119738072157,0,
00:00:00.184,-0.0270440727472305,-0.00459028407931328,0.00821295473724604,0,
00:00:00.188,0.000403420737711713,0.0008878296939656141,-0.0018866227474063602,0,
00:00:00.192,0.0157420672476292,0.0074203242547810095,0.00893868412822485,0,
00:00:00.196,-0.0047023114748299105,-0.00713285757228732,-0.00202406314201653,0,
00:00:00.2,-0.011915291659533998,0.00208248803392053,0.00796982180327177,0,
00:00:00.204,0.0131237674504519,0.0106373224407434,-0.0142199508845806,0,
00:00:00.208,0.0057118320837616894,-0.00313466438092291,-0.0112792812287807,0,
00:00:00.212,-0.00456863781437278,-0.0026862192898988698,0.0116638969630003,0,
00:00:00.216,-0.00596499070525169,-0.00413489388301969,0.0283389985561371,0,
00:00:00.22,-0.0135178668424487,0.00300302705727518,-0.00359828281216323,0,
00:00:00.224,0.0121819609776139,0.0016990436706692,-0.0178168062120676,0,
00:00:00.228,0.0042692366987466795,-0.00285642314702272,-0.0341402962803841,0,
00:00:00.232,-0.000649345107376575,-0.00401040352880955,0.008229289203882221,0,
00:00:00.236,0.00834590196609497,0.00213154824450612,0.0268293656408787,0,
00:00:00.24,0.0075732721015811,0.00929384585469961,0.0216612908989191,0,
00:00:00.244,-0.0216863602399826,-0.0104837315157056,-0.00656320247799158,0,
00:00:00.248,-0.0102393059059978,-0.00110793649218976,-0.0230518542230129,0,
00:00:00.252,0.0113394455984235,0.011575810611248,-0.00926086213439703,0,
00:00:00.256,0.00751450099050999,-0.000280536856735125,0.0113474279642105,0,
00:00:00.26,0.00388232874684036,-0.0130780832841992,0.0106734121218324,0,
00:00:00.264,-0.0122730424627662,-0.00046287992154248097,-0.00532253226265311,0,
00:00:00.268,-0.00714619690552354,0.00894037261605263,-0.0100837275385857,0,
00:00:00.272,0.0224689356982708,0.004818505607545379,0.00430769333615899,0,
00:00:00.276,0.0013299330603331301,-0.00108453212305903,0.00314385979436338,0,
00:00:00.28,-0.0198005065321922,-0.00403994787484407,-0.00660723960027099,0,
00:00:00.284,0.0149527210742235,-0.00991235580295324,0.00613159080967307,0,
00:00:00.288,0.00290583842433989,0.000183671523700468,0.0245459042489529,0,
00:00:00.292,-0.0248005613684654,0.007311343215405941,-0.0122642843052745,0,
00:00:00.296,-0.0148611851036549,0.00118705455679446,-0.0376776084303856,0,
00:00:00.3,0.0487528815865517,0.0111724073067307,0.0177781246602535,0,
00:00:00.304,-0.000491872720886022,-0.00266521470621228,0.0141027756035328,0,
00:00:00.308,-0.0244340673089027,-0.00946431700140238,-0.00473580043762922,0,
00:00:00.312,0.00964046362787485,-0.00589247979223728,-0.0022728918120265,0,
00:00:00.316,-0.000176721456227824,-0.000271222612354904,0.00860853120684624,0,
00:00:00.32,-0.00603438634425402,-0.000908749585505575,-0.00242471136152744,0,
00:00:00.324,-0.0116536449640989,0.0056527117267251,-0.0115977255627513,0,
00:00:00.328,-0.00378605839796364,0.0117406398057938,-0.0018770688911899898,0,
00:00:00.332,0.0214645806699991,-0.00156740285456181,-0.0062730219215154604,0,
00:00:00.336,0.0156322419643402,-0.0057613709941506394,0.0316710136830807,0,
00:00:00.34,-0.0110157346352935,-0.00254852953366935,-0.000317043421091512,0,
00:00:00.344,-0.0029258190188556897,-0.0036089390050619797,-0.0179745852947235,0,
00:00:00.348,-0.00536070857197046,-0.0028486582450568698,-0.00232529989443719,0,
00:00:00.352,-0.00173927424475551,0.00165208475664258,0.00109009491279721,0,
00:00:00.356,0.0096233980730176,0.0102941142395139,-0.0137339793145657,0,
00:00:00.36,-0.0203330889344215,-0.000316289369948208,0.0139985429123044,0,
00:00:00.364,-0.00190757145173848,-0.00340920896269381,0.0136131243780255,0,
00:00:00.368,0.0018606741214171102,-0.00271544954739511,-0.0108626000583172,0,
00:00:00.372,0.0212847962975502,-0.0029620747081935397,-0.0221071559935808,0,
00:00:00.376,0.0102209225296974,0.0025352647062391,0.0333492308855057,0,
00:00:00.38,0.00212352955713868,0.006897201295942071,0.0260848272591829,0,
00:00:00.384,-0.0375056825578213,-0.0070317550562322105,-0.0404634810984135,0,
00:00:00.388,0.00126078410539776,0.00017612129158806102,-0.00643711537122726,0,
00:00:00.392,0.0200811512768269,0.0038440935313701604,-0.00359775009565055,0,
00:00:00.396,0.00918645970523357,-0.0050876508466899395,-0.00362380291335285,0,
00:00:00.4,-0.0184697564691305,0.00016847529332153502,0.0036464678123593296,0,
00:00:00.404,-0.0163729935884476,0.0085484879091382,0.0121762957423925,0,
00:00:00.408,0.0195529907941818,0.000258730695350096,0.0200157575309277,0,
00:00:00.412,0.0171825997531414,-0.00403383420780301,-0.007156541105359791,0,
00:00:00.416,-0.0132702244445682,-0.0103760380297899,-0.00926463026553392,0,
00:00:00.42,0.00014132147771306298,0.00185824383515865,0.00618516141548753,0,
00:00:00.424,0.00653907610103488,0.0114234331995249,-0.0117146167904139,0,
00:00:00.428,-0.0181934665888548,-0.00836803205311298,-0.0147094046697021,0,
00:00:00.432,0.012744645588100002,-0.00422356510534883,-0.00249536661431193,0,
00:00:00.436,-0.00793993845582008,0.0113024907186627,0.0286058653146029,0,
00:00:00.44,-0.007090465165674691,0.00834867917001247,-0.00489643635228276,0,
00:00:00.444,0.00416412204504013,-0.00799393188208342,0.00369371986016631,0,
00:00:00.448,0.007470795419067141,-0.00366950617171824,0.0164617709815502,0,
00:00:00.452,0.00935873202979565,-0.00643148645758629,-0.0346511192619801,0,
00:00:00.456,0.00129951012786478,0.00283632590435445,-0.00435325782746077,0,
00:00:00.46,-0.00512619502842426,0.00545791490003467,0.0029475251212716103,0,
00:00:00.464,-0.00240344437770545,-0.00274454895406961,0.00553314248099923,0,
00:00:00.468,-0.0123036671429873,-0.00222917250357568,0.0195167530328035,0,
00:00:00.472,-0.00835196115076542,-0.0018416929524391898,0.0015299591468647099,0,
00:00:00.476,0.00642285170033574,0.00369433639571071,-0.0122642572969198,0,
00:00:00.48,0.0254560075700283,-0.00287800561636686,-0.0217009410262108,0,
00:00:00.484,-0.00611591013148427,0.00898663606494665,0.0120514174923301,0,
00:00:00.488,-0.00346830463968217,0.0102357240393758,0.0154172154143453,0,
00:00:00.492,-0.007904927246272559,-0.0128534529358149,-0.00390452099964023,0,
00:00:00.496,-0.00341147789731622,-0.0128611186519265,0.0028790379874408197,0,
00:00:00.5,0.00773851480334997,0.0041541294194757895,0.00488278642296791,0,
00:00:00.504,-0.00227569602429867,0.00418557925149798,-0.0252952594310045,0,
00:00:00.508,-0.0018605415243655398,0.00085532059893012,-0.0102979680523276,0,
00:00:00.512,0.00896015018224716,0.00313857290893793,0.0227081775665283,0,
00:00:00.516,-0.00592832174152136,0.0055058863945305295,0.00768293719738722,0,
00:00:00.52,-0.00489296019077301,-0.0068389517255127395,0.0210819467902184,0,
00:00:00.524,0.00400020135566592,-0.0072759622707963,-0.0141157368198037,0,
00:00:00.528,-0.00937045831233263,0.0015865752939134802,-0.0439640283584595,0,
00:00:00.532,0.0139816636219621,0.00849882792681456,0.0178510919213295,0,
00:00:00.536,0.0123085342347622,-0.000684520346112549,0.0103075057268143,0,
00:00:00.54,-0.0063212807290256,0.00382633483968675,0.0221204701811075,0,
00:00:00.544,-0.0255202203989029,-0.0010667521273717302,-0.0182653106749058,0,
00:00:00.548,0.000369004847016186,-0.00881136767566204,-0.0060164202004671105,0,
00:00:00.552,0.0142066879197955,-0.006773076485842471,-0.0104755125939846,0,
00:00:00.556,0.00305828964337707,0.0030919702257961,0.00978265795856714,0,
00:00:00.56,0.00450595421716571,0.00582689652219415,0.0183480810374022,0,
00:00:00.564,0.0022098713088780603,0.00417758012190461,-0.0127470176666975,0,
00:00:00.568,0.00090142892440781,-0.00509073585271835,-0.00105167552828789,0,
00:00:00.572,-0.00740382587537169,0.004712018650025129,0.00948175601661205,0,
00:00:00.576,-0.0156904552131891,0.00699907727539539,0.0006663566455245019,0,
00:00:00.58,-0.005634993780404329,-0.0030265161767602,-0.0339247584342957,0,
00:00:00.584,0.0114440135657787,-0.0085057383403182,0.00949109625071287,0,
00:00:00.588,0.0183668527752161,-0.00491726119071245,0.0147715136408806,0,
00:00:00.592,0.0058991154655814206,0.00853088311851025,0.0152064133435488,0,
00:00:00.596,-0.00997203588485718,-0.0108622359111905,-0.00492157228291035,0,
00:00:00.6,-0.0205033496022224,-0.00332559086382389,0.007508010603487491,0,
00:00:00.604,0.005549676716327671,0.0122130820527673,-0.0237250030040741,0,
00:00:00.608,0.0114904688671231,0.0111409416422248,-0.0101577145978808,0,
00:00:00.612,0.00688930694013834,-0.0029203400481492303,-0.0017246933421120002,0,
00:00:00.616,0.0124459052458405,0.0021747036371380104,0.008078106679022309,0,
00:00:00.62,-0.0349807403981686,-0.0100429560989141,0.00867265276610851,0,
00:00:00.624,-0.0242747105658054,-0.00757151748985052,0.0174054428935051,0,
00:00:00.628,0.0297611597925425,-0.001153698656708,0.00546999927610159,0,
00:00:00.632,0.0372223928570747,0.00966484565287828,-0.00682715838775039,0,
00:00:00.636,-0.034470334649086,-0.0117404274642467,-0.0323403887450695,0,
00:00:00.64,0.0035619777627289295,0.00806343369185925,0.0022865328937768897,0,
00:00:00.644,0.00673009268939495,0.0105662727728486,0.00629115803167224,0,
00:00:00.648,0.006489745341241361,0.000485489465063438,0.0008763010846450919,0,
00:00:00.652,-0.0208366345614195,-0.0023080757819116103,0.0170135274529457,0,
00:00:00.656,-0.0103977099061012,-0.0108710220083594,-0.011960893869399998,0,
00:00:00.66,0.0108907129615545,0.00172912492416799,0.0166736226528883,0,
00:00:00.664,0.0035430451389402203,-0.0011394154280424099,-0.0115751773118973,0,
00:00:00.668,0.0150198740884662,-0.00126596516929567,0.00248192786239088,0,
00:00:00.672,0.0154495947062969,0.0147444838657975,-0.0129461856558919,0,
00:00:00.676,-0.0154361939057708,-0.00179753301199526,0.0178550612181425,0,
00:00:00.68,-0.0218035280704498,-0.0109209408983588,-0.0212224740535021,0,
00:00:00.684,-0.00196996098384261,-0.0032047927379608198,-0.00378244393505156,0,
00:00:00.688,-0.00289950240403414,0.00397398602217436,0.0117263291031122,0,
00:00:00.692,0.0034194153267890198,-0.0004927862901240589,0.0203332453966141,0,
00:00:00.696,0.007446963340044021,-0.00317079317755997,-0.0237031932920218,0,
00:00:00.7,0.0214776732027531,0.0103986654430628,0.0191561207175255,0,
00:00:00.704,0.00427542347460985,0.00547382421791554,-0.008603859692811971,0,
00:00:00.708,-0.000513624225277454,-0.00620406586676836,-0.009780218824744221,0,
00:00:00.712,-0.0200872905552387,0.000294336321530864,0.0035435846075415603,0,
00:00:00.716,-0.0230774134397507,-0.0016631274484098,-0.00681634759530425,0,
00:00:00.72,0.0032904155086726,-0.013675513677299,0.0145070310682058,0,
00:00:00.724,0.00660911528393626,0.00100688601378351,-0.0034878279548138397,0,
00:00:00.728,0.0148998349905014,0.0113793518394232,-0.00645081885159016,0,
00:00:00.732,0.0177342388778925,0.0047463309019804,-0.004920430015772579,0,
00:00:00.736,0.00324347405694425,-0.000344217347446829,0.0116931898519397,0,
00:00:00.74,-0.0339128375053406,-0.000675744900945574,0.00144141132477671,0,
00:00:00.744,-0.00540487607941031,-0.008913840167224409,0.0137039963155985,0,
00:00:00.748,0.0246062893420458,0.00284898234531283,-7.468713010894129e-05,0,
00:00:00.752,-0.00604366231709719,0.00308780185878277,-0.0175016429275274,0,
00:00:00.756,-0.00141658599022776,-0.00373196043074131,-0.0189526341855526,0,
00:00:00.76,-0.00501841213554144,0.000450240215286613,0.0019277065293863398,0,
00:00:00.764,-0.00110915978439152,0.0056850453838706,0.006489223800599579,0,
00:00:00.768,0.00665828259661794,-0.00288956658914685,0.0158994197845459,0,
00:00:00.772,-0.000513121427502483,-0.00516699673607945,0.00801430642604828,0,
00:00:00.776,0.0010092312004417198,0.00120261171832681,-0.0038917148485779797,0,
00:00:00.78,0.00629234639927745,-0.0014084987342357599,-0.0132223470136523,0,
00:00:00.784,-0.0213845316320658,0.0036921999417245397,0.00501798279583454,0,
00:00:00.788,0.0160406287759542,0.0117786033079028,0.00562181835994124,0,
00:00:00.792,0.0189119204878807,-0.0005396757624112071,-0.007559575140476229,0,
00:00:00.796,-0.0374259352684021,-0.0176489558070898,-0.0035655421670526296,0,
00:00:00.8,0.00143361417576671,-0.00567040778696537,-0.0166276972740889,0,
00:00:00.804,0.0181274078786373,0.0147655224427581,0.0135946124792099,0,
00:00:00.808,0.00686935568228364,0.00411753449589014,0.0317680612206459,0,
00:00:00.812,-0.0111898770555854,-0.0063428594730794395,-0.0202484279870987,0,
00:00:00.816,-0.00497209979221225,-0.0020491387695074103,0.00209831423126161,0,
00:00:00.82,0.0009576812153682109,0.00253479229286313,0.000308717862935737,0,
00:00:00.824,0.00768662244081497,-0.000690336688421667,-0.00457667093724012,0,
00:00:00.828,-0.00504172360524535,-0.0068507231771946,-0.0201657507568598,0,
00:00:00.832,-0.00647425604984164,0.00402208045125008,-0.0017762312199920399,0,
00:00:00.836,0.0122910542413592,0.009603544138371941,0.007047366816550491,0,
00:00:00.84,0.0342198833823204,0.00699466560035944,0.0357438772916794,0,
00:00:00.844,-0.0254442114382982,-0.005538027733564379,0.009608989581465721,0,
00:00:00.848,-0.0361752025783062,-0.0234695170074701,-0.0258710626512766,0,
00:00:00.852,-6.02762702328619e-06,0.00577314244583249,-0.0187430586665869,0,
00:00:00.856,-0.00139142235275358,0.00620588241145015,-0.006614572834223511,0,
00:00:00.86,0.00749476300552487,0.0114301079884171,-0.002612215699628,0,
00:00:00.864,0.0413558185100555,0.000909072230570018,0.0225583165884018,0,
00:00:00.868,0.0200026761740446,-0.00679103238508105,0.0192511603236198,0,
00:00:00.872,-0.0312235280871391,-0.00953463464975357,-0.0178169570863247,0,
00:00:00.876,-0.0279116351157427,0.00048621909809298797,0.0145425703376532,0,
00:00:00.88,-0.00814389158040285,0.0048203193582594395,-0.006259089335799221,0,
00:00:00.884,0.0138881783932447,0.0107154957950115,-0.0228686146438122,0,
00:00:00.888,0.0174170155078173,0.00225285720080137,-0.0029091970063746,0,
00:00:00.892,-0.000901925377547741,-0.00933754071593285,-0.0121680339798331,0,
00:00:00.896,-0.0116079496219754,-0.00722364243119955,0.0318647995591164,0,
00:00:00.9,6.13526863162406e-05,-0.00347476289607584,0.0157653912901878,0,
00:00:00.904,0.0102027235552669,0.00481133162975311,-0.008546914905309679,0,
00:00:00.908,-0.000632229319307953,0.0035296631976962103,-0.009630441665649409,0,
00:00:00.912,-0.00813083816319704,0.00698002334684134,-0.006224768701940771,0,
00:00:00.916,0.0007873226422816519,-0.00251135975122452,0.00452609872445464,0,
00:00:00.92,0.00229514669626951,-0.00341709493659437,-0.006431651301681999,0,
00:00:00.924,-0.0030273539014160603,0.0026224881876260003,0.0018721080850809802,0,
00:00:00.928,0.00994034204632044,-0.0015975745627656599,0.00135960383340716,0,
00:00:00.932,0.0110233854502439,0.00200918060727417,0.00408750213682652,0,
00:00:00.936,-0.0295353829860687,-0.00497056916356087,-0.000122662837384269,0,
00:00:00.94,-0.0062015219591558,-0.007174387574195859,-0.00696227746084332,0,
00:00:00.944,0.00541948946192861,0.00454429723322392,-0.0172437243163586,0,
00:00:00.948,0.00418923562392592,-0.000313562108203769,0.0515949241816998,0,
00:00:00.952,0.0412279739975929,0.0192415602505207,0.0053920405916869606,0,
00:00:00.956,-0.0157691109925509,-0.00532652204856277,-0.038435310125351,0,
00:00:00.96,-0.0122601818293333,-0.0139809120446444,-0.023187505081296,0,
00:00:00.964,-0.0224854350090027,0.000420098484028131,0.008262651972472671,0,
00:00:00.968,-0.010109038092196,0.0033027061726898,0.0309240166097879,0,
00:00:00.972,0.0090381195768714,0.00405681040138006,-0.00647067418321967,0,
00:00:00.976,0.0273805875331163,-0.00805788952857256,-0.00464547565206885,0,
00:00:00.98,0.0158091429620981,0.0013849148526787801,0.0130553059279919,0,
00:00:00.984,-0.00341551471501589,0.00588660687208176,-0.0236553382128477,0,
00:00:00.988,-0.0241829752922058,-0.0014831988373771301,0.009823683649301529,0,
00:00:00.992,-0.009572070091962809,-0.0034322449937462802,0.00601682392880321,0,
00:00:00.996,0.00357204442843795,0.004276251886039971,-0.021844744682312,0,
00:00:01,0.0147778103128076,0.00484212627634406,0.0151706468313932,0,
00:00:01.004,-0.0075984280556440405,-0.00252334959805012,0.0124496342614293,0,
00:00:01.008,-0.00136273517273366,-0.00406176503747702,-0.00579335633665323,0,
00:00:01.012,-0.00468950159847736,-0.00459861615672708,-0.0138226486742496,0,
00:00:01.016,0.024452468380332004,0.00582803366705775,0.00255396752618253,0,
00:00:01.02,-0.013992621563375001,0.0009557303274050359,0.012062881141901,0,
00:00:01.024,-0.0211423728615046,-0.005612222012132411,-0.0128804156556726,0,
00:00:01.028,0.0125924879685044,0.00021245780226308899,0.00503579992800951,0,
00:00:01.032,0.0215048845857382,0.00244895042851567,0.018231088295578998,0,
00:00:01.036,-0.00629692524671555,0.000108037391328253,-0.0126579171046615,0,
00:00:01.04,-0.00873237382620573,0.00284345843829215,-0.0185815989971161,0,
00:00:01.044,-0.01603102684021,0.0012863846495747599,0.00507967127487063,0,
00:00:01.048,0.00662323925644159,-0.0007641839911229911,0.017793295904994,0,
00:00:01.052,0.0121799930930138,0.00242757378146052,-0.014841073192656,0,
00:00:01.056,-0.0110972626134753,-0.00751827657222748,0.0075987377204001,0,
00:00:01.06,0.0223263688385487,0.000119008211186156,0.00633386755362153,0,
00:00:01.064,0.008405006490647791,-0.0025911300908774103,0.0078573115170002,0,
00:00:01.068,-0.027963088825345,0.00487712910398841,-0.0105044888332486,0,
00:00:01.072,-0.0143895139917731,-0.000760517839808017,-0.023730443790555,0,
00:00:01.076,0.0215115118771791,-0.0042804228141903895,-0.00526645965874195,0,
00:00:01.08,-0.00431424053385854,0.0113204373046756,0.0298921559005976,0,
00:00:01.084,-0.00206332001835108,0.00492570642381907,0.0143064046278596,0,
00:00:01.088,0.00791524350643158,-0.007781716994941229,-0.0308971889317036,0,
00:00:01.092,-0.009028126485645771,-0.00106045324355364,0.00917141232639551,0,
00:00:01.096,0.005322144832462071,-0.0124617256224155,0.012373841367662,0,
00:00:01.1,0.019464174285531002,-0.0012498371070250901,-0.0009980964241549368,0,
00:00:01.104,-0.0216295663267374,0.00813195016235113,-0.009438257664442059,0,
00:00:01.108,-0.008376685902476309,0.007272686343640091,-0.0193998087197542,0,
00:00:01.112,0.0019187309080734801,0.0026588514447212198,-0.0040077720768749705,0,
00:00:01.116,0.00817460473626852,0.000654770759865642,0.0368735939264297,0,
00:00:01.12,-0.0008740297053009269,-0.007239305414259429,0.0150065114721656,0,
00:00:01.124,0.0168948117643595,-0.00245750555768609,-0.0273763556033373,0,
00:00:01.128,-0.0116097768768668,-0.00191739329602569,-0.01074586994946,0,
00:00:01.132,-0.00268806843087077,0.0031511967536062,0.00623483210802078,0,
00:00:01.136,-0.0102290529757738,0.0048651895485818395,-0.0032881167717278,0,
00:00:01.14,-0.000325831410009414,0.0009095818968489769,-0.00226384866982698,0,
00:00:01.144,0.009294704534113409,-0.0043793478980660395,0.00563637679442763,0,
00:00:01.148,0.0140654649585485,-0.0031025619246065604,0.00816972926259041,0,
00:00:01.152,-0.0183519013226032,-0.000294190569547936,-0.0032876294571906302,0,
00:00:01.156,-0.0146664623171091,-0.00258627557195723,0.0161394570022821,0,
00:00:01.16,0.0218421332538128,0.00999946892261505,-0.00920506473630667,0,
00:00:01.164,0.0202541258186102,-0.00363633059896529,-0.0148651618510485,0,
00:00:01.168,-0.0181780159473419,0.00121053226757795,-0.00666223093867302,0,
00:00:01.172,-0.020229808986187,0.00281107821501791,-0.00597500475123525,0,
00:00:01.176,0.00916438363492489,-0.000633290270343423,0.0103700635954738,0,
00:00:01.18,0.0038527054712176297,-0.00504862936213613,0.0269155446439981,0,
00:00:01.184,0.0066390335559845,-0.00298354588449001,-0.00512760132551193,0,
00:00:01.188,-0.00026827852707356204,0.00232133665122092,-0.00758389616385102,0,
00:00:01.192,-0.0005905790603719651,-0.0019199110101908398,-0.0113059682771564,0,
00:00:01.196,-0.000179868889972568,0.000501120230183005,0.00193454325199127,0,
00:00:01.2,-0.0107437670230865,0.00677173957228661,-0.00953377783298492,0,
00:00:01.204,-0.00134516565594822,-0.00546588934957981,0.0105760525912046,0,
00:00:01.208,0.00243885861709714,0.0018858780385926398,0.000709952844772488,0,
00:00:01.212,0.0136210443452001,0.0150109529495239,0.0282313693314791,0,
00:00:01.216,0.00716542080044746,-0.00903015956282616,-0.0190550219267607,0,
00:00:01.22,-0.014551380649209,-0.0190395954996347,-0.0171374343335629,0,
00:00:01.224,-0.0119098462164402,0.0015825222944840802,-0.0153771406039596,0,
00:00:01.228,0.0124446786940098,0.0147358169779181,0.0104990042746067,0,
00:00:01.232,-0.00226616603322327,0.00733452290296555,0.0119425319135189,0,
00:00:01.236,0.00447477912530303,-0.00421928148716688,0.0181846655905247,0,
00:00:01.24,-0.00233972002752125,-0.006678309291601179,0.0379481911659241,0,
00:00:01.244,-0.0019156584748998302,-0.0124893020838499,-0.0515865758061409,0,
00:00:01.248,0.00210911454632878,0.00320764072239399,-0.0259048361331224,0,
00:00:01.252,0.0054285996593534894,0.00829711556434631,-0.0034066000953316697,0,
00:00:01.256,-0.00225853244774044,0.0125741576775908,0.0078273257240653,0,
00:00:01.26,-0.00234327325597405,0.0042508207261562295,0.0233621206134558,0,
00:00:01.264,-0.0132766328752041,-0.0146092744544148,0.000971820030827075,0,
00:00:01.268,0.00162315007764846,-0.00825091172009707,0.0153543688356876,0,
00:00:01.272,0.00548370042815804,-0.000778414949309081,0.00331930024549365,0,
00:00:01.276,0.018921485170722,0.0057628378272056606,-0.0237961709499359,0,
00:00:01.28,-0.00983843021094799,-0.00167274195700884,-0.00560745457187295,0,
00:00:01.284,-0.00733400601893663,0.0009675335022620859,-0.00859915558248758,0,
00:00:01.288,0.00887705106288195,0.0117500815540552,0.0006422380101867019,0,
00:00:01.292,0.00281977816484869,0.0036129041109234103,0.009672018699347971,0,
00:00:01.296,-0.0108649348840117,-0.00911161303520203,0.0084877610206604,0,
00:00:01.3,-0.007082920055836441,-0.0100247096270323,0.0032831365242600398,0,
00:00:01.304,-0.0038392641581594896,-0.000397525174776092,-0.0138789527118206,0,
00:00:01.308,0.00876310095191002,0.00174091861117631,0.0124067347496748,0,
00:00:01.312,0.0105312364175916,0.0059574544429779105,0.0212904363870621,0,
00:00:01.316,-0.0111693916842341,0.00377850257791579,-0.029970919713377998,0,
00:00:01.32,0.0107537098228931,-0.0038937581703066796,-0.003962609916925429,0,
00:00:01.324,0.00817000400274992,0.0019516386091709102,-0.0167718529701233,0,
00:00:01.328,-0.00904521532356739,0.00711382552981377,0.00896230712532997,0,
00:00:01.332,-0.000857064384035766,-0.0029456636402756,0.0189578961580992,0,
00:00:01.336,-0.0133322551846504,-0.0108689125627279,0.0138769997283816,0,
00:00:01.34,-0.00482344860211015,-0.00945361703634262,-0.00349714793264866,0,
00:00:01.344,0.0193468704819679,0.00156346731819212,-0.0294476468116045,0,
00:00:01.348,-0.00539642060175538,0.0145735312253237,-0.00192650675307959,0,
00:00:01.352,0.00318925059400499,0.0106282150372863,0.0166654493659735,0,
00:00:01.356,-0.00511922314763069,-0.0026023609098047,0.025484025478363,0,
00:00:01.36,-0.0044480729848146395,-0.015784302726388002,-0.00933500379323959,0,
00:00:01.364,0.00559888361021876,-0.000384807848604396,-0.0216277949512005,0,
00:00:01.368,0.004856775514781479,0.0020137631800025697,-0.0176671054214239,0,
00:00:01.372,0.000981962657533586,0.00528080621734262,0.00336361723020673,0,
00:00:01.376,0.00841172412037849,0.00473409611731768,0.0216600485146046,0,
00:00:01.38,-0.0230307597666979,0.00159750645980239,0.00643998477607965,0,
00:00:01.384,-0.00441806670278311,-0.0140348067507148,-0.0113643892109394,0,
00:00:01.388,0.0190623458474875,0.000378593016648665,0.008350075222551821,0,
00:00:01.392,-0.009307544678449629,0.00649337936192751,0.0256912559270859,0,
00:00:01.396,0.0118265096098185,0.00556352362036705,-0.0181603450328112,0,
00:00:01.4,-0.00125705602113158,-0.00879768095910549,-0.032896064221859,0,
00:00:01.404,0.0011386766564101,0.00167224311735481,-0.00663123093545437,0,
00:00:01.408,-0.0139340739697218,-0.0017824317328631897,0.0128054618835449,0,
00:00:01.412,-0.00619544088840485,0.000183155614649877,0.0192476790398359,0,
00:00:01.416,0.0036504447925835796,0.00197338731959462,-0.0078484108671546,0,
00:00:01.42,0.00991148874163628,0.00416587525978684,0.00503312516957521,0,
00:00:01.424,0.023021275177598,0.00735260220244527,0.009077923372387891,0,
00:00:01.428,-0.0172448176890612,-0.00562213640660048,0.0068771154619753395,0,
00:00:01.432,-0.00610082503408194,-0.00960390456020832,0.00026328332023695095,0,
00:00:01.436,-0.015922524034976997,-0.008264974690973759,-0.028520280495285998,0,
00:00:01.44,-0.0005396605120040481,0.00369434058666229,-0.0132045717909932,0,
00:00:01.444,0.0236419402062893,0.0118640698492527,0.0019469087710604102,0,
00:00:01.448,0.000402873265556991,0.0019170193700119899,0.0225641913712025,0,
00:00:01.452,-0.016134349629283,0.0026609161868691397,0.00284589384682477,0,
00:00:01.456,0.00553573714569211,-0.0058899214491248105,0.00697305565699935,0,
00:00:01.46,-0.00118239165749401,-0.000421799981268123,-0.00884745735675097,0,
00:00:01.464,0.009993400424718859,-0.00479270657524467,-0.010952690616250002,0,
00:00:01.468,0.0104220909997821,0.000531066732946783,-0.00313484692014754,0,
00:00:01.472,-0.0111659253016114,0.0103605296462774,0.0245923027396202,0,
00:00:01.476,-0.0112589690834284,-0.00628369674086571,0.0279858857393265,0,
00:00:01.48,-0.00396197196096182,-0.0122247142717242,-0.0429484583437443,0,
00:00:01.484,0.0274212304502726,0.00287186028435826,-0.0264545138925314,0,
00:00:01.488,-0.0269037149846554,0.0117382127791643,0.00620747078210115,0,
00:00:01.492,-0.0117450067773461,-0.000361419923137873,0.0158459842205048,0,
00:00:01.496,0.00802983064204454,0.0022550141438841802,0.00805819593369961,0,
00:00:01.5,0.0196460019797087,-0.00251514301635325,0.0122682237997651,0,
00:00:01.504,0.011503360234201001,0.00132093520369381,-0.0154942125082016,0,
00:00:01.508,-0.0130939669907093,-0.00122874299995601,-0.00652388390153646,0,
00:00:01.512,-0.00463297823444009,0.00108839874155819,0.015408449806273,0,
00:00:01.516,0.0044335629791021295,-0.010748939588665999,-0.00337307201698422,0,
00:00:01.52,-0.00867583323270082,-0.00232445239089429,-0.000988667132332921,0,
00:00:01.524,-0.00292865210212767,0.00359457661397755,0.0129509940743446,0,
00:00:01.528,0.0161348413676023,0.0113936541602015,-0.0178341586142778,0,
00:00:01.532,-0.0270494967699051,-0.0023670718073844897,-0.00466770166531205,0,
00:00:01.536,0.0112876296043396,-0.0061085023917257794,-0.0183455348014832,0,
00:00:01.54,0.00914723612368107,-0.00386303174309433,0.0404654294252396,0,
00:00:01.544,-0.0066594798117876105,0.008288241922855379,0.00120604888070375,0,
00:00:01.548,0.0171935558319092,0.000942610728088766,-0.0297517646104097,0,
00:00:01.552,0.00126083195209503,0.0010536948684603,-0.0124808847904205,0,
00:00:01.556,-0.0209688637405634,-0.0008870846359059211,0.0144668389111757,0,
00:00:01.56,-0.001883928431198,-0.0020358650945127,0.0250315722078085,0,
00:00:01.564,0.00234689237549901,-0.00183610687963665,9.98995747067966e-05,0,
00:00:01.568,0.00623470870777965,-0.0008442867547273639,-0.0101016536355019,0,
00:00:01.572,0.009735807776451109,0.00017615225806366698,-0.0135743701830506,0,
00:00:01.576,-0.00606207828968763,0.00282304547727108,0.0124907605350018,0,
00:00:01.58,-0.011249097995459999,-0.00533944647759199,0.009457520209252829,0,
00:00:01.584,0.00322226830758154,0.0048700640909373795,-0.0149992862716317,0,
00:00:01.588,0.006763216108083729,-0.000837979954667389,0.0049331649206578706,0,
00:00:01.592,-8.44758251332678e-05,0.00344635383225977,-0.000105686907772906,0,
00:00:01.596,-0.00239957380108535,0.0006618289626203481,-0.007753277663141491,0,
00:00:01.6,-0.0144226485863328,-0.006288720760494471,-0.00570054026320577,0,
00:00:01.604,0.0154351368546486,-0.0029907010030001398,0.0018706213450059301,0,
00:00:01.608,0.0106471283361316,0.0034445826895535,-0.00417629256844521,0,
00:00:01.612,-0.0258906912058592,-0.000746720470488071,0.0136215649545193,0,
00:00:01.616,0.0119086802005768,0.0072205369360745,0.0191264655441046,0,
00:00:01.62,0.0119520602747798,0.000572789052966982,-0.014332833699882001,0,
00:00:01.624,0.00372294639237225,0.00136722647584975,0.00474367989227176,0,
00:00:01.628,-0.0141146155074239,-0.0008094883523881441,-0.012986846268177,0,
00:00:01.632,-0.00307619222439826,-0.00883048307150602,0.00282229715958238,0,
00:00:01.636,-0.00179961149115115,-0.0114515060558915,0.00831403024494648,0,
00:00:01.64,0.00912731047719717,0.00237213517539203,-0.0134841874241829,0,
00:00:01.644,-0.007598396856337791,0.00876866187900305,-0.0120300715789199,0,
00:00:01.648,-0.000165602163178846,0.0120227467268705,0.00840201415121555,0,
00:00:01.652,-0.00595119222998619,-0.000613346055615693,0.0173431951552629,0,
00:00:01.656,0.00795256998389959,-0.00232065096497536,0.00203490001149476,0,
00:00:01.66,0.00736401602625847,-0.00367466267198324,-0.0133886281400919,0,
00:00:01.664,0.00203017820604146,-0.00324030965566635,0.0061999368481338,0,
00:00:01.668,-0.0023982657585293102,-0.0016044971998781,-0.00277249165810645,0,
00:00:01.672,-0.00393704837188125,0.00218747369945049,-0.019538750872016,0,
00:00:01.676,-0.00510452454909682,-0.00291863549500704,0.0111371790990233,0,
00:00:01.68,0.007105961907655,-0.00045721328933723303,0.0350560173392296,0,
00:00:01.684,-0.00579258054494858,0.006361796520650389,-0.0113694863393903,0,
00:00:01.688,0.0047837751917541,0.000922956329304725,-0.00599129917100072,0,
00:00:01.692,-0.0023610086645931,0.0005789986462332309,-0.0214157700538635,0,
00:00:01.696,-0.014963474124670001,-0.00377905927598476,-0.0152087118476629,0,
00:00:01.7,0.00933985505253077,-0.000619845639448613,0.0217053610831499,0,
00:00:01.704,0.0110014686360955,-0.00643265526741743,0.0108375651761889,0,
00:00:01.708,0.0043151187710464,0.00568967359140515,-0.00817485153675079,0,
00:00:01.712,-0.00214500213041902,0.00275710923597217,0.005113618914037939,0,
00:00:01.716,-0.0070390054024756,-0.0035557164810597897,0.0103948060423136,0,
00:00:01.72,-0.00231304904446006,0.0012404887238517401,-0.00217629177495837,0,
00:00:01.724,-0.00439915154129267,0.0063463714905083205,-0.0392831414937973,0,
00:00:01.728,0.0232362765818834,0.00341840879991651,0.0161077976226807,0,
00:00:01.732,-0.0240631923079491,-0.0053233583457768,0.0400012545287609,0,
00:00:01.736,-0.0038903378881514103,-0.0103222308680415,-0.00101245124824345,0,
00:00:01.74,0.00529185496270657,0.00295416475273669,-0.024758942425250997,0,
00:00:01.744,0.000268763018539175,0.00176526652649045,-0.0175981000065804,0,
00:00:01.748,0.024141252040863,-0.00297317863442004,-0.000658329692669213,0,
00:00:01.752,-0.0128163006156683,-0.00151923182420433,0.00559700326994061,0,
00:00:01.756,-0.01515634637326,0.0012804000871256,0.00631975289434195,0,
00:00:01.76,0.00518504716455936,0.0132409790530801,0.0065148761495947794,0,
00:00:01.764,0.0191015042364597,0.00528531707823277,0.00201985845342278,0,
00:00:01.768,-0.0200334116816521,-0.00197984068654478,0.00257361261174083,0,
00:00:01.772,-0.0161941554397345,-0.0119013693183661,-0.0149408616125584,0,
00:00:01.776,0.0200640168040991,-0.00796150136739016,0.0297268871217966,0,
00:00:01.78,0.0112193571403623,-0.00286094844341278,0.0071267941966652905,0,
00:00:01.784,-0.0011713100830093,0.00805474538356066,-0.0210445895791054,0,
00:00:01.788,-0.0031558279879391198,0.00672743888571858,-0.0413856357336044,0,
00:00:01.792,-0.00024643004871904904,0.0019067523535341,-0.00906441081315279,0,
00:00:01.796,-0.009540960192680359,-0.0101087521761656,0.0464787296950817,0,
00:00:01.8,-0.000646991713438183,0.004893975798040629,0.0117143681272864,0,
00:00:01.804,-0.00221216515637934,0.00226385775022209,0.0010983053361997,0,
00:00:01.808,0.0016821327153593302,-0.00215805554762483,-0.0108260866254568,0,
00:00:01.812,0.00619435496628284,-0.0013539409264922099,-0.0066230460070073605,0,
00:00:01.816,0.00171732762828469,0.00232816115021706,-0.0067651616409421,0,
00:00:01.82,-0.00213188189081848,-0.000951332855038345,0.0104829194024205,0,
00:00:01.824,0.0137015618383884,0.0012912373058497901,-0.00926323141902685,0,
00:00:01.828,-0.00691911019384861,0.00847283005714417,0.00919124484062195,0,
00:00:01.832,-0.0267721619457006,-0.0109827741980553,-0.0131405545398593,0,
00:00:01.836,0.012496312148869001,-0.00790569093078375,0.0097997272387147,0,
00:00:01.84,0.0220207925885916,0.00426605017855763,0.0319293886423111,0,
00:00:01.844,-0.0103994263336062,0.00528695434331894,-0.018107283860445,0,
00:00:01.848,-0.0111926849931479,0.000308890710584819,-0.0179991684854031,0,
00:00:01.852,-0.00271955691277981,-0.00264997151680291,-0.0171913113445044,0,
00:00:01.856,0.0164618398994207,0.00380520964972675,0.008624585345387459,0,
00:00:01.86,-0.0143261691555381,-0.00023392924049403502,0.0147968009114265,0,
00:00:01.864,-0.0084243668243289,-0.0012985592475161,-0.0174137726426125,0,
00:00:01.868,0.00991313997656107,-0.00720593659207225,0.0104383416473866,0,
00:00:01.872,0.0369752906262875,0.0118563156574965,0.0161532666534185,0,
00:00:01.876,0.000882543041370809,0.00128470850177109,0.0335776545107365,0,
00:00:01.88,-0.0304418671876192,-0.00599040137603879,-0.0190108586102724,0,
00:00:01.884,-0.0259779449552298,-0.0106384670361876,-0.0459287837147713,0,
00:00:01.888,0.0028274683281779302,0.00736723188310862,-0.0120873553678393,0,
00:00:01.892,0.00686885043978691,0.00699489749968052,0.0156255550682545,0,
00:00:01.896,0.009151190519332891,-0.000548351847101003,0.0249880310148001,0,
00:00:01.9,0.0158789828419685,-0.00268948567099869,0.00654205959290266,0,
00:00:01.904,0.00821935664862394,-0.0020719969179481303,-0.00842524692416191,0,
00:00:01.908,-0.00822921097278595,-0.000640957325231284,-0.0118132531642914,0,
00:00:01.912,-0.00209363223984838,0.000471086648758501,0.00767807802185416,0,
00:00:01.916,-0.00970130413770676,0.000878417631611228,0.00512214517220855,0,
00:00:01.92,-0.0131583781912923,0.0027788172010332303,-0.00347979832440615,0,
00:00:01.924,0.00073855509981513,-0.0079274233430624,-0.0089986827224493,0,
00:00:01.928,0.0122054275125265,2.65953967755195e-05,-0.0111028775572777,0,
00:00:01.932,0.0021684302482754,0.0125621212646365,0.0194942653179169,0,
00:00:01.936,0.00503039825707674,0.00458409357815981,0.01435855217278,0,
00:00:01.94,0.0157632231712341,-0.00853044353425503,-0.0119188781827688,0,
00:00:01.944,-0.0142502030357718,-0.00571213196963072,-0.0113112377002835,0,
00:00:01.948,-0.0275869406759739,-0.00443576416000724,-0.0174595378339291,0,
00:00:01.952,0.00631760014221072,0.00245924852788448,0.0215952359139919,0,
00:00:01.956,0.0152362724766135,0.00155801384244114,0.033823162317276,0,
00:00:01.96,-0.0022101907525211603,-0.00198074313811958,-0.017950426787138003,0,
00:00:01.964,0.00504743726924062,0.00596034713089466,-0.019670907407999,0,
00:00:01.968,0.00889316853135824,0.00222200714051723,-0.0126729439944029,0,
00:00:01.972,-0.0134972622618079,0.000122012737847399,0.00630186777561903,0,
00:00:01.976,-0.00034685866557993,0.00523346941918135,0.0128430835902691,0,
00:00:01.98,-0.000694417569320649,-0.00308124371804297,0.00737547781318426,0,
00:00:01.984,-6.0779479099437594e-05,-0.00784454215317965,-0.00609826017171144,0,
00:00:01.988,0.0026604009326547397,-0.00423914147540927,-0.00855346769094467,0,
00:00:01.992,-0.00531507050618529,0.000588714668992907,0.0164725109934807,0,
00:00:01.996,0.000862871936988086,0.00120558647904545,-0.0102171450853348,0,
00:00:02,0.009494772180914879,0.00740445218980312,0.0113436002284288,0,
00:00:02.004,0.0008960916893556711,0.00151097855996341,-0.00412857253104448,0,
00:00:02.008,-0.008049408905208109,-0.00552499713376164,-0.0166792664676905,0,
00:00:02.012,-0.00459597213193774,-0.000162368130986579,0.000265548762399703,0,
00:00:02.016,0.0048617799766361705,0.007974714040756229,0.00578168965876102,0,
00:00:02.02,0.00162856455426663,-0.0024179937317967398,-0.00945589225739241,0,
00:00:02.024,0.000148585240822285,-0.00243398919701576,0.0242805778980255,0,
00:00:02.028,-0.00036163337063044304,-0.00672590872272849,-0.005163059104233979,0,
00:00:02.032,0.0016954013844952,-0.0018575827125459899,0.00504512712359428,0,
00:00:02.036,-0.008413968607783321,0.00699657248333097,-0.00765602244064212,0,
00:00:02.04,0.00840070005506277,0.00243200268596411,-0.00315075018443167,0,
00:00:02.044,0.000866370217408985,0.00398242054507136,-0.008483643643558029,0,
00:00:02.048,-0.0122011797502637,-0.009284671396017071,-0.00992645137012005,0,
00:00:02.052,0.0143049778416753,-0.0046140584163367705,0.0166682172566652,0,
00:00:02.056,0.00775449816137552,0.0104447202757001,0.008838402107357979,0,
00:00:02.06,-0.0118200862780213,0.00549767259508371,-0.004714007489383221,0,
00:00:02.064,-0.00701286224648356,-0.00621158350259066,0.009172210469841959,0,
00:00:02.068,0.00536135444417596,-0.009917802177369591,0.0280395802110434,0,
00:00:02.072,-0.000901724793948233,0.00235417997464538,-0.0494163632392883,0,
00:00:02.076,-0.0135764433071017,0.00297416863031685,-0.0267502311617136,0,
00:00:02.08,0.0101059628650546,0.00519313709810376,0.0112836454063654,0,
00:00:02.084,0.0131576722487807,0.004156243056058879,0.0362512841820717,0,
00:00:02.088,-8.91415402293205e-05,-0.00526124984025955,-0.0024639775510877397,0,
00:00:02.092,-0.00226646452210844,-0.00022988949785940298,-0.00549275288358331,0,
00:00:02.096,-0.00381722557358444,-0.00481887441128492,0.00355917005799711,0,
00:00:02.1,-0.00129564362578094,0.00249477871693671,0.00655399076640606,0,
00:00:02.104,-0.00776401301845908,-3.1902589398669106e-05,-0.0178611576557159,0,
00:00:02.108,0.00040047179209068396,-9.72856432781555e-05,-0.0223160497844219,0,
00:00:02.112,0.00838152505457401,0.00244604609906673,0.0312835946679115,0,
00:00:02.116,0.006375267170369629,0.000684611964970827,0.0114645818248391,0,
00:00:02.12,-0.00726953148841858,-0.00732621643692255,0.000576033256947994,0,
00:00:02.124,0.0006303577101789411,0.00434082094579935,-0.0278074909001589,0,
00:00:02.128,-0.00011729940160876101,-0.000234971914323978,0.000799526984337717,0,
00:00:02.132,-0.0162318516522646,0.00023180713469628199,0.0268848743289709,0,
00:00:02.136,0.012008648365736,0.0052687544375658,-0.00352351926267147,0,
00:00:02.14,0.00865210592746735,-0.00284458277747035,-0.025461308658123,0,
00:00:02.144,-0.0108520928770304,-0.000787969620432705,-0.0164316110312939,0,
00:00:02.148,0.0107328109443188,0.0014896591892465901,0.017317583784461004,0,
00:00:02.152,0.0035693340469151705,-0.00256838742643595,0.0151420934125781,0,
00:00:02.156,-0.00963187962770462,5.645268902298989e-05,0.0124513013288379,0,
00:00:02.16,0.00012918836728203998,-0.0021877340041101,-0.00120006978977472,0,
00:00:02.164,-0.00344960577785969,-0.00679108593612909,-0.0033687776885926697,0,
00:00:02.168,0.00544732576236129,0.00503134820610285,-0.00939652137458324,0,
00:00:02.172,0.000199105532374233,0.0107158105820417,0.000984440441243351,0,
00:00:02.176,-0.00403796229511499,0.00558223249390721,-0.0142916394397616,0,
00:00:02.18,-0.0059973793104291,-0.00347062665969133,-0.000632623210549355,0,
00:00:02.184,0.007045220118016,-0.00966854300349951,0.0062760817818343605,0,
00:00:02.188,-0.00054198014549911,-0.0125319287180901,0.000633288582321256,0,
00:00:02.192,0.00666251685470343,0.00321687455289066,0.007731210440397259,0,
00:00:02.196,0.00226585916243494,0.00803205743432045,0.0155125949531794,0,
00:00:02.2,-0.006905560381710529,0.0040714903734624395,-0.0077036004513502095,0,
00:00:02.204,-0.004731034860014921,0.00186547660268843,-0.015551496297121001,0,
00:00:02.208,0.00599888898432255,0.00425920356065035,-0.0044718231074512,0,
00:00:02.212,-0.00545771047472954,-0.00296214665286243,0.0031090301927179102,0,
00:00:02.216,-0.0042628375813365,0.00154175970237702,-0.000700596778187901,0,
00:00:02.22,0.008712495677173141,-0.009057103656232359,0.0391305722296238,0,
00:00:02.224,0.0164860375225544,-0.0159675553441048,-0.0213980749249458,0,
00:00:02.228,-0.0139542929828167,0.0146306967362761,-0.0192977599799633,0,
00:00:02.232,0.00032518568332307003,0.008497221395373341,-0.0150763429701328,0,
00:00:02.236,-0.0179270654916763,-8.415136835537851e-05,0.009749720804393291,0,
00:00:02.24,0.00563613465055823,-0.000196394437807612,0.0126234674826264,0,
00:00:02.244,0.0072149741463363205,-0.00175265863072127,-0.00135424116160721,0,
00:00:02.248,0.0027835697401315,-0.000261624431004748,0.0147267933934927,0,
00:00:02.252,0.00333556043915451,-0.0016020342009142,0.0246475301682949,0,
00:00:02.256,0.00245736096985638,-0.00829679239541292,-0.0229489803314209,0,
00:00:02.26,-0.00818495824933052,0.000512041675392538,-0.0267326086759567,0,
00:00:02.264,0.0017091730842366802,0.0088833924382925,-0.0179794374853373,0,
00:00:02.268,-0.000698289775755256,0.00474550155922771,-0.00256771920248866,0,
00:00:02.272,0.00530010974034667,-0.005147475749254229,0.0556270033121109,0,
00:00:02.276,-0.0165787544101477,0.0021294960752129602,0.0188690666109324,0,
00:00:02.28,0.00324999820441008,0.0018554354319348899,-0.0343823432922363,0,
00:00:02.284,0.0144456252455711,-0.0110012330114841,-0.00527242664247751,0,
00:00:02.288,0.00785896368324757,-0.00907770078629255,-0.0168400499969721,0,
00:00:02.292,-0.0161603558808565,0.00906589161604643,-0.0105798318982124,0,
00:00:02.296,0.00066159525886178,0.00983133725821972,0.018049344420433,0,
00:00:02.3,0.0021535987034439997,0.0040142657235264795,0.0252938978374004,0,
00:00:02.304,-0.014638040214777,-0.00159553985577077,-0.0144768431782722,0,
00:00:02.308,0.00190718984231353,-1.1524340152391199e-05,-0.010905827395617998,0,
00:00:02.312,0.0200100746005774,-0.007693319115787741,0.0175864510238171,0,
00:00:02.316,0.0049811275675892795,-0.007135847583413121,0.004088176880031821,0,
00:00:02.32,-0.00870068557560444,0.00182927562855184,-0.00573375029489398,0,
00:00:02.324,0.0070909536443650705,0.00256861816160381,-0.0123812202364206,0,
00:00:02.328,-0.00347589398734272,0.0035494395997375298,-0.0035394346341490702,0,
00:00:02.332,-0.0234921462833881,0.00698654260486364,0.00014984548033680802,0,
00:00:02.336,-0.005964464973658321,0.00123968138359487,0.0144995246082544,0,
00:00:02.34,0.00871447939425707,-0.00788937136530876,-0.00285095605067909,0,
00:00:02.344,0.0192155949771404,-0.00306571903638542,-0.011203782632946998,0,
00:00:02.348,0.0134344333782792,-2.40804706663766e-06,0.00192947464529425,0,
00:00:02.352,-0.0127227008342743,0.00345682259649038,0.00591682409867644,0,
00:00:02.356,-0.00993180274963379,-0.00257761008106172,0.00432700198143721,0,
00:00:02.36,0.000690648623276502,0.00120980164501816,0.0134055875241756,0,
00:00:02.364,-0.00654729176312685,-0.00044826918747276106,-0.021801145747304,0,
00:00:02.368,0.0248879864811897,0.00476045021787286,-0.0023919125087559197,0,
00:00:02.372,-0.0160680636763573,0.00148401712067425,0.0285665057599545,0,
00:00:02.376,-0.0154651515185833,0.00206519290804863,-0.0264789871871471,0,
00:00:02.38,0.009947581216692921,-0.0154769159853458,-0.0269739124923944,0,
00:00:02.384,0.00394958816468716,-0.00175970618147403,0.0327881835401058,0,
00:00:02.388,-0.00360945728607476,0.007639043964445591,-0.00519821606576443,0,
00:00:02.392,0.0013792987447232,0.008582856506109241,0.0047545894049108,0,
00:00:02.396,0.0257840678095818,2.1184951037867e-05,0.00908019207417965,0,
00:00:02.4,-0.00496318377554417,-0.0054040141403675105,-0.00476931827142835,0,
00:00:02.404,-0.00835783686488867,0.000828421674668789,0.000745048862881958,0,
00:00:02.408,-0.025350209325552,-0.00191832927521318,-0.00812052469700575,0,
00:00:02.412,-0.00852429866790771,-0.0034590384457260396,0.00820304546505213,0,
00:00:02.416,0.0212667938321829,0.00403480930253863,-0.0106210522353649,0,
00:00:02.42,0.00939157512038946,0.000570946023799479,-0.00802803691476583,0,
00:00:02.424,0.00164651731029153,-0.000412494351621717,0.0189079418778419,0,
00:00:02.428,0.00176214647945017,0.00171597336884588,0.00883807800710201,0,
00:00:02.432,-0.0073297219350934,-0.00203719781711698,-0.0257549341768026,0,
00:00:02.436,-0.009904931299388409,-0.00773137668147683,-0.0012881555594503901,0,
00:00:02.44,-0.0014759153127670301,0.0079941526055336,0.00978205353021622,0,
00:00:02.444,0.0134039558470249,0.005961196962744,-0.00305703934282064,0,
00:00:02.448,0.0109354043379426,-0.00206637009978294,0.009241752326488491,0,
00:00:02.452,-0.0145923933014274,-0.0037874111440032703,-0.000827812997158617,0,
00:00:02.456,-0.0102885980159044,-0.000340699829393998,0.000436506496043876,0,
00:00:02.46,0.0063648656941950295,-0.00442719319835305,0.0391133837401867,0,
00:00:02.464,0.00667481822893023,0.00339799397625029,-0.0533231049776077,0,
00:00:02.468,-0.0145576298236847,-0.00333549245260656,-0.0272069945931435,0,
00:00:02.472,0.0181918535381556,0.00424786703661084,0.0149036245420575,0,
00:00:02.476,0.0186419356614351,0.00563159491866827,0.0524473749101162,0,
00:00:02.48,-0.0262708868831396,0.00273057748563588,0.00344404298812151,0,
00:00:02.484,-0.0138747747987509,-0.0113948695361614,-0.0493888817727566,0,
00:00:02.488,0.0134729892015457,0.00038605078589171204,-0.0165422242134809,0,
00:00:02.492,-0.000994511414319277,0.00033905345480889104,0.0258820429444313,0,
00:00:02.496,-0.0010358429281041,0.00108702585566789,0.0277802851051092,0,
00:00:02.5,0.00169980840291828,-0.000746819307096303,-0.0117343729361892,0,
00:00:02.504,0.00076162168988958,0.0049857241101563,-0.0195600483566523,0,
00:00:02.508,0.0102045722305775,-0.00213636085391045,0.00610107742249966,0,
00:00:02.512,-0.00394270988181233,0.000244232040131465,0.027380146086216,0,
00:00:02.516,0.00048636810970492694,0.000131254462758079,-0.0208053980022669,0,
00:00:02.52,-0.0108430646359921,-0.000433280045399442,-0.013044330291450001,0,
00:00:02.524,0.0036013554781675295,-0.0006568569224327799,0.0010823745978996199,0,
00:00:02.528,0.00126219319645315,0.00159882474690676,0.012584918178618001,0,
00:00:02.532,-0.00429242849349976,0.0020527350716292897,0.014242866076529,0,
00:00:02.536,-0.00479583162814379,-0.0095756771042943,-0.0142727084457874,0,
00:00:02.54,0.0152015779167414,-0.0013001880142837802,-0.0167031157761812,0,
00:00:02.544,0.00323447701521218,0.00598975503817201,-0.0025918725878000303,0,
00:00:02.548,-0.0100293243303895,0.0069013535976409895,0.016562893986702,0,
00:00:02.552,0.000555070349946618,-0.000803094124421477,0.00467769801616669,0,
00:00:02.556,-0.0047714603133499605,-0.00742225535213947,0.0020815434399992197,0,
00:00:02.56,0.00376416021026671,0.0012654768070206,-0.00142962229438126,0,
00:00:02.564,0.00995035283267498,0.004346352536231279,-0.0073589640669524704,0,
00:00:02.568,-0.0152663569897413,-0.0012051879893988401,-0.00520094716921449,0,
00:00:02.572,0.0100216502323747,-0.000203103889361955,0.0243409276008606,0,
00:00:02.576,0.00196526641957462,0.000886222696863115,-0.012555786408483998,0,
00:00:02.58,-0.0152326915413141,-0.00970481056720018,-0.034210566431284,0,
00:00:02.584,0.0186208374798298,0.0033976251725107397,0.0267487820237875,0,
00:00:02.588,-0.00208450970239937,0.000644661718979478,0.0362704806029797,0,
00:00:02.592,-0.0133789088577032,0.00188315310515463,-0.0270687509328127,0,
00:00:02.596,0.0013125903205946099,0.0045307073742151295,-0.0137845641002059,0,
00:00:02.6,-0.0058141415938735,-0.000358018645783886,-0.0178733933717012,0,
00:00:02.604,0.0066158263944089395,0.00476528936997056,0.0188667047768831,0,
00:00:02.608,0.0166700966656208,-0.00496439961716533,0.0103739853948355,0,
00:00:02.612,0.00893683079630136,-0.00736774876713753,-0.0028345268219709396,0,
00:00:02.616,-0.0168333910405636,0.00405433820560575,0.0067332177422940705,0,
00:00:02.62,-0.0159354079514742,-0.0054707210510969205,-0.000263838097453117,0,
00:00:02.624,0.00315889343619347,-0.0030267268884927,-0.0102981505915523,0,
00:00:02.628,0.0069418819621205295,0.012169991619885,0.0016390843084082,0,
00:00:02.632,0.00230140285566449,0.00908290408551693,0.00877672713249922,0,
00:00:02.636,0.000650313391815871,-0.00545698590576649,-0.00136670051142573,0,
00:00:02.64,-0.00204251101240516,-0.0055312961339950605,-0.0121742812916636,0,
00:00:02.644,-0.00241922959685326,-0.00615430530160666,-0.0116175813600421,0,
00:00:02.648,0.009391010738909241,-0.0037332347128540295,0.0130061749368906,0,
00:00:02.652,0.00125062698498368,-0.0040731150656938605,0.0158596243709326,0,
00:00:02.656,-0.00805527530610561,0.0152032598853111,-0.0051820953376591206,0,
00:00:02.66,0.00131737592164427,0.0157756600528955,0.000942274637054652,0,
00:00:02.664,-0.00763283669948578,-0.0108364187180996,-0.0131172565743327,0,
00:00:02.668,0.00038051707088016,-0.0139113022014499,-0.0119142979383469,0,
00:00:02.672,0.0003227514680475,0.0038798321038484604,0.024007223546505002,0,
00:00:02.676,0.0166481621563435,0.00433084880933166,0.0046862568706274,0,
00:00:02.68,0.00782526284456253,-0.00358078349381685,-0.0131508726626635,0,
00:00:02.684,-0.0123549113050103,-0.00836798921227455,0.0034658529330045,0,
00:00:02.688,-0.0246607288718224,0.006862279959023001,-0.0076138665899634405,0,
00:00:02.692,0.007307441905140879,0.007414645515382291,0.008629174903035159,0,
00:00:02.696,0.0102510740980506,0.00477646430954337,0.0112332496792078,0,
00:00:02.7,0.008552888408303259,-0.00570399733260274,-0.0179787594825029,0,
00:00:02.704,-0.00485029025003314,-0.007280258461833,-0.00201948988251388,0,
00:00:02.708,0.00628006272017956,0.004580967128276829,-0.0007346812053583559,0,
00:00:02.712,-0.00814876053482294,-0.000981717486865819,0.0011985064484179,0,
00:00:02.716,-0.0103461435064673,0.00328865530900657,0.000443906057626009,0,
00:00:02.72,0.00559508427977562,-0.00144287955481559,0.0336812473833561,0,
00:00:02.724,0.00670720357447863,-0.004156606271862979,-0.0221248958259821,0,
00:00:02.728,0.008866533637046809,-0.00107866781763732,-0.007527221459895371,0,
00:00:02.732,-0.0133602237328887,0.00595980137586594,-0.0127234803512692,0,
00:00:02.736,0.008556889370083809,0.00282928720116615,-0.00280906190164387,0,
00:00:02.74,-0.0037056186702102397,-0.00547782797366381,0.0209310203790665,0,
00:00:02.744,-0.0183654148131609,-0.00124756945297122,0.0204024985432625,0,
00:00:02.748,0.00879656802862883,-0.0034922529011964802,-0.0284172650426626,0,
00:00:02.752,0.00422642473131418,0.0070918477140367,-0.000160008523380384,0,
00:00:02.756,-0.000668084423523396,0.00617360370233655,0.00709643494337797,0,
00:00:02.76,0.00637582875788212,-0.0050596627406776,0.00444004125893116,0,
00:00:02.764,0.0143634900450706,-0.00534693570807576,-0.0065856860019266605,0,
00:00:02.768,-0.00415788218379021,-0.0060403267852962,-0.018169866874814,0,
00:00:02.772,-0.0174401011317968,0.00515778735280037,0.0065108798444271105,0,
00:00:02.776,-0.0135157313197851,0.00986965745687485,0.0286096055060625,0,
00:00:02.78,0.00344224344007671,-0.00575936678797007,-0.00825309660285711,0,
00:00:02.784,0.00431537581607699,-0.00231061992235482,-0.008141092024743559,0,
00:00:02.788,0.0315850339829922,0.00253879209049046,-0.00900871306657791,0,
00:00:02.792,0.0134808039292693,0.0015743334079161302,-0.00330524216406047,0,
00:00:02.796,-0.0400902926921844,0.0016509813722223,0.00453853467479348,0,
00:00:02.8,-0.0143036246299744,-0.00345434597693384,0.0239379666745663,0,
00:00:02.804,0.0031840973533690006,-0.00299176806584001,-0.0126189747825265,0,
00:00:02.808,-0.00027691130526363904,-0.00283323274925351,-0.009904826059937479,0,
00:00:02.812,0.0250197816640139,0.00301373470574617,0.0210848394781351,0,
00:00:02.816,0.0063165640458464605,0.00327817862853408,-0.0325485318899155,0,
00:00:02.82,-0.00679306872189045,-0.0027343055699020602,0.00672519346699119,0,
00:00:02.824,0.00651897676289082,0.00562296854332089,0.0105697540566325,0,
00:00:02.828,-0.0160788521170616,0.0062675136141479,-0.0065243961289525,0,
00:00:02.832,-0.0241042021661997,-0.0166953038424253,0.0203076917678118,0,
00:00:02.836,0.00699190050363541,-0.00569404289126396,0.0174079574644566,0,
00:00:02.84,0.0411262288689613,0.0170217007398605,-0.02899862639606,0,
00:00:02.844,-0.00972681771963835,0.00655662966892123,-0.0248949639499187,0,
00:00:02.848,-0.0309792086482048,-0.00979765597730875,-0.00324515136890113,0,
00:00:02.852,0.00854874961078167,-0.0076982220634818094,0.014221859164536001,0,
00:00:02.856,0.0200264975428581,-0.0010624158894643198,0.025675943121313997,0,
00:00:02.86,0.00647023553028703,0.0034727680031210197,-0.0039967927150428295,0,
00:00:02.864,-0.0107868928462267,0.0147160086780787,-0.006557481363415721,0,
00:00:02.868,-0.0194687768816948,-0.00513038504868746,-0.0044601745903492,0,
00:00:02.872,-0.00513245351612568,-0.0160736385732889,0.0109634604305029,0,
00:00:02.876,0.0222792625427246,0.00211146683432162,-0.009220613166689871,0,
00:00:02.88,0.00806440599262714,0.0155226038768888,-0.0167967695742846,0,
00:00:02.884,-0.0155878141522408,-0.00267555029131472,-0.00410689506679773,0,
00:00:02.888,0.00661338213831186,0.00083548913244158,0.0325472727417946,0,
00:00:02.892,-0.00418632011860609,-0.00640268996357918,0.0124866887927055,0,
00:00:02.896,-0.00287742842920125,-0.00633683614432812,-0.0125354444608092,0,
00:00:02.9,0.0131949447095394,-0.00225770194083452,-0.0288955979049206,0,
00:00:02.904,-0.0174854937940836,0.00815402995795012,-0.0057084006257355204,0,
00:00:02.908,-0.00369777786545455,0.00636689504608512,0.0134677123278379,0,
00:00:02.912,0.00834803842008114,0.00124342238996178,0.00468776933848858,0,
00:00:02.916,0.0188706256449223,-0.0066536613740027,0.0028182938694953897,0,
00:00:02.92,0.008157951757311821,0.00251900125294924,0.0208831578493118,0,
00:00:02.924,-0.0214050784707069,-0.00113298569340259,-0.00618643686175346,0,
00:00:02.928,-0.0057655768468976,-0.0019511887803673699,-0.0142584517598152,0,
00:00:02.932,-0.0100040007382631,-0.00113874231465161,-0.0018441469874233,0,
00:00:02.936,-0.0110893845558167,4.2880306864390204e-05,0.00451414752751589,0,
00:00:02.94,0.0126992240548134,0.000807659351266921,-0.00807736907154322,0,
00:00:02.944,0.0269143041223288,0.0009413654333911839,0.00256003299728036,0,
00:00:02.948,0.00362463132478297,0.000624254462309182,-0.009316849522292609,0,
00:00:02.952,-0.0120670450851321,-0.00190455524716526,0.0128772770985961,0,
00:00:02.956,0.00667473720386624,0.0038823045324534204,0.00924005638808012,0,
00:00:02.96,-0.0187809076160192,-0.000629921851214021,-0.004113761708140371,0,
00:00:02.964,-0.00463712867349386,-0.00586154498159885,-0.0182938277721405,0,
00:00:02.968,0.00076661619823426,0.00489656534045935,0.0296080633997917,0,
00:00:02.972,0.0028401815798133603,0.0011396899353712802,-0.0118064070120454,0,
00:00:02.976,0.00117489916738123,-0.00288412859663367,-0.0136083764955401,0,
00:00:02.98,0.0149923441931605,0.00282356212846935,-0.00131277984473854,0,
00:00:02.984,0.0140614146366715,0.0030395535286516,0.0133895659819245,0,
00:00:02.988,-0.0356281027197838,-0.0076082632876932595,0.0020698979496955898,0,
00:00:02.992,-0.00219566654413939,-0.00406342325732112,-0.021731736138463003,0,
00:00:02.996,0.0224068146198988,-0.000607365218456835,0.00176173215731978,0,
00:00:03,-0.00054431619355455,0.010265470482409,0.0248083304613829,0,
00:00:03.004,-0.022803733125329,0.00128683284856379,0.00953838042914867,0,
00:00:03.008,0.0426890999078751,0.00039523144369013597,-0.00323113682679832,0,
00:00:03.012,0.0139751704409719,-0.00175150623545051,-0.0070830336771905405,0,
00:00:03.016,-0.0615410469472408,-0.000509043398778886,-0.0230433773249388,0,
00:00:03.02,-0.0261366311460733,-0.00805592909455299,-0.004728221334517,0,
00:00:03.024,0.0153019586578012,0.00377113069407642,0.00272976793348789,0,
00:00:03.028,0.0149596314877272,0.00163660466205329,0.013808892108499999,0,
00:00:03.032,0.0357808880507946,0.000549447548110038,0.010138557292521,0,
00:00:03.036,0.0237914752215147,4.6924742491683005e-05,0.0063963648863136794,0,
00:00:03.04,-0.0199310295283794,0.00194389570970088,0.000722844968549907,0,
00:00:03.044,-0.0212548766285181,-0.00419327849522233,-0.0270191933959723,0,
00:00:03.048,-0.0219868700951338,-0.00182646664325148,-0.0052646500989794705,0,
00:00:03.052,0.0127454614266753,0.00342081882990897,0.024172330275177997,0,
00:00:03.056,-0.00137357122730464,0.00268262578174472,0.000610714661888778,0,
00:00:03.06,-0.00332853733561933,-0.00375804491341114,-0.0147697161883116,0,
00:00:03.064,0.0148068116977811,0.00480877375230193,0.00275809317827225,0,
00:00:03.068,0.00464666401967406,0.0018140800530090898,0.00316199637018144,0,
00:00:03.072,0.000581520784180611,-0.006358693353831771,0.00429082335904241,0,
00:00:03.076,-0.00572212878614664,-0.00172992411535233,0.0029169514309614897,0,
00:00:03.08,-0.0131820328533649,-0.00142493052408099,-0.0101957246661186,0,
00:00:03.084,0.00621363334357738,-0.00079528713831678,0.00159302761312574,0,
00:00:03.088,0.0220737606287003,0.0108580105006695,0.000925230735447258,0,
00:00:03.092,-0.00692575797438622,0.00206131814047694,0.000978473108261824,0,
00:00:03.096,-0.0274864118546247,-0.00375568377785385,-0.0033380887471139396,0,
00:00:03.1,0.00819417275488377,-0.007040724623948341,0.00432898476719856,0,
00:00:03.104,0.000961464596912265,-0.0114735132083297,0.00320459669455886,0,
00:00:03.108,0.0077986684627831,0.0111645450815558,0.00207785726524889,0,
00:00:03.112,0.0055528017692267895,0.00992583949118853,0.000105044979136437,0,
00:00:03.116,-0.0033158715814352,2.2250893380260102e-05,-0.0245080143213272,0,
00:00:03.12,0.00971389841288328,-0.0017619233112782199,0.0089300898835063,0,
00:00:03.124,0.00233768788166344,-0.00565699720755219,0.0217238422483206,0,
00:00:03.128,-0.0371858812868595,-0.0034049719106406,0.0150891551747918,0,
00:00:03.132,0.00436414405703545,-1.3059661796432901e-05,-0.0300243217498064,0,
00:00:03.136,0.0364622883498669,-2.55527957051527e-05,-0.011197580024600001,0,
00:00:03.14,-0.0146467015147209,0.000128221901832148,0.00809457059949636,0,
00:00:03.144,-0.0120427496731281,0.00697520282119513,0.00549789890646935,0,
00:00:03.148,0.0219595395028591,0.00573042035102844,-0.0126059679314494,0,
00:00:03.152,-0.0113729685544968,-0.00100497424136847,0.007148327305912971,0,
00:00:03.156,-0.00481018284335732,-0.00717199686914682,0.0161866098642349,0,
00:00:03.16,0.00702765909954906,-0.00719914538785815,0.0011003812542185198,0,
00:00:03.164,-0.034202728420496,-0.00307833007536829,0.00045264934306033,0,
00:00:03.168,0.0185187812894583,0.0118532255291939,-0.0205124076455832,0,
00:00:03.172,0.0219530276954174,0.004503428004682061,0.00154548056889325,0,
00:00:03.176,0.0018558748997747898,-0.005763804074376821,0.005866227671504021,0,
00:00:03.18,-0.0010312942322343599,-0.00211798120290041,-0.00693942792713642,0,
00:00:03.184,-0.00324693927541375,-0.0021388491149991803,0.0121037904173136,0,
00:00:03.188,-0.00619027065113187,0.00271993409842253,0.0025209262967109698,0,
00:00:03.192,-0.00152392277959734,0.00861258991062641,-0.006724652368575329,0,
00:00:03.196,-0.00865563750267029,-0.00744419312104583,0.0106485495343804,0,
00:00:03.2,0.0014184181345626699,-0.00379200372844934,-0.0110907182097435,0,
00:00:03.204,-0.012666629627347,0.00194485986139625,-0.0126358531415462,0,
00:00:03.208,0.0229913108050823,0.0019333731615915899,-0.0086938152089715,0,
00:00:03.212,0.00417337426915765,-0.0036842424888163796,0.0493544191122055,0,
00:00:03.216,0.0017731522675603602,-0.000783453288022429,-0.00548477284610271,0,
00:00:03.22,-0.00100331078283489,0.00228585186414421,-0.0325456596910954,0,
00:00:03.224,-0.00715882098302245,0.00921533443033695,-0.0147271296009421,0,
00:00:03.228,-0.0140541577711701,8.273866114905099e-06,0.0148330619558692,0,
00:00:03.232,0.0103631671518087,-0.0067608957178890705,0.026538060978055,0,
00:00:03.236,0.00635511660948396,-0.0111063402146101,-0.0051057105883956,0,
00:00:03.24,-0.0015923420432955,0.00925274193286896,-0.0146539751440287,0,
00:00:03.244,-0.011234630830586002,0.00298098404891789,-0.0018022912554442898,0,
00:00:03.248,0.00636124005541205,0.00202269945293665,0.0178839955478907,0,
00:00:03.252,0.00465421704575419,0.0011278201127424801,-0.0123562105000019,0,
00:00:03.256,0.00169156969059259,-0.00860424432903528,-0.00168336962815374,0,
00:00:03.26,-0.0007261748542077839,-0.00813309196382761,-0.0142031712457538,0,
00:00:03.264,-0.0017990084597840899,0.00810661073774099,0.00972666870802641,0,
00:00:03.268,0.00251461961306632,0.0101736774668097,0.0131807187572122,0,
00:00:03.272,-0.00685707293450832,0.00482998602092266,0.000269195501459762,0,
00:00:03.276,-0.0013073580339551,-0.0118090063333511,-0.0183953829109669,0,
00:00:03.28,-0.00029897264903411296,-0.00335892173461616,0.0289773363620043,0,
00:00:03.284,0.0085537638515234,0.0027782991528511,-0.00169772852677852,0,
00:00:03.288,0.00342168682254851,-0.0021499474532902197,-0.0069272187538445,0,
00:00:03.292,-0.0129585694521666,0.00186056981328875,-0.0233315229415894,0,
00:00:03.296,0.00917415320873261,0.00623552268370986,-0.00904115010052919,0,
00:00:03.3,-0.00768440216779709,-0.0030809105373919,0.0005732238641940059,0,
00:00:03.304,0.000363989704055712,-0.00360184838064015,0.0150131741538644,0,
00:00:03.308,0.0175558961927891,0.000854510813951492,0.0277710892260075,0,
00:00:03.312,-0.00929366331547499,-0.00107485731132329,0.00596481189131737,0,
00:00:03.316,-0.0210136864334345,3.92477159039117e-05,0.00387801975011826,0,
00:00:03.32,0.000215790685615502,0.0032029494177550103,-0.0559422224760056,0,
00:00:03.324,0.0171065479516983,-0.00276803434826434,-0.000328824389725924,0,
00:00:03.328,0.01112225279212,0.00105775240808725,0.0215776972472668,0,
00:00:03.332,-0.00163632782641798,-0.000613130978308618,-0.00155260600149632,0,
00:00:03.336,-0.00840444024652243,0.00251144450157881,0.0264607816934586,0,
00:00:03.34,0.000551166012883186,0.00123847112990916,0.0034117370378226,0,
00:00:03.344,0.00348436902277172,-0.0006319084786809981,-0.0312722362577915,0,
00:00:03.348,-0.0106171639636159,0.0005461756372824309,-0.0037659960798919205,0,
00:00:03.352,-0.0037940698675811295,-0.00330639583989978,0.007552015129476791,0,
00:00:03.356,-9.39411038416438e-05,-0.00636047730222344,-0.00666380161419511,0,
00:00:03.36,-0.0061222431249916606,0.00810192339122295,0.0109760323539376,0,
00:00:03.364,0.0192741714417934,0.00489379838109016,0.014176313765346999,0,
00:00:03.368,0.0179705992341042,-0.00736309820786119,-0.013991529121995,0,
00:00:03.372,-0.0221479441970587,-0.00654014106839895,-0.0141676319763064,0,
00:00:03.376,0.00384628959000111,0.011229814030229998,0.0188499577343464,0,
00:00:03.38,0.00414731120690703,0.00165789306629449,0.0103760231286287,0,
00:00:03.384,-0.0162087511271238,-0.00690412288531661,-0.0164789576083422,0,
00:00:03.388,-0.007929297164082529,-0.00339642842300236,-0.00926612317562103,0,
00:00:03.392,0.00389457563869655,0.00765292113646865,-0.00375132914632559,0,
00:00:03.396,0.0176563188433647,-0.000294916302664205,0.0262585915625095,0,
00:00:03.4,1.49622374010505e-05,-0.00191704789176583,-0.019111193716526,0,
00:00:03.404,-0.0138666406273842,0.000975717441178858,0.0124882273375988,0,
00:00:03.408,0.0118553955107927,-0.00816373061388731,0.009166997857391829,0,
00:00:03.412,0.0184497069567442,0.0070043923333287204,-0.0226341187953949,0,
00:00:03.416,-0.005273497197777029,0.0034143440425396,-0.00736802071332932,0,
00:00:03.42,-0.0295289475470781,0.00210768240503967,0.0175922904163599,0,
00:00:03.424,-0.00468715606257319,-0.0037187212146818603,-0.0025231617037206897,0,
00:00:03.428,0.007092482876032591,-0.00352279329672456,0.00323715922422707,0,
00:00:03.432,-0.0013250501360744199,-0.0033190129324793803,-0.000971895875409245,0,
00:00:03.436,0.0176563952118158,0.0048054833896458106,-0.0163953304290771,0,
00:00:03.44,0.00948612112551928,0.00123506865929812,0.012586647644639,0,
00:00:03.444,-0.004679788369685411,0.00192509277258068,0.0257314704358578,0,
00:00:03.448,-0.000613223994150758,-0.00243744859471917,-0.00808343477547169,0,
00:00:03.452,-0.0269794631749392,-0.00197754870168865,-0.0228817593306303,0,
00:00:03.456,0.00322743388824165,0.00178209249861538,-0.0114312320947647,0,
00:00:03.46,0.0149222798645496,0.000980435404926538,0.00278713740408421,0,
00:00:03.464,0.0035934182815253704,-0.0025002621114254,0.0140754263848066,0,
00:00:03.468,-0.00574183370918036,-0.00112093088682741,-0.005066023673862221,0,
00:00:03.472,-0.000901711639016867,0.00284130265936255,0.0151278432458639,0,
00:00:03.476,-0.000804076087661088,-0.0025039047468453602,0.00322155514732003,0,
00:00:03.48,0.01580567099154,0.00154479802586138,0.026889730244875,0,
00:00:03.484,-0.0200625341385603,0.00391942681744695,-0.0400621183216572,0,
00:00:03.488,-0.00014053883205633602,-0.00752885267138481,-0.0251947566866875,0,
00:00:03.492,0.0159234032034874,0.0079585388302803,-0.00287475367076695,0,
00:00:03.496,-0.0118879098445177,-0.000180418122909032,0.0139307705685496,0,
00:00:03.5,-0.0013280282728374,-0.00275246030651033,0.0193924233317375,0,
00:00:03.504,0.0067429123446345295,-0.0043146903626620796,0.0130584090948105,0,
00:00:03.508,0.0048597096465528,0.00334521965123713,-0.0101440446451306,0,
00:00:03.512,-0.008165429346263409,0.00021450898202601799,0.007949012331664559,0,
00:00:03.516,-0.0056953080929815795,-0.00043219956569373597,0.00941720884293318,0,
00:00:03.52,-0.00824321061372757,0.0039809807203710105,-0.0319920033216476,0,
00:00:03.524,0.00940887723118067,-0.00585248088464141,-0.0171994995325804,0,
00:00:03.528,0.0393774397671223,0.0010710769565776,-0.011502887122333001,0,
00:00:03.532,-0.029551200568676005,0.00161433580797166,0.0461926311254501,0,
00:00:03.536,-0.0125178685411811,0.00038222927832976,0.0110758803784847,0,
00:00:03.54,-0.0246742386370897,-0.00888471212238073,-0.00269966735504568,0,
00:00:03.544,0.0334638878703117,0.00297649623826146,-0.0152568509802222,0,
00:00:03.548,0.016754450276494002,0.014244151301682,0.00121304404456168,0,
00:00:03.552,-0.0242135338485241,-0.00198852573521435,-0.0331837832927704,0,
00:00:03.556,0.0195521377027035,-0.00812706723809242,0.0136961368843913,0,
00:00:03.56,-6.06500616413541e-05,-0.00015597799210809198,0.0340088494122028,0,
00:00:03.564,-0.0136955827474594,0.00291410996578634,-0.006595209706574679,0,
00:00:03.568,-0.0156827680766582,-0.0102194659411907,-0.0236964989453554,0,
00:00:03.572,0.0029324097558856,0.00785994436591864,0.00294400146231055,0,
00:00:03.576,0.0138041479513049,0.0019347342895343898,0.00267164688557386,0,
00:00:03.58,0.0061807548627257295,0.0018647147808224,0.0114386603236198,0,
00:00:03.584,-0.00632832199335098,-0.000551171600818634,0.0114794904366136,0,
00:00:03.588,0.00267448648810387,-0.00616039196029305,-0.0207596551626921,0,
00:00:03.592,-0.000605651119258255,-0.00624795630574226,0.00720492517575622,0,
00:00:03.596,-0.00155296316370368,0.0103257140144706,0.00857463292777538,0,
00:00:03.6,0.000860341126099229,0.00922896061092615,-0.015536286868155,0,
00:00:03.604,-0.00450664013624191,-0.00419064331799746,-0.00810932274907827,0,
00:00:03.608,0.0025791684165597,-0.00630097324028611,0.0011575631797313699,0,
00:00:03.612,-0.00214515789411962,-0.007630324922502041,-0.000130105894641019,0,
00:00:03.616,0.00797392800450325,0.00808716099709272,0.0202874187380075,0,
00:00:03.62,-0.00408898247405887,0.00340723642148077,-0.0018973178230226,0,
00:00:03.624,-0.0084739625453949,-0.00475288648158312,-0.0020659458823502103,0,
00:00:03.628,0.00914928317070007,0.0017001961823552801,-0.00560439843684435,0,
00:00:03.632,0.0031140344217419603,-0.00276873237453401,-0.00560365151613951,0,
00:00:03.636,-0.0103368349373341,0.00156008894555271,-0.0025230296887457397,0,
00:00:03.64,0.0104262372478843,0.0019481354393065,-0.00311205675825477,0,
00:00:03.644,-0.0123432306572795,0.00287851155735552,0.0340654477477074,0,
00:00:03.648,-0.00316600012592971,-0.00440957490354776,-0.00668040663003922,0,
00:00:03.652,0.00708541506901383,-0.0005606074701063331,-0.0287094172090292,0,
00:00:03.656,0.0134656112641096,0.00481731817126274,0.00546898087486625,0,
00:00:03.66,0.0116054555401206,-0.0053836638107895895,0.0024719489738345103,0,
00:00:03.664,-0.0179009810090065,0.000999476527795196,-0.0099866408854723,0,
00:00:03.668,-0.0318337827920914,-0.000800278270617127,0.0266416203230619,0,
00:00:03.672,0.0269635207951069,-2.3729797248961397e-05,0.0119064096361399,0,
00:00:03.676,0.00906975287944078,0.000840508320834488,-0.0307428035885096,0,
00:00:03.68,-0.0162693671882153,0.00100761675275862,-0.0129232238978148,0,
00:00:03.684,0.00431952252984047,0.00267855520360172,0.0172756351530552,0,
00:00:03.688,0.0174493789672852,0.00014013699546921998,0.00865752995014191,0,
00:00:03.692,-0.0172732286155224,-0.00604432821273804,-0.00976849161088467,0,
00:00:03.696,-0.0101037863641977,0.00385431130416691,0.0124763231724501,0,
00:00:03.7,0.0262771174311638,-0.00404913583770394,0.00030409847386181403,0,
00:00:03.704,0.0130305355414748,-0.00145880330819637,-0.0124570708721876,0,
00:00:03.708,-0.0273361951112747,0.00620534457266331,-0.008801449090242391,0,
00:00:03.712,-0.0165884364396334,0.0034189356956630898,0.00350945862010121,0,
00:00:03.716,-0.00180619559250772,-0.00295803742483258,0.011536406353116,0,
00:00:03.72,0.0120508624240756,-0.00315721007063985,0.0056938566267490396,0,
00:00:03.724,0.0165559630841017,-0.00331271416507661,0.00262372102588415,0,
00:00:03.728,0.0104134054854512,0.0045675826258957395,-0.0173058286309242,0,
00:00:03.732,-0.0119495317339897,-0.00322952819988132,-0.00620882771909237,0,
00:00:03.736,-0.00530430069193244,0.00147790543269366,0.0121555114164948,0,
00:00:03.74,0.000504698953591287,0.0109097342938185,0.00169055315200239,0,
00:00:03.744,-0.022751409560442002,-0.000109155160316732,0.00548102054744959,0,
00:00:03.748,0.00386008294299245,-0.0104322265833616,-0.0043913791887462104,0,
00:00:03.752,0.0218426492065191,-0.00867512077093124,-0.008989134803414341,0,
00:00:03.756,0.007310175336897371,0.0019976242911070603,-3.20236285915598e-05,0,
00:00:03.76,-0.000557128165382892,0.005694078747183079,0.0185600686818361,0,
00:00:03.764,-0.00632585026323795,0.00464626774191856,-0.009893464855849741,0,
00:00:03.768,-0.00701243104413152,0.00173548655584455,-0.0055478177964687295,0,
00:00:03.772,0.00419122306630015,0.00334131880663335,-0.0139043806120753,0,
00:00:03.776,-0.0165880396962166,-0.0100726680830121,0.0109910005703568,0,
00:00:03.78,0.00346671207807958,0.0009444336756132539,0.0201753862202168,0,
00:00:03.784,0.00033999382867477796,0.0021143215708434603,-0.00982251111418009,0,
00:00:03.788,0.00153825082816184,-0.0036539451684802797,0.00504611525684595,0,
00:00:03.792,0.028179369866848002,0.00314116827212274,0.005402087233960629,0,
00:00:03.796,0.0131832798942924,0.0001636442320887,-0.0314040705561638,0,
00:00:03.8,-0.0424190014600754,-0.000284439680399373,-0.0192169938236475,0,
00:00:03.804,-0.010445898398757,-0.00209667230956256,0.0324168093502522,0,
00:00:03.808,0.0176666732877493,0.00217081420123577,0.0287699270993471,0,
00:00:03.812,0.0101222228258848,0.00183686066884547,-0.0199766010046005,0,
00:00:03.816,-0.0123156607151031,0.00438871653750539,0.00456322776153684,0,
00:00:03.82,0.004540811292827129,-0.0027975554112345,-0.0124218743294477,0,
00:00:03.824,0.0126684978604317,-0.0105864154174924,-0.01175273116678,0,
00:00:03.828,-0.009988522157073021,0.0011898248922079802,0.0216114204376936,0,
00:00:03.832,-0.00955753121525049,0.0067136324942112,-0.0025273605715483397,0,
00:00:03.836,-0.00432115793228149,-0.000505642616190016,-0.000646227155812085,0,
00:00:03.84,0.00341942883096635,0.00345462490804493,-0.0197272226214409,0,
00:00:03.844,0.00257274904288352,-0.0014264000346884099,0.0140795912593603,0,
00:00:03.848,0.0196832269430161,0.00189047947060317,0.00480343447998166,0,
00:00:03.852,0.00146104407031089,-0.00941282790154219,-0.0169120747596025,0,
00:00:03.856,-0.0254694037139416,-0.00357622862793505,0.009564445354044441,0,
00:00:03.86,0.00586699275299907,0.0116779003292322,0.0318867713212967,0,
00:00:03.864,0.0138870039954782,0.00628744717687368,-0.0201344415545464,0,
00:00:03.868,-0.00455612782388926,-0.003960371948778629,-0.0238363333046436,0,
00:00:03.872,-0.0269652381539345,-0.00800857972353697,0.0160986967384815,0,
00:00:03.876,0.0109920715913177,-0.00780456233769655,-0.00119679642375559,0,
00:00:03.88,0.0294227097183466,0.00313969212584198,0.005869232118129729,0,
00:00:03.884,-0.0261415988206863,0.0109093729406595,-0.00532646011561155,0,
00:00:03.888,-0.0063286689110100295,0.00736047886312008,-0.006094852462410929,0,
00:00:03.892,0.00901473220437765,-0.00983434822410345,-0.00415189005434513,0,
00:00:03.896,0.0244751702994108,-0.00482076266780496,0.0143864415585995,0,
00:00:03.9,0.0154159115627408,0.00633317651227117,0.00398762337863445,0,
00:00:03.904,-0.0305226519703865,-0.0034186018165200897,-0.00624408666044474,0,
00:00:03.908,-0.0418152697384357,0.00376539467833936,-0.00625567184761167,0,
00:00:03.912,0.0105378124862909,-0.0011583195300772801,0.0102907419204712,0,
00:00:03.916,0.0311726499348879,-0.0065892147831618795,0.0105841569602489,0,
00:00:03.92,0.0115952510386705,0.000335541117237881,-0.0179515108466148,0,
00:00:03.924,-0.0157586578279734,0.00104219722561538,-0.0162531975656748,0,
00:00:03.928,-0.009875021874904629,0.000665259605739266,0.0129235871136189,0,
00:00:03.932,0.0137638794258237,0.0151038840413094,0.00567954685539007,0,
00:00:03.936,0.0138424411416054,-0.00480353133752942,0.0127664534375072,0,
00:00:03.94,-0.019253071397543,-0.0123650012537837,-0.00734586408361793,0,
00:00:03.944,-0.000968447129707783,-0.000599488790612668,-0.0109088262543082,0,
00:00:03.948,-0.00317244580946863,0.00334364757873118,-0.0120296608656645,0,
00:00:03.952,-0.0153745682910085,0.0030624612700194103,0.0233096908777952,0,
00:00:03.956,0.0114155430346727,0.0033497961703687898,-0.00824120175093412,0,
00:00:03.96,0.0202845614403486,-0.0043866666965186605,0.0193940605968237,0,
00:00:03.964,0.00683810096234083,-0.000744655029848218,-0.00415190355852246,0,
00:00:03.968,-0.0103203915059566,0.00462014088407159,-0.0288327671587467,0,
00:00:03.972,-0.0131389694288373,0.00073462090222165,-0.00401738518849015,0,
00:00:03.976,-0.00937809143215418,-0.0111610842868686,0.0162385702133179,0,
00:00:03.98,0.0105440570041537,-0.00182026473339647,0.0144974244758487,0,
00:00:03.984,0.0029642300214618397,0.0043394388630986205,0.008744960650801659,0,
00:00:03.988,0.0121810752898455,0.00963914766907692,-0.0266899969428778,0,
00:00:03.992,-0.00215951655991375,0.0055705779232084794,-0.00760266231372952,0,
00:00:03.996,-0.0155486911535263,-0.0110105769708753,0.0136080179363489,0,
00:00:04,-4.98453409818467e-05,-0.00300960754975677,-0.00921871513128281,0,
00:00:04.004,0.008635310456156729,0.00474893255159259,0.0241958275437355,0,
00:00:04.008,0.00382299907505512,-0.00860837195068598,-0.000689545879140496,0,
00:00:04.012,-0.003989137709140779,0.00592765957117081,-0.00308649893850088,0,
00:00:04.016,-0.0126008586958051,0.007199668791145091,-0.00774024147540331,0,
00:00:04.02,0.00829912349581718,-0.0035305912606418102,-0.026350736618042003,0,
00:00:04.024,-0.00285652955062687,-0.00641757855191827,0.00569788925349712,0,
00:00:04.028,-0.00556127401068807,0.000285387272015214,0.0254931766539812,0,
00:00:04.032,0.0248558670282364,0.00039073746302165096,0.00552093517035246,0,
00:00:04.036,0.005934914108365771,0.0040214224718511105,-0.0111095337197185,0,
00:00:04.04,-0.0147637687623501,0.0065103974193334605,-0.00542539358139038,0,
00:00:04.044,0.00391702773049474,-0.00210570427589118,-0.00214380654506385,0,
00:00:04.048,-0.0277631841599941,-0.0111332228407264,0.008636184968054291,0,
00:00:04.052,-0.00168949470389634,-0.0019078498007729602,0.0126292780041695,0,
00:00:04.056,0.0173937696963549,0.00578897958621383,-0.028363274410367,0,
00:00:04.06,-0.00217984616756439,0.00486238952726126,0.0170143004506826,0,
00:00:04.064,0.015651885420084,0.00757440691813827,-0.00172614108305424,0,
00:00:04.068,0.00631672888994217,-0.0031898054294288197,-0.0109851714223623,0,
00:00:04.072,-0.0198842845857143,-0.0153664061799645,0.0039521185681223895,0,
00:00:04.076,-0.000391408102586865,-0.00163327483460307,-0.00224836496636271,0,
00:00:04.08,0.0137928863987327,0.00485656084492803,0.0233389474451542,0,
00:00:04.084,-0.0102494629099965,0.00342882168479264,0.008744281716644759,0,
00:00:04.088,-0.012949668802321002,0.00505169667303562,-0.0398079082369804,0,
00:00:04.092,0.00942226685583591,0.00389619404450059,-0.00643772119656205,0,
00:00:04.096,0.00217849179171026,-0.00135564606171101,0.007853168994188309,0,
00:00:04.1,-0.000916267686989158,-0.00852749403566122,0.014326561242342,0,
00:00:04.104,0.0156430676579475,-0.00428441911935806,0.0296178665012121,0,
00:00:04.108,-0.0114726005122066,0.00535586848855019,-0.0251499693840742,0,
00:00:04.112,-0.0242544692009687,0.00198927614837885,-0.0128600737079978,0,
00:00:04.116,0.0273991376161575,-0.00179159338586032,-0.00855270121246576,0,
00:00:04.12,0.0191827621310949,0.0015726697165519,0.0137244435027242,0,
00:00:04.124,-0.0182575173676014,0.00114506506361067,0.0039023756980896,0,
00:00:04.128,-0.0190361961722374,0.0019368211505934603,0.008854269981384279,0,
00:00:04.132,-0.00434469245374203,-0.00497827166691422,-0.00624643778428435,0,
00:00:04.136,0.0114253172650933,-0.000621142331510782,-0.0154020301997662,0,
00:00:04.14,0.0168392565101385,0.0051096687093377105,0.0133543666452169,0,
00:00:04.144,-0.006124319043010471,-0.00291850999929011,-0.004301421809941529,0,
00:00:04.148,-0.009138229303061959,-0.0027649609837681103,0.00103163614403456,0,
00:00:04.152,0.006307974457740779,-0.0024360003881156397,-0.0106998421251774,0,
00:00:04.156,0.0019847673829644897,0.0075250710360705905,0.0104981455951929,0,
00:00:04.16,-0.00351711246185005,-0.00471177604049444,0.0425847768783569,0,
00:00:04.164,0.0056578884832561,0.00193206057883799,-0.0423259437084198,0,
00:00:04.168,-0.00611967872828245,0.00223815673962235,-0.0205834563821554,0,
00:00:04.172,-0.00728740356862545,0.00257593858987093,0.00960806291550398,0,
00:00:04.176,0.0053853103891015105,-0.000865053909365088,0.00433585699647665,0,
00:00:04.18,-0.00391381746158004,-0.0070952707901597,0.00971466489136219,0,
00:00:04.184,1.83469580861129e-06,-0.0029167584143579,0.007611469365656379,0,
00:00:04.188,0.00615812512114644,0.00400146096944809,-0.0209314841777086,0,
00:00:04.192,0.000536304374691099,0.00397934438660741,-0.00419729063287377,0,
00:00:04.196,0.00480388617143035,0.00358511670492589,0.0553876869380474,0,
00:00:04.2,0.0032917216885834898,-0.00477349990978837,0.0166237000375986,0,
00:00:04.204,0.0161857567727566,0.0007361122407019139,-0.0726397708058357,0,
00:00:04.208,-0.0231899693608284,-0.00194971077144146,-0.0358845479786396,0,
00:00:04.212,-0.0193238612264395,-0.0054050474427640395,0.0141002181917429,0,
00:00:04.216,-0.0074745980091393,0.00617849873378873,0.0297218430787325,0,
00:00:04.22,0.0103822704404593,0.00645802216604352,0.0226275846362114,0,
00:00:04.224,0.0125886090099812,-0.0062748366035521,0.00736684259027243,0,
00:00:04.228,0.0158153604716063,-0.000519572349730879,-0.00311034452170134,0,
00:00:04.232,0.00171211152337492,0.000201581526198424,-0.0102999852970243,0,
00:00:04.236,-0.0109113985672593,-0.00646600127220154,-0.018812695518136,0,
00:00:04.24,-0.0044084032997489,0.005485565867275,0.00609172601252794,0,
00:00:04.244,-0.00628288555890322,0.0026139386463910302,-0.00411371374502778,0,
00:00:04.248,0.00101699447259307,0.000544238602742553,-0.008100302889943121,0,
00:00:04.252,0.0178697854280472,-0.000631704984698445,0.0480463616549969,0,
00:00:04.256,-0.0111197847872972,0.00525389518588781,-0.00485184649005532,0,
00:00:04.26,-0.0146271381527185,-0.0149779943749309,-0.058558750897646,0,
00:00:04.264,0.0147451218217611,0.00266804522834718,0.00652430020272732,0,
00:00:04.268,-0.0037285008002072603,0.0081845885142684,0.0405174419283867,0,
00:00:04.272,-0.0157144777476788,0.00151586357969791,-0.0157160572707653,0,
00:00:04.276,0.0234291888773441,-0.00168193283025175,-0.00266688806004822,0,
00:00:04.28,0.00357521953992546,-0.00226031895726919,0.0024316154886037103,0,
00:00:04.284,-0.00404137000441551,-0.0014239463489502699,-0.0015121529577299998,0,
00:00:04.288,-0.0048407814465463205,-0.00234518316574395,0.00278572016395628,0,
00:00:04.292,-0.0048360521905124205,0.0024989966768771397,0.00244196830317378,0,
00:00:04.296,0.0057555194944143295,0.00447018537670374,-0.00163194967899472,0,
00:00:04.3,-0.00954404100775719,-0.00124493008479476,0.004917220212519171,0,
00:00:04.304,0.022749176248907998,-0.000215981868677773,0.00216729985550046,0,
00:00:04.308,-0.00333475600928068,-0.00328405923210084,-0.0165943428874016,0,
00:00:04.312,-0.0216672793030739,-0.0016646388685330699,0.015897573903203,0,
00:00:04.316,-0.000502588809467852,0.000557855935767293,-0.0126278437674046,0,
00:00:04.32,-0.00409192778170109,-0.000408301304560155,-0.00614280952140689,0,
00:00:04.324,0.0237724930047989,0.00141771358903497,0.00869269669055939,0,
00:00:04.328,-0.0035815725568682,0.00638751080259681,0.000539641245268285,0,
00:00:04.332,-0.008588661439716821,-0.000298808969091624,-0.00559354387223721,0,
00:00:04.336,0.0060671167448163,-0.00498612457886338,0.0138407330960035,0,
00:00:04.34,-0.000519997964147478,0.00345106841996312,0.0109458360821009,0,
00:00:04.344,-0.0101848598569632,-0.00558018777519464,-0.0220484025776386,0,
00:00:04.348,0.0108825843781233,-0.0029665338806808,-0.00393889937549829,0,
00:00:04.352,0.0232381336390972,0.00548192765563726,0.0122967772185802,0,
00:00:04.356,-0.0260102394968271,0.00356915220618248,-0.0173863433301449,0,
00:00:04.36,-0.0177220534533262,-0.00437183491885662,0.0245904680341482,0,
00:00:04.364,0.0075951456092298,-0.000470043625682592,0.00119876081589609,0,
00:00:04.368,0.0040288157761097,0.0050083720125258,-0.0020117973908782,0,
00:00:04.372,0.00665615778416395,-0.0031447429209947603,-0.0242386236786842,0,
00:00:04.376,-3.98359552491456e-05,-0.00507921958342195,-0.00880529079586267,0,
00:00:04.38,0.00226603634655476,0.0035199017729610205,0.0227978955954313,0,
00:00:04.384,-0.0134409461170435,-0.00316133559681475,0.00892794039100409,0,
00:00:04.388,0.0172051414847374,0.00631492817774415,0.0078895166516304,0,
00:00:04.392,0.0306398570537567,0.00142311817035079,-0.0269521940499544,0,
00:00:04.396,-0.021256385371089,0.00287776463665068,-0.0014068252639845,0,
00:00:04.4,-0.0328471213579178,-0.0121267409995198,0.0268465112894773,0,
00:00:04.404,-0.0188805870711803,0.00335384905338287,-0.0019080825150013,0,
00:00:04.408,0.0156863946467638,0.00428400747478008,-0.0301479026675224,0,
00:00:04.412,0.0253220610320568,-0.0010417856974527199,0.00239032274112105,0,
00:00:04.416,0.00422789249569178,-0.0016516089672222699,0.0263332556933165,0,
00:00:04.42,-0.0086870864033699,-0.0006298397202044731,-0.017390601336956,0,
00:00:04.424,0.0108479643240571,-0.00170328677631915,0.0192788057029247,0,
00:00:04.428,-0.0074728471226990206,0.0048190439119935,-0.0182065349072218,0,
00:00:04.432,-0.00942834559828043,-0.0038731719832867397,-0.00476931035518646,0,
00:00:04.436,0.0186126716434956,0.00269858515821397,0.0037735819350928103,0,
00:00:04.44,0.000472633575554937,0.00627732509747148,0.0184116866439581,0,
00:00:04.444,-0.0230992585420609,-0.00615577446296811,-0.00170667341444641,0,
00:00:04.448,-0.0137000475078821,-0.00286742323078215,-0.0172194559127092,0,
00:00:04.452,0.02070277556777,0.00171716185286641,0.00461379298940301,0,
00:00:04.456,-0.00654206704348326,-0.0030718625057488697,4.1544884879840504e-05,0,
00:00:04.46,0.00306484522297978,0.0057182181626558295,0.0011726061347872,0,
00:00:04.464,0.0114204538986087,-0.0037415374536067204,-0.0146306501701474,0,
00:00:04.468,0.0182070024311543,-6.77447897032835e-05,0.00673573836684227,0,
00:00:04.472,-0.00954029522836208,0.00332789053209126,0.0125950807705522,0,
00:00:04.476,-0.0300129931420088,-0.0029662423767149396,0.012170797213911998,0,
00:00:04.48,0.0041230097413063,-0.00346249528229237,0.0006269269506447019,0,
00:00:04.484,0.00819367542862892,0.00513498019427061,-0.0266943387687206,0,
00:00:04.488,0.0118724480271339,0.0058333971537649605,-0.008531007915735241,0,
00:00:04.492,-0.00435119029134512,0.00017297021986451,0.00566889392212033,0,
00:00:04.496,-0.0124566433951259,-0.00591579871252179,0.0125824883580208,0,
00:00:04.5,0.00316304271109402,-0.00439680088311434,0.00802158657461405,0,
00:00:04.504,0.007847473025321959,-0.00289511913433671,0.00711918901652098,0,
00:00:04.508,-0.00307609234005213,0.005819203797727821,0.0026800874620676,0,
00:00:04.512,-0.006260325200855729,0.00421208050101995,-0.0279119648039341,0,
00:00:04.516,0.00894444994628429,-0.0017002251697704198,-0.0015507672214880599,0,
00:00:04.52,0.00980548653751612,-0.00215451326221228,-0.000427896215114743,0,
00:00:04.524,0.00534582231193781,-0.00082820001989603,0.00262090493924916,0,
00:00:04.528,-0.028347309678793,-0.0037648633588105397,0.00239148689433932,0,
00:00:04.532,-0.0053718960843980295,0.004806229379028079,0.020698769018054,0,
00:00:04.536,0.0212639197707176,-0.000191421248018742,0.00481343502178788,0,
00:00:04.54,-0.004721482284367079,0.0107527077198029,-0.0205094683915377,0,
00:00:04.544,-0.0181687399744987,-0.0024262238293886198,0.0127467634156346,0,
00:00:04.548,0.0137336803600192,-0.008950472809374329,-0.0243334900587797,0,
00:00:04.552,0.005281884688884021,-0.0054269633255899,-0.00904725585132837,0,
00:00:04.556,0.0113704884424806,-0.00417335145175457,0.00989808235317469,0,
00:00:04.56,0.026701407507062,0.00929337088018656,0.0473569892346859,0,
00:00:04.564,-0.0407265387475491,0.0112005649134517,-0.0247364453971386,0,
00:00:04.568,-0.03099100664258,-0.0154060069471598,-0.0293180011212826,0,
00:00:04.572,0.0163922477513552,0.00337736494839191,0.00672454573214054,0,
00:00:04.576,0.0220619831234217,0.00754449656233191,0.0255749765783548,0,
00:00:04.58,0.00649383990094066,0.00193189072888345,-0.008740703575313091,0,
00:00:04.584,-0.0187277477234602,-0.00526681123301387,-0.0102187134325504,0,
00:00:04.588,0.00422137044370174,-0.00473669683560729,-0.0023143049329519302,0,
00:00:04.592,0.00172405503690243,-0.0036357243079692104,0.00179748248774558,0,
00:00:04.596,0.00515759317204356,0.00105278426781297,0.0280850008130074,0,
00:00:04.6,0.000703820551279932,0.00791587959975004,-0.0168231204152107,0,
00:00:04.604,-0.00934016238898039,0.00167594093363732,-0.00974769797176123,0,
00:00:04.608,-0.00416546734049916,-0.00154075003229082,-0.00460845837369561,0,
00:00:04.612,0.0126931583508849,-0.0022634989582002198,0.0103339124470949,0,
00:00:04.616,-0.00486499583348632,0.000545926159247756,-0.00481690000742674,0,
00:00:04.62,-0.00423612119629979,-0.00236642127856612,0.0019904531072825198,0,
00:00:04.624,0.00661161728203297,-0.0032694498077035,-0.00119213503785431,0,
00:00:04.628,0.00341254123486578,0.00461386982351542,0.00329279596917331,0,
00:00:04.632,-0.00370927574113011,-0.000981276389211416,0.0111323073506355,0,
00:00:04.636,-0.0164553429931402,-0.00029965813155286003,-0.00521393958479166,0,
00:00:04.64,0.00813661608844996,0.00315830297768116,-0.007692337036132809,0,
00:00:04.644,0.0332436673343182,0.00564601086080074,-0.00618034042418003,0,
00:00:04.648,-0.0236257966607809,-0.00681158620864153,0.000113913250970654,0,
00:00:04.652,-0.00560353603214026,-0.00315890042111278,0.0125113250687718,0,
00:00:04.656,-0.007374036125838759,-0.000302315602311865,-0.0178443007171154,0,
00:00:04.66,-0.00481416704133153,0.00120140728540719,0.0201872438192368,0,
00:00:04.664,0.00452249031513929,0.00351884169504046,0.0051115518435835795,0,
00:00:04.668,0.008947087451815609,-0.00312845478765666,-0.0257134567946196,0,
00:00:04.672,0.007201932370662691,0.00054525479208678,0.0287116561084986,0,
00:00:04.676,0.0128251956775784,0.00324658118188381,0.00787526927888393,0,
00:00:04.68,-0.00549767399206758,-0.0014167135814204801,-0.0388593748211861,0,
00:00:04.684,-0.0158952903002501,0.000260210217675194,-0.010130949318408999,0,
00:00:04.688,-0.00504458555951715,-0.00476814806461334,0.00338088907301426,0,
00:00:04.692,-0.00157847534865141,-0.0014034084742888802,0.0377336628735065,0,
00:00:04.696,-0.00150391005445272,0.00422154553234577,0.00805912725627422,0,
00:00:04.7,0.00212418870069087,0.0012397759128361901,-0.019948735833168,0,
00:00:04.704,0.0107018304988742,0.0067488388158381,-0.0120964860543609,0,
00:00:04.708,0.0191161930561066,-0.0036532257217913896,0.0029210047796368603,0,
00:00:04.712,-0.02228426001966,-0.00704433070495725,0.011592585593461999,0,
00:00:04.716,0.0040427874773740794,-0.00465958565473557,-0.007153601385653021,0,
00:00:04.72,0.0130533901974559,0.00798547361046076,0.00108640373218805,0,
00:00:04.724,-0.0338732637465,0.007453976664692159,-0.0008227110956795509,0,
00:00:04.728,0.004004594869911671,-0.00423286715522408,0.0016447355737909698,0,
00:00:04.732,0.0138464644551277,-0.007234360557049509,-0.0120056578889489,0,
00:00:04.736,-0.0134625947102904,-0.000166256475495175,0.0172588005661964,0,
00:00:04.74,0.008485157042741779,0.00453851372003555,0.000738091883249581,0,
00:00:04.744,0.0275735110044479,-0.00172752910293639,-0.008748696185648441,0,
00:00:04.748,-0.0150947635993361,0.0034553683362901198,0.00203203735873103,0,
00:00:04.752,-0.00271612941287458,0.00345380580984056,-0.00632885936647654,0,
00:00:04.756,-0.005048036575317379,-0.00539017235860229,0.0095633752644062,0,
00:00:04.76,-0.0104005923494697,-0.0082439323887229,-0.0013003034982830301,0,
00:00:04.764,0.000310040253680199,-0.000560336746275425,-0.00473895762115717,0,
00:00:04.768,0.0120470644906163,0.00936347991228104,0.009306900203228,0,
00:00:04.772,2.67682025878457e-05,0.00824418570846319,-0.0056210686452686795,0,
00:00:04.776,-0.0080664549022913,0.00028896177536808,-0.0031312913633883,0,
00:00:04.78,0.00941893178969622,-0.007191968616098171,-0.000609876238740981,0,
00:00:04.784,0.0159787144511938,-0.0038192674983292796,0.00512155191972852,0,
00:00:04.788,-0.0199928972870111,-0.007891488261520859,-0.00255031883716583,0,
00:00:04.792,-0.0162836164236069,0.0038860719650983797,-0.00226704264059663,0,
00:00:04.796,0.00642633019015193,0.0038470970466733,-0.012465282343328,0,
00:00:04.8,0.0254072640091181,0.00543026998639107,0.0195630844682455,0,
00:00:04.804,-0.0114156845957041,0.00396602507680655,0.0138503666967154,0,
00:00:04.808,-0.0111116133630276,-0.0014547858154401198,-0.0191905777901411,0,
00:00:04.812,0.00691880937665701,-0.00861805304884911,-0.0105068748816848,0,
00:00:04.816,0.0119810318574309,-0.00220675743184984,0.00962902326136827,0,
00:00:04.82,-0.0036951454821974,0.00554020423442125,0.0118572534993291,0,
00:00:04.824,-0.0248346533626318,-0.00359332142397761,-0.00744334934279323,0,
00:00:04.828,0.00383767136372626,0.000525784853380173,-0.00118261459283531,0,
00:00:04.832,0.0179955773055553,-0.00220985151827335,-0.0180678144097328,0,
00:00:04.836,-0.00368162454105914,0.00549433147534728,0.00552569562569261,0,
00:00:04.84,0.007103172130882741,0.009981861338019371,0.0218170918524265,0,
00:00:04.844,0.00169350078795105,-0.00600135885179043,0.0101527217775583,0,
00:00:04.848,-0.010712324641645002,-0.00948138348758221,-0.0189102571457624,0,
00:00:04.852,0.0038140474352985603,-0.00335747213102877,-0.0182582959532738,0,
00:00:04.856,-0.00735606532543898,0.0045751263387501205,0.0232572443783283,0,
00:00:04.86,-0.00578817958012223,0.0110028395429254,-0.0158205851912498,0,
00:00:04.864,0.00816246774047613,-0.005948765669018029,0.006372523028403521,0,
00:00:04.868,0.0128195099532604,-0.0055948398075997795,0.0005198384169489151,0,
00:00:04.872,-0.0213952697813511,0.00335095706395805,-0.00327959796413779,0,
00:00:04.876,0.00406125886365771,-0.00138951453845948,0.0097729405388236,0,
00:00:04.88,0.00686150416731834,0.00399393122643232,-0.00343415630050004,0,
00:00:04.884,0.0296621061861515,-0.0025072470307350198,0.0076195471920073,0,
00:00:04.888,-0.0226865354925394,0.0005101931164972481,-0.007352617103606459,0,
00:00:04.892,-0.0236160065978765,0.00274353357963264,0.00429547252133489,0,
00:00:04.896,-0.0008921186672523619,-0.00195908034220338,-0.0106849987059832,0,
00:00:04.9,0.007556750439107421,-0.00210928008891642,-0.00334228854626417,0,
00:00:04.904,0.0182378124445677,0.0013670356711372698,0.0130107393488288,0,
00:00:04.908,0.000942712067626417,-0.00351218250580132,-0.0114073492586613,0,
00:00:04.912,-0.00279533723369241,0.00135014369152486,-0.0049465037882328,0,
00:00:04.916,-0.0066419919021427605,0.000202790499315597,0.0173461772501469,0,
00:00:04.92,-0.00181784364394844,0.00330375507473946,0.0132455956190825,0,
00:00:04.924,0.00412236340343952,0.00376123236492276,0.00319495471194386,0,
00:00:04.928,-0.0013396808644756699,-0.00670255580917001,-0.0368397980928421,0,
00:00:04.932,-0.0191875584423542,-0.0014923402341082699,-0.0234484355896711,0,
00:00:04.936,0.0247504226863384,0.00971988867968321,0.0392570495605469,0,
00:00:04.94,0.00141576153691858,0.000312872347421944,0.00924831256270409,0,
00:00:04.944,-0.013930263929068997,-0.013394576497376002,-0.0025056018494069602,0,
00:00:04.948,0.0032048216089606302,-0.00152986473403871,-0.004968117922544479,0,
00:00:04.952,0.00723631773144007,0.0038948145229369398,-0.00141925213392824,0,
00:00:04.956,0.00198577786795795,0.00234992965124547,-0.00316262803971767,0,
00:00:04.96,-0.0111455023288727,0.00443429034203291,-0.00534588843584061,0,
00:00:04.964,0.00988890323787928,0.00592824397608638,0.00272123725153506,0,
00:00:04.968,-0.00635806377977133,-0.00715249963104725,0.0172840319573879,0,
00:00:04.972,-0.00493098376318812,0.00042400512029416897,0.0058684102259576295,0,
00:00:04.976,-0.0037157500628382,-0.00681287283077836,-0.0273584071546793,0,
00:00:04.98,0.0138755310326815,-0.0024313994217664,-0.0121681969612837,0,
00:00:04.984,0.007335859350860121,0.00261365063488483,0.00702095683664083,0,
00:00:04.988,-0.00448393309488893,0.00859696790575981,0.0312200766056776,0,
00:00:04.992,-0.0113498847931623,0.0014120021369308199,-0.0171717591583729,0,
00:00:04.996,-0.009002093225717541,-0.00434890203177929,0.0036790948361158397,0,
00:00:05,0.0104444930329919,0.00317669007927179,-0.00583448354154825,0,
00:00:05.004,0.008926418609917159,-0.00834396574646235,0.0135443340986967,0,
00:00:05.008,-0.000273384619504213,0.000453930289950222,-0.0144919641315937,0,
00:00:05.012,-0.00349139887839556,0.00274962233379483,-0.0202408097684383,0,
00:00:05.016,-0.00103919871617109,0.0020008685532957302,0.000747397192753851,0,
00:00:05.02,-0.0033149651717394603,-0.00158751360140741,0.0609758421778679,0,
00:00:05.024,-0.0096479682251811,0.0013819547602906801,-0.00457074167206883,0,
00:00:05.028,0.008822824805974959,0.00488235708326101,-0.0478404872119427,0,
00:00:05.032,0.0209305230528116,-0.0044287792406976206,-0.0212085656821728,0,
00:00:05.036,-0.0220038145780563,-0.0063949031755328204,0.0206080544739962,0,
00:00:05.04,0.00550715951249003,0.0007715291576460001,0.0216110553592443,0,
00:00:05.044,0.00890039466321468,0.0071744918823242205,0.0063964962027967,0,
00:00:05.048,-0.0243389774113894,-0.0015241412911564099,0.000520063622388989,0,
00:00:05.052,-0.00922323949635029,-0.0045112599618732895,-0.00897468812763691,0,
00:00:05.056,0.0197185017168522,-0.000921686762012541,-0.0254855565726757,0,
00:00:05.06,0.0205564722418785,0.004283505026251079,0.00540518667548895,0,
00:00:05.064,0.0121577633544803,0.00506698898971081,0.0322382375597954,0,
00:00:05.068,-0.0191472284495831,-0.0038645614404231297,-0.006269057281315329,0,
00:00:05.072,-0.0190645027905703,-0.0033966030459851,-0.0127377426251769,0,
00:00:05.076,-0.0115111712366343,0.00148488965351135,-0.00663917930796742,0,
00:00:05.08,0.00948126334697008,0.0035306636709719896,0.00486177625134587,0,
00:00:05.084,0.0116207338869572,0.0023485952988266897,0.0026668778154999,0,
00:00:05.088,-0.000154976267367601,-0.00838589109480381,0.00336992437951267,0,
00:00:05.092,0.0017444246914237699,-0.0023299863096326603,-0.0182399414479733,0,
00:00:05.096,0.00132383243180811,-0.000409682310419157,0.0222263652831316,0,
00:00:05.1,-0.00215261103585362,0.00488454243168235,0.0149830710142851,0,
00:00:05.104,0.0132197225466371,0.0038138651289045798,-0.0187330320477486,0,
00:00:05.108,-0.00758984591811895,0.000878064369317144,-0.0150389093905687,0,
00:00:05.112,-0.0189199317246675,-0.0013498910702765,0.00626583537086844,0,
00:00:05.116,-0.00169484748039395,-0.0020413957536220603,0.0010693193180486599,0,
00:00:05.12,0.0112406825646758,0.0005652255495078861,0.00210759579204023,0,
00:00:05.124,0.00403950875625014,-0.00248155440203846,0.00507914694026113,0,
00:00:05.128,0.0094946539029479,0.000759376853238791,0.000306607864331454,0,
00:00:05.132,-0.0018063485622406,-0.0014660572633147198,0.00316051254048944,0,
00:00:05.136,-0.0319614224135876,-0.0022662109695375,-0.0049245897680521,0,
00:00:05.14,0.0132550997659564,0.00313056819140911,-0.0018069555517286101,0,
00:00:05.144,0.0293838735669851,0.00518785789608955,-0.0005019023665227,0,
00:00:05.148,-0.0159784499555826,-0.00502229575067759,0.000106335828604642,0,
00:00:05.152,0.004534904845058921,-0.000488430960103869,-0.0120778270065784,0,
00:00:05.156,-0.0147642409428954,0.00566910626366735,0.0185006037354469,0,
00:00:05.16,-0.0030722920782864102,0.0016720280982554,0.00632032891735435,0,
00:00:05.164,0.00994540750980377,-0.0005097935791127379,-0.0036066574975848202,0,
00:00:05.168,-0.0110280271619558,-0.0100026233121753,-0.0154172005131841,0,
00:00:05.172,0.0126034962013364,-0.00653396500274539,0.0107837589457631,0,
00:00:05.176,0.0252535305917263,0.00857105199247599,-0.0133672999218106,0,
00:00:05.18,-0.0270892828702927,0.00314972107298672,0.00551818683743477,0,
00:00:05.184,-0.015959408134222,0.0034767878241837,0.0069511029869318,0,
00:00:05.188,-0.0020628191996365803,0.004735895432531829,-0.00987961795181036,0,
00:00:05.192,0.0193292181938887,-0.00782136805355549,0.00417476380243897,0,
00:00:05.196,0.0116394236683846,-0.00375611567869782,0.0210809875279665,0,
00:00:05.2,-0.000891728908754885,-0.00249567651189864,0.00816561654210091,0,
00:00:05.204,-0.0037167887203395397,0.0054413517937064206,-0.036214817315339994,0,
00:00:05.208,-0.0263943523168564,-0.0006969330133870241,-0.0151548590511084,0,
00:00:05.212,-0.0100111262872815,0.00162295263726264,0.0205879267305136,0,
00:00:05.216,0.0232394821941853,0.00296687358058989,0.0053847711533308,0,
00:00:05.22,0.0251216217875481,0.00182636885438114,-0.00491646723821759,0,
00:00:05.224,0.00014781829668209,-0.00451314495876431,0.00849485863000155,0,
00:00:05.228,-0.0181609615683556,-0.00842501502484083,-0.0011027851141989199,0,
00:00:05.232,-0.00634664110839367,-0.0016798290889710199,0.012827699072659,0,
00:00:05.236,-0.0055777826346457,0.0062285764142870894,-0.0162930898368359,0,
00:00:05.24,0.0150952432304621,0.00570313585922122,0.00744293024763465,0,
00:00:05.244,-0.0132748167961836,0.0062329578213393706,-0.0130641767755151,0,
00:00:05.248,-0.00662832381203771,-0.007172165438532829,-0.000936125463340431,0,
00:00:05.252,0.00473553268238902,-0.00799856334924698,0.007279413286596541,0,
00:00:05.256,0.0219883751124144,0.0009512983378954231,-0.00702144950628281,0,
00:00:05.26,0.0100472318008542,0.00817194487899542,-0.0039684041403234,0,
00:00:05.264,-0.0194906424731016,0.00137020298279822,0.0210010204464197,0,
00:00:05.268,-0.0107116783037782,-6.776391819585109e-05,0.00235931668430567,0,
00:00:05.272,-0.0101391691714525,-0.00469675846397877,-0.036027017980813994,0,
00:00:05.276,0.0114472275599837,-0.00327265611849725,0.0280702188611031,0,
00:00:05.28,0.0197016764432192,0.00378905981779099,0.012917204760014999,0,
00:00:05.284,-0.00800709426403046,-0.00648322608321905,-0.0122238518670201,0,
00:00:05.288,-0.0029562374111264896,0.0006325505091808741,-0.0221226755529642,0,
00:00:05.292,-0.00646110810339451,0.0041774050332605795,0.0147450705990195,0,
00:00:05.296,-0.0104222083464265,0.0080476114526391,-0.00258981972001493,0,
00:00:05.3,0.0142018385231495,0.0018363312119618102,0.01618692278862,0,
00:00:05.304,0.0124836014583707,-0.00164783000946045,-0.0036686901003122295,0,
00:00:05.308,-0.005813567899167539,-0.0093139661476016,-0.0101590920239687,0,
00:00:05.312,-0.0016583111137151699,-0.00943928863853216,0.00725655490532517,0,
00:00:05.316,-0.00139820820186287,0.00874248053878546,-0.00879091396927834,0,
00:00:05.32,-0.0163813475519419,0.00331320916302502,-0.00977715011686087,0,
00:00:05.324,-0.0066029061563313,-0.000943763530813158,-0.005124029703438279,0,
00:00:05.328,0.0219972673803568,0.00212379754520953,0.0266626086086035,0,
00:00:05.332,0.0196775663644075,0.00130241829901934,0.0035901996307075,0,
00:00:05.336,-0.0239738952368498,-0.0024184372741729,-0.0071104094386100795,0,
00:00:05.34,-0.0112227918580174,0.0006606695824302731,0.00658666295930743,0,
00:00:05.344,0.0087566077709198,0.000319616519846022,-0.00525059644132853,0,
00:00:05.348,0.000651439419016242,-0.000550116412341595,-0.0226954091340303,0,
00:00:05.352,0.0210979469120502,-0.0008801250951364641,-0.0037435754202306297,0,
00:00:05.356,0.004679305478930471,-0.00270234397612512,0.031231926754117,0,
00:00:05.36,-0.0299161989241838,0.00391613319516182,0.003985072486102579,0,
00:00:05.364,-0.00988499354571104,-7.195841317297891e-05,-0.0098602706566453,0,
00:00:05.368,0.00667301984503865,-0.00105548475403339,-0.006758871953934429,0,
00:00:05.372,0.00992699526250362,-0.0006853115046396849,-0.017436696216464,0,
00:00:05.376,0.00217332597821951,-0.00210757437162101,-0.00037197742494754504,0,
00:00:05.38,-0.0010813270928338198,0.000280233973171562,0.016983799636364,0,
00:00:05.384,0.00897390488535166,0.008210062980651859,0.0414034985005856,0,
00:00:05.388,0.00416073948144913,0.0064393924549222,0.0243985280394554,0,
00:00:05.392,-0.0215921122580767,-0.0159644242376089,-0.0835172832012177,0,
00:00:05.396,0.0299996472895145,-0.00703774858266115,-0.030170438811183,0,
00:00:05.4,-0.0316326878964901,0.00233805156312883,0.0101724322885275,0,
00:00:05.404,-0.000490107748191804,0.00856368988752365,0.0472843833267689,0,
00:00:05.408,-0.00983721017837524,0.00983122084289789,0.0115424282848835,0,
00:00:05.412,0.0101729650050402,-0.00740859797224402,0.000382434867788106,0,
00:00:05.416,0.021980419754981998,-0.0019806798081845,-0.00765120098367333,0,
00:00:05.42,-2.63487399934093e-05,-0.000453736196504906,-0.0114964479580522,0,
00:00:05.424,0.00193038990255445,0.00393031071871519,-0.00652651721611619,0,
00:00:05.428,-0.0112751927226782,-0.0041423593647778,-0.0189896579831839,0,
00:00:05.432,-0.00880862772464752,0.000788056349847466,0.0398624427616596,0,
00:00:05.436,0.0042368243448436295,-0.00630344962701201,0.0175502803176641,0,
00:00:05.44,-0.00493186293169856,-0.00359162013046443,-0.0369365625083447,0,
00:00:05.444,0.0036719162017107,0.00541462237015367,-0.00164168560877442,0,
00:00:05.448,0.00654949713498354,0.0126704378053546,0.000497041619382799,0,
00:00:05.452,-0.0019152801251038898,-0.00052915676496923,-0.01056366879493,0,
00:00:05.456,-0.00208463589660823,-0.00725591043010354,0.0100862206891179,0,
00:00:05.46,-0.00025311353965662404,-0.006763300392776729,0.0158123038709164,0,
00:00:05.464,0.00511150201782584,0.00780633557587862,-0.0028208205476403197,0,
00:00:05.468,-0.000821240828372538,0.00208157487213612,-0.004860337823629379,0,
00:00:05.472,-0.004792717285454271,-0.00199544453062117,-0.008246985264122491,0,
00:00:05.476,-0.00634783506393433,-0.00507424725219607,0.0209817998111248,0,
00:00:05.48,0.015266427770257001,-0.0040423385798931104,-0.00546090072020888,0,
00:00:05.484,-0.00427022576332092,0.00545729137957096,0.00040323863504454504,0,
00:00:05.488,-0.007987811230123041,0.000385817664209753,-0.0193561688065529,0,
00:00:05.492,0.0125867212191224,0.000699118070770055,0.00031545278034172996,0,
00:00:05.496,-0.0167515762150288,0.00344799808226526,0.0103455558419228,0,
00:00:05.5,0.00531717296689749,0.0012069359654560698,0.00126108678523451,0,
00:00:05.504,0.006977521814405921,-0.00130619911942631,0.000855024147313088,0,
00:00:05.508,-0.0102649061009288,-0.00229273783043027,-0.0340335890650749,0,
00:00:05.512,0.0057010259479284295,0.000275406346190721,0.0196697320789099,0,
00:00:05.516,0.0187367964535952,0.00153014028910547,0.0515824034810066,0,
00:00:05.52,-0.00597954820841551,-0.00522217666730285,-0.0258088633418083,0,
00:00:05.524,-0.0243389997631311,-0.00677053350955248,0.0193818472325802,0,
00:00:05.528,0.0124309044331312,0.00521350093185902,-0.0306774079799652,0,
00:00:05.532,-0.00120446574874222,0.00640697171911597,-0.0487191006541252,0,
00:00:05.536,-0.0145577825605869,0.0009877608390524981,0.0209360755980015,0,
00:00:05.54,0.022693732753396003,0.00972431618720293,0.0354835279285908,0,
00:00:05.544,0.0042937551625073,-0.0107859298586845,-0.0144860921427608,0,
00:00:05.548,-0.017248535528779,-0.0110138431191444,0.0170288309454918,0,
00:00:05.552,0.00134283234365284,0.0027075158432126,-0.00891697034239769,0,
00:00:05.556,0.00582911865785718,0.0078082331456244,0.00494058802723885,0,
00:00:05.56,0.009936238639056679,0.00381030887365341,-0.0018163758795708398,0,
00:00:05.564,0.00256043905392289,-0.000931515183765441,-0.00958484411239624,0,
00:00:05.568,-0.0148988617584109,-0.007324497215449809,-0.0112482653930783,0,
00:00:05.572,-0.0136971464380622,-0.0009557678131386641,0.0132983531802893,0,
00:00:05.576,0.0146087845787406,0.00199864571914077,0.0012569718528538901,0,
00:00:05.58,-0.00251001655124128,0.000246018083998933,0.00167980277910829,0,
00:00:05.584,-0.00343901989981532,0.00326686911284924,-0.00151828920934349,0,
00:00:05.588,0.0170399304479361,0.0017010625451803199,0.00340737565420568,0,
00:00:05.592,-0.00624056626111269,-0.00260311365127563,0.00884906109422445,0,
00:00:05.596,-0.0112390927970409,0.00028587563429027796,6.26496766926721e-05,0,
00:00:05.6,0.0167877227067947,0.0042049796320498,-0.0236826483160257,0,
00:00:05.604,-0.00808487273752689,-0.00662851938977838,-0.021393833681941,0,
00:00:05.608,-0.0014822739176452199,1.7617193179830799e-06,0.0360431522130966,0,
00:00:05.612,-0.0108943618834019,-0.0032175979577004897,-0.007018249947577711,0,
00:00:05.616,0.0113173462450504,0.00427194964140654,0.00733246235176921,0,
00:00:05.62,0.0099398298189044,0.00102053314913064,0.0132974945008755,0,
00:00:05.624,-0.0088124293833971,-0.00414381036534905,-0.0131100909784436,0,
00:00:05.628,0.000916490098461509,0.00377737591043115,-0.0114719215780497,0,
00:00:05.632,-0.0191963966935873,0.00522664189338684,0.00385856023058295,0,
00:00:05.636,0.00475641805678606,-0.0037791172508150296,0.00249333376996219,0,
00:00:05.64,0.0262183975428343,0.00273999013006687,-0.000945933803450316,0,
00:00:05.644,-0.00548363896086812,-0.00251698703505099,-0.0020001099910587103,0,
00:00:05.648,-0.007604765240103009,-0.00762009946629405,0.00946687906980515,0,
00:00:05.652,-0.00219611846841872,-2.85881451418391e-05,-0.000826358911581337,0,
00:00:05.656,-0.0023868058342486603,0.00126693537458777,0.0022645031567663,0,
00:00:05.66,-0.00192096550017595,0.0053201252594590204,-0.0235328264534473,0,
00:00:05.664,-0.00025584117975086,0.00124222622253001,-0.000298156955977902,0,
00:00:05.668,0.0221933983266354,0.00412000482901931,0.0280060973018408,0,
00:00:05.672,-0.0009238531929440801,0.00184421124868095,0.0163718927651644,0,
00:00:05.676,-0.034412007778882994,-0.0118422042578459,-0.0193311553448439,0,
00:00:05.68,0.0067326854914426795,-0.00176049419678748,-0.0208138711750507,0,
00:00:05.684,0.0195551663637161,0.000423054414568469,0.0145456595346332,0,
00:00:05.688,-0.00122292072046548,0.0029034940525889397,-0.0280310250818729,0,
00:00:05.692,-0.00796432979404926,0.00742601603269577,0.00376455136574805,0,
00:00:05.696,0.00242822431027889,0.00212351861409843,0.0215658247470856,0,
00:00:05.7,-0.00672292849048972,-0.0029596637468785,0.0216969717293978,0,
00:00:05.704,-0.00148047809489071,-0.0045455489307642,0.00720946304500103,0,
00:00:05.708,0.0060709388926625295,-0.0114794708788395,-0.0358002409338951,0,
00:00:05.712,0.00750658567994833,0.00301985046826303,-0.00397380581125617,0,
00:00:05.716,0.00599775929003954,0.0137827843427658,0.021140530705451997,0,
00:00:05.72,-0.009049326181411741,0.00390833243727684,-0.00947453267872334,0,
00:00:05.724,-0.00167557527311146,-0.0114288702607155,-0.008996038697659971,0,
00:00:05.728,-0.00589448492974043,0.0005351942381821571,0.00778397032991052,0,
00:00:05.732,-0.00440384866669774,0.00678268913179636,-0.00259299180470407,0,
00:00:05.736,0.00586770195513964,-0.004852264653891329,-0.00468132551759481,0,
00:00:05.74,-0.007094703149050471,-0.0018258758354932102,0.0211436469107866,0,
00:00:05.744,0.0155820176005363,0.00628172978758812,0.009438862092792991,0,
00:00:05.748,0.00656469911336899,-0.00506565906107426,-0.0270805209875107,0,
00:00:05.752,-0.0215754862874746,-0.00820530112832785,-0.0121045103296638,0,
00:00:05.756,0.0191137436777353,0.00598079105839133,0.00684925261884928,0,
00:00:05.76,0.00932225398719311,0.0018148721428588,0.00351318949833512,0,
00:00:05.764,-0.0255506131798029,0.00147959252353758,0.0115100527182221,0,
00:00:05.768,-0.00604374893009663,0.00544827524572611,0.00537763303145766,0,
00:00:05.772,0.00416770298033953,-0.00131129892542958,-0.008336588740348821,0,
00:00:05.776,0.008827908895909791,-0.00349878496490419,-0.0142862088978291,0,
00:00:05.78,0.00696690147742629,-0.00483520748093724,0.0178433563560247,0,
00:00:05.784,-0.0124617889523506,0.0030992717947810897,0.00581264588981867,0,
00:00:05.788,0.0012127773370593801,0.00023435275943484198,-0.00612801779061556,0,
00:00:05.792,0.0068913302384316895,-0.0023233455140143603,0.000887444883119315,0,
00:00:05.796,0.00951760169118643,0.00409828126430511,-0.009606605395674709,0,
00:00:05.8,-0.0155160035938025,-5.42371708434075e-06,-0.0144181475043297,0,
00:00:05.804,0.0078145656734705,-0.00525644421577454,-0.00411209790036082,0,
00:00:05.808,-0.00699787074699998,0.0010584337869659099,0.0312562845647335,0,
00:00:05.812,-0.00683252699673176,0.00715386681258678,-0.0027666867244988697,0,
00:00:05.816,0.0112020121887326,0.00236505921930075,0.00394721189513803,0,
00:00:05.82,-0.010414064861833999,-0.00473520206287503,0.0132693890482187,0,
00:00:05.824,0.00550611596554518,-0.00444583967328072,-0.0237336251884699,0,
00:00:05.828,0.0152144329622388,0.000522882211953402,-0.0301626175642014,0,
00:00:05.832,-0.007281407248228791,-0.00513599114492536,0.006320485845208171,0,
00:00:05.836,-0.00612068781629205,0.00641915621235967,0.0378035716712475,0,
00:00:05.84,0.00167363812215626,0.00492089847102761,0.007956449873745441,0,
00:00:05.844,-0.009605684317648409,-0.00375444511882961,-0.0257288739085197,0,
00:00:05.848,0.0170024111866951,-0.000676011724863201,-0.00124619051348418,0,
00:00:05.852,0.0068918252363801,0.000232053571380675,0.00041466744733043,0,
00:00:05.856,-0.0228580962866545,0.00021057053527329098,0.0131023060530424,0,
00:00:05.86,-0.0055076070129871394,-0.0021063920576125396,0.00357853784225881,0,
00:00:05.864,0.00283481273800135,0.0038711568340659103,-0.0163128301501274,0,
00:00:05.868,0.00546115776523948,0.00156448350753635,-0.0007479365449398759,0,
00:00:05.872,0.0108934296295047,-0.00560101540759206,-0.0015493592945858801,0,
00:00:05.876,0.00482018059119582,-0.0027450961060822,-0.0129554187878966,0,
00:00:05.88,-0.006289990153163671,0.00333140697330236,0.0173184629529715,0,
00:00:05.884,0.0047242213040590295,0.00521566579118371,0.0167067684233189,0,
00:00:05.888,-0.00961354561150074,-0.00101388175971806,0.000695464550517499,0,
00:00:05.892,-0.000737129128538072,-0.00663908710703254,0.00251717679202557,0,
00:00:05.896,-0.00834006909281015,0.0064406041055917705,-0.022697227075696002,0,
00:00:05.9,-0.0010366552742198099,-0.00719612697139382,-0.00919341016560793,0,
00:00:05.904,0.0201536417007446,0.00570013700053096,0.008243417367339129,0,
00:00:05.908,-0.00475222244858742,0.00593412388116121,-0.00918197818100452,0,
00:00:05.912,-0.0133535340428352,-0.0027458632830530396,0.0116232875734568,0,
00:00:05.916,0.00768368737772107,-0.009070610627532009,0.0130926379933953,0,
00:00:05.92,0.0028247006703168197,-0.00547884497791529,-0.0111616794019938,0,
00:00:05.924,0.0025696333032101397,0.0067049604840576605,0.0297512151300907,0,
00:00:05.928,-0.00254734186455607,0.0108622945845127,-0.0343334972858429,0,
00:00:05.932,0.0037023690529167704,-0.0056459535844624,0.00142015796154737,0,
00:00:05.936,-0.0047678221017122295,-0.0006941152387298639,0.00993689149618149,0,
00:00:05.94,-0.00853796768933535,-1.3244663023215302e-05,-0.006815172731876371,0,
00:00:05.944,0.000751833780668676,-0.000445133686298504,-0.0266295447945595,0,
00:00:05.948,0.0109713142737746,-0.00276283640414476,0.0133352158591151,0,
00:00:05.952,0.00465735234320164,0.00977195892482996,0.0282051470130682,0,
00:00:05.956,-0.00480260327458382,-0.00637786043807864,0.0132760759443045,0,
00:00:05.96,-0.0120058599859476,-0.00825601257383823,-0.0170399248600006,0,
00:00:05.964,0.000982469879090786,-0.00130669772624969,-0.0120581993833184,0,
00:00:05.968,0.00729899713769555,0.00625210162252188,-0.0053244261071085895,0,
00:00:05.972,-0.00599862635135651,0.0033660971093922897,0.00452428963035345,0,
00:00:05.976,0.0036040593404322897,0.00582371046766639,0.00565565610304475,0,
00:00:05.98,0.007406137418001891,-0.00166108855046332,-0.0117806475609541,0,
00:00:05.984,0.00910542719066143,-0.0060907648876309395,0.00498144375160336,0,
00:00:05.988,0.0023935183417052,0.0009238712373189631,-0.0037089767865836603,0,
00:00:05.992,-0.00862288195639849,0.00274064461700618,0.0147810075432062,0,
00:00:05.996,-0.0346042327582836,-0.0068619153462350395,-0.0155643923208117,0,
00:00:06,-0.00866070296615362,-0.00304822367615998,0.0245192758738995,0,
00:00:06.004,0.0347794145345688,0.00218960572965443,0.0307474732398987,0,
00:00:06.008,0.0259646121412516,0.00852098595350981,-0.0523469187319279,0,
00:00:06.012,0.00351601932197809,0.0015611895360052599,-0.0326066985726357,0,
00:00:06.016,-0.0205689202994108,0.00207341043278575,0.00893415231257677,0,
00:00:06.02,-0.0224941577762365,-0.008855621330440041,0.0271207112818956,0,
00:00:06.024,-0.008861337788403029,-0.0052528614178299895,0.0204794276505709,0,
00:00:06.028,0.00879673752933741,0.0028154030442237897,0.00120775238610804,0,
00:00:06.032,0.0173723008483648,0.0061639021150767795,-0.00897355005145073,0,
00:00:06.036,0.00295752985402942,0.00034524276270531096,-0.00400158669799566,0,
00:00:06.04,0.000793940445873886,0.000552310899365693,-0.0121032455936074,0,
00:00:06.044,0.000310470932163298,-0.00543126277625561,-0.0142235662788153,0,
00:00:06.048,0.00335175194777548,-0.00022946522221900498,0.0202676653862,0,
00:00:06.052,-0.0163079276680946,-0.000459024769952521,-0.0118067059665918,0,
00:00:06.056,0.00207568984478712,0.0034631155431270604,0.0202855002135038,0,
00:00:06.06,0.00365672493353486,0.0043233442120254,7.39256356609985e-05,0,
00:00:06.064,-0.0116096772253513,-0.00200290372595191,0.00485326210036874,0,
00:00:06.068,-0.00183520605787635,-0.0030679467599839,-0.0246623549610376,0,
00:00:06.072,0.0285142716020346,-0.0017444951226934801,0.0105820205062628,0,
00:00:06.076,-0.0038229075726121703,0.00201641232706606,0.0023858433123678,0,
00:00:06.08,-0.0145880132913589,-0.00309646571986377,-0.0075534200295805905,0,
00:00:06.084,-0.00444022752344608,0.00143712235148996,0.00203965208493173,0,
00:00:06.088,0.0131024597212672,0.0021511388476938,0.00403266679495573,0,
00:00:06.092,0.00749987922608852,0.0011469692690298,-0.0037961555644869796,0,
00:00:06.096,-0.0186255816370249,0.00199549621902406,0.008145010098814959,0,
00:00:06.1,-0.00584087753668427,-0.0027583511546254197,0.0058048423379659705,0,
00:00:06.104,-0.000502369715832174,-0.00455973856151104,-0.00661204289644957,0,
00:00:06.108,0.0190769638866186,0.00545358890667558,-0.0111351497471333,0,
00:00:06.112,0.00259664934128523,-0.00568542722612619,-0.00301025854423642,0,
00:00:06.116,-0.00868286099284887,-0.00206126365810633,0.0104802288115025,0,
00:00:06.12,-0.0013483277289196801,0.00904081296175718,0.0233215522021055,0,
00:00:06.124,0.00652237655594945,0.00677002407610416,-0.0284657068550587,0,
00:00:06.128,-0.007898252457380291,-0.00779927102848887,-0.0179376937448978,0,
00:00:06.132,-0.00734538258984685,-0.0024175792932510398,0.0221730247139931,0,
00:00:06.136,0.00478156143799424,-0.00101139373145998,0.0032940753735601898,0,
00:00:06.14,0.0142085887491703,-0.00253723468631506,0.00959310028702021,0,
00:00:06.144,-0.00516688451170921,-0.00212330580689013,-0.008221009746193891,0,
00:00:06.148,-0.00921088643372059,0.0019264472648501398,0.0045891641639173,0,
00:00:06.152,-0.00924240984022617,0.00600474653765559,-0.0327351614832878,0,
00:00:06.156,0.004573277197778221,0.00119739549700171,0.0164349693804979,0,
00:00:06.16,0.0219396110624075,0.0035591102205216898,0.0155985560268164,0,
00:00:06.164,0.00558989914134145,-0.00292488373816013,0.00867718830704689,0,
00:00:06.168,-0.0096319206058979,-0.00202135532163084,-0.018694281578064,0,
00:00:06.172,-0.00515803648158908,-0.0044295284897089,-0.00271843047812581,0,
00:00:06.176,-0.0287050660699606,-0.00188039324712008,0.00453687459230423,0,
00:00:06.18,0.00262582069262862,0.00103423558175564,0.00475764414295554,0,
00:00:06.184,0.0284946449100971,0.000306357629597187,-0.00035152857890352596,0,
00:00:06.188,0.0130692906677723,0.00613780971616507,-0.0138779543340206,0,
00:00:06.192,-0.00119348953012377,0.000610572809819132,-0.00182135973591357,0,
00:00:06.196,-0.0190964508801699,-0.00164719868917018,0.0167762544006109,0,
00:00:06.2,-0.015914723277091997,-0.0018123111221939301,0.0040729939937591605,0,
00:00:06.204,0.0082202460616827,-0.0051605966873467,-0.0159254726022482,0,
00:00:06.208,0.0106073515489697,0.00177661306224763,0.00645548943430185,0,
00:00:06.212,-0.00750112812966108,0.0077912388369441,0.0123957674950361,0,
