Elapsed Time,EMG1,EMG2,EMG3,BioRadio Event,Unnamed: 5
00:00:00,0.533475458621979,-2.08823466300964,3.3316271305084197,0,
00:00:00.004,-0.5118094086647029,1.98717439174652,-3.1724681854248,0,
00:00:00.008,-0.415978610515594,1.6539709568023702,-2.6314277648925803,0,
00:00:00.012,-0.0566447973251343,0.17612536251545,-0.282404214143753,0,
00:00:00.016,0.23337422311306,-0.855660915374756,1.3533010482788101,0,
00:00:00.02,0.282771706581116,-1.02389824390411,1.6406626701355,0,
00:00:00.024,0.141176000237465,-0.630453646183014,1.00623333454132,0,
00:00:00.028,-4.4688109483104206e-05,-0.0879335924983025,0.141705751419067,0,
00:00:00.032,-0.08619271218776699,0.298800140619278,-0.4803139269351961,0,
00:00:00.036,-0.0928693413734436,0.41762679815292403,-0.659060180187225,0,
00:00:00.04,-0.0584128275513649,0.300672680139542,-0.48285403847694397,0,
00:00:00.044,-0.0243449900299311,0.11077168583869901,-0.18423534929752303,0,
00:00:00.048,0.0109314434230328,-0.0394487492740154,0.0719545483589172,0,
00:00:00.052,0.0254516154527664,-0.121165625751019,0.19569456577301,0,
00:00:00.056,0.0227207150310278,-0.11392904818058001,0.18153703212738,0,
00:00:00.06,0.0155751006677747,-0.0598149225115776,0.0733104348182678,0,
00:00:00.064,-0.0018467248883098399,-0.0023018850479275,0.0258856154978275,0,
00:00:00.068,-0.0159669313579798,0.0322636216878891,-0.0508324801921844,0,
00:00:00.072,-0.0076559288427233705,0.0343773327767849,-0.0685259476304054,0,
00:00:00.076,0.00400206865742803,0.0316015221178532,-0.0361452996730804,0,
00:00:00.08,0.0017452894244343,0.008282165974378591,-0.0179968867450953,0,
00:00:00.084,-0.00145633949432522,-0.00820948090404272,0.0076927361078560404,0,
00:00:00.088,0.0020934692583978198,-0.0139465499669313,0.0234188474714756,0,
00:00:00.092,0.00780910672619939,-0.009053172543644909,0.0161777138710022,0,
00:00:00.096,-0.0058351457118988,-0.00452350405976176,0.0129252569749951,0,
00:00:00.1,-0.0120509192347527,-0.00657478906214237,0.009839450009167191,0,
00:00:00.104,-0.00395190762355924,0.00829850696027279,-0.0231371130794287,0,
00:00:00.108,0.0168093051761389,0.006002931389957671,-0.00148710212670267,0,
00:00:00.112,0.0226710177958012,0.00284248241223395,-0.0042545129545033,0,
00:00:00.116,-0.0171618945896626,-0.00202628900296986,-0.0129203908145428,0,
00:00:00.12,-0.0196454562246799,-0.00163014361169189,0.0102381194010377,0,
00:00:00.124,0.0027405710425227898,0.0039021943230181898,0.008422748185694221,0,
00:00:00.128,0.00047364280908368495,0.0007327409693971281,0.0116810780018568,0,
00:00:00.132,0.0056447419337928295,-0.00669472990557551,-0.0130100538954139,0,
00:00:00.136,0.00711845327168703,-0.0014162114821374401,-0.0117849409580231,0,
00:00:00.14,0.00211893604137003,0.00533721968531609,0.009927927516400809,0,
00:00:00.144,-0.0106432856991887,-0.00217252015136182,0.00333875417709351,0,
00:00:00.148,0.00403153989464045,-0.00620360905304551,-0.0044234050437808,0,
00:00:00.152,0.00159627560060471,0.00603531720116735,0.00656438712030649,0,
00:00:00.156,-0.00445906585082412,0.00477951765060425,0.00214068102650344,0,
00:00:00.16,0.011164047755301,-0.0038175152149051397,-0.00745437340810895,0,
00:00:00.164,-0.00764068169519305,-0.0007045565871521831,-0.0093419011682272,0,
00:00:00.168,-0.00462380982935429,0.00230544595979154,0.00370712601579726,0,
00:00:00.172,-0.0006069790688343349,-0.00382358068600297,0.00623027281835675,0,
00:00:00.176,-0.00225151120685041,-0.00174802169203758,0.00375800766050816,0,
00:00:00.18,0.0042731175199151,0.00328244734555483,0.00450536888092756,0,
00:00:00.184,0.0109579963609576,0.00664792535826564,-0.0057606920599937396,0,
00:00:00.188,-0.0057876268401742,-0.00782267842441797,-0.00759918848052621,0,
00:00:00.192,0.00689057121053338,0.0035914294421672795,-0.00815319549292326,0,
00:00:00.196,-0.00873013120144606,-0.0025271880440414,0.0171038061380386,0,
00:00:00.2,-0.0116357821971178,-0.004257043823599821,0.00542463315650821,0,
00:00:00.204,0.000473710999358445,0.00185038568452001,-0.0070864544250071,0,
00:00:00.208,0.0125870257616043,0.00502902874723077,-0.00174742937088013,0,
00:00:00.212,-0.00795334577560425,-0.000256236409768462,-0.00721750548109412,0,
00:00:00.216,0.0101716006174684,-0.00362732051871717,0.0091601824387908,0,
00:00:00.22,0.0162091106176376,0.00296034081839025,-0.0036655978765338703,0,
00:00:00.224,-0.0141695337370038,-0.00264848093502223,-0.00281170941889286,0,
00:00:00.228,-0.0166600607335567,0.0029243715107440896,0.000806334719527513,0,
00:00:00.232,-0.00291322800330818,-0.00294409994967282,0.006907488685101271,0,
00:00:00.236,0.0031924634240567697,0.0006516171270050111,0.0005679639871232209,0,
00:00:00.24,0.0007353234104812151,-0.0009848301997408269,-0.00017864287656266202,0,
00:00:00.244,0.0183743610978127,0.00447277491912246,-0.004416602198034521,0,
00:00:00.248,0.00595269165933132,0.0014944884460419401,-0.00295576965436339,0,
00:00:00.252,-0.004886973649263379,-0.0039571863599121605,-0.00436205649748445,0,
00:00:00.256,-0.0108455866575241,-0.0010017070453614,0.0076069375500083,0,
00:00:00.26,-0.00682565290480852,-0.00456213299185038,0.00320283533073962,0,
00:00:00.264,-0.0027655644807964602,0.00166150252334774,-9.460709406994279e-05,0,
00:00:00.268,0.00529125984758139,0.00324007496237755,-0.00164213788229972,0,
00:00:00.272,0.00786809902638197,0.00636647175997496,-0.00583672150969505,0,
00:00:00.276,0.000954965711571276,-0.00555616384372115,0.00510323885828257,0,
00:00:00.28,-0.00595516012981534,-0.004184279125183821,-0.0008267767843790349,0,
00:00:00.284,0.00603265594691038,0.00206537428312004,0.00946607533842325,0,
00:00:00.288,-0.00602440116927028,0.004675761330872771,-0.00753791024908423,0,
00:00:00.292,0.00290017947554588,-0.0029958183877170103,-0.00720886280760169,0,
00:00:00.296,-0.00029283843468874704,-0.00220245006494224,-0.00582255609333515,0,
00:00:00.3,-0.00522213568910956,0.00439270120114088,0.00873628351837397,0,
00:00:00.304,0.0115868831053376,-0.000284227513475344,0.00528933573514223,0,
00:00:00.308,-0.0066982768476009395,-0.00169829837977886,-0.00471068732440472,0,
00:00:00.312,-0.007972021587193009,-0.0013040342601016199,0.00689318543300033,0,
00:00:00.316,0.00368485832586885,-0.0024198805913329103,0.00295065203681588,0,
00:00:00.32,0.0009335720096714789,0.00653239106759429,-0.00273088389076293,0,
00:00:00.324,0.0084520298987627,-0.00164089642930776,-0.000863026885781437,0,
00:00:00.328,-0.00123120145872235,-0.00465948460623622,-0.0285495892167091,0,
00:00:00.332,0.0132931247353554,0.0030591308604925897,0.0173872373998165,0,
00:00:00.336,-0.0138312662020326,0.00232508778572083,0.017305975779891004,0,
00:00:00.34,-0.0237545985728502,-0.0043012583628296895,0.00403479160740972,0,
00:00:00.344,0.0019090881105512398,-0.0017827192787081,-0.008320932276546959,0,
00:00:00.348,0.0205584019422531,0.00568669661879539,-0.0111486734822392,0,
00:00:00.352,-0.0010032195132225802,0.000881442101672292,-0.0107849538326263,0,
00:00:00.356,-9.13374606170692e-06,-0.00326927355490625,0.0121574876829982,0,
00:00:00.36,0.00728443404659629,0.000515617779456079,0.00600274931639433,0,
00:00:00.364,0.00729455705732107,-0.00128478230908513,-0.00045976036926731505,0,
00:00:00.368,-0.0191070754081011,0.00412342138588429,0.00308668706566095,0,
00:00:00.372,-0.00328163336962461,-0.0008080499828793111,-0.00426504062488675,0,
00:00:00.376,-0.00207086885347962,5.6073517043842e-05,-0.00519278598949313,0,
00:00:00.38,0.00664921477437019,-0.0053802733309567,0.00592144345864654,0,
00:00:00.384,0.0028522075153887302,0.00430681370198727,0.0034193992614746102,0,
00:00:00.388,0.0007109355647116901,-0.0018761545652523602,0.00089994992595166,0,
00:00:00.392,-0.0066246930509805705,-0.00146199925802648,-0.0178194046020508,0,
00:00:00.396,0.00723452912643552,-0.0037640954833477705,0.00317686074413359,0,
00:00:00.4,0.0105948830023408,0.0054019121453166,0.0208988599479198,0,
00:00:00.404,-0.0114294486120343,0.00672213453799486,-0.00823979824781418,0,
00:00:00.408,-0.013559021987021002,-0.00308379996567965,0.00343287060968578,0,
00:00:00.412,0.00891669560223818,-0.00152056105434895,-0.0137529084458947,0,
00:00:00.416,-0.0023885311093181398,-0.00118979113176465,0.00197403389029205,0,
00:00:00.42,0.0131719978526235,-0.000858898682054132,-0.00214371061883867,0,
00:00:00.424,-0.0034485210198909,-0.00035169441252946897,-0.000557762745302171,0,
00:00:00.428,-0.00530605064705014,-0.0019449935061857102,0.0103128533810377,0,
00:00:00.432,0.008179151453077791,0.008602946996688841,-0.000542989815585315,0,
00:00:00.436,-0.0131942769512534,-0.0038669444620609296,0.0046489052474498705,0,
00:00:00.44,-0.00012174040602985801,-0.00655932491645217,-0.0041680783033371,0,
00:00:00.444,0.00416492065414786,0.0006734034977853299,0.0018747807480394801,0,
00:00:00.448,0.0035821944475174,0.00307443295605481,-0.0055318102240562396,0,
00:00:00.452,0.00753637589514256,0.00458587193861604,-0.0103546008467674,0,
00:00:00.456,-0.00864312890917063,-0.00318125518970191,0.007600096520036459,0,
00:00:00.46,-0.0023453789763152604,-0.00226687570102513,0.00930597353726625,0,
00:00:00.464,-0.0104455556720495,0.00439905980601907,-0.00230886065401137,0,
00:00:00.468,0.00630463659763336,-0.000285800197161734,-0.00625582784414291,0,
00:00:00.472,0.00862229615449905,-0.00173922232352197,-0.000205619478947483,0,
00:00:00.476,0.008564800024032591,-0.00344728725031018,-0.00231015775352716,0,
00:00:00.48,0.0017448099097237,0.007793656550347809,0.0118136135861278,0,
00:00:00.484,-0.00628423597663641,-0.0039189113304019,-0.00409582909196615,0,
00:00:00.488,-0.0167474523186684,-0.00616797804832459,-0.00701914634555578,0,
00:00:00.492,0.00033978861756622797,-0.000940430094487965,0.00894064363092184,0,
00:00:00.496,0.00148508453276008,0.0074169146828353405,-0.00673111202195287,0,
00:00:00.5,0.00467031728476286,0.000160133611643687,0.00215659337118268,0,
00:00:00.504,0.00930262822657824,0.0012744829291477802,-0.0043262941762805,0,
00:00:00.508,-0.00295948050916195,-6.02796317252796e-05,0.0118587557226419,0,
00:00:00.512,0.005172413308173421,-0.0033221708144992603,-0.000454974157037213,0,
00:00:00.516,0.0019518333720043302,0.00466092396527529,-0.0222907420247793,0,
00:00:00.52,-0.0173720642924309,-0.0032308693043887602,0.00654177367687225,0,
00:00:00.524,-0.00360620114952326,-0.00533930258825421,0.0193248707801104,0,
00:00:00.528,0.00884854327887297,0.0011737078893929698,-0.00645107589662075,0,
00:00:00.532,0.000538643973413855,0.00702057359740138,-0.00338877644389868,0,
00:00:00.536,0.007105743978172541,-0.00398773141205311,-0.0015587258385494401,0,
00:00:00.54,0.0105827264487743,-0.000795382598880678,-0.00454377895221114,0,
00:00:00.544,-0.0170627404004335,0.000675012532155961,0.00629181228578091,0,
00:00:00.548,-0.0157409776002169,-0.00119701831135899,-0.000274387944955379,0,
00:00:00.552,0.0148299504071474,0.0024349133018404198,0.007333374116569759,0,
00:00:00.556,0.00310939410701394,0.0015978692099452,-0.008012615144252779,0,
00:00:00.56,0.0042743980884552,0.00191455741878599,-0.0102049075067043,0,
00:00:00.564,-0.00197687186300755,-0.00526148499920964,0.0141583550721407,0,
00:00:00.568,-0.00106294360011816,0.00323204160667956,-0.0009534958517178891,0,
00:00:00.572,-0.008056021295487879,-0.00315915630199015,-0.0100500555709004,0,
00:00:00.576,-4.75993219879456e-05,-0.006413935218006371,0.0018946243217214899,0,
00:00:00.58,0.005865469574928279,0.00628083059564233,0.0135532142594457,0,
00:00:00.584,0.00801486242562532,0.00309924967586994,-0.0021471851505339102,0,
00:00:00.588,-0.00166487519163638,0.000556922808755189,-0.00579677196219563,0,
00:00:00.592,-0.00942477583885193,-0.0008841706439852711,-0.0100190117955208,0,
00:00:00.596,-0.00243741995655,-0.00123895052820444,0.007446577306836841,0,
00:00:00.6,-0.004522909410297871,-0.00295754009857774,0.0107715018093586,0,
00:00:00.604,0.0150545500218868,0.0016858646413311401,-0.00910556223243475,0,
00:00:00.608,-0.000937997072469443,0.00389593583531678,0.0039434838108718395,0,
00:00:00.612,-0.007957230322062971,-0.00350287812761962,-0.0133713688701391,0,
00:00:00.616,-0.00219709752127528,0.00188824196811765,0.006622865796089171,0,
00:00:00.62,0.0198933500796556,-0.00138470320962369,0.00718975020572543,0,
00:00:00.624,0.00755678303539753,0.000810931960586458,-0.0063762478530407,0,
00:00:00.628,-0.0239070765674114,-0.00215298682451248,0.00139749341178685,0,
00:00:00.632,-0.0262766424566507,-0.00308426283299923,0.00898084603250027,0,
00:00:00.636,0.0163335055112839,0.0026159561239182897,-0.00464380579069257,0,
00:00:00.64,0.014409544877708,0.00509613612666726,0.000789300014730543,0,
00:00:00.644,0.009006963111460209,-0.00273621524684131,-0.00374515540897846,0,
00:00:00.648,-0.0022282584104687,0.0019925865344703197,-0.00978982355445623,0,
00:00:00.652,-0.00995367299765348,-0.00384216336533427,0.0026038873475045,0,
00:00:00.656,-0.000756230787374079,0.000178286587470211,0.00372401252388954,0,
00:00:00.66,0.00970239285379648,0.00105790968518704,0.0143476817756891,0,
00:00:00.664,-0.0215158462524414,0.00272156344726682,-0.007355077192187309,0,
00:00:00.668,0.0072770593687892,-0.00195550848729908,-0.0119353849440813,0,
00:00:00.672,0.0310882944613695,8.92032767296769e-05,0.00813703332096338,0,
00:00:00.676,-0.0238802134990692,-0.0066801751963794205,0.00817248225212097,0,
00:00:00.68,-0.0125400265678763,0.00502142356708646,-0.0149195231497288,0,
00:00:00.684,0.00222196849063039,0.0021588099189102697,0.007992522791028021,0,
00:00:00.688,0.00486894743517041,-0.00176175427623093,-0.0110242236405611,0,
00:00:00.692,0.00544122187420726,0.00137533934321254,0.00599378906190395,0,
00:00:00.696,0.0076438314281404,0.0029383669607341303,0.0117392698302865,0,
00:00:00.7,-0.0116047104820609,-0.0044042249210178895,0.00955647230148315,0,
00:00:00.704,0.0155856739729643,-0.0006706453277729451,-0.00835901126265526,0,
00:00:00.708,0.00251728296279907,0.000552762532606721,-0.0242517441511154,0,
00:00:00.712,-0.0211809389293194,0.000610272807534784,0.0048623657785356,0,
00:00:00.716,-0.00523933349177241,0.00236300146207213,0.00116057589184493,0,
00:00:00.72,-0.0008651032112538809,-0.00199015671387315,0.0149868866428733,0,
00:00:00.724,-0.0007235161610879,-0.001796716125682,0.00027126827626489103,0,
00:00:00.728,0.0195587445050478,-0.00239795609377325,-0.0101729286834598,0,
00:00:00.732,0.00612136675044894,0.00690776482224464,0.00269040069542825,0,
00:00:00.736,-0.0073299920186400405,-0.0012594247236847901,-0.0024232342839241,0,
00:00:00.74,-0.0005112465587444599,-0.00448740646243095,0.00491926958784461,0,
00:00:00.744,0.00013667324674315802,0.000924065650906414,0.020060122013092,0,
00:00:00.748,-0.00531977834179997,0.00203530956059694,-0.0158866550773382,0,
00:00:00.752,-0.0126593122258782,0.00119768211152405,-0.0238048676401377,0,
00:00:00.756,0.00687446026131511,1.86530014616437e-05,0.00800079293549061,0,
00:00:00.76,0.010383365675807,-0.000696839124429971,0.0119478842243552,0,
00:00:00.764,-0.000596687837969512,-0.000792653183452785,0.00773478578776121,0,
00:00:00.768,-0.00292144808918238,-0.000483355310279876,-0.0112972250208259,0,
00:00:00.772,-0.00596930086612701,0.00199788366444409,-0.00210690428502858,0,
00:00:00.776,-0.0024536268319934602,-0.00177309126593173,0.0126668764278293,0,
00:00:00.78,0.009988231584429741,-0.00343392486684024,-0.0070158303715288604,0,
00:00:00.784,0.0186171978712082,0.00408583274111152,-0.00672506494447589,0,
00:00:00.788,-0.0208344031125307,0.000588852912187576,0.00103145721368492,0,
00:00:00.792,-0.00863006804138422,-0.00254504359327257,0.0114930709823966,0,
00:00:00.796,0.0152642810717225,0.0035786454100161795,-0.0117564043030143,0,
00:00:00.8,-0.00895522348582745,-0.000514058745466173,-0.00204132101498544,0,
00:00:00.804,-0.00687501253560185,-0.0014098581159487401,0.0117977038025856,0,
00:00:00.808,-0.00319136073812842,-0.00295751192606986,-0.007695424370467659,0,
00:00:00.812,0.0178659968078136,0.00396816525608301,-0.00225297152064741,0,
00:00:00.816,-0.00324123352766037,0.0021611358970403697,0.00867924652993679,0,
00:00:00.82,0.00660653365775943,-0.00293429521843791,0.00397437764331698,0,
00:00:00.824,-0.0055380598641932,-0.0023450865410268302,-0.000290572614176199,0,
00:00:00.828,-0.00349127175286412,-0.00238245190121233,-0.00497905723750591,0,
00:00:00.832,0.000341320293955505,0.00516157411038876,-0.0180759821087122,0,
00:00:00.836,-0.00222537945955992,-0.00516961049288511,0.0025296015664935103,0,
00:00:00.84,-0.000962210586294532,0.00948545895516872,0.0117825781926513,0,
00:00:00.844,-0.007524419575929641,9.114699059864509e-05,0.0101402243599296,0,
00:00:00.848,0.0157097317278385,-0.00332604791037738,-0.0007218396058306099,0,
00:00:00.852,0.00198689196258783,-0.0051057324744761,0.00118600821588188,0,
00:00:00.856,-0.0036395825445652,0.0027926955372095104,-0.0106163332238793,0,
00:00:00.86,9.223195229424158e-05,-0.00202068616636097,-0.0154519872739911,0,
00:00:00.864,-0.0102280266582966,0.0037665762938559103,0.0117578515782952,0,
00:00:00.868,0.00275483937002718,0.0018398705869913101,0.00256555527448654,0,
00:00:00.872,0.00012290167796891202,-0.00511725479736924,0.00612002005800605,0,
00:00:00.876,0.0037692044861614704,-0.000278701307252049,0.0045150988735258605,0,
00:00:00.88,0.008921012282371521,0.0056460397318005605,-0.0057155089452862705,0,
00:00:00.884,-0.00969270616769791,-0.00669805286452174,0.00103348935954273,0,
00:00:00.888,-0.0042911726050078895,0.00124608294572681,-0.00953871663659811,0,
00:00:00.892,0.0134699186310172,0.00481277564540505,0.00670335907489061,0,
00:00:00.896,-0.0147791523486376,-0.000496631080750376,-0.0107307136058807,0,
00:00:00.9,0.0030341299716383197,-0.0017970690969377802,0.00789226219058037,0,
00:00:00.904,0.00509977852925658,-0.003316355869174,0.007142929825931791,0,
00:00:00.908,-0.00847938656806946,0.00379739538766444,0.00119574170093983,0,
00:00:00.912,0.00454346183687449,-0.00198457879014313,-0.00934548489749432,0,
00:00:00.916,0.0181358531117439,0.00318883918225765,0.00396191095933318,0,
00:00:00.92,-0.0055099856108427,-0.0030111342202872,-0.00166219042148441,0,
00:00:00.924,-0.0213354062289,0.00251223146915436,-0.00156531145330518,0,
00:00:00.928,-0.00335695571266115,-0.0031579271890223,-0.0020417398773133802,0,
00:00:00.932,0.0194921605288982,0.00273462478071451,-0.0031215932685881896,0,
00:00:00.936,-0.0113732786849141,0.0013253161450848,0.0212696678936481,0,
00:00:00.94,0.0219409130513668,-0.005123523529618979,-0.0101952692493796,0,
00:00:00.944,-0.0035226852633059,-0.00207731034606695,-0.0124129932373762,0,
00:00:00.948,-0.017576364800334,0.00378238363191485,0.0062525221146643205,0,
00:00:00.952,-0.0129259945824742,0.00531462812796235,0.00620969757437706,0,
00:00:00.956,0.00855198781937361,-0.0053337044082582,-0.000938455108553171,0,
00:00:00.96,0.009354162029922009,0.00327689037658274,-0.000605144130531698,0,
00:00:00.964,0.0101412022486329,0.00151419802568853,-0.00377888139337301,0,
00:00:00.968,0.0015594472642988,-0.0057310126721859,0.00012504166807048,0,
00:00:00.972,-0.000987497856840491,0.00326856994070113,-0.007664347998797891,0,
00:00:00.976,-0.0127222938463092,-0.0027539138682186604,-0.000124955404317006,0,
00:00:00.98,-0.016053631901741004,-0.0080415541306138,0.0144555736333132,0,
00:00:00.984,0.00617579324170947,0.00644242344424129,0.0196759477257729,0,
00:00:00.988,0.0220145173370838,0.0129675893113017,-0.0248482991009951,0,
00:00:00.992,-0.00207514339126647,-0.0036868955940008202,-0.0135375401005149,0,
00:00:00.996,-0.00463811727240682,-0.00665399245917797,0.0066173835657537,0,
00:00:01,-0.00379737862385809,-0.007920415140688421,0.0102276764810085,0,
00:00:01.004,-0.00791023671627045,0.0038934135809540705,0.0014422480016946801,0,
00:00:01.008,0.0061168959364295,0.00538741983473301,-0.00477099744603038,0,
00:00:01.012,0.00813207123428583,0.0047710225917398895,-0.00944959744811058,0,
00:00:01.016,0.00385399698279798,-0.0022875452414155,0.00581857189536095,0,
00:00:01.02,-0.0054068537428975105,-0.0035430123098194603,0.0046421322040259795,0,
00:00:01.024,-0.0105404490604997,-2.07007051358232e-05,0.00863310229033232,0,
00:00:01.028,-0.0138396136462688,-0.00631395261734724,0.004552305676043029,0,
00:00:01.032,0.0278418194502592,0.0053914883174002205,-0.0265429895371199,0,
00:00:01.036,0.008560395799577241,0.00444117514416575,-0.0026410147547721897,0,
00:00:01.04,-0.0120475878939033,-0.00577024882659316,0.0189166124910116,0,
00:00:01.044,-0.0272165704518557,0.0037325199227780104,0.0056388913653791,0,
00:00:01.048,0.0213650539517403,0.00235621607862413,-0.00733044883236289,0,
00:00:01.052,0.006533549167215821,-0.0071477321907877905,-0.00194927759002894,0,
00:00:01.056,0.0124463774263859,0.0054570795036852394,-0.00725265312939882,0,
00:00:01.06,-0.00982890836894512,-0.00336597696878016,0.00508926250040531,0,
00:00:01.064,-0.0179247241467237,-1.4982479115133201e-05,0.0045407200232148205,0,
00:00:01.068,-0.00973597075790167,0.00100087479222566,0.000737112830393016,0,
00:00:01.072,0.0141198085620999,0.000801294052507728,-0.0102191781625152,0,
00:00:01.076,0.0154417539015412,0.00230526132509112,0.00757730565965176,0,
00:00:01.08,0.00244345678947866,-0.00427174894139171,-0.000966585823334754,0,
00:00:01.084,-0.00487795425578952,-4.61779927718453e-05,0.0029564583674073198,0,
00:00:01.088,-0.00842092093080282,0.0011681492906063802,-0.00149554491508752,0,
00:00:01.092,0.00614371104165912,0.00298349559307098,-0.00195959047414362,0,
00:00:01.096,-0.0154840033501387,-0.0017410680884495401,-0.0008947897586040199,0,
00:00:01.1,0.00914255063980818,-0.0019139272626489399,-0.00185900006908923,0,
00:00:01.104,-0.000808548065833747,-0.00268478109501302,0.00688261725008488,0,
00:00:01.108,-0.000282459135632962,0.00457352166995406,-0.00367768038995564,0,
00:00:01.112,0.00802724715322256,0.000590222305618227,-0.0028643584810197397,0,
00:00:01.116,-0.00563113484531641,-0.000759971502702683,0.00238463166169822,0,
00:00:01.12,0.00262712384574115,0.0012882555602118401,0.008452110923826691,0,
00:00:01.124,0.0013129662256687901,-0.0064807701855897895,-0.0137449894100428,0,
00:00:01.128,-0.00968796573579311,0.00651335855945945,0.00211224728263915,0,
00:00:01.132,0.0033676759339869,-0.0026747414376586697,0.0110319433733821,0,
00:00:01.136,0.010892404243350001,0.0021937687415629604,-0.0035390399862080795,0,
00:00:01.14,-0.0020226361230015802,-0.00331230903975666,-0.0074989311397075705,0,
00:00:01.144,-0.0140665704384446,0.000754581822548062,0.00158685236237943,0,
00:00:01.148,0.0058241453953087295,0.00141182995866984,-0.00791765656322241,0,
00:00:01.152,0.00160836824215949,0.00277320714667439,0.0107456902042031,0,
00:00:01.156,0.00258563947863877,-0.00419620238244534,0.00561064574867487,0,
00:00:01.16,-0.005786977708339689,0.0018326347926631602,0.003979531582444911,0,
00:00:01.164,0.00255733309313655,-0.00106403650715947,-0.00518617406487465,0,
00:00:01.168,0.00525343930348754,-0.0009002225706353779,-0.0108262244611979,0,
00:00:01.172,-0.00296894321218133,-0.00204935856163502,-0.0040222918614745105,0,
00:00:01.176,-0.00884272530674934,0.00261359405703843,0.00296688522212207,0,
00:00:01.18,0.0201894342899323,0.00233655516058207,0.00154604052659124,0,
00:00:01.184,-0.00764585612341762,0.00263910996727645,0.0208902973681688,0,
00:00:01.188,-0.0116313556209207,-0.0028099929913878397,-0.00909932423382998,0,
00:00:01.192,0.00306629645638168,-0.004981036763638261,0.005977937951684001,0,
00:00:01.196,0.006607788149267439,0.00295688072219491,-0.0254305135458708,0,
00:00:01.2,-0.00228190724737942,0.0023057912476360802,-0.000320044753607363,0,
00:00:01.204,-0.006686219945549961,-0.00632589031010866,0.0105419643223286,0,
00:00:01.208,0.00150053109973669,0.0044468124397099,0.00772586930543184,0,
00:00:01.212,0.0065053510479629,0.00141674268525094,-0.00464367493987083,0,
00:00:01.216,-0.0005965507589280611,-0.00223816535435617,0.0011553619988262699,0,
00:00:01.22,0.00960888713598251,0.0012699386570602699,0.00104568875394762,0,
00:00:01.224,-0.00338694755919278,0.00101917388383299,0.0036664290819317102,0,
00:00:01.228,-0.00727669335901737,-0.00011329203698551299,-0.00535483565181494,0,
00:00:01.232,-0.0114494785666466,0.00333076738752425,-0.0129039864987135,0,
00:00:01.236,0.000564126123208553,-0.0027172968257218604,0.00069152214564383,0,
00:00:01.24,0.00869233999401331,-0.0119235077872872,0.0163586940616369,0,
00:00:01.244,0.00669023580849171,0.008111028932034971,0.0207681842148304,0,
00:00:01.248,0.00171966850757599,0.0027979388833046,-0.0144084012135863,0,
00:00:01.252,-0.0062240301631391,-0.0015728683210909401,-0.0197677500545979,0,
00:00:01.256,0.0130829215049744,-0.000458569644251838,-0.016465475782752,0,
00:00:01.26,-0.00694027496501803,0.00307870819233358,0.0156568195670843,0,
00:00:01.264,-0.0226509422063828,-0.000675451999995857,0.007311861962079999,0,
00:00:01.268,-0.0038773731794208297,0.00524907978251576,0.006997556891292329,0,
00:00:01.272,0.01624377630651,-0.00214072363451123,0.00283090677112341,0,
00:00:01.276,0.0153027353808284,-0.010835075750946999,0.00902488734573126,0,
00:00:01.28,0.00345315365120769,0.00255051301792264,-0.0175033118575811,0,
00:00:01.284,-0.0058148019015789,0.00205635628663003,-0.00343909487128258,0,
00:00:01.288,-0.014663839712738998,0.00377350626513362,-0.00133109698072076,0,
00:00:01.292,-0.0041104466654360294,-0.00301424250937998,-0.00297311251051724,0,
00:00:01.296,0.0073560448363423295,0.00267923297360539,0.006354349665343761,0,
00:00:01.3,0.0036276502069085797,-0.004960543941706421,0.00752451363950968,0,
00:00:01.304,0.0029762682970613198,0.00488249165937305,-0.000516956555657089,0,
00:00:01.308,-0.0046667503193020795,0.0029487677384167897,0.00290060602128506,0,
00:00:01.312,0.00758657278493047,-0.00303483428433537,-0.0129649145528674,0,
00:00:01.316,-0.0134533075615764,-0.005098293069750071,-0.0104613034054637,0,
00:00:01.32,-0.00405830051749945,-0.00111371953971684,0.0213935784995556,0,
00:00:01.324,0.0147125478833914,0.00642153434455395,-0.0014065237483009698,0,
00:00:01.328,-0.00505048176273704,0.00123669242020696,-0.0030944577883929,0,
00:00:01.332,0.00474480073899031,0.00088497216347605,-0.00223765219561756,0,
00:00:01.336,0.0020062993280589602,-0.0056727291084826,-0.00280190934427083,0,
00:00:01.34,-0.00636671157553792,-0.000673193600960076,0.000297402817523107,0,
00:00:01.344,-0.00198024068959057,0.00129545421805233,0.0106537071987987,0,
00:00:01.348,0.00031169375870376804,0.00348993623629212,-0.00760756153613329,0,
00:00:01.352,0.0031914499122649397,-0.00332004553638399,-0.0034667809959501,0,
00:00:01.356,-0.0030508893541991698,-0.0017473183106631,0.00275220698677003,0,
00:00:01.36,0.00498348753899336,0.00717147486284375,0.00674310652539134,0,
00:00:01.364,-0.00039871002081781604,0.000320445135002956,-0.0012703286483883901,0,
00:00:01.368,-0.00449950248003006,-0.00725456792861223,-0.0124115478247404,0,
00:00:01.372,-0.0021056169643998103,-0.00545751536265016,0.00466316379606724,0,
00:00:01.376,0.0050815688446164105,0.005640157032758,0.00977172143757343,0,
00:00:01.38,0.0066675073467195,0.0117348236963153,-0.0147224571555853,0,
00:00:01.384,-0.009211174212396141,-0.00419575907289982,0.00694690039381385,0,
00:00:01.388,-0.00613715127110481,-0.0105454092845321,0.0151648679748178,0,
00:00:01.392,-0.0014374208403751302,0.00286874221637845,-0.0173708312213421,0,
00:00:01.396,0.0106526389718056,-0.000287278526229784,-0.00424406444653869,0,
00:00:01.4,0.00012141453771619099,0.0030355216003954398,0.007265515625476841,0,
00:00:01.404,0.00314585561864078,0.0041529592126607895,0.00295918923802674,0,
00:00:01.408,-0.00601313309744,-0.00183797616045922,-0.00212591723538935,0,
00:00:01.412,0.00549034914001822,-0.00069769931724295,0.00266612088307738,0,
00:00:01.416,-0.00636993814259768,-0.00557318376377225,-0.007946607656776909,0,
00:00:01.42,0.00285733863711357,0.00241441978141665,0.0058196345344185794,0,
00:00:01.424,0.00814224313944578,0.000375954346964136,0.0060893013142049295,0,
00:00:01.428,-0.0129731632769108,0.00035757021396420896,-0.0006624860689044,0,
00:00:01.432,-0.0073592378757894,-0.00356430280953646,-0.0131996320560575,0,
00:00:01.436,0.0106621626764536,0.00654702121391892,0.00308963609859347,0,
00:00:01.44,-0.000737797818146646,-0.0026277401484549,0.000258570798905566,0,
00:00:01.444,-0.000289208750473335,0.0025567808188498,-0.000871017167810351,0,
00:00:01.448,0.014229585416615,0.00736591359600425,-0.000180607297807001,0,
00:00:01.452,-0.00551329087466002,-0.0070693674497306295,0.00725708296522498,0,
00:00:01.456,-0.0106452405452728,-0.00909450184553862,0.00825510546565056,0,
00:00:01.46,-0.00670681754127145,-0.0022579452488571397,0.0055928872898221,0,
00:00:01.464,0.00383202009834349,0.0056236553937196706,-0.0312581583857536,0,
00:00:01.468,0.0125987436622381,0.00741733610630035,0.00175006815697998,0,
00:00:01.472,0.000373073795344681,-0.00196041027083993,0.00424710521474481,0,
00:00:01.476,0.00427508074790239,0.00362690258771181,0.0114190876483917,0,
00:00:01.48,-0.0157893896102905,-0.00050316087435931,0.0210539642721415,0,
00:00:01.484,-0.0042197541333735,-0.0122970538213849,-0.0101002799347043,0,
00:00:01.488,0.0050507974810898295,-0.00248450809158385,-0.0178782884031534,0,
00:00:01.492,-0.00310240546241403,0.0104606589302421,-0.0113525725901127,0,
00:00:01.496,0.0059535950422287,-0.00223397719673812,-0.00100184208713472,0,
00:00:01.5,0.0161895472556353,0.00281808502040803,0.0145012820139527,0,
00:00:01.504,-0.0120318960398436,-0.000282960187178105,0.0104905907064676,0,
00:00:01.508,-0.00995707791298628,0.00148355634883046,-0.00035678662243299197,0,
00:00:01.512,0.015723304823041,0.00190765620209277,-0.00857395399361849,0,
00:00:01.516,-0.00459112599492073,-0.0035688066855073,-0.0023038808722049,0,
00:00:01.52,-0.0113573661074042,-0.00339842564426363,0.00110843568108976,0,
00:00:01.524,0.000880975683685392,-0.00116684997919947,0.0060794861055910605,0,
00:00:01.528,0.004605005495250229,0.000825423165224493,0.00351072405464947,0,
00:00:01.532,0.00783152598887682,0.00372653943486512,-0.0090624401345849,0,
00:00:01.536,-0.0068607572466135,0.00149612897075713,0.00241499417461455,0,
00:00:01.54,0.00407051853835583,-0.00507510825991631,-0.0096281636506319,0,
00:00:01.544,-0.0004897551843896509,0.00211040582507849,-0.000586597016081214,0,
00:00:01.548,-0.012823848053813,-0.00225611519999802,0.007159690372645859,0,
00:00:01.552,0.007783003151416779,-0.000221630150917917,0.0120463510975242,0,
00:00:01.556,0.00958131439983845,0.00394507497549057,-0.0105356434360147,0,
00:00:01.56,-0.012980829924345,0.0022945327218622,0.00135113403666764,0,
00:00:01.564,0.017512071877718003,0.00378514127805829,-0.00048189077642746297,0,
00:00:01.568,-0.0147039387375116,-0.00788706447929144,0.00122507615014911,0,
00:00:01.572,-0.00529061583802104,-0.0031693787313997698,-0.0107647385448217,0,
00:00:01.576,0.0108979055657983,0.00239052344113588,0.00627496652305126,0,
00:00:01.58,0.0120291048660874,-8.709200483281171e-05,0.0129441572353244,0,
00:00:01.584,-0.0163166336715221,0.000204834315809421,-0.00608115829527378,0,
00:00:01.588,-0.00276293698698282,0.00286777387373149,-0.007136105559766291,0,
00:00:01.592,-0.00499487202614546,-0.00318897725082934,-0.0044945375993847795,0,
00:00:01.596,-0.00911462306976318,-0.00126347155310214,0.00785285141319036,0,
00:00:01.6,0.0258041489869356,0.0055022127926349605,0.005050454288721079,0,
00:00:01.604,0.00797807332128286,0.000346035260008648,-0.00046762355486862405,0,
00:00:01.608,-0.00236912746913731,-0.00376640446484089,0.00270383711904287,0,
00:00:01.612,-0.0147626306861639,0.0023464597761631,-0.0197435226291418,0,
00:00:01.616,-0.00850136019289494,-0.00116507697384804,-0.0049377586692571605,0,
00:00:01.62,0.0027196416631341,-0.00139764591585845,0.0180471278727055,0,
00:00:01.624,0.00583811895921826,-0.00461252219974995,0.00742419390007854,0,
00:00:01.628,-0.00190963479690254,0.00435999082401395,-0.0006128996610641481,0,
00:00:01.632,0.00726519152522087,0.00610720505937934,0.00191754812840372,0,
00:00:01.636,0.0101542947813869,-0.00102095911279321,-0.0101927658542991,0,
00:00:01.64,-0.011450101621448999,-0.0010175595525652198,-0.015488806180656001,0,
00:00:01.644,-0.000932069029659033,-0.00637848069891334,0.0114603526890278,0,
00:00:01.648,-0.0028930890839546897,-0.00033988241921178997,0.00641061924397945,0,
00:00:01.652,-0.00827832147479057,0.00208672322332859,0.00200489466078579,0,
00:00:01.656,-0.00047145358985289904,0.00419519795104861,-0.00292089488357306,0,
00:00:01.66,0.0121402395889163,0.0011725513031706199,0.004209985025227071,0,
00:00:01.664,0.013412656262517001,-0.0036473162472248103,-0.00602986989542842,0,
00:00:01.668,-0.0128461103886366,-0.00454724300652742,-0.00604863790795207,0,
00:00:01.672,-0.0144709181040525,-0.00015617063036188502,0.00447019562125206,0,
00:00:01.676,0.0153682716190815,0.0050469399429857705,0.00672151613980532,0,
00:00:01.68,0.0131026431918144,0.00754809565842152,-0.00047928121057339,0,
00:00:01.684,-0.025627177208662002,-0.0037362100556492797,-0.0007640810217708349,0,
00:00:01.688,-0.00872627180069685,-0.00720681715756655,-0.00431498140096664,0,
00:00:01.692,0.0105681056156754,-0.00263976235873997,-0.00246427627280355,0,
00:00:01.696,0.018018264323473,0.00810039881616831,-0.00801417604088783,0,
00:00:01.7,0.00568803725764155,-0.000298462924547493,0.0180593524128199,0,
00:00:01.704,-0.0100406650453806,-0.00211656559258699,-0.00150136614684016,0,
00:00:01.708,-0.0100336782634258,-0.00125173584092408,-0.006994703784585,0,
00:00:01.712,-0.00620963331311941,-0.0020417645573616,0.003622951451689,0,
00:00:01.716,0.0033822206314653197,0.00480942474678159,0.00637228460982442,0,
00:00:01.72,0.00353322853334248,0.00045671785483136795,-0.00719809997826815,0,
00:00:01.724,0.00784959830343723,-0.00312778097577393,-0.0102704456076026,0,
00:00:01.728,-0.00149475829675794,0.000935400428716093,0.00295562553219497,0,
00:00:01.732,0.0034820530563592898,0.0032492580357939,0.0018928211648017198,0,
00:00:01.736,-0.00934713333845139,-0.0058776056393981,0.0100274793803692,0,
00:00:01.74,0.0012979027815163099,0.00387746817432344,0.00618862779811025,0,
00:00:01.744,-0.00211399630643427,0.000429252308094874,-0.00885145459324121,0,
00:00:01.748,-0.00618972955271602,0.00116575392894447,-0.00117494829464704,0,
00:00:01.752,0.0245975852012634,-0.004973712842911479,-0.00749183120205998,0,
00:00:01.756,-0.00646421499550343,-5.524091102415699e-05,-0.0063924225978553295,0,
00:00:01.76,-0.0174423102289438,0.0036756263580173297,0.0113292811438441,0,
00:00:01.764,0.008692841976881029,-0.000565822527278215,0.00643954519182444,0,
00:00:01.768,-0.006108454894274471,-0.00108968513086438,0.00283992639742792,0,
00:00:01.772,0.00434792833402753,-0.0024583104532212,-0.0108671896159649,0,
00:00:01.776,0.00227004406042397,0.0022719844710081803,0.00511679658666253,0,
00:00:01.78,-0.0134337451308966,0.00217615766450763,-0.00549367535859346,0,
00:00:01.784,0.0140234073624015,0.00264469184912741,0.0181887913495302,0,
00:00:01.788,0.0193829350173473,-0.0068681389093399,-0.0177659299224615,0,
00:00:01.792,-0.00316156586632133,0.00322171882726252,-0.0188176985830069,0,
00:00:01.796,-0.0190550088882446,0.000273948477115482,0.0112057896330953,0,
00:00:01.8,-0.00743520725518465,-0.0007158233202062549,0.0143310241401196,0,
00:00:01.804,-0.0038431114517152296,-0.0006214200402610001,0.008787324652075771,0,
00:00:01.808,0.0017076627118513,0.0019113696180284,0.000775242748204619,0,
00:00:01.812,0.0072677293792367,-0.0038395200390368704,-0.0152376852929592,0,
00:00:01.816,0.0200930014252663,0.00067752884933725,-0.00689439522102475,0,
00:00:01.82,-0.00567324785515666,-0.000342118553817272,0.00508844712749124,0,
00:00:01.824,-0.0099538816139102,0.0051743583753705,0.0110964886844158,0,
00:00:01.828,-0.00555492471903563,-0.000189724392839707,-0.0107875782996416,0,
00:00:01.832,0.006096739787608389,0.000103305166703649,-0.00650861440226436,0,
00:00:01.836,-0.00300376513041556,-0.00364840286783874,0.0124727031216025,0,
00:00:01.84,-0.0017354283481836302,-0.00226610782556236,-0.0035020313225686602,0,
00:00:01.844,0.0012519193114712802,-0.00196805433370173,0.00562214525416493,0,
00:00:01.848,0.0109107438474894,0.0035014126915484697,-0.00878147222101688,0,
00:00:01.852,-0.00167638447601348,0.0053527816198766206,0.00256300368346274,0,
00:00:01.856,-0.00779061624780297,-0.0008772824658080941,0.00137441710103303,0,
00:00:01.86,-0.0128016900271177,-0.0045053376816213105,0.00708978157490492,0,
00:00:01.864,0.0165140237659216,0.000265776878222823,-0.00145320082083344,0,
00:00:01.868,-0.00036422788980417,-0.000852115859743208,-0.00699356757104397,0,
00:00:01.872,0.00136354204732925,0.00681007048115134,-0.00628276029601693,0,
00:00:01.876,-0.006838487926870579,-0.000285889691440389,-0.00828689150512218,0,
00:00:01.88,-0.00237260246649385,-0.0055269137956202,0.0225284621119499,0,
00:00:01.884,0.00677407486364245,-0.00950563605874777,0.007596184499561791,0,
00:00:01.888,0.00856398791074753,0.0061938869766891,-0.0191346127539873,0,
00:00:01.892,0.0041101137176156,0.0113775804638863,0.0111997649073601,0,
00:00:01.896,-0.0183474011719227,-0.00103917624801397,-0.00734034413471818,0,
00:00:01.9,-0.008207183331251141,-0.00453097466379404,0.000259048800216988,0,
00:00:01.904,-0.0037649457808584,-0.00550796743482351,-0.00165236019529402,0,
00:00:01.908,0.0236435141414404,-0.0010971490992233198,-0.00485263159498572,0,
00:00:01.912,0.0036169099621474704,0.00656450446695089,-0.00365176098421216,0,
00:00:01.916,-0.00686584366485476,0.0013754997635260198,0.0105091743171215,0,
00:00:01.92,-0.00588169042021036,-0.00317866448312998,0.00806715339422226,0,
00:00:01.924,0.000314008182613179,0.0024636082816869,0.00532968249171972,0,
00:00:01.928,-0.00267548207193613,0.000733789696823806,-0.007691686507314441,0,
00:00:01.932,0.00684948917478323,-0.005702589172869921,-0.008188858628273009,0,
00:00:01.936,0.0075236423872411294,-0.000307544047245756,-0.00987861026078463,0,
00:00:01.94,-0.0138691132888198,0.0018195925513282399,0.0109603069722652,0,
00:00:01.944,0.007036643568426371,0.0018108945805579398,0.00826573930680752,0,
00:00:01.948,-0.00695188483223319,0.000868414004798979,-0.00783036556094885,0,
00:00:01.952,-0.00375440553762019,0.00198357505723834,-0.000628996058367193,0,
00:00:01.956,0.00621808366850019,-0.000510536192450672,0.00570292770862579,0,
00:00:01.96,-0.0053961412049829995,-0.0125611983239651,-0.0068295854143798395,0,
00:00:01.964,0.0169876255095005,0.007784376852214341,0.00510661629959941,0,
00:00:01.968,-0.008026274852454659,0.007283153478056191,-0.0056284531019628,0,
00:00:01.972,0.00120077130850405,-0.00502797635272145,-4.4156244257465005e-05,0,
00:00:01.976,-0.010270900093019,0.000637825520243496,0.00686778174713254,0,
00:00:01.98,0.0118239345028996,0.00486165285110474,0.00284554692916572,0,
00:00:01.984,-0.000533836893737316,-0.0044124131090939,-0.0102651305496693,0,
00:00:01.988,7.15550413588062e-05,-0.00437666103243828,0.00817243289202452,0,
00:00:01.992,-0.0131755750626326,-0.005421568639576439,-0.006622722838073971,0,
00:00:01.996,0.0124203497543931,0.00946896336972713,0.00241544377058744,0,
00:00:02,-0.004135627765208479,-0.00044703955063596395,0.0103611191734672,0,
00:00:02.004,-0.0167561825364828,0.00288811372593045,-0.0206198021769524,0,
00:00:02.008,0.0158835053443909,0.000331701274262741,-0.00251237605698407,0,
00:00:02.012,0.00247953436337411,-0.00623649312183261,0.0177862253040075,0,
00:00:02.016,0.0089260833337903,-0.000688181957229972,0.00695611815899611,0,
00:00:02.02,0.0117454929277301,0.0037285033613443396,-0.0156843140721321,0,
00:00:02.024,-0.0278202500194311,-0.00432154955342412,0.0108237359672785,0,
00:00:02.028,-0.00968852546066046,0.00324544007889926,-0.00811432208865881,0,
00:00:02.032,0.0165741853415966,0.00723636243492365,-0.00407720450311899,0,
00:00:02.036,0.00564675312489271,-0.007481481879949571,-0.0098577756434679,0,
00:00:02.04,-0.0145734967663884,-0.000635072763543576,0.0189822912216187,0,
00:00:02.044,0.007204189430922271,0.0011068249586969599,0.0113260932266712,0,
00:00:02.048,0.000242651280132122,0.00285752234049141,-0.0168614499270916,0,
00:00:02.052,-0.00416018487885594,-0.00607583951205015,0.000191256694961339,0,
00:00:02.056,0.0131177417933941,0.00607456732541323,0.00252107460983098,0,
00:00:02.06,0.000561214110348374,0.000814241473563015,-0.00156947888899595,0,
00:00:02.064,-0.0117670707404613,-0.004271524958312511,-0.00341243762522936,0,
00:00:02.068,-0.006022462155669929,-0.00884793326258659,0.006151148583739999,0,
00:00:02.072,0.0038962438702583296,0.00618660310283303,-0.00550861889496446,0,
00:00:02.076,0.0180953238159418,0.0109887132421136,0.00606041681021452,0,
00:00:02.08,-0.00648487359285355,-0.0035487923305481703,0.000836941238958389,0,
00:00:02.084,-0.0157845355570316,-0.00282041588798165,-0.0104161957278848,0,
00:00:02.088,0.00155935110524297,0.00023902265820652203,0.00334714213386178,0,
00:00:02.092,0.00405126949772239,-0.0047668446786701705,0.0113670267164707,0,
00:00:02.096,0.0188394505530596,0.00258635194040835,-0.00151971483137459,0,
00:00:02.1,-0.0133152566850185,-0.00404622824862599,-0.0117549346759915,0,
00:00:02.104,-0.00918987859040499,0.00809633545577526,-0.0045233787968754794,0,
00:00:02.108,0.00330037553794682,-0.00029699358856305496,0.00969850178807974,0,
00:00:02.112,-0.0016676023369655,-0.00242034019902349,0.00882114376872778,0,
00:00:02.116,0.00582614028826356,-0.00169466633815318,-0.00386053114198148,0,
00:00:02.12,0.00634339964017272,-0.00238788942806423,-0.00766729144379497,0,
00:00:02.124,-0.0036276690661907205,0.00260254903696477,0.0032568802125752,0,
00:00:02.128,0.000194574386114255,0.00249442644417286,-0.00414712354540825,0,
00:00:02.132,-0.00533014582470059,-0.00132899230811745,0.000773538835346699,0,
00:00:02.136,-0.000419886142481118,0.00333739724010229,0.0024016739334911104,0,
00:00:02.14,0.00335949147120118,-0.00363739929161966,0.00189692061394453,0,
00:00:02.144,-0.00276857567951083,-0.00251124636270106,0.00684095779433846,0,
00:00:02.148,0.00512098148465157,0.00641738204285502,-0.0126127917319536,0,
00:00:02.152,0.0037423484027385703,-0.0062728067860007295,-0.0040551065467298,0,
00:00:02.156,-0.0230565890669823,0.00705792661756277,0.013799112290144,0,
00:00:02.16,0.0104474434629083,-0.00392577238380909,5.57349922019057e-05,0,
00:00:02.164,0.007997777312994002,-0.00811184290796518,-0.0060550579801201794,0,
00:00:02.168,0.00351682119071484,0.007341485936194659,0.00712827499955893,0,
00:00:02.172,0.0182147137820721,-0.00100767472758889,-0.0133838644251227,0,
00:00:02.176,-0.0265576485544443,0.0014179375721141698,0.00037790244095958796,0,
00:00:02.18,-0.00944574736058712,-0.0008818166679702699,0.00481394771486521,0,
00:00:02.184,0.00598966144025326,0.0062816566787660105,0.00398146361112595,0,
00:00:02.188,0.00233638077042997,-0.00294844526797533,0.0075747724622488,0,
00:00:02.192,-0.00391210336238146,-0.008106831461191179,-0.0150851532816887,0,
00:00:02.196,0.0122957481071353,8.28901611384936e-05,0.0053728306666016605,0,
00:00:02.2,0.00229446101002395,0.00781512353569269,0.0026762243360281,0,
00:00:02.204,0.00151876627933234,0.00159781833644956,-0.0026838581543415802,0,
00:00:02.208,-0.013812618330121,0.000390449771657586,-0.0021605123765766603,0,
00:00:02.212,-0.00185385602526367,-0.0043422132730484,-0.0022475637961179,0,
00:00:02.216,0.00592242227867246,-0.00524103688076139,0.00315027683973312,0,
00:00:02.22,0.00453832745552063,0.0035841544158756703,0.00717970402911305,0,
00:00:02.224,0.00705989962443709,0.0031667947769165,-0.007099811453372241,0,
00:00:02.228,-0.0118526872247458,-0.00571918953210115,0.0144339883700013,0,
00:00:02.232,-0.00129822723101825,0.00047727269702590997,-0.0185792595148087,0,
00:00:02.236,-0.00496375421062112,0.007289688102900979,-0.0130207454785705,0,
00:00:02.24,0.00485323742032051,0.000858078128658235,0.0156244654208422,0,
00:00:02.244,0.0113253844901919,-0.00223869644105434,0.00841196719557047,0,
00:00:02.248,-0.00605889037251472,0.0015505455667153,0.00769783090800047,0,
00:00:02.252,-0.0059853554703295205,-0.00959542766213417,-0.0106944143772125,0,
00:00:02.256,-0.00325773772783577,0.000533722224645317,-0.0087261414155364,0,
00:00:02.26,0.00227011553943157,0.0036677585449069704,-0.00571704749017954,0,
00:00:02.264,0.004689025692641739,0.0008937725215218961,0.0157373175024986,0,
00:00:02.268,0.0264966618269682,0.007135612424463029,0.00828546565026045,0,
00:00:02.272,-0.0144287375733256,-0.004987864289432761,-0.0132612632587552,0,
00:00:02.276,-0.0230924803763628,-0.0023852356243878603,-0.008600226603448391,0,
00:00:02.28,-0.00891640409827232,0.00146304920781404,0.009142544120550159,0,
00:00:02.284,0.00326102296821773,-0.00367967179045081,0.00234233681112528,0,
00:00:02.288,0.0214639343321323,0.00101313693448901,0.00165853486396372,0,
00:00:02.292,0.0028880937024951,0.0040839696303009996,-0.007161231711506841,0,
00:00:02.296,-0.00498097855597734,-0.00279951584525406,0.0036629440728575,0,
00:00:02.3,0.000842566834762692,0.00047562905820086604,0.00507563492283225,0,
00:00:02.304,0.00410583941265941,0.0008893155609257519,-0.00424686446785927,0,
00:00:02.308,-0.0077979704365134205,0.000293209421215579,-0.0038595583755523,0,
00:00:02.312,-0.0035382234491407897,-0.00029652655939571603,-0.00282238470390439,0,
00:00:02.316,-0.0022385455667972604,-0.00259000761434436,0.00356318079866469,0,
00:00:02.32,0.0015164598589763,-0.00049534736899659,0.00796060729771852,0,
00:00:02.324,0.00133606465533376,0.0076365079730749096,-0.00233516492880881,0,
00:00:02.328,0.0152644226327538,0.00211275042966008,-0.00175498414319009,0,
00:00:02.332,-0.0008485646103508769,-0.00770781049504876,-0.00598921161144972,0,
00:00:02.336,-0.0165516100823879,-0.009487977251410479,-0.0098355719819665,0,
00:00:02.34,0.000183998636202887,0.0037116501480341,0.0230305138975382,0,
00:00:02.344,-0.0071008182130754,0.00631395867094398,0.0110167879611254,0,
00:00:02.348,0.005489409435540439,0.0038401745259761797,-0.024681843817233998,0,
00:00:02.352,0.00796414073556662,0.000390762172173709,-0.00171485636383295,0,
00:00:02.356,0.0130778774619102,-0.0018208017572760601,-0.00643701385706663,0,
00:00:02.36,-0.00755876721814275,-0.00435192184522748,0.0169530287384987,0,
00:00:02.364,-0.007076236885040999,0.000466482539195567,-0.00755560770630836,0,
00:00:02.368,-0.00176826701499522,0.0033431644551456,0.0107619185000658,0,
00:00:02.372,-0.0044529237784445294,0.000747826939914376,-0.00597322871908545,0,
00:00:02.376,0.008276054635643959,-0.00368748884648085,-0.0007610575994476679,0,
00:00:02.38,-0.00228293775580823,-0.0043005924671888395,0.00017592489894013898,0,
00:00:02.384,-0.00448835780844092,0.0022787123452872,0.0039743585512042,0,
00:00:02.388,-3.14676867674279e-06,0.00337741919793189,-0.000295002770144492,0,
00:00:02.392,0.00538408942520618,0.00191778456792235,-0.0118378922343254,0,
00:00:02.396,0.00159594544675201,5.71585878788028e-05,0.000138983377837576,0,
00:00:02.4,0.00639603612944484,-0.00107249931897968,0.0068029263056814705,0,
00:00:02.404,-0.00223087961785495,0.000829414406325668,0.00237972801551223,0,
00:00:02.408,-0.0116585399955511,-0.00483665009960532,0.00439155846834183,0,
00:00:02.412,0.00785544607788324,0.0043245735578239,-0.0108405221253633,0,
00:00:02.416,-0.0106913344934583,-0.0063526574522256895,0.00180889875628054,0,
00:00:02.42,0.0046222498640418105,0.00211384310387075,0.0101877860724926,0,
00:00:02.424,0.0036284821107983602,0.00552037358283997,-0.006053796503692871,0,
00:00:02.428,-0.000101468576758634,-0.00227693747729063,0.00281525705941021,0,
00:00:02.432,0.000209521764190868,-0.0019620344974100603,-0.0127143505960703,0,
00:00:02.436,0.00284647545777261,0.00421561812981963,5.66580602026079e-05,0,
00:00:02.44,0.00903917849063873,-0.000638495024759322,0.014078427106141999,0,
00:00:02.444,-0.0239135306328535,-0.0020043815020471803,0.003884436795488,0,
00:00:02.448,0.0175224374979734,0.00270281685516238,-0.0204055812209845,0,
00:00:02.452,-0.000548493466340005,-0.00843286234885454,0.0118737937882543,0,
00:00:02.456,-0.0138574792072177,0.0011732863495126401,0.0028927915263921,0,
00:00:02.46,0.0040142834186554,0.00370737025514245,0.000791425176430494,0,
00:00:02.464,0.004023676738142971,0.00263065868057311,-0.00625965744256973,0,
00:00:02.468,0.00668444857001305,0.000588918221183121,-0.00527688069269061,0,
00:00:02.472,0.000868439790792763,0.00118330318946391,0.0113370297476649,0,
00:00:02.476,-0.0162158533930779,-0.00331798521801829,0.00718177808448672,0,
00:00:02.48,-0.00105469324626029,-0.00263420934788883,-0.0136253889650106,0,
00:00:02.484,0.0275049898773432,-0.0025881289038807197,-0.0128900473937392,0,
00:00:02.488,-0.0126405274495482,0.005101316142827271,0.0111207021400332,0,
00:00:02.492,-0.0108918314799666,0.0011374136665836,0.00792840588837862,0,
00:00:02.496,-0.0043548820540309,-0.00251650041900575,-0.00215403363108635,0,
00:00:02.5,0.0121580306440592,0.00123418169096112,-0.00238874228671193,0,
00:00:02.504,0.00530971772968769,0.00322959944605827,0.00173752056434751,0,
00:00:02.508,-0.0031103785149753102,-0.0019279489060863898,0.0031534801237285102,0,
00:00:02.512,-0.00398848205804825,-0.00237304368056357,-0.000401750701712444,0,
00:00:02.516,-0.00403933878988028,-0.00102139206137508,-0.0028811420779675198,0,
00:00:02.52,0.006317796185612679,0.00242042331956327,-0.011226287111639999,0,
00:00:02.524,-0.00931537244468927,-0.00514262262731791,0.0106418961659074,0,
00:00:02.528,0.0164657961577177,0.0032033026218414302,0.000833986792713404,0,
00:00:02.532,-0.00591282453387976,0.0035311118699610203,-0.00138690567109734,0,
00:00:02.536,-0.0111191021278501,-0.000933422008529305,-0.00287514389492571,0,
00:00:02.54,0.0105271153151989,0.00307112815789878,0.00421928474679589,0,
00:00:02.544,-4.0222519601229605e-05,-0.0021035629324615,0.00236427085474133,0,
00:00:02.548,-0.00455892970785499,-0.00493327435106039,-0.00291927717626095,0,
00:00:02.552,-0.00579073978587985,0.00252224528230727,-0.00665437523275614,0,
00:00:02.556,0.0137991802766919,0.00182336871512234,0.00549487629905343,0,
00:00:02.56,-0.00614591874182224,-0.00656922906637192,0.00846144277602434,0,
00:00:02.564,0.007883733138442041,0.0044905124232173,-0.0017618049168959301,0,
00:00:02.568,0.0058155469596386,0.0037099814508110298,-0.0160931535065174,0,
00:00:02.572,-0.0196124110370874,-0.00189962447620928,0.00108609371818602,0,
00:00:02.576,-0.0106946285814047,-0.00219401507638395,0.00446281488984823,0,
00:00:02.58,-0.0009548044763505461,-0.0028355440590530604,0.007236003410071129,0,
00:00:02.584,0.0244636479765177,0.00248505594208837,0.0137231666594744,0,
00:00:02.588,0.0149477310478687,0.00677052000537515,-0.015080314129591002,0,
00:00:02.592,-0.00754940137267113,-0.00301687489263713,-0.0137274628505111,0,
00:00:02.596,-0.0258033871650696,-0.0059529053978622,0.00736437551677227,0,
00:00:02.6,0.0027356413193047,-0.00166717288084328,0.0122312176972628,0,
00:00:02.604,0.00166132440790534,0.00637265760451555,-0.00349170691333711,0,
00:00:02.608,0.00823001004755497,0.00148486811667681,-0.00342783308587968,0,
00:00:02.612,-0.0014210083754733198,-0.0009129337267950179,-0.00652059214189649,0,
00:00:02.616,0.00155297410674393,-0.00147488072980195,0.00314437900669873,0,
00:00:02.62,0.00371590256690979,-0.0010170459281653198,0.005849280860275029,0,
00:00:02.624,0.00878314394503832,-0.000276741833658889,-0.0129906879737973,0,
00:00:02.628,-0.0144354598596692,0.0044240741990506606,-0.0008517793612554669,0,
00:00:02.632,-0.0036033999640494602,-0.00556007353588939,0.0284197237342596,0,
00:00:02.636,-0.00139633112121373,-0.0030137926805764398,0.00318178255110979,0,
00:00:02.64,0.00377968023531139,0.00341348093934357,-0.0198719780892134,0,
00:00:02.644,-0.0009834517259150741,0.0034583683591336,-0.00968647003173828,0,
00:00:02.648,0.000784993811976165,0.00124702660832554,-0.00317658670246601,0,
00:00:02.652,0.000333188072545454,-0.0007474681478925049,0.00159322691615671,0,
00:00:02.656,0.0124999675899744,-0.00157138938084245,0.00622760457918048,0,
00:00:02.66,0.000825563503894955,0.00282973307184875,0.0127638047561049,0,
00:00:02.664,-0.0211738515645266,-0.00658894469961524,0.0038856209721416205,0,
00:00:02.668,-0.0019438442541286302,-0.00115759472828358,-0.0129617573693395,0,
00:00:02.672,0.0236369892954826,0.0018063314491882899,-0.0162373054772615,0,
00:00:02.676,0.00626113498583436,0.0023798265028744897,0.0334874838590622,0,
00:00:02.68,-0.0232144054025412,0.00358561775647104,-0.020092785358429,0,
00:00:02.684,-0.0174998715519905,-0.00169992994051427,0.00656260177493095,0,
00:00:02.688,0.0128473015502095,-0.00431029545143247,0.00198563584126532,0,
00:00:02.692,0.0125738708302379,0.000945432810112834,-0.0156959164887667,0,
00:00:02.696,0.00598902674391866,0.0018456707475706898,-0.00104273832403123,0,
00:00:02.7,0.00146615563426167,0.00304223829880357,0.00878002867102623,0,
00:00:02.704,-0.0061080199666321295,-0.00208763708360493,0.009438663721084591,0,
00:00:02.708,-0.00595432426780462,-0.00233248504810035,0.00233837077394128,0,
00:00:02.712,-0.0026643848977983,0.0012044591130688802,-0.00558693613857031,0,
00:00:02.716,-0.007766467053443191,-0.00564980925992131,-0.00329466117545962,0,
00:00:02.72,0.0162805393338203,0.005416275002062321,-0.004175203852355479,0,
00:00:02.724,0.0006853349041193719,0.00199216953478754,-0.000936427793931216,0,
00:00:02.728,-0.0010948975104838599,0.004056351259350779,-0.0106009868904948,0,
00:00:02.732,0.00818043854087591,-0.00490871863439679,0.0186922885477543,0,
00:00:02.736,-0.0118951834738255,-0.008377270773053171,0.0140396524220705,0,
00:00:02.74,-0.00924288854002953,0.00517126964405179,-0.0013850828399881699,0,
00:00:02.744,-0.007086066529154779,0.0008892199257388711,-0.0147494683042169,0,
00:00:02.748,0.00873012188822031,0.0009192341822199519,-0.0129106007516384,0,
00:00:02.752,0.0190407764166594,0.00539453607052565,-0.00844048522412777,0,
00:00:02.756,-8.53150777402334e-05,0.00106879300437868,0.011737166903913,0,
00:00:02.76,-0.015025214292108999,-0.00506833661347628,0.0168979093432426,0,
00:00:02.764,0.00181025476194918,-0.00409902818500996,0.00601637037470937,0,
00:00:02.768,0.0038979263044893703,-0.00308728846721351,-0.00227600615471601,0,
00:00:02.772,0.0115873161703348,0.0054222564212977895,-0.0289763435721397,0,
00:00:02.776,-0.00703393714502454,-0.00027725484687835,-0.000786263204645365,0,
00:00:02.78,-0.0184076596051455,0.00832738354802132,0.0284267626702785,0,
00:00:02.784,0.000408186635468155,-0.008919158950448041,-5.92172727920115e-05,0,
00:00:02.788,0.000724491430446506,-0.00132567854598165,0.0005418336950242519,0,
00:00:02.792,0.0100891767069697,0.00158183381427079,-0.0117235314100981,0,
00:00:02.796,0.00131777673959732,-0.00031764656887389703,-0.0101199354976416,0,
00:00:02.8,0.0178428273648024,0.00487627275288105,-0.00078142317943275,0,
00:00:02.804,-0.00789785012602806,-0.00046885371557436905,0.0119453407824039,0,
00:00:02.808,-0.0140497898682952,-0.00209516379982233,0.000851491291541606,0,
00:00:02.812,-0.00252173654735088,-0.0016467560781166,0.0032981950789690005,0,
00:00:02.816,-0.00027263950323686004,0.00155245501082391,0.000106693849375006,0,
00:00:02.82,0.0065875812433660004,0.000483851879835129,-0.0046869679354131204,0,
00:00:02.824,-0.00273314933292568,-0.00495654530823231,-0.005252974107861521,0,
00:00:02.828,-0.00930962339043617,-0.00130944512784481,0.00582451745867729,0,
00:00:02.832,0.0119121791794896,0.0107723502442241,-0.00906069576740265,0,
00:00:02.836,0.0219349581748247,-0.00437352666631341,0.000432128523243591,0,
00:00:02.84,-0.00676612230017781,-0.0021858133841306,0.0186705216765404,0,
00:00:02.844,-0.0291822608560324,-0.00442740274593234,0.0212891697883606,0,
00:00:02.848,-0.000584166555199772,0.00257087661884725,-0.0307628400623798,0,
00:00:02.852,0.00492855394259095,0.00813458021730185,-0.0212479177862406,0,
00:00:02.856,0.018290052190423,0.00459992187097669,-0.00172753690276295,0,
00:00:02.86,0.000636879238300025,-0.011268257163465,0.0149493226781487,0,
00:00:02.864,0.0006123625789768991,-0.0006182653596624731,0.0025475025177002,0,
00:00:02.868,-0.0132419001311064,-0.000818320957478136,0.0164951290935278,0,
00:00:02.872,-0.0052532511763274704,0.0024946911726146897,0.00158119935076684,0,
00:00:02.876,-0.00258295820094645,-0.00483733881264925,-0.00635904259979725,0,
00:00:02.88,0.0105490554124117,0.00777123961597681,-0.00751862907782197,0,
00:00:02.884,0.0115445572882891,-0.0021733066532760898,-0.0046240254305303105,0,
00:00:02.888,-0.0137167843058705,-4.45991972810589e-05,0.0012678703060373699,0,
00:00:02.892,0.00905285496264696,0.0023258018773049103,-0.00015929015353322,0,
00:00:02.896,-0.00874660164117813,-0.0020290610846132,0.0009379411349073051,0,
00:00:02.9,0.000900267972610891,-0.00403710175305605,0.00173979974351823,0,
00:00:02.904,-0.00014211687084753102,0.00144475046545267,0.00569628179073334,0,
00:00:02.908,-0.00168187019880861,0.00227367412298918,-0.0032359247561544197,0,
00:00:02.912,0.000748558610212058,0.00325642037205398,-0.0055031031370163,0,
00:00:02.916,0.00440124282613397,-0.00415826635435224,0.0030668121762573697,0,
00:00:02.92,0.00841533113270998,0.00160382688045502,0.000680892320815474,0,
00:00:02.924,-0.00666729174554348,0.000737781869247556,0.00224548601545393,0,
00:00:02.928,-0.00712932692840695,-0.00512503925710917,0.00231827399693429,0,
00:00:02.932,-0.012925261631608,0.000324421125696972,-0.0054853861220181,0,
00:00:02.936,0.0114664575085044,0.00216672359965742,-0.0117629244923592,0,
00:00:02.94,0.0114563815295696,0.0018093844410032,0.00620803376659751,0,
00:00:02.944,0.0160075705498457,0.0006444021710194651,0.0194051340222359,0,
00:00:02.948,-0.0191521514207125,-0.00243567698635161,-0.00299952970817685,0,
00:00:02.952,-0.007289385423064229,0.00118167977780104,-0.01056859921664,0,
00:00:02.956,-0.00392926204949617,0.0009451473597437141,-0.00798563845455647,0,
00:00:02.96,-0.00548915378749371,0.00192056759260595,0.0148113602772355,0,
00:00:02.964,0.009417605586349959,-0.00278869247995317,-0.0064183445647358894,0,
00:00:02.968,0.00237692147493362,-0.00451414147391915,0.000383900594897568,0,
00:00:02.972,0.0107312770560384,0.0014192603994160901,-0.00796432886272669,0,
00:00:02.976,-0.00336527824401855,0.00463484134525061,0.0009158652392216029,0,
00:00:02.98,-0.0011290906695649,-0.000436375703429803,0.00938707310706377,0,
00:00:02.984,-0.00256157596595585,0.000577776867430657,0.000880544364918023,0,
00:00:02.988,-0.00513802748173475,-0.00702785793691874,0.0008105431334115559,0,
00:00:02.992,-0.0062471395358443295,0.00434607220813632,0.00311119901016355,0,
00:00:02.996,0.00103827589191496,0.0036738000344485,-0.00397012569010258,0,
00:00:03,0.0141013637185097,-0.0039783203974366205,-0.007116957101970909,0,
00:00:03.004,0.00615520961582661,-0.00021064961038064198,-0.00286284531466663,0,
00:00:03.008,-0.00757681438699365,-0.0011809456627816,-0.000423958117607981,0,
00:00:03.012,-0.00765701569616795,0.00475126272067428,0.00351007073186338,0,
00:00:03.016,-0.000846299109980464,-0.00018812085909303302,0.00874379277229309,0,
00:00:03.02,-0.00267301802523434,-0.00172931456472725,0.0052638640627265,0,
00:00:03.024,-0.000607010908424854,-0.00139853497967124,-0.00874681398272514,0,
00:00:03.028,0.0061016115359962,-0.000452568288892508,-0.00462631508708,0,
00:00:03.032,0.0074849002994597,0.0023962303530424803,0.0033731663133949,0,
00:00:03.036,0.0018954265397042,-0.00342771247960627,-0.0107887694612145,0,
00:00:03.04,0.0053299767896533,0.00500164041295648,0.0148868216201663,0,
00:00:03.044,-0.008277850225567821,-0.0064164111390709894,-0.0024328697472810698,0,
00:00:03.048,-0.0262755434960127,-0.000443452503532171,-0.0018477407284081,0,
00:00:03.052,0.0172386299818754,0.00489523680880666,0.00130996038205922,0,
00:00:03.056,-0.00650452962145209,0.0030892668291926397,-0.0019289831398055,0,
00:00:03.06,0.0122611448168755,0.00196156394667923,0.000813749793451279,0,
00:00:03.064,0.0187555365264416,-0.00401042634621263,-0.00596674811094999,0,
00:00:03.068,-0.0143566336482763,-0.00382782029919326,0.0032791995909065,0,
00:00:03.072,-0.0161375664174557,0.000673467351589352,0.0040668286383152,0,
00:00:03.076,0.0022946996614337,0.0008817738853394991,-0.000409109517931938,0,
00:00:03.08,0.0041132033802568895,-0.00605266587808728,-0.0008252022671513259,0,
00:00:03.084,-0.00238550594076514,0.00569072877988219,0.0018133942503482101,0,
00:00:03.088,0.0101403929293156,-0.0015035329852253199,0.0085303271189332,0,
00:00:03.092,0.00317192962393165,0.0064964666962623605,-0.00721600279211998,0,
00:00:03.096,-5.67516945011448e-05,0.000568389252293855,-0.0123584857210517,0,
00:00:03.1,-0.00601300969719887,-0.000271917670033872,-0.00351326796226203,0,
00:00:03.104,-0.00483860494568944,-0.00462588388472795,0.00879575219005346,0,
00:00:03.108,-0.00137456494849175,-0.00315821310505271,0.0157682988792658,0,
00:00:03.112,-0.000677105388604105,-0.00238854554481804,-0.0223857760429382,0,
00:00:03.116,0.008529454469680791,0.0035677361302077796,0.00925189815461636,0,
00:00:03.12,-0.000401608704123646,0.005693789571523671,0.00493590487167239,0,
00:00:03.124,-0.00650197174400091,-0.00051245279610157,0.0046154595911502795,0,
00:00:03.128,0.00663869921118021,-0.00220304168760777,-0.00813178438693285,0,
00:00:03.132,-0.00284862192347646,-0.00165940437000245,-0.007983581162989141,0,
00:00:03.136,-0.00026310366229154197,-0.000492310733534396,-0.00671828771010041,0,
00:00:03.14,0.00868239998817444,0.0024673326406627898,0.0209570806473494,0,
00:00:03.144,-0.0097428597509861,-0.00127482356037945,0.0189894512295723,0,
00:00:03.148,-0.00671818014234304,-0.00109499250538647,-0.0184363890439272,0,
00:00:03.152,0.00063197611598298,-0.0020512177143245896,-0.0222447011619806,0,
00:00:03.156,0.009053037501871591,0.0027200041804462697,-0.00158737227320671,0,
00:00:03.16,0.0009519259911030529,0.00035753069096244904,0.00418625352904201,0,
00:00:03.164,-0.0008900170214474199,0.00464083347469568,0.0172790735960007,0,
00:00:03.168,0.0075754504650831205,0.00086721166735515,0.0065377810969948795,0,
00:00:03.172,-0.0165030304342508,-0.00892523489892483,-0.00456897495314479,0,
00:00:03.176,0.0136945825070143,0.00446226866915822,-0.00635588727891445,0,
00:00:03.18,-0.00193346373271197,0.0007369332597590981,-0.0017641936428844898,0,
00:00:03.184,-0.00988067872822285,-0.00342776952311397,-0.00879811216145754,0,
00:00:03.188,0.00036137358983978597,-0.0037119602784514397,0.0057651624083519,0,
00:00:03.192,-0.000984042533673346,0.0028502277564257396,0.0067123402841389205,0,
00:00:03.196,0.00644852081313729,0.00366862374357879,0.00685854582116008,0,
00:00:03.2,0.00207490124739707,0.00188804673962295,-0.00717470655217767,0,
00:00:03.204,-0.00221677636727691,-0.00017042740364559,-0.00415374198928475,0,
00:00:03.208,0.000964363105595112,-0.00133132224436849,0.0050367233343422396,0,
00:00:03.212,-0.00562211638316512,-0.00557054672390223,-0.00307987397536635,0,
00:00:03.216,0.00545761547982693,0.00518982158973813,-0.007511748466640709,0,
00:00:03.22,0.00805008970201015,0.00326508074067533,-0.0052266581915319,0,
00:00:03.224,0.006063608918339011,-0.00290211383253336,0.0187377352267504,0,
00:00:03.228,-0.0202288739383221,-0.00301243714056909,0.00102113536559045,0,
00:00:03.232,-0.0117362840101123,-0.00103003869298846,-0.00230711931362748,0,
00:00:03.236,0.00652217492461205,0.000737659283913672,-0.0120149999856949,0,
00:00:03.24,0.0121220303699374,0.00143322919029742,0.0028786915354430697,0,
00:00:03.244,0.0042232922278344605,0.0053195059299469,0.00325252767652273,0,
00:00:03.248,0.00127656082622707,-0.00556090148165822,0.000566434056963772,0,
00:00:03.252,-0.00484070088714361,-0.0014820130309089999,0.0073074889369308905,0,
00:00:03.256,-0.00640702433884144,0.000800807145424187,0.00986387487500906,0,
00:00:03.26,0.0045372438617050604,-0.000681628647726029,-0.0139966122806072,0,
00:00:03.264,0.00468409713357687,0.00500463740900159,-0.0162852928042412,0,
00:00:03.268,-0.013516335748136002,0.0019497245084494398,0.00125146470963955,0,
00:00:03.272,0.0033681641798466396,-0.007938228547573091,0.00992822181433439,0,
00:00:03.276,-0.000427176360972226,-0.0013155568158254,0.0112843690440059,0,
00:00:03.28,0.00871414970606565,0.0086407046765089,-0.0148807363584638,0,
00:00:03.284,0.0022942153736949,-0.0029516180511564,0.0103087071329355,0,
00:00:03.288,-0.00797633919864893,0.00296491989865899,0.0020751408301293898,0,
00:00:03.292,0.00914398394525051,-0.00646571768447757,-0.007107140030711891,0,
00:00:03.296,-0.00744680082425475,-0.00139456952456385,-0.004203184507787229,0,
00:00:03.3,0.00287724030204117,0.0034572605509311,0.00682204309850931,0,
00:00:03.304,-0.00124683463945985,-0.00202646548859775,-0.000724802608601749,0,
00:00:03.308,-0.00865669175982475,0.00169638800434768,-0.00602339068427682,0,
00:00:03.312,0.00440218579024076,0.00179280526936054,0.0052668652497232,0,
00:00:03.316,0.00492471689358354,0.000582927954383194,0.0100380713120103,0,
00:00:03.32,0.00367384473793209,-0.0005137282423675059,-0.0124380234628916,0,
00:00:03.324,-0.0073393229395151095,-0.000946565705817193,-0.0099908709526062,0,
00:00:03.328,-0.00814775470644236,-0.0007727348129265009,0.0158309079706669,0,
00:00:03.332,-0.000946287414990366,-0.000318216916639358,0.00448691099882126,0,
00:00:03.336,0.0213721543550491,0.00217417534440756,-0.0178424678742886,0,
00:00:03.34,0.0131276519969106,-0.00166765705216676,0.00210247281938791,0,
00:00:03.344,-0.0121398232877254,-0.0034160569775849602,0.0178370103240013,0,
00:00:03.348,-0.0197437610477209,0.0040444377809763,-0.00264436053112149,0,
00:00:03.352,-0.0106267668306828,0.000530432793311775,-0.0135162808001041,0,
00:00:03.356,-0.00285872281529009,-0.0025883736088872,0.00539366062730551,0,
00:00:03.36,0.0247760657221079,0.00356274377554655,0.0066152368672192105,0,
00:00:03.364,0.00878579169511795,-0.00050708616618067,-0.0128381568938494,0,
00:00:03.368,-0.007715073879808191,-0.0013924986124038698,0.00280684255994856,0,
00:00:03.372,0.00645918119698763,-0.000865750829689205,0.0006479632575064901,0,
00:00:03.376,-8.440698729828e-05,-0.002150404965505,0.00184773420915008,0,
00:00:03.38,-0.0171870496124029,0.0044699958525598,0.00647820439189672,0,
00:00:03.384,-0.00407119886949658,0.000168189420946874,0.00170105637516826,0,
00:00:03.388,0.00579260615631938,0.0009220835636369881,-0.00293505191802979,0,
00:00:03.392,-0.000300239073112607,-0.00501920701935887,-0.00847119186073542,0,
00:00:03.396,0.0023244458716362697,-0.00205771345645189,0.000985989114269614,0,
00:00:03.4,0.0166101660579443,0.00780440215021372,-0.00565648265182972,0,
00:00:03.404,-0.0023913437034934803,-0.00295430328696966,0.009416518732905391,0,
00:00:03.408,-0.0149504886940122,0.00145885837264359,0.00876016914844513,0,
00:00:03.412,-0.0010751098161563301,-0.00387507025152445,0.000196943088667467,0,
00:00:03.416,0.00259300624020398,0.0005666264914907519,-0.0076182265765965,0,
00:00:03.42,6.02154759690166e-05,0.0015250979922711802,-0.0165808722376823,0,
00:00:03.424,0.0006266251439228651,0.0030078450217843103,0.00605265609920025,0,
00:00:03.428,-0.000808445038273931,-0.0039971456862986105,0.0141163263469934,0,
00:00:03.432,0.005198662169277671,-0.000154175810166635,0.00372197199612856,0,
00:00:03.436,0.000165584016940556,0.0008955857483670119,-0.0052286181598901705,0,
00:00:03.44,-0.00164759496692568,0.000670650042593479,-0.00939297024160624,0,
00:00:03.444,0.000494202657137066,0.00220577302388847,0.0038975337520241703,0,
00:00:03.448,-0.00273550488054752,-0.0022231952752918,0.0040960949845612,0,
00:00:03.452,0.00047856141463853397,-0.001982391346246,-0.00129736925009638,0,
00:00:03.456,-0.0162114426493645,-0.000404277874622494,-0.00799097493290901,0,
00:00:03.46,0.023903327062726003,-0.00128273537848145,0.00739454152062535,0,
00:00:03.464,0.0214342828840017,0.0072375941090285795,0.0013249760959297401,0,
00:00:03.468,-0.0336242318153381,-0.0015493247192353,0.00584687292575836,0,
00:00:03.472,-0.0127873299643397,-0.00707525527104735,-0.00230759405530989,0,
00:00:03.476,0.00576718105003238,0.000419841584516689,-0.0112809957936406,0,
00:00:03.48,0.012460901401937001,0.009650020860135559,0.00630031200125813,0,
00:00:03.484,0.007249499205499891,0.00120716996025294,-0.00210524932481349,0,
00:00:03.488,-0.00813149381428957,-0.0078129954636097,-0.0057570249773562,0,
00:00:03.492,0.0018155260477215102,-0.0045048310421407205,0.00887876376509666,0,
00:00:03.496,0.00404480239376426,0.00483600609004498,-0.000671579444315284,0,
00:00:03.5,-0.00652704294770956,0.0015519235748797698,-0.0011979464907199099,0,
00:00:03.504,-0.00172208063304424,7.92455612099729e-05,0.0127155678346753,0,
00:00:03.508,0.0155712198466063,-0.00247046025469899,-0.0128815863281488,0,
00:00:03.512,-0.0162390898913145,0.00574994692578912,-0.00913921650499105,0,
00:00:03.516,0.0019183180993422898,-0.00249615241773427,-0.00149492814671248,0,
00:00:03.52,-0.007721570786088709,-0.007267799228429791,0.0248503927141428,0,
00:00:03.524,-0.0008940225816331801,0.00491325557231903,-0.0016165942652151,0,
00:00:03.528,0.0077263917773962,0.0020577502436935897,-0.0116827171295881,0,
00:00:03.532,0.0174063704907894,-0.00188888073898852,-0.00753994286060333,0,
00:00:03.536,-0.00316733401268721,0.00336958817206323,-0.008843826130032541,0,
00:00:03.54,-0.0137015720829368,0.00304112653248012,0.0138282980769873,0,
00:00:03.544,-0.007554877549409871,-0.00795287266373634,0.009116386994719509,0,
00:00:03.548,0.0008380946237593889,-0.0024002597201615602,-0.00234280014410615,0,
00:00:03.552,0.00947919301688671,0.00336347799748182,0.011152763850987,0,
00:00:03.556,0.00961497519165277,-0.00153994839638472,-0.0194221921265125,0,
00:00:03.56,-0.008567464537918571,-0.00187692826148123,-0.00108547601848841,0,
00:00:03.564,-0.0071939374320209,0.00816669315099716,0.0114462031051517,0,
00:00:03.568,-0.00721213687211275,-0.000144329576869495,-0.0140533242374659,0,
00:00:03.572,0.0195676721632481,0.00415505515411496,-0.000417066883528605,0,
00:00:03.576,0.00527349999174476,-0.0074194585904479,0.00299109984189272,0,
00:00:03.58,-0.009175212122499941,-0.00328122940845788,0.00684665376320481,0,
00:00:03.584,-0.0122468862682581,0.0019107667030766602,0.00796412862837315,0,
00:00:03.588,0.00374072627164423,-0.00262243603356183,-0.010507351718842999,0,
00:00:03.592,0.00366313476115465,0.00197330652736127,0.00198427983559668,0,
00:00:03.596,-0.00776032591238618,0.004571871832013129,-0.000314158969558775,0,
00:00:03.6,0.0151091311126947,-0.0007244783337228,-0.00111355527769774,0,
00:00:03.604,0.00610032863914967,-0.00178776809480041,-0.000841971894260496,0,
00:00:03.608,-0.00320423301309347,-0.00316191231831908,-0.00018086291674990202,0,
00:00:03.612,-0.009106719866395,0.0018742922693491,0.00657767197117209,0,
00:00:03.616,-0.0037417481653392298,0.0042078746482729894,-0.00746317766606808,0,
00:00:03.62,-0.000429707695730031,-0.0012228075647726698,-0.0108266025781631,0,
00:00:03.624,-0.00484379986301064,-0.0021445725578814697,0.0112693263217807,0,
00:00:03.628,0.00574714038521051,-0.00324674067087471,0.0114093134179711,0,
00:00:03.632,0.00631969049572945,0.00409148633480072,-0.00694909505546093,0,
00:00:03.636,0.00692994333803654,0.000389121618354693,-0.00424697622656822,0,
00:00:03.64,-0.00684008654206991,-0.000693427515216172,0.0094666313380003,0,
00:00:03.644,-0.00805621966719627,-0.00265977648086846,-0.004635576624423271,0,
00:00:03.648,0.000685737759340554,0.00182190677151084,-0.00650536129251122,0,
00:00:03.652,0.00790221523493528,0.00180957792326808,-0.007200395222753291,0,
00:00:03.656,0.0157484151422977,0.00251292390748858,-0.00141406536567956,0,
00:00:03.66,-0.0242891944944859,-0.00263695977628231,0.007961161434650421,0,
00:00:03.664,-1.4062272384762803e-05,-0.00262648682110012,0.00998320337384939,0,
00:00:03.668,-0.00628509046509862,-0.000871221709530801,0.00562852155417204,0,
00:00:03.672,0.00136121001560241,-0.0014171268558129699,-0.0108210491016507,0,
00:00:03.676,0.0133999418467283,0.00322127644903958,-0.00293580791912973,0,
00:00:03.68,-0.00280811754055321,0.00264532980509102,0.0190815255045891,0,
00:00:03.684,0.0171278957277536,0.0026432457379996803,-0.0166088566184044,0,
00:00:03.688,-0.0034082275815308103,-0.000902215309906751,-0.018143255263567002,0,
00:00:03.692,-0.0217312090098858,-0.00507075386121869,-0.0016367589123547099,0,
00:00:03.696,0.00251959217712283,-0.0070053776726126706,0.0187067184597254,0,
00:00:03.7,-0.0012523973127827,0.00431436765938997,0.00649078423157334,0,
00:00:03.704,-0.000926943612284958,0.00751227792352438,0.0131628541275859,0,
00:00:03.708,0.0052409116178751,0.0005526241729967299,-0.00750353280454874,0,
00:00:03.712,0.0007520818035118281,-0.00425424659624696,-0.0141644421964884,0,
00:00:03.716,0.00585802271962166,0.0018049349309876602,-0.0140531603246927,0,
00:00:03.72,0.00445823185145855,-0.00147887587081641,0.00837910547852516,0,
00:00:03.724,0.00239288876764476,0.000623811385594308,0.0101182926446199,0,
00:00:03.728,-0.0133554693311453,-0.00440485961735249,0.00031473147100769,0,
00:00:03.732,-0.0082897562533617,-0.00118772685527802,-0.00128123501781374,0,
00:00:03.736,0.00475088739767671,0.0105142686516047,0.0036094477400183704,0,
00:00:03.74,0.008007357828319071,-0.0047131278552115,-0.0037874700501561204,0,
00:00:03.744,-0.0053785848431289205,-0.00238352874293923,0.00530780199915171,0,
00:00:03.748,0.0018771616742014898,-0.00234911078587174,-0.008219846524298191,0,
00:00:03.752,0.00486058741807938,0.00280889589339495,-0.0009911692468449471,0,
00:00:03.756,-0.00499110203236341,0.0026086070574820003,-0.0009213568991981449,0,
00:00:03.76,0.00791047420352697,0.0027974599506706,0.00111086643300951,0,
00:00:03.764,-0.0167149119079113,-0.000718627241440117,0.0022035199217498302,0,
00:00:03.768,0.0192988757044077,-0.00702893314883113,-0.00227424735203385,0,
00:00:03.772,-0.00586748868227005,-0.0029260131996125,0.00680400291457772,0,
00:00:03.776,-0.00563734257593751,0.00394572410732508,0.00102178507950157,0,
00:00:03.78,-4.58427857665811e-05,0.0039148414507508295,-5.34397368028294e-05,0,
00:00:03.784,-0.0072222747839987295,0.00561544904485345,-0.0108986357226968,0,
00:00:03.788,0.00656147301197052,-0.00884129013866186,0.00466238195076585,0,
00:00:03.792,0.0170699320733547,0.00107578467577696,0.00246185041032732,0,
00:00:03.796,-0.00767318299040198,-0.000467942794784904,0.00454148091375828,0,
00:00:03.8,-0.00993517599999905,-0.00021822255803272098,-0.004678739234805111,0,
00:00:03.804,-0.0144844260066748,-0.00173075124621391,-0.00210557715035975,0,
00:00:03.808,0.0177410915493965,0.00465197954326868,-0.00907280016690493,0,
00:00:03.812,0.0188906658440828,0.000152958338730969,0.00594384502619505,0,
00:00:03.816,-0.0164593476802111,-0.0012769844615832,0.00502052856609225,0,
00:00:03.82,-0.0195066668093205,0.000970316759776324,0.0070455386303365205,0,
00:00:03.824,0.00902922637760639,-0.00653227139264345,0.00480338372290134,0,
00:00:03.828,0.0182987358421087,0.004570706281811,-0.010370472446084,0,
00:00:03.832,0.00153038103599101,0.0015632258728146599,-0.0169349033385515,0,
00:00:03.836,-0.008479367941617971,0.00199963944032788,0.0100749935954809,0,
00:00:03.84,-0.00498325889930129,-0.00472549768164754,0.0119445463642478,0,
00:00:03.844,-0.0165604650974274,-0.0023624373134225603,-0.00182222609873861,0,
00:00:03.848,0.0182383246719837,0.0052229012362659,-0.0156188560649753,0,
00:00:03.852,0.0131830889731646,0.00278581585735083,0.006366911344230179,0,
00:00:03.856,-0.00850938446819782,-0.000987662468105555,0.00144584861118346,0,
00:00:03.86,-0.010729456320405001,-0.00898364465683699,0.00623945519328117,0,
00:00:03.864,0.00160763796884567,0.0015152279520407302,0.00885323528200388,0,
00:00:03.868,0.0167361777275801,0.00397964986041188,-0.0117459474131465,0,
00:00:03.872,-0.0133172972127795,0.00261362199671566,0.00168954744003713,0,
00:00:03.876,-0.0118414172902703,0.000392616144381464,-0.0144672719761729,0,
00:00:03.88,0.0110792899504304,0.0009805922163650391,0.00879172794520855,0,
00:00:03.884,0.00281937746331096,-0.00549663556739688,0.00808341149240732,0,
00:00:03.888,0.00069153233198449,0.0014281737385317698,-0.00494937272742391,0,
00:00:03.892,0.0126793496310711,0.0033857433591038,-0.00586322275921702,0,
00:00:03.896,-0.0139940939843655,-0.0105038629844785,0.00642413226887584,0,
00:00:03.9,-0.00410531228408217,0.0052260858938098,0.0024147040676325603,0,
00:00:03.904,-0.00394210964441299,0.005526892840862271,0.00578474951907992,0,
00:00:03.908,0.00554896285757422,-0.000741211057174951,-0.00963292457163334,0,
00:00:03.912,0.000651340698823333,-0.00414961110800505,-0.008585076779127121,0,
00:00:03.916,0.00102500827051699,-0.00142282259184867,0.0105917444452643,0,
00:00:03.92,0.0119881629943848,0.0075720134191215,-0.00607923744246364,0,
00:00:03.924,-0.0024617682211101103,0.00045133044477552197,0.0020305784419179,0,
00:00:03.928,-0.022254504263401,-0.007361033465713259,0.0019403944024816199,0,
00:00:03.932,0.00763289909809828,-0.0014944333815947199,0.0148412371054292,0,
00:00:03.936,0.0032997056841850302,-0.0005265926010906701,-0.00607201084494591,0,
00:00:03.94,0.0025974279269576103,0.0041578775271773295,-0.00946048181504011,0,
00:00:03.944,0.00607020268216729,0.0030595085117965898,0.00523718539625406,0,
00:00:03.948,0.000923863670323044,0.00254548294469714,-0.0179931055754423,0,
00:00:03.952,-0.0118413111194968,-0.00332551216706634,-0.0032867337577045,0,
00:00:03.956,0.007511216215789321,-0.00342648755759001,0.0192957818508148,0,
00:00:03.96,0.0059819365851581105,0.000694890622980893,0.00590132270008326,0,
00:00:03.964,-0.0192705746740103,-0.00558183901011944,0.00333235529251397,0,
00:00:03.968,0.00676387455314398,0.00580103415995836,-0.00511863920837641,0,
00:00:03.972,-0.0009314988274127241,0.00240047392435372,-0.0103943711146712,0,
00:00:03.976,0.00298101943917573,0.000152798354974948,0.00864795595407486,0,
00:00:03.98,-0.0009544239728711551,-0.0029857452027499697,-0.00910079944878817,0,
00:00:03.984,0.0013139498187229,0.000944275292567909,0.0015627178363502,0,
00:00:03.988,0.00690446235239506,0.0030852511990815397,0.0031886724755168,0,
00:00:03.992,0.0105837313458323,-0.00192718661855906,-0.00253035011701286,0,
00:00:03.996,-0.00856513250619173,-0.00227066758088768,-0.00240753521211445,0,
00:00:04,-0.0172779746353626,-0.0008878582157194609,0.00824528466910124,0,
00:00:04.004,-0.006017688661813739,-0.00162655708845705,0.0043935715220868605,0,
00:00:04.008,0.0134761296212673,0.0030078650452196602,0.000566287664696574,0,
00:00:04.012,0.0138419326394796,0.00460981298238039,-0.00846668984740973,0,
00:00:04.016,-0.0113543812185526,-0.00140445423312485,-0.0139583647251129,0,
00:00:04.02,-0.0166576560586691,-0.00257216533645988,0.0138512616977096,0,
00:00:04.024,0.0166046135127544,-0.00154706195462495,0.00379054620862007,0,
00:00:04.028,0.0186975449323654,-0.000137541588628665,-0.00264384411275387,0,
00:00:04.032,-0.0162753276526928,0.00281577184796333,0.00443037832155824,0,
00:00:04.036,-0.00692240567877889,-0.00107798376120627,-0.0056713093072176,0,
00:00:04.04,-0.000821874185930938,-0.00522230472415686,-0.00573844183236361,0,
00:00:04.044,0.0124757317826152,0.0018124758498743198,0.00873273052275181,0,
00:00:04.048,-0.0156440995633602,0.0121167935431004,0.0026784075889736397,0,
00:00:04.052,0.00751896109431982,-0.00322020356543362,-0.0018858871189877397,0,
00:00:04.056,0.000114338385174051,-0.0081249363720417,-0.0136622944846749,0,
00:00:04.06,-0.008815468288958071,-0.0014701582258567199,0.0117216445505619,0,
00:00:04.064,0.0125085934996605,0.0016104235546663401,-0.00039764915709383797,0,
00:00:04.068,0.0035940674133598796,0.00214904290623963,-0.0017081929836422198,0,
00:00:04.072,-0.00183091242797673,0.0013556204503402099,0.00820387620478868,0,
00:00:04.076,-0.007725002244114879,0.00234820111654699,-0.00888888724148273,0,
00:00:04.08,0.0053195343352854295,-0.00452040368691087,0.00276211020536721,0,
00:00:04.084,-0.0037666819989681205,-0.000352071394445375,-0.00453918473795056,0,
00:00:04.088,-0.000482770788948983,0.00303591135889292,0.00041300797602161803,0,
00:00:04.092,0.0069764070212841,0.000945248175412416,8.320975757669659e-05,0,
00:00:04.096,-0.0050743254832923395,-0.00333548150956631,0.00379753788001835,0,
00:00:04.1,-0.00651877000927925,7.57912202971056e-05,0.00854648090898991,0,
00:00:04.104,0.00359077588655055,-0.00581635860726237,-0.0123105412349105,0,
00:00:04.108,-0.0062853083945810795,0.00596972368657589,0.00351834995672107,0,
00:00:04.112,0.0155192296952009,0.0006057796999812129,0.000779137364588678,0,
00:00:04.116,-0.000709271524101496,0.0022912316489964698,-0.00111127342097461,0,
00:00:04.12,0.00193736201617867,0.000711364555172622,-0.00764049263671041,0,
00:00:04.124,-0.00873981043696404,0.0010766466148197699,0.00314854993484914,0,
00:00:04.128,-0.00538731552660465,-0.00569492159411311,0.009170622564852241,0,
00:00:04.132,0.00667077442631125,-0.0009388328180648391,-0.005300470627844329,0,
00:00:04.136,0.00403849221765995,0.00308712385594845,-0.00559610361233354,0,
00:00:04.14,-0.00915387738496065,-0.000696490460541099,0.00506016053259373,0,
00:00:04.144,0.00257367151789367,-0.000869837473146617,0.0153171373531222,0,
00:00:04.148,0.00365504366345704,-0.00211142911575735,0.00176893069874495,0,
00:00:04.152,-0.0132504506036639,0.00255287671461701,-0.0240428056567907,0,
00:00:04.156,0.0108607681468129,0.0043776589445769796,-0.0121278204023838,0,
00:00:04.16,0.0159601047635078,-0.00349954306147993,0.0105031216517091,0,
00:00:04.164,0.0018404106376692698,-0.000500969181302935,0.016503281891346002,0,
00:00:04.168,-0.0174582581967115,0.000205196934984997,0.0122889811173081,0,
00:00:04.172,-0.0135629205033183,0.00217992649413645,-0.0265444573014975,0,
00:00:04.176,0.00163474516011775,-0.0020710744429379697,-0.0032040369696915197,0,
00:00:04.18,0.0081988712772727,-0.0018034738022834102,0.0124042592942715,0,
00:00:04.184,0.0179251004010439,-0.000276890175882727,0.0047707436606288,0,
00:00:04.188,-0.00645451154559851,0.0008468860760331151,0.00452104629948735,0,
00:00:04.192,-0.000595904362853616,-0.000969440035987645,-0.0246865600347519,0,
00:00:04.196,-0.00752383610233665,0.00477837398648262,-0.000749148428440094,0,
00:00:04.2,-0.0113460198044777,-0.000182082658284344,0.0177811179310083,0,
00:00:04.204,0.0013787392526865,-0.0038164260331541295,0.00958831608295441,0,
00:00:04.208,0.00960953813046217,0.00261159706860781,-0.00421642977744341,0,
00:00:04.212,0.00303061283193529,-0.0008477467927150429,-0.0081336721777916,0,
00:00:04.216,0.00976403430104256,-0.0012055506231263302,-0.012037480250001,0,
00:00:04.22,0.000998394330963492,-0.00043788811308331804,0.00029172599897719903,0,
00:00:04.224,-0.0106807118281722,0.000316190184094012,0.00658024195581675,0,
00:00:04.228,-0.0144006675109267,0.000622539315372705,0.0128971990197897,0,
00:00:04.232,0.00835079606622458,-0.0015668016858398901,0.0036578457802534103,0,
00:00:04.236,-0.00222385302186012,0.00425216881558299,-0.0173782762140036,0,
00:00:04.24,0.0137944584712386,0.00166239787358791,-0.00404882710427046,0,
00:00:04.244,-0.0028087310492992397,-0.0057342411018908,0.0124225160107017,0,
00:00:04.248,0.00544032128527761,0.00118029268924147,0.0063694859854877,0,
00:00:04.252,-0.0120366364717484,0.0012650677235797,-0.000333070522174239,0,
00:00:04.256,-0.0117046814411879,-0.00636387383565307,-0.008387802168726921,0,
00:00:04.26,0.00489545566961169,0.00291912583634257,-0.0235990528017282,0,
00:00:04.264,0.0089963311329484,0.0019285932648927,0.0116761643439531,0,
00:00:04.268,0.0101415608078241,0.007958642207086091,0.0110439853742719,0,
00:00:04.272,-0.00495416997000575,-0.0028095927555114,0.0128180384635925,0,
00:00:04.276,0.00040135296876542297,-0.00475819315761328,-0.000522829301189631,0,
00:00:04.28,9.092965046875179e-05,-0.00275034969672561,-0.00927219074219465,0,
00:00:04.284,-0.0016131754964590099,-0.00011656807328108701,-0.0156824439764023,0,
00:00:04.288,-0.00873283110558987,0.00562530616298318,0.00984171777963638,0,
00:00:04.292,-0.0128230871632695,-0.00639411946758628,0.000341741048032418,0,
00:00:04.296,0.0051493076607585,0.00172202941030264,0.0151154613122344,0,
00:00:04.3,0.0130142439156771,0.00311456946656108,-0.0117958476766944,0,
00:00:04.304,0.010366820730269,0.00161605980247259,-0.009439190849661829,0,
00:00:04.308,-0.0032438684720546,-0.00231245369650424,0.00586905470117927,0,
00:00:04.312,-0.00170292472466826,0.0028000711463391803,0.00988403148949146,0,
00:00:04.316,-0.0118738617748022,0.000470137601951137,-0.0130016952753067,0,
00:00:04.32,0.0101990811526775,-0.00621626432985067,0.00666542537510395,0,
00:00:04.324,-0.00173580599948764,0.00550237577408552,0.00512076308950782,0,
00:00:04.328,-0.0106486808508635,-0.00841749459505081,-0.0111857438459992,0,
00:00:04.332,0.0033826846629381197,0.0029859459027648,0.0015683379024267199,0,
00:00:04.336,0.00931001827120781,-0.000241679910686798,0.0124128414317966,0,
00:00:04.34,-0.0118692079558969,0.0012251895386725699,-0.00764641910791397,0,
00:00:04.344,-0.00212265294976532,0.00639954069629312,-0.0109152449294925,0,
00:00:04.348,0.0202000457793474,-0.00010894107253989201,0.007457456551492209,0,
00:00:04.352,-0.000514009792823344,0.00143540510907769,0.00700416415929794,0,
00:00:04.356,-0.00929403398185968,-0.0127709545195103,-0.00276982155628502,0,
00:00:04.36,6.946019129827621e-05,0.00348087516613305,0.00115316151641309,0,
00:00:04.364,-0.00863581709563732,0.00272811413742602,-0.000492796185426414,0,
00:00:04.368,0.0123422043398023,0.0014503872953355302,-0.00829863082617521,0,
00:00:04.372,-0.0115050505846739,0.0023516290821135,0.00385778257623315,0,
00:00:04.376,-0.0032460214570164698,-0.000329575617797673,-0.00226022955030203,0,
00:00:04.38,0.0108044501394033,-0.0063064768910408,0.0046702381223440205,0,
00:00:04.384,0.0112556759268045,-0.00028322811704128997,0.00538592506200075,0,
00:00:04.388,-0.0103229153901339,0.004240139387547971,-0.00399712566286325,0,
00:00:04.392,-0.00393376033753157,-0.00606281543150544,0.00660219741985202,0,
00:00:04.396,-0.00449472200125456,0.00944128260016441,-0.0108033185824752,0,
00:00:04.4,0.00923675950616598,0.0006483550532720981,-0.0111408932134509,0,
00:00:04.404,0.00472244480624795,-0.00683240778744221,0.00899595767259598,0,
00:00:04.408,-0.0186406709253788,0.0054506729356944604,0.0109420623630285,0,
00:00:04.412,0.00452927034348249,0.000179446782567538,-0.00560101354494691,0,
00:00:04.416,0.0232550036162138,-0.0047238194383680794,0.0059407358057797,0,
00:00:04.42,-0.007050272542983291,-0.00484223011881113,-0.00542650511488318,0,
00:00:04.424,-0.0118341604247689,0.00650724163278937,-0.0154258264228702,0,
00:00:04.428,-0.008187174797058109,-0.00430556340143085,0.0149187901988626,0,
00:00:04.432,0.00474988901987672,0.00508976122364402,0.0020479476079344697,0,
00:00:04.436,0.0019470746628940101,0.0033271221909672,0.000650831963866949,0,
00:00:04.44,-0.00130442285444587,-0.0067847128957509995,0.000886723166331649,0,
00:00:04.444,0.0109912091866136,0.00113001430872828,-0.0018202343489974698,0,
00:00:04.448,0.0133601268753409,0.00428907386958599,-0.0113494917750359,0,
00:00:04.452,-0.0169872399419546,-0.00111805589403957,0.0035459247883409296,0,
00:00:04.456,-0.0153430812060833,-0.0021848508622497303,-0.000359341531293467,0,
00:00:04.46,0.00471277395263314,-0.00128485634922981,0.0214565265923738,0,
00:00:04.464,0.0104068433865905,-0.00212324620224535,-0.000936464755795896,0,
00:00:04.468,0.0111723775044084,0.0047580148093402394,-0.0276542082428932,0,
00:00:04.472,-0.0154832424595952,0.000484558317111805,0.0034293874632567198,0,
00:00:04.476,-0.00325517449527979,0.00111610081512481,0.00042945018503814903,0,
00:00:04.48,0.00638668891042471,-0.0029069052543491103,0.0104130804538727,0,
00:00:04.484,-0.00488700065761805,-0.00410595024004579,0.00818194355815649,0,
00:00:04.488,0.00262780487537384,0.00398010388016701,-0.0149890566244721,0,
00:00:04.492,0.0052789761684835,-0.00123680231627077,-0.000317795173032209,0,
00:00:04.496,-0.00284277414903045,0.0018366249278187802,0.0257590003311634,0,
00:00:04.5,-0.0045431242324411895,0.0034675856586545697,-0.0113500226289034,0,
00:00:04.504,0.00594145944342017,-0.00192307098768651,-0.0212238393723965,0,
00:00:04.508,0.00723957782611251,-0.0045742872171104,0.00177778652869165,0,
00:00:04.512,-0.00759688392281532,0.0028706074226647602,0.00762511696666479,0,
00:00:04.516,-0.0070418533869087705,-0.000110986802610569,-0.00276685249991715,0,
00:00:04.52,0.0002979350683745,-0.000537142972461879,0.00938370265066624,0,
00:00:04.524,-0.00162066507618874,0.0019525566603988398,0.00306443683803082,0,
00:00:04.528,0.0020009400323033302,-0.0037790546193718897,-0.0017198899295181,0,
00:00:04.532,0.00616824626922607,-0.00136395532172173,-0.00353630422614515,0,
00:00:04.536,0.00556661700829864,0.00576478010043502,-0.007065554149448871,0,
00:00:04.54,-0.0044062715023756,0.00280354241840541,0.00482129119336605,0,
00:00:04.544,0.0018907368648797302,-0.00336853205226362,-0.00456068431958556,0,
00:00:04.548,-0.0031503303907811603,-0.00529762776568532,0.00577634200453758,0,
00:00:04.552,-0.0141161140054464,-0.0011372463777661302,0.0145559031516314,0,
00:00:04.556,0.0100831659510732,0.008574279025197029,-0.0037078978493809704,0,
00:00:04.56,0.00242364616133273,-0.00064967101207003,-0.0209807809442282,0,
00:00:04.564,0.00274851848371327,-0.00278453947976232,-0.010988824069499999,0,
00:00:04.568,0.000535607279743999,-0.00387600949034095,0.0133904898539186,0,
00:00:04.572,0.000755112734623253,0.00177887093741447,0.0026792094577103897,0,
00:00:04.576,-0.0038356413133442398,0.0045378636568784705,0.0206574928015471,0,
00:00:04.58,-0.00296317087486386,-0.000798597116954625,-0.0025900497566908602,0,
00:00:04.584,0.0015149861574173,-0.0018640191992744801,-0.00773081183433533,0,
00:00:04.588,-0.0007671169587410991,0.000968960404861718,-0.00978544913232327,0,
00:00:04.592,-0.00409928243607283,-0.0041075861081481,-0.000173819498741068,0,
00:00:04.596,0.00912195350974798,0.000902780331671238,-0.010874766856431997,0,
00:00:04.6,-0.00570105249062181,0.00211503310129046,0.00876983068883419,0,
00:00:04.604,-0.00875154137611389,-0.000671838060952723,0.018387820571661,0,
00:00:04.608,0.0189327038824558,0.00220297393389046,-0.0035788323730230297,0,
00:00:04.612,0.0243288427591324,0.00521017098799348,-0.0246003065258265,0,
00:00:04.616,-0.0139653198421001,-0.00456800032407045,0.0130242267623544,0,
00:00:04.62,-0.0366910956799984,-0.00261046434752643,0.0148712145164609,0,
00:00:04.624,-0.018363481387496,-0.00560210738331079,-0.0060753771103918604,0,
00:00:04.628,0.0220581460744143,0.0015270013827830599,0.0047324001789093,0,
00:00:04.632,0.0189232993870974,0.00162586977239698,-0.00448409747332335,0,
00:00:04.636,0.00935699883848429,0.00478156842291355,-0.0225373618304729,0,
00:00:04.64,0.0102188000455499,0.00458095455542207,0.0060359756462276,0,
00:00:04.644,-0.0155364321544766,-0.00250351149588823,-7.73677093093283e-05,0,
00:00:04.648,-0.0146794356405735,-0.00588656263425946,0.013196480460465001,0,
00:00:04.652,-0.00922150071710348,-0.00241661164909601,0.00372792547568679,0,
00:00:04.656,0.0154029531404376,0.00540532078593969,0.00323361717164516,0,
00:00:04.66,0.00380717241205275,0.0029437751509249197,-0.00236135185696185,0,
00:00:04.664,-0.000943260674830526,-0.00088957539992407,-0.009613455273211,0,
00:00:04.668,0.000170455503393896,-0.00477222446352243,-0.0050007151439786,0,
00:00:04.672,-0.00734184356406331,-0.00654544308781624,0.00103750452399254,0,
00:00:04.676,0.00208970508538187,0.0109043251723051,0.0020486763678491103,0,
00:00:04.68,0.00352976564317942,-0.006589211057871579,0.0203965846449137,0,
00:00:04.684,-0.00030965337646193797,0.00344185507856309,-0.00618983572348952,0,
00:00:04.688,0.00792116392403841,0.00782228447496891,-0.0134907634928823,0,
00:00:04.692,-0.0014751552371308199,-0.00313492398709059,-0.0192267466336489,0,
00:00:04.696,-0.0266209971159697,-0.00688891718164086,0.015298149548471,0,
00:00:04.7,0.0125470543280244,0.0014814371243119199,0.0258708726614714,0,
00:00:04.704,0.0247912723571062,-0.00021513598039746298,-0.013358810916543002,0,
00:00:04.708,-0.0054164309985935705,-0.00191918923519552,-0.00861655082553625,0,
00:00:04.712,-0.0143714947625995,0.00475859036669135,0.000272543751634657,0,
00:00:04.716,-0.0100202327594161,0.00046412026858888604,0.00464473431929946,0,
00:00:04.72,-0.00155874667689204,-0.000983803300186992,-0.00219789310358465,0,
00:00:04.724,0.019261060282588,-0.0009697761852294211,0.00282158353365958,0,
00:00:04.728,-0.0113655850291252,0.00163778208661824,-0.00525591662153602,0,
00:00:04.732,0.0160719715058804,-0.003993058111518621,0.00661507295444608,0,
00:00:04.736,-0.00559747964143753,-0.00144614849705249,-0.00125744519755244,0,
00:00:04.74,-0.00267745577730238,0.0058012418448925,-0.00886437948793173,0,
00:00:04.744,0.000214833184145391,0.00290361791849136,0.0107839945703745,0,
00:00:04.748,-0.00527625763788819,-0.0053426041267812295,0.00334873655810952,0,
00:00:04.752,-0.00633406592532992,-0.0011831521987915,-0.0114694172516465,0,
00:00:04.756,0.013869971036911002,0.000621244660578668,-0.0034502160269767,0,
00:00:04.76,0.000632267736364156,0.0030406094156205698,0.00902960635721684,0,
00:00:04.764,0.000549293239600956,-0.00136539817322046,-0.0053221364505589,0,
00:00:04.768,-0.0111864171922207,-0.0015278010396286802,-0.0038123645354062297,0,
00:00:04.772,-0.00865133851766586,0.00168251967988908,0.0157398004084826,0,
00:00:04.776,0.00530393654480577,-0.0055872849188745,0.021454930305481002,0,
00:00:04.78,0.0366554595530033,0.00312259630300105,-0.0288388915359974,0,
00:00:04.784,-0.0167838335037231,0.00574986590072513,-0.0234979651868343,0,
00:00:04.788,-0.0218741185963154,-0.00271798809990287,0.00931761600077152,0,
00:00:04.792,-0.00251857587136328,0.00155190809164196,0.0120651107281446,0,
00:00:04.796,0.019245021045208,-0.00018206788809038701,0.0033437367528677,0,
00:00:04.8,-0.0019816965796053397,-0.00611503841355443,0.00331577030010521,0,
00:00:04.804,-0.00745803862810135,-0.00023960298858582998,0.0088468361645937,0,
00:00:04.808,-0.00246476568281651,0.00419763615354896,-0.00563961127772927,0,
00:00:04.812,0.00252675893716514,0.000127477731439285,-0.0173889249563217,0,
00:00:04.816,0.0062166340649128,-0.000624923792202026,0.00201086606830359,0,
00:00:04.82,0.00298236217349768,-0.00235048774629831,0.0035829655826091797,0,
00:00:04.824,0.0011125075398013,0.00211058417335153,0.00737882172688842,0,
00:00:04.828,-0.00698571931570768,0.0019193134503439101,-0.0021516049746424,0,
00:00:04.832,-0.00446470500901341,0.0024390029720962,-0.00923154223710299,0,
00:00:04.836,-0.00410465011373162,-0.00488112308084965,0.0090366480872035,0,
00:00:04.84,0.0191120430827141,0.00126369495410472,0.0017212980892509198,0,
00:00:04.844,-0.0056832991540432,0.000779486901592463,-0.00345123489387333,0,
00:00:04.848,0.000353062292560935,-0.0027953344397246803,-0.0019535033497959397,0,
00:00:04.852,-0.0231335591524839,-0.00553008215501904,0.0108148697763681,0,
00:00:04.856,0.0114244986325502,0.004643012303859,-0.00623690662905574,0,
00:00:04.86,0.0192906390875578,0.00702722510322928,-0.00885900016874075,0,
00:00:04.864,-0.0059010856784880205,-0.00226732739247382,0.004135319963097571,0,
00:00:04.868,-0.0127981705591083,0.0013045190135017,-0.0168052259832621,0,
00:00:04.872,0.00446955021470785,-0.000719591218512505,0.0286533888429403,0,
00:00:04.876,-0.0034914792049676197,-0.00865182932466269,-0.0014385947724804302,0,
00:00:04.88,0.0106676360592246,0.0036042588762939,-0.00506465788930655,0,
00:00:04.884,0.00855515711009502,0.00390092632733285,-0.00385015341453254,0,
00:00:04.888,-0.0178982652723789,-0.00117085676174611,0.00484578683972359,0,
00:00:04.892,0.00205421983264387,-0.00147209211718291,0.00286498782224953,0,
00:00:04.896,-0.00528113869950175,-0.0024328893050551397,-0.015780771151184998,0,
00:00:04.9,-0.000671240966767073,0.004601078107953071,-0.00216671987436712,0,
00:00:04.904,0.0123159196227789,0.000453361950349063,0.00962384790182114,0,
00:00:04.908,-0.00492366403341293,-0.0030279399361461397,0.0026761838234961,0,
00:00:04.912,0.00268958299420774,0.00518614007160068,0.010973091237246999,0,
00:00:04.916,-0.00683417823165655,-0.006884644739329811,-0.00992459245026112,0,
00:00:04.92,0.00463394587859511,0.00297780823893845,-0.00857619103044271,0,
00:00:04.924,0.00822579395025969,0.00247853389009833,-0.0014339704066515,0,
00:00:04.928,-0.00361390132457018,-0.00232564518228173,0.00779938604682684,0,
00:00:04.932,-0.00557245360687375,-0.00401645712554455,0.00491069257259369,0,
00:00:04.936,-0.0072356853634119,0.00175479357130826,-0.0042984378524124605,0,
00:00:04.94,0.00606134440749884,0.0026185710448771698,-0.0011790634598583,0,
00:00:04.944,-0.0009751995676197109,0.00344708003103733,1.3787576790491598e-05,0,
00:00:04.948,0.006820362526923421,-0.00416307477280498,-0.0018100888701155801,0,
00:00:04.952,0.00485610496252775,0.0035476379562169296,0.00836498476564884,0,
00:00:04.956,-0.0104029625654221,-0.00762258609756827,-0.00842628348618746,0,
00:00:04.96,0.00219679693691432,0.0032015927135944397,0.0032790710683912,0,
00:00:04.964,-0.00665104202926159,0.00108772830571979,-0.00626856507733464,0,
00:00:04.968,0.00883911829441786,0.00235475692898035,-0.0058166128583252395,0,
00:00:04.972,-0.0101468469947577,-0.0019742080476135,0.0157605689018965,0,
00:00:04.976,0.00933666806668043,-0.00795142166316509,0.0127508994191885,0,
00:00:04.98,0.00201401836238801,0.0118812192231417,-0.0170133151113987,0,
00:00:04.984,0.00481126178056002,-0.00231235008686781,-0.00372117781080306,0,
00:00:04.988,-0.0101218586787581,0.00063166773179546,-0.00159859051927924,0,
00:00:04.992,-0.0105664702132344,-0.00486165098845959,0.00104280130472034,0,
00:00:04.996,0.00257308781147003,3.46788292517886e-05,0.000257496780250221,0,
00:00:05,0.0141027960926294,0.0035965496208518704,0.00199760473333299,0,
00:00:05.004,0.0130626866593957,-0.000735405366867781,0.0108714029192925,0,
00:00:05.008,-0.0207214616239071,-0.0033115951810032103,-2.80922558886232e-05,0,
00:00:05.012,0.00231319898739457,0.00153208209667355,-0.0143996821716428,0,
00:00:05.016,0.00144782045390457,0.00403699139133096,-0.0149739822372794,0,
00:00:05.02,-0.00262187421321869,0.00295330071821809,0.0213801041245461,0,
00:00:05.024,0.000652907183393836,-0.00597825180739164,0.0144434189423919,0,
00:00:05.028,-0.00546010863035917,-0.00642509059980512,-0.00715714786201715,0,
00:00:05.032,-0.00217440468259156,-0.00244705774821341,-0.0121830143034458,0,
00:00:05.036,0.0147615429013968,0.0100577035918832,-0.00121215207036585,0,
00:00:05.04,0.0028989354614168397,0.00633861776441336,-0.00622844230383635,0,
00:00:05.044,-0.00977710541337729,-0.00245719659142196,0.0140966745093465,0,
00:00:05.048,-0.00107556185685098,-0.00644012540578842,0.00156302552204579,0,
00:00:05.052,-0.000477649969980121,-0.0029553286731243103,-0.0025657657533884,0,
00:00:05.056,0.0116528263315558,0.00512614846229553,-0.006663391832262279,0,
00:00:05.06,-0.00594148552045226,0.00292489258572459,0.00289772544056177,0,
00:00:05.064,-0.00272792158648372,-0.00283847912214696,0.0159948486834764,0,
00:00:05.068,-0.00414640223607421,-0.00264972844161093,-0.0189646631479263,0,
00:00:05.072,0.000726368918549269,-0.000662062084302306,-0.004963851068168879,0,
00:00:05.076,-0.00053050130372867,-0.00115780415944755,0.00368187483400106,0,
00:00:05.08,0.0009177512838505211,0.005451375618577,0.00804247986525297,0,
00:00:05.084,0.00189554842654616,0.00275099230930209,0.0103820953518152,0,
00:00:05.088,0.00998491700738668,-0.00522387865930796,-0.0045418618246913,0,
00:00:05.092,-0.0216900184750557,-0.0009705705451779071,-0.0143140768632293,0,
00:00:05.096,0.00911901891231537,0.0028404591139406,-0.00351252034306526,0,
00:00:05.1,0.0142962131649256,0.00315634114667773,0.00594445830211043,0,
00:00:05.104,-0.00787272769957781,-0.00921651348471642,0.0101198572665453,0,
00:00:05.108,-0.009632196277379991,-0.0036600502207875295,-0.0014613021630793801,0,
00:00:05.112,0.0068302461877465205,0.00742166861891747,-0.00613931939005852,0,
00:00:05.116,0.0112343318760395,0.0101649798452854,-0.000673155242111534,0,
00:00:05.12,-0.0147494506090879,-0.00280048255808651,-0.000850667711347342,0,
00:00:05.124,-0.00277570215985179,-0.0036387809086591,0.00734075997024775,0,
00:00:05.128,0.004461013711988929,-0.007774255238473421,-0.00594832934439182,0,
00:00:05.132,-0.0049970787949860105,-0.00237373285926878,0.000703548837918788,0,
00:00:05.136,0.006227534729987379,0.00697781192138791,0.0037219561636447898,0,
00:00:05.14,0.0175128635019064,0.00268259132280946,0.000707402476109564,0,
00:00:05.144,-0.0174579080194235,0.00218868791125715,-0.0040722410194575795,0,
00:00:05.148,-0.010590442456305001,-0.00298828654922545,-0.00890065915882587,0,
00:00:05.152,0.00881257560104132,-0.00482060248032212,0.0100893201306462,0,
00:00:05.156,0.00498485052958131,0.0032158975955098898,0.0109470058232546,0,
00:00:05.16,0.00459878984838724,0.0024606822989881,-0.0108896913006902,0,
00:00:05.164,-0.0163803808391094,-0.006336657796055079,-0.0167958568781614,0,
00:00:05.168,0.000156245921971276,0.0022452392149716603,0.013646537438035,0,
00:00:05.172,0.00852171331644058,0.00324130826629698,0.00948600843548775,0,
00:00:05.176,0.0078973863273859,0.00137371057644486,-0.00080445408821106,0,
00:00:05.18,0.00483681028708816,-0.000564712681807578,-0.00415396736934781,0,
00:00:05.184,-0.012520900927483999,0.0006294196355156599,-0.0034778667613863897,0,
00:00:05.188,-0.00458967313170433,-0.00324993184767663,-0.00342766870744526,0,
00:00:05.192,-0.008505426347255709,-0.0022118056658655396,0.00454308651387692,0,
00:00:05.196,0.0138094322755933,0.00202187150716782,0.00306594255380332,0,
00:00:05.2,-0.0015814169310033302,-0.0027136157732456897,-0.00638688774779439,0,
00:00:05.204,-0.0015115172136575,0.0018696169136092101,0.00395839149132371,0,
00:00:05.208,0.0138172805309296,0.00447351858019829,0.0009145088260993359,0,
00:00:05.212,-0.0051811393350362795,-0.00497250398620963,-0.00874253734946251,0,
00:00:05.216,-0.00589922117069364,0.00207729870453477,0.0113308755680919,0,
00:00:05.22,-0.006061614956706761,0.00421280320733786,0.00836959481239319,0,
00:00:05.224,-0.00534910149872303,0.000323784013744444,-0.008609963580966,0,
00:00:05.228,0.00457671284675598,-0.00689147925004363,-0.008504193276166921,0,
00:00:05.232,0.0152607783675194,-0.00338696734979749,-0.0110360505059361,0,
00:00:05.236,0.00491316523402929,0.00752915861085057,0.0122029557824135,0,
00:00:05.24,-0.007530264556407929,-0.000380286364816129,0.0128171211108565,0,
00:00:05.244,-0.00690863467752934,-0.0018582378979772301,0.000415646558394656,0,
00:00:05.248,-0.0171297937631607,-0.000920445832889527,-0.00967788603156805,0,
00:00:05.252,0.000157612419570796,0.000248043332248926,-0.00594059145078063,0,
00:00:05.256,0.0150035796687007,0.000799471337813884,0.0063691460527479605,0,
00:00:05.26,0.0117223281413317,-0.00137048924807459,-0.00647285440936685,0,
00:00:05.264,0.00498490547761321,0.00226286589168012,0.009000708349049091,0,
00:00:05.268,-0.0058876546099782,0.00152492662891746,0.00498765474185348,0,
00:00:05.272,-0.00781769305467606,0.00192989758215845,-0.0101882237941027,0,
00:00:05.276,-0.000737360678613186,-0.00105593167245388,0.0006727453437633809,0,
00:00:05.28,-0.000678162497933954,-0.006898015271872279,0.0021020958665758397,0,
00:00:05.284,-0.0116000110283494,-0.0004969350993633269,-0.00556158274412155,0,
00:00:05.288,0.00492526451125741,0.006454854272305971,-0.00716861383989453,0,
00:00:05.292,0.0102622974663973,-0.007727139163762329,0.0157972872257233,0,
00:00:05.296,-0.0011886156862601599,0.0060153021477162795,0.0181001480668783,0,
00:00:05.3,0.00272753485478461,-0.00154305703472346,-0.00935030542314053,0,
00:00:05.304,0.0027026345487684,0.00792522914707661,-0.02257907576859,0,
00:00:05.308,-0.00384461879730225,-0.000109250744571909,0.0017344964435324099,0,
00:00:05.312,-0.00848654191941023,-0.00644091190770268,0.00222677923738956,0,
00:00:05.316,0.0101346792653203,-0.00451232865452766,0.0036132545210421103,0,
00:00:05.32,-0.0084894485771656,-0.00266089336946607,-0.0006726294523105031,0,
00:00:05.324,-0.0069013424217701,0.0040622805245220705,0.0121632907539606,0,
00:00:05.328,0.0167737044394016,0.004312127828598021,-0.00244870549067855,0,
00:00:05.332,-0.00242265989072621,0.00193906854838133,-0.0138897197321057,0,
00:00:05.336,0.0034532560966908897,0.00163462175987661,0.0105733359232545,0,
00:00:05.34,-0.00764363538473845,-0.00153549993410707,-0.004020319320261479,0,
00:00:05.344,-0.0115912426263094,-0.00728233298286796,0.00118537282105535,0,
00:00:05.348,0.00165859807748348,-0.00276225758716464,0.00332844839431345,0,
00:00:05.352,0.0224621966481209,0.0063376179896295105,0.004248371347785,0,
00:00:05.356,-0.00247030216269195,0.000118958749226294,-0.0146530847996473,0,
00:00:05.36,-0.0145456939935684,0.00397502165287733,-0.000103415899502579,0,
00:00:05.364,0.000414477748563513,-0.00128459953702986,0.00890401005744934,0,
00:00:05.368,0.0144452452659607,-0.000315069541102275,-0.00397408846765757,0,
00:00:05.372,-0.0133663536980748,-0.00556377833709121,-0.00193337118253112,0,
00:00:05.376,-0.00607776828110218,0.000109598688140977,0.0103395842015743,0,
00:00:05.38,0.00888578966259956,0.0041670831851661205,-0.0065267034806311105,0,
00:00:05.384,0.00250456342473626,-0.000129418956930749,0.00396203715354204,0,
00:00:05.388,-0.00385188357904553,-0.0008942392887547609,0.00979928020387888,0,
00:00:05.392,0.0118561144918203,-0.000423112418502569,-0.0123747251927853,0,
00:00:05.396,-0.007269886322319509,-0.00194547127466649,-0.0145276440307498,0,
00:00:05.4,0.00144390773493797,0.0023388820700347398,0.000178864880581386,0,
00:00:05.404,-0.0070812962949276,0.00193344976287335,0.0119987763464451,0,
00:00:05.408,-0.00780789274722338,0.0023378103505820006,0.0103597464039922,0,
00:00:05.412,0.0198934562504292,-0.00498914485797286,-0.0133558213710785,0,
00:00:05.416,-0.0024951996747404302,0.00120979698840529,0.00444193836301565,0,
00:00:05.42,-0.00541177904233336,-0.0033645632211118898,0.0132381403818727,0,
00:00:05.424,-0.0168813914060593,0.00327454716898501,-0.007408926729112859,0,
00:00:05.428,0.00817968882620335,0.0020532587077468603,-0.0156419537961483,0,
00:00:05.432,0.00450149923563004,-0.00461700558662415,0.00175679021049291,0,
00:00:05.436,0.0148720443248749,0.00222075101919472,0.0082612382248044,0,
00:00:05.44,-0.00449216598644853,0.00177318789064884,0.000347590626915917,0,
00:00:05.444,-0.009238443337380891,-0.00641664350405335,0.00138557818718255,0,
00:00:05.448,-0.0016824327176436801,0.00254216254688799,0.00012749254528898702,0,
00:00:05.452,0.0101715158671141,0.0035899588838219604,0.00727224024012685,0,
00:00:05.456,-0.00761239370331168,0.0036447418387979295,-0.00505783222615719,0,
00:00:05.46,0.0029372191056609197,-0.0004635859222617,-0.0113823655992746,0,
00:00:05.464,-0.00291957100853324,-0.007264047395437959,-0.0145541755482554,0,
00:00:05.468,-3.7773147596453795e-06,-0.0012678487692028301,0.0132212545722723,0,
00:00:05.472,-0.00586037011817098,-0.00043980678310617805,0.0165871065109968,0,
00:00:05.476,0.00401345966383815,0.00619047181680799,0.00388885568827391,0,
00:00:05.48,0.00901729334145784,0.0010004008654505,-0.00201951945200562,0,
00:00:05.484,-0.0038847455289214797,-0.00122635788284242,-0.010440681129694,0,
00:00:05.488,-0.0102745266631246,-0.00152878230437636,-0.000202282681129873,0,
00:00:05.492,0.00509025622159243,-0.00298105366528034,-0.004034897312521929,0,
00:00:05.496,0.0230475682765245,0.0059969290159642705,-0.0137199983000755,0,
00:00:05.5,-0.0112078906968236,-0.0019421710167080199,0.0158322621136904,0,
00:00:05.504,-0.0185554958879948,-0.00262411660514772,0.0192813370376825,0,
00:00:05.508,-0.0062307394109666295,-0.00294072018004954,-0.0060949367471039295,0,
00:00:05.512,0.0075320294126868205,0.0048031122423708396,-0.00681733712553978,0,
00:00:05.516,0.0180131196975708,0.0010027000680565802,-0.00841936375945807,0,
00:00:05.52,-0.00223975954577327,-0.00044464942766353493,-0.00992223247885704,0,
00:00:05.524,-0.00614102929830551,-0.00276375305838883,0.00518090045079589,0,
00:00:05.528,0.000496706168632954,0.00568866683170199,0.00243942206725478,0,
00:00:05.532,0.00405189348384738,-0.00241909013129771,0.0137092666700482,0,
00:00:05.536,-0.00957968272268772,-0.0050817974843084795,0.0102673936635256,0,
00:00:05.54,-0.0051305964589119,0.000936671218369156,-0.0050671584904193896,0,
00:00:05.544,0.00401185173541307,0.00863637402653694,-0.0251117665320635,0,
00:00:05.548,-0.00281644659116864,-0.008449896238744259,0.0035619945265352704,0,
00:00:05.552,0.0173013880848885,-0.00275209289975464,0.00463872216641903,0,
00:00:05.556,0.0008506248123012481,0.0041049486026167896,0.0171727798879147,0,
00:00:05.56,-0.007945660501718521,0.0036527612246573,-0.0129402736201882,0,
00:00:05.564,-0.00393434893339872,0.0030327625572681397,-0.00515617756173015,0,
00:00:05.568,0.00288662756793201,-0.0031683740671724103,0.00533936358988285,0,
00:00:05.572,-0.0014729528920725,-0.0035309165250509995,-0.0023315113503485896,0,
00:00:05.576,-0.0124416211619973,-0.0036568492650985705,0.00796912424266338,0,
00:00:05.58,0.00491355918347836,0.00236144103109837,0.00264118006452918,0,
00:00:05.584,0.023143982514739,0.0029994400683790398,-0.0138703789561987,0,
00:00:05.588,-0.0126981697976589,0.00562579836696386,0.00025101425126195,0,
00:00:05.592,-0.00295661715790629,-0.008277486078441141,0.00839560758322477,0,
00:00:05.596,-0.00672285445034504,0.0037797687109559796,-0.0069200056605041,0,
00:00:05.6,0.0036005813162773796,-0.00414200266823173,0.0035217483527958397,0,
00:00:05.604,0.0108130788430572,-0.00190562789794058,0.0140404272824526,0,
00:00:05.608,-0.00595918297767639,0.0036210704129189296,-0.0133069148287177,0,
00:00:05.612,-0.00558604719117284,0.00718855019658804,-0.00585910864174366,0,
00:00:05.616,-0.00285933399572968,-0.0074203237891197205,-0.0039563775062561,0,
00:00:05.62,0.0107993595302105,0.00162982160691172,0.0132598634809256,0,
00:00:05.624,0.00511957844719291,0.0013951495056971901,0.000479400623589754,0,
00:00:05.628,-0.00675331149250269,-0.0006691767484880981,-0.00293034268543124,0,
00:00:05.632,-0.00820890534669161,-0.00583951408043504,-0.00429254584014416,0,
00:00:05.636,-0.00386901292949915,-0.00154902646318078,-0.000615171913523227,0,
00:00:05.64,0.013690248131751999,0.00687481090426445,0.00428988924250007,0,
00:00:05.644,-0.00357724702917039,0.00207545142620802,0.0027960527222603603,0,
00:00:05.648,0.000799825007561594,-0.000550533412024379,0.00413761427626014,0,
00:00:05.652,0.0007661331910639998,-0.0014429223956540199,-0.009842914529144759,0,
00:00:05.656,-0.00450548622757196,-0.00122307415585965,0.0008252115221694111,0,
00:00:05.66,0.009138821624219421,-0.000551841570995748,-0.00014543178258463702,0,
00:00:05.664,-0.00570029160007834,6.574548024218531e-05,0.00239058071747422,0,
00:00:05.668,-0.00514921871945262,0.000384069426218048,-0.0032723916228860604,0,
00:00:05.672,0.00561916781589389,0.00454646954312921,-0.00302542466670275,0,
00:00:05.676,-0.00542730977758765,-0.00995231978595257,0.0037951963022351295,0,
00:00:05.68,0.00224022543989122,0.00682020885869861,0.0146225625649095,0,
00:00:05.684,0.000977503601461649,0.000519028340931982,0.00442030327394605,0,
00:00:05.688,-0.0050344024784863,-0.00535350479185581,-0.0228123161941767,0,
00:00:05.692,0.0194156374782324,0.00925536174327135,-0.0210947841405869,0,
00:00:05.696,-0.0044572502374649,-0.000734255067072809,0.0190200805664063,0,
00:00:05.7,-0.00329033052548766,-0.0124286813661456,0.0012595350854098801,0,
00:00:05.704,-0.0158885717391968,0.00459801079705358,0.0350030697882175,0,
00:00:05.708,-0.00139348255470395,0.0056068873964250105,-0.0229761712253094,0,
00:00:05.712,0.0057393689639866395,-0.00245988089591265,-0.00303515628911555,0,
00:00:05.716,0.00855174940079451,-0.00182808830868453,0.00104853219818324,0,
00:00:05.72,0.005872796289622779,0.00456751091405749,-0.00654566986486316,0,
00:00:05.724,-0.0135769378393888,0.00175686564762145,-0.0146885989233851,0,
00:00:05.728,0.00467214267700911,-0.0059200725518167,0.00602133246138692,0,
00:00:05.732,0.00275695556774735,-0.0032447704579681197,0.0195971950888634,0,
00:00:05.736,0.00225201435387135,0.00503012305125594,-0.00441179564222693,0,
00:00:05.74,-0.0116274543106556,0.00311328424140811,0.00718176038935781,0,
00:00:05.744,0.0109406132251024,-0.004646452609449629,-0.006213977467268711,0,
00:00:05.748,-0.000442152784671634,0.00156595057342201,-0.00500334333628416,0,
00:00:05.752,-0.00761672342196107,-0.00306719611398876,-0.00505844270810485,0,
00:00:05.756,0.0015311184106394599,0.00339373480528593,-0.000727027596440166,0,
00:00:05.76,0.00292340200394392,-9.25213316804729e-05,-0.0014965666923672,0,
00:00:05.764,0.00764578394591808,-0.000743035518098623,0.00950484443455935,0,
00:00:05.768,-0.0103552900254726,-0.00036812108010053597,0.0036412563640624298,0,
00:00:05.772,-0.0103742741048336,9.51730035012588e-05,0.00340806576423347,0,
00:00:05.776,0.0117221465334296,-0.0017720254836604,-0.01077332906425,0,
00:00:05.78,0.0194791238754988,0.008459394797682759,-0.0059897014871239706,0,
00:00:05.784,-0.0195791013538837,-0.00627032527700067,0.0118357939645648,0,
00:00:05.788,-0.00317073590122163,-0.00491417245939374,-0.00889039225876331,0,
00:00:05.792,-0.00032812447170727004,0.00210740067996085,0.010692304931581,0,
00:00:05.796,-0.000262130255578086,0.0011202088790014401,-0.0056444900110364,0,
00:00:05.8,0.0105435680598021,0.00577278574928641,-0.00655734585598111,0,
00:00:05.804,-0.000592612253967673,0.0016788770444691199,0.00857646856456995,0,
00:00:05.808,-0.0104158921167254,-0.0086700189858675,0.0217449963092804,0,
00:00:05.812,-0.00158126885071397,0.000123833349789493,-0.0233840737491846,0,
00:00:05.816,0.00578959006816149,0.00639653345569968,-0.0222535599023104,0,
00:00:05.82,0.00669995089992881,-0.000357633281964809,0.00506605487316847,0,
00:00:05.824,-0.00303205428645015,-0.005047712009400129,0.0219004191458225,0,
00:00:05.828,-0.00135780975688249,-0.00676820706576109,0.0066668167710304295,0,
00:00:05.832,-0.00309590343385935,0.00468961568549275,-0.013558017089963001,0,
00:00:05.836,-0.000868153932970017,0.00779043463990092,-0.00074877921724692,0,
00:00:05.84,0.0115636475384235,-0.00146196992136538,0.0112392287701368,0,
00:00:05.844,-0.0101701701059937,-0.000327737914631143,-0.00576677499338984,0,
00:00:05.848,-0.00296207517385483,0.00127197499386966,-0.000176731016836129,0,
00:00:05.852,-0.00100762548390776,-0.00518796360120177,-0.00368180801160634,0,
00:00:05.856,0.0042901351116597704,0.00357261346653104,-0.0111326621845365,0,
00:00:05.86,0.00136217079125345,-0.00492193782702088,0.0053559024818241605,0,
00:00:05.864,0.006945075932890179,-0.00220680702477694,0.005783881526440379,0,
00:00:05.868,-0.00347512913867831,0.0038716932758688896,0.012439452111721002,0,
00:00:05.872,-0.00487843062728643,0.00352209759876132,-0.00234870938584208,0,
00:00:05.876,-0.00871667638421059,0.0010810277890414,-0.0114469388499856,0,
00:00:05.88,0.00825401581823826,0.00112316466402262,-0.0059989742003381296,0,
00:00:05.884,0.0109202424064279,-0.0036716738250106603,-0.00298433960415423,0,
00:00:05.888,-0.0156172793358564,-0.000904500018805265,0.0170462541282177,0,
00:00:05.892,0.00117014569696039,-0.00680855847895145,0.0123181222006679,0,
00:00:05.896,0.0199361238628626,0.0033805337734520396,-0.0284660868346691,0,
00:00:05.9,-0.00818814896047115,0.0109372269362211,0.00746159767732024,0,
00:00:05.904,-0.0110787516459823,-0.00771266128867865,0.00245396443642676,0,
00:00:05.908,-0.00047122704563662404,0.000811494363006204,-0.0118532432243228,0,
00:00:05.912,-0.0124260913580656,-0.0009294553892686961,0.0223024878650904,0,
00:00:05.916,0.0093397181481123,-0.00257028779014945,0.008255351334810259,0,
00:00:05.92,0.0223499815911055,0.00224900734610856,-0.0254606567323208,0,
00:00:05.924,-0.00806592777371407,0.00227933377027512,-0.00475548813119531,0,
00:00:05.928,-0.0009990992257371538,0.00486542191356421,0.0219924468547106,0,
00:00:05.932,-0.008297218009829521,-0.00666402792558074,-0.0170194171369076,0,
00:00:05.936,0.0067266793921589895,-0.0024423156864941103,-0.00100799556821585,0,
00:00:05.94,-0.00387149280868471,0.00247452151961625,0.009751287288963791,0,
00:00:05.944,-0.00799794401973486,-0.00043942499905824705,0.00561834499239922,0,
00:00:05.948,0.00540643977001309,-0.000263756111962721,-0.000847199116833508,0,
00:00:05.952,0.00113223795779049,-0.00577629962936044,-0.00639643520116806,0,
00:00:05.956,-0.00923478417098522,0.00874176807701588,-0.00635432498529553,0,
00:00:05.96,0.0237213857471943,0.00348743237555027,-0.0026380154304206397,0,
00:00:05.964,0.007651406805962321,0.00316453794948757,0.00763368094339967,0,
00:00:05.968,-0.0187851246446371,-0.00687080249190331,0.0101385219022632,0,
00:00:05.972,-0.0141129856929183,-0.00587025471031666,-0.0028223730623722102,0,
00:00:05.976,-0.00182657490950078,-0.00150478049181402,-0.00567936757579446,0,
00:00:05.98,0.006545771844685079,0.0019366666674614,-0.00365936453454196,0,
00:00:05.984,0.0165066793560982,0.0009743915870785711,-0.00265481160022318,0,
00:00:05.988,-0.00479962537065148,0.00632773246616125,0.00138111005071551,0,
00:00:05.992,-0.00165861810091883,0.0025016521103680103,0.0118306232616305,0,
00:00:05.996,-0.00741344783455133,-0.00602257484570146,-0.00896620191633701,0,
00:00:06,-0.0035294215194881,-0.00589401740580797,0.000714245601557195,0,
00:00:06.004,0.0327437222003937,0.00844629015773535,0.00421818904578686,0,
00:00:06.008,-0.0191924124956131,0.000281552202068269,0.000827429466880858,0,
00:00:06.012,-0.0121473791077733,-0.0042677246965467895,-0.00433456804603338,0,
00:00:06.016,0.0012621785281226,0.00435163918882608,-0.00512064807116985,0,
00:00:06.02,-0.00267343921586871,-0.00279982527717948,-0.000338024430675432,0,
00:00:06.024,-0.00024778780061751604,-0.00467156898230314,0.00731401285156608,0,
00:00:06.028,0.00285192974843085,0.00163011311087757,-0.000285944464849308,0,
00:00:06.032,0.0102675808593631,0.00087630283087492,0.00503525463864207,0,
00:00:06.036,0.0117860194295645,0.00588505528867245,1.88720332516823e-06,0,
00:00:06.04,0.007495833560824391,0.00195267796516418,-0.0187599640339613,0,
00:00:06.044,-0.0236040335148573,-0.0022165956906974303,0.00291018490679562,0,
00:00:06.048,-0.0169222541153431,-0.0036475670058280204,0.00871477462351322,0,
00:00:06.052,-0.00348307890817523,-0.0109393792226911,0.0144188078120351,0,
00:00:06.056,0.012879766523838002,0.0051519633270800105,0.0057773585431277795,0,
00:00:06.06,0.00813502166420221,0.00738133024424315,-0.0207411497831345,0,
00:00:06.064,0.0132028022781014,0.00377931306138635,-0.0160073004662991,0,
00:00:06.068,-0.00646303268149495,0.0016940850764513,0.00803323648869991,0,
00:00:06.072,0.00032605233718641097,-0.00462083518505096,-0.00426469184458256,0,
00:00:06.076,-0.00515455845743418,-0.00229721097275615,0.00819078087806702,0,
00:00:06.08,-0.00342412060126662,-0.0036702693905681398,0.0143439639359713,0,
00:00:06.084,-0.0150962071493268,-0.00712579675018787,0.0306595526635647,0,
00:00:06.088,0.00036835297942161603,0.00965646840631962,-0.0272217784076929,0,
00:00:06.092,0.0224065389484167,0.00750160636380315,-0.029432263225317,0,
00:00:06.096,0.0068728905171155895,-0.00128375843632966,-0.0046580177731812,0,
00:00:06.1,-0.00415575690567493,-0.00172471825499088,0.00272354041226208,0,
00:00:06.104,-0.0161424353718758,-0.00694940984249115,0.0196229200810194,0,
00:00:06.108,0.00815174542367458,-0.00267195631749928,0.0125767756253481,0,
00:00:06.112,-0.0116980355232954,0.0061456598341465,-0.00348307145759463,0,
00:00:06.116,0.000835277955047786,0.00399640621617436,-0.0028486312367022,0,
00:00:06.12,0.0276085957884789,-0.00223253318108618,-0.00669389823451638,0,
00:00:06.124,-0.007106032688170671,-0.0026216180995106697,-0.0086950333788991,0,
00:00:06.128,-0.0237713009119034,-0.00101635837927461,0.00105075375176966,0,
00:00:06.132,0.00041731688543222796,0.000473482417874038,0.00915272254496813,0,
00:00:06.136,0.000152648543007672,-0.00306704407557845,0.00673968438059092,0,
00:00:06.14,0.0150926662608981,0.009001646190881729,-0.00523625919595361,0,
00:00:06.144,0.0154093243181705,0.0017584920860827,-0.0057369889691472106,0,
00:00:06.148,-0.00654748780652881,-0.00506024388596416,-0.0021909503266215303,0,
00:00:06.152,-0.0133972708135843,-0.00408124551177025,-0.0009819525294005869,0,
00:00:06.156,-0.00323859415948391,-0.00300110643729568,-0.00177550164517015,0,
00:00:06.16,-0.00364160467870533,0.0054815514013171205,0.0138190221041441,0,
00:00:06.164,0.00341542786918581,0.0017741045448929102,0.004111956339329479,0,
