Elapsed Time,EMG1,EMG2,EMG3,BioRadio Event,Unnamed: 5
00:00:00,-0.568763732910156,1.31812036037445,3.7903745174408,0,
00:00:00.004,0.545389890670776,-1.25017821788788,-3.6069388389587402,0,
00:00:00.008,0.44804489612579296,-1.04457211494446,-3.0045976638793905,0,
00:00:00.012,0.0432491265237331,-0.11560304462909698,-0.313194692134857,0,
00:00:00.016,-0.23082976043224301,0.5290895700454711,1.54188549518585,0,
00:00:00.02,-0.28618988394737205,0.646085560321808,1.87588107585907,0,
00:00:00.024,-0.171719565987587,0.41267257928848294,1.1408596038818402,0,
00:00:00.028,-0.0171819049865007,0.0534322261810303,0.142089426517487,0,
00:00:00.032,0.0916962698101997,-0.177387848496437,-0.541284143924713,0,
00:00:00.036,0.11864943802356699,-0.25509324669838,-0.7393556833267209,0,
00:00:00.04,0.0833243876695633,-0.197975933551788,-0.5503884553909301,0,
00:00:00.044,0.0137090934440494,-0.0898403003811836,-0.216214224696159,0,
00:00:00.048,-0.0342436842620373,0.00436421437188983,0.0884900167584419,0,
00:00:00.052,-0.0292150713503361,0.0821537002921104,0.221286341547966,0,
00:00:00.056,-0.00532326800748706,0.0994140058755875,0.20190618932247198,0,
00:00:00.06,-0.00022556759358849398,0.0551199428737164,0.099579431116581,0,
00:00:00.064,-0.00900754239410162,-0.010637785308063,0.003979838453233239,0,
00:00:00.068,-0.00797473452985287,-0.0397358275949955,-0.0547144673764706,0,
00:00:00.072,0.00493059400469065,-0.015158767811953999,-0.0701548531651497,0,
00:00:00.076,0.0177694000303745,-0.00250884494744241,-0.0404765494167805,0,
00:00:00.08,0.00150621973443776,-0.0131373563781381,-0.0032639568671584103,0,
00:00:00.084,-0.00605206144973636,-0.0102361068129539,0.00564567279070616,0,
00:00:00.088,0.00223463959991932,0.00948904175311327,0.017977224662900002,0,
00:00:00.092,-0.0103466957807541,-0.00279550463892519,0.006368888542056079,0,
00:00:00.096,0.00296891713514924,0.016184875741601,0.009692364372313021,0,
00:00:00.1,0.00692552328109741,0.0138617660850286,0.00484009832143784,0,
00:00:00.104,0.00240395055152476,0.00137580023147166,-0.0032450258731842,0,
00:00:00.108,-0.0020698499865829897,-0.00968041177839041,-0.00051336461910978,0,
00:00:00.112,-0.0015637947944924198,0.0008819877984933561,-0.00709460163488984,0,
00:00:00.116,-0.0150283006951213,-0.0226285420358181,-0.008460305631160741,0,
00:00:00.12,0.0012968914816156,-0.0100649753585458,0.0144443390890956,0,
00:00:00.124,0.0107024200260639,0.0147215873003006,0.00647380296140909,0,
00:00:00.128,0.0121329249814153,0.0225684177130461,-0.0169521532952785,0,
00:00:00.132,0.00398357678204775,0.010067967697978,-0.005171255208551879,0,
00:00:00.136,-0.00598308350890875,0.000204227646463551,0.0009592016576789321,0,
00:00:00.14,-0.0239633098244667,-0.0356172956526279,0.00982733070850372,0,
00:00:00.144,0.00289229000918567,7.205804286058991e-05,0.00201922515407205,0,
00:00:00.148,0.0116413924843073,0.006459232419729229,0.00199826597236097,0,
00:00:00.152,0.00886031426489353,0.0038850714918226,-0.00451743323355913,0,
00:00:00.156,5.12432889081538e-05,0.00495969131588936,0.00188244692981243,0,
00:00:00.16,-0.0137133421376348,-0.00648204935714602,0.00309486989863217,0,
00:00:00.164,-0.00825454387813807,0.0067619332112371896,0.0011504782596603,0,
00:00:00.168,0.0134491752833128,0.0042493692599237,-0.00957881286740303,0,
00:00:00.172,0.00918212905526161,0.000904343614820391,-0.009187559597194191,0,
00:00:00.176,0.00183990504592657,-0.00398116651922464,0.0117696961387992,0,
00:00:00.18,-0.0181387644261122,-0.0136134885251522,0.0105505809187889,0,
00:00:00.184,-0.0122970193624496,-0.0100264130160213,-0.0101444311439991,0,
00:00:00.188,0.01882797293365,0.0199829861521721,0.00341967400163412,0,
00:00:00.192,0.00734100490808487,0.0098322406411171,-0.0070457523688674,0,
00:00:00.196,0.00841529108583927,0.00219285860657692,-0.000996589311398566,0,
00:00:00.2,-0.0006894770194776361,0.00333873531781137,0.00456797424703836,0,
00:00:00.204,-0.0302531104534864,-0.0357293449342251,-0.0051495642401278,0,
00:00:00.208,-0.0052639408968389,-3.63416147592943e-05,0.0102473665028811,0,
00:00:00.212,0.0183801520615816,0.026539359241724,0.0009679666836746039,0,
00:00:00.216,0.0154612902551889,0.0115038473159075,-0.00491517502814531,0,
00:00:00.22,0.00391090055927634,-0.00610849820077419,-0.0010791793465614302,0,
00:00:00.224,-0.009542347863316541,-0.0046268776059150704,0.0020985493902117,0,
00:00:00.228,-0.0232996586710215,-0.0197059195488691,-0.0018385770963504897,0,
00:00:00.232,-0.00421849451959133,-0.0153045793995261,-0.00367681030184031,0,
00:00:00.236,0.02213897369802,0.0270377360284328,0.00179036136250943,0,
00:00:00.24,0.009159741923213009,0.0147920092567801,0.0024970097001642,0,
00:00:00.244,-0.0035630580969154796,-0.00604428350925446,0.0033341816160827897,0,
00:00:00.248,-0.012518260627985,-0.0123025085777044,-0.00211156043224037,0,
00:00:00.252,-0.00237359898164868,0.00017273091361858,-0.00252081383951008,0,
00:00:00.256,0.0141998445615172,0.0101079549640417,-0.00107037136331201,0,
00:00:00.26,0.00129937054589391,0.00117799069266766,0.000359038705937564,0,
00:00:00.264,-0.0070939939469099,-0.00406964216381311,0.00308829406276345,0,
00:00:00.268,-0.0055013797245919704,-0.00469549791887403,-0.00106812512967736,0,
00:00:00.272,0.000943452236242592,-0.0066837016493082,0.0008490753825753929,0,
00:00:00.276,0.00011585840547923,0.00199677003547549,-0.0063790543936193,0,
00:00:00.28,0.00135666923597455,0.00288316840305924,0.00488474918529391,0,
00:00:00.284,0.0019524486269801898,0.0059200758114457104,0.00180194992572069,0,
00:00:00.288,0.00977023039013147,0.0175620634108782,-0.00418125092983246,0,
00:00:00.292,-0.0136731453239918,-0.0269067771732807,0.00108148204162717,0,
00:00:00.296,-0.0114411674439907,-0.010556522756815002,0.0127587420865893,0,
00:00:00.3,0.0112102730199695,0.0139091545715928,-0.006350914016366001,0,
00:00:00.304,0.0195956006646156,0.0162656512111425,-0.0102019067853689,0,
00:00:00.308,-0.000113607537059579,0.0029840534552931803,-0.00143575086258352,0,
00:00:00.312,-0.0135909849777818,-0.0157237146049738,0.0071236714720726,0,
00:00:00.316,-0.0137742599472404,-0.0143543565645814,-0.00028854832635261097,0,
00:00:00.32,0.00660198414698243,0.010128190740943,-0.00311243277974427,0,
00:00:00.324,0.00751573592424393,0.0158063601702452,-8.11409918242134e-05,0,
00:00:00.328,0.00462679378688335,-0.005816102027893071,0.00855396408587694,0,
00:00:00.332,0.0026145875453949,-7.400957838399341e-05,-0.0054837539792060895,0,
00:00:00.336,-0.0189123973250389,-0.0157697852700949,0.00241981539875269,0,
00:00:00.34,-0.0118641387671232,-0.0138892251998186,-0.00314907287247479,0,
00:00:00.344,0.0202697589993477,0.0241354871541262,0.00443337205797434,0,
00:00:00.348,0.0150170885026455,0.0107963243499398,-0.0032611198257654897,0,
00:00:00.352,-0.00298530282452703,8.5306137407315e-06,-0.00517330737784505,0,
00:00:00.356,-0.00804807059466839,-0.00122930726502091,0.00344438711181283,0,
00:00:00.36,-0.0081338444724679,-0.0159465409815311,-0.0010822910116985401,0,
00:00:00.364,-0.00200022594071925,0.00139679340645671,0.00235130079090595,0,
00:00:00.368,0.00913107953965664,0.00428317300975323,-0.00434446753934026,0,
00:00:00.372,0.00047733634710311906,0.000113040616270155,0.0103791952133179,0,
00:00:00.376,-0.00595480622723699,-0.00238859700039029,0.000107838808617089,0,
00:00:00.38,0.000558307219762355,-0.00193359109107405,-0.003922243602573871,0,
00:00:00.384,0.0154337715357542,0.0124176423996687,0.00461182044818997,0,
00:00:00.388,-0.0114999962970614,-0.00194724218454212,-0.0115967402234674,0,
00:00:00.392,-0.0133972223848104,-0.0114515051245689,-0.0124982316046953,0,
00:00:00.396,0.007815989665687079,-0.00159700610674918,0.0185643713921309,0,
00:00:00.4,0.0213515404611826,0.0229642763733864,0.00154647207818925,0,
00:00:00.404,-0.0107638845220208,-0.00646538939327002,0.000163958655321039,0,
00:00:00.408,-0.0182056929916143,-0.0241438690572977,0.00327996676787734,0,
00:00:00.412,0.00858830381184816,0.00346372532658279,-0.0114240972325206,0,
00:00:00.416,0.0149801857769489,0.0185708198696375,0.00369506655260921,0,
00:00:00.42,-0.0207935255020857,-0.00506084598600864,1.77834499481833e-05,0,
00:00:00.424,-0.0029446375556290197,-0.0116955069825053,0.00461812689900398,0,
00:00:00.428,0.0200220439583063,0.0160446651279926,0.0013678161194548,0,
00:00:00.432,0.0074363583698868795,0.00440982356667519,-0.0061764270067215,0,
00:00:00.436,-0.0149822728708386,-0.0061688129790127295,0.0008947587339207529,0,
00:00:00.44,-0.0034226314164698102,-0.0128913950175047,-0.000859869178384542,0,
00:00:00.444,0.00300742383114994,0.009126191958785059,-0.0021947647910565103,0,
00:00:00.448,-0.000237809770624153,0.00174155959393829,0.00482870079576969,0,
00:00:00.452,-0.00257972651161253,-0.0100608393549919,-0.0034634848125279,0,
00:00:00.456,0.0104121994227171,0.014083013869822,0.009393078275024891,0,
00:00:00.46,-0.00563919031992555,-0.00435609137639403,-0.00144978985190392,0,
00:00:00.464,-0.0161092579364777,-0.0180528648197651,-0.0111609175801277,0,
00:00:00.468,0.00870826002210379,0.00829688180238009,0.00422006985172629,0,
00:00:00.472,0.0126634240150452,0.0179968196898699,-0.00223179231397808,0,
00:00:00.476,0.0125694498419762,0.0101076262071729,0.00194768386427313,0,
00:00:00.48,-0.0218536257743835,-0.0222548674792051,0.000417058356106281,0,
00:00:00.484,-0.00933471228927374,-0.0117741320282221,0.00326825864613056,0,
00:00:00.488,0.00231069070287049,0.00165160477627069,0.00566860241815448,0,
00:00:00.492,0.0177019014954567,0.0229307282716036,-0.00679272413253784,0,
00:00:00.496,0.0109722996130586,0.0189652517437935,-0.00109443604014814,0,
00:00:00.5,-0.0216207895427942,-0.0316791534423828,-0.00648391991853714,0,
00:00:00.504,-0.00528297899290919,-0.00736883515492082,0.00550632225349545,0,
00:00:00.508,-0.00211063865572214,-0.0155049553140998,-0.00580166513100266,0,
00:00:00.512,0.00572690228000283,0.000194305233890191,0.0207882095128298,0,
00:00:00.516,0.0018770487513393198,0.0252849031239748,-0.005919115617871279,0,
00:00:00.52,0.000644548505079001,0.0132890967652202,-0.012085267342627,0,
00:00:00.524,0.0171525180339813,0.0139823826029897,-0.000975724600721151,0,
00:00:00.528,-0.0006256931228563191,-0.0051368121057748795,0.000436365517089143,0,
00:00:00.532,-0.0180853195488453,-0.0354337245225906,0.00024170012329705097,0,
00:00:00.536,-0.0017997456016019,-0.0020364043302834,0.00882247649133205,0,
00:00:00.54,-0.006338007748126979,0.00125923485029489,-0.0026611287612468,0,
00:00:00.544,0.0032488543074578,0.00211526267230511,-0.000810699595604092,0,
00:00:00.548,0.00892258528620005,0.0154651273041964,-0.00234285229817033,0,
00:00:00.552,0.00341960601508617,0.00620268099009991,0.0038290242664516,0,
00:00:00.556,0.00847830157727003,0.00439335871487856,-0.0047317580319941,0,
00:00:00.56,-0.00313549465499818,-0.007208918686956171,0.0043624397367239,0,
00:00:00.564,-0.0205372422933578,-0.0221173539757729,-0.003953984938561921,0,
00:00:00.568,-0.0010490906424820401,0.00172967335674912,0.00249305157922208,0,
00:00:00.572,0.0134244645014405,0.0131500540301204,0.0122740175575018,0,
00:00:00.576,0.00962296966463327,0.00947037059813738,-0.0121787562966347,0,
00:00:00.58,-0.0114329559728503,-0.00678206840530038,-0.0118692088872194,0,
00:00:00.584,-0.0118186566978693,-0.021273385733366002,0.00739322882145643,0,
00:00:00.588,0.0109125534072518,0.00780568970367312,0.007177374791353941,0,
00:00:00.592,0.00692275119945407,0.0216313879936934,-0.00659788213670254,0,
00:00:00.596,0.000870513380505145,0.0100295776501298,-0.000704531674273312,0,
00:00:00.6,0.00327919889241457,-0.00831128470599651,0.00289636664092541,0,
00:00:00.604,-0.0178916808217764,-0.0237512849271297,0.00735027017071843,0,
00:00:00.608,0.0006721011595800519,-0.0034359402488917104,0.0038119908422231705,0,
00:00:00.612,0.00564381713047624,0.0039734705351293104,-0.00959749426692724,0,
00:00:00.616,0.00419504661113024,0.005281102843582629,-0.006780119612813,0,
00:00:00.62,0.0031560584902763397,0.00809023249894381,0.0037271501496434203,0,
00:00:00.624,0.00514170387759805,0.0166341215372086,0.00588343432173133,0,
00:00:00.628,-0.0155749330297112,-0.0062792245298624,-0.0113089270889759,0,
00:00:00.632,-0.0103955930098891,-0.0295609999448061,0.00509616686031222,0,
00:00:00.636,0.0109988916665316,0.0044778557494282705,0.0125466454774141,0,
00:00:00.64,0.00805521663278341,0.010846777819097,-0.0036877540405839703,0,
00:00:00.644,0.004690113477408889,0.00827461667358875,-0.008579357527196409,0,
00:00:00.648,-0.00148124585393816,-0.00808617006987333,-0.0037117095198482297,0,
00:00:00.652,-0.0047421981580555396,0.00100292474962771,0.00366069353185594,0,
00:00:00.656,-0.0147556429728866,-0.00706746149808168,0.00395593326538801,0,
00:00:00.66,0.0037172844167798797,0.00116868375334889,0.00581398699432611,0,
00:00:00.664,0.0125937452539802,0.0131086371839046,-0.0107056256383657,0,
00:00:00.668,0.0080295754596591,0.00865837279707193,0.0011124679585918801,0,
00:00:00.672,-0.00397143373265862,-0.0128655815497041,0.0094181802123785,0,
00:00:00.676,-0.00940790679305792,-0.0155915915966034,-0.00227777450345457,0,
00:00:00.68,-0.00733227096498013,-0.00319359102286398,-0.00520142866298556,0,
00:00:00.684,0.00229477137327194,0.00889216829091311,-0.00961563736200333,0,
00:00:00.688,0.00306378910318017,0.0135912476107478,0.00554289855062962,0,
00:00:00.692,0.005854270886629821,0.00478975381702185,0.0024605430662632,0,
00:00:00.696,0.00703427568078041,0.00046038479194976395,0.00044728041393682404,0,
00:00:00.7,-0.006732962559908629,-0.0191730409860611,0.006139154080301521,0,
00:00:00.704,-0.00388820236548781,0.0012759165838360802,0.00879539269953966,0,
00:00:00.708,-0.00536135537549853,-0.0038598785176873203,-0.00987084303051233,0,
00:00:00.712,0.000363543687853962,0.0016662391135469099,-0.0026130746118724303,0,
00:00:00.716,0.014690806157886998,0.0161210130900145,-0.00808431021869183,0,
00:00:00.72,-0.0033208536915481104,-0.00644726771861315,-0.0040224255062639705,0,
00:00:00.724,0.00449474062770605,0.0128842787817121,0.0121326176449656,0,
00:00:00.728,-0.0105939311906695,-0.0136882858350873,-0.00278147729113698,0,
00:00:00.732,-0.0220570899546146,-0.0277998261153698,0.0113895945250988,0,
00:00:00.736,0.0177240930497646,0.0227873995900154,0.00318773672915995,0,
00:00:00.74,0.0140791153535247,0.014895529486238998,-0.0140698608011007,0,
00:00:00.744,0.00939319189637899,0.0080330241471529,-0.0129591394215822,0,
00:00:00.748,-0.0106750121340156,0.000132009459775873,0.0024384348653256897,0,
00:00:00.752,-0.0284089669585228,-0.0515376664698124,0.01951003074646,0,
00:00:00.756,0.010555338114499999,0.0106033924967051,0.004352576564997429,0,
00:00:00.76,0.0103849964216352,0.0202008932828903,-0.00887264497578144,0,
00:00:00.764,0.0142217623069882,0.014720194041729,-0.00501951947808266,0,
00:00:00.768,0.00124688213691115,-0.000273028388619423,-0.00348281278274953,0,
00:00:00.772,-0.0127520700916648,-0.0008063085260801019,0.0049741403199732295,0,
00:00:00.776,-0.0186575949192047,-0.008897417224943641,0.0013898019678890699,0,
00:00:00.78,-0.0052497652359306795,-0.027195492759347,-0.00215121544897556,0,
00:00:00.784,0.0155435595661402,0.0119795883074403,0.005687449593096971,0,
00:00:00.788,0.0223617050796747,0.0200287420302629,-0.0067889201454818205,0,
00:00:00.792,0.0051480196416378,0.007158834952861071,0.0007374781998805701,0,
00:00:00.796,-0.0260902177542448,-0.0258763376623392,0.00421728566288948,0,
00:00:00.8,-0.0059591149911284395,-0.00435325503349304,0.00121953990310431,0,
00:00:00.804,0.00994424242526293,0.0250992085784674,-0.00379823544062674,0,
00:00:00.808,0.00817744340747595,0.0154079115018249,-0.0005964159499853849,0,
00:00:00.812,-0.0131705021485686,-0.0250435210764408,-0.00420617824420333,0,
00:00:00.816,-0.000261535664321855,-0.0137980720028281,0.0018047544872388198,0,
00:00:00.82,0.00597682967782021,0.0017022246029228,0.0031741040293127303,0,
00:00:00.824,0.00341844069771469,0.009351721964776521,0.00411686208099127,0,
00:00:00.828,-0.0107791777700186,-0.00393220782279968,-0.00582597497850657,0,
00:00:00.832,0.00954738073050976,0.0152342859655619,0.00141163822263479,0,
00:00:00.836,0.006009175442159179,0.0019497518660500602,-0.000181219525984488,0,
00:00:00.84,-0.007931928150355821,-0.00969056691974401,0.0023071679752320103,0,
00:00:00.844,-0.0018194330623373398,-0.0006245236727409059,0.00277988985180855,0,
00:00:00.848,-0.00227963179349899,-0.008821180090308191,-0.00511001562699676,0,
00:00:00.852,0.0020627684425562603,0.0043028639629483206,0.00284803193062544,0,
00:00:00.856,-0.004409837070852521,0.00301451818086207,0.000510495796333998,0,
00:00:00.86,0.000154102526721545,-0.00234249676577747,-0.0085641061887145,0,
00:00:00.864,0.012427594512701,0.00455675693228841,0.00102464738301933,0,
00:00:00.868,0.00484450021758676,0.0154404919594526,-0.0049370466731488705,0,
00:00:00.872,-0.00603691069409251,-0.0142824202775955,0.00406525516882539,0,
00:00:00.876,-0.0219638552516699,-0.0268351286649704,0.0193496830761433,0,
00:00:00.88,0.00772192142903805,0.009802578017115591,0.00116545846685767,0,
00:00:00.884,0.0135447736829519,0.0272348374128342,-0.0190408211201429,0,
00:00:00.888,0.0116629274562001,0.0103141777217388,-0.00163563690148294,0,
00:00:00.892,-0.0128799322992563,-0.0136780673637986,0.00102168461307883,0,
00:00:00.896,-0.0175248589366674,-0.0186926536262035,0.00043243641266599303,0,
00:00:00.9,0.0138482190668583,0.0038407326210290202,0.00438315747305751,0,
00:00:00.904,-0.0007886186358518901,-0.000901944003999233,0.0050452123396098605,0,
00:00:00.908,0.004454411566257479,0.0010874915169552,-0.00168599025346339,0,
00:00:00.912,-0.0115683116018772,-0.0030992750544101,-0.007297379896044729,0,
00:00:00.916,0.00925024505704641,0.0153464265167713,0.00813395529985428,0,
00:00:00.92,0.000252285448368639,0.000749371363781393,-0.00717003969475627,0,
00:00:00.924,-0.00124890124425292,-0.0147675611078739,0.000132433284306899,0,
00:00:00.928,0.00573818758130074,0.0119224935770035,0.00419596955180168,0,
00:00:00.932,0.0026547031011432396,0.004519010894000529,-0.000405902101192623,0,
00:00:00.936,-0.008216823451220991,-0.009824909269809721,-0.00336018763482571,0,
00:00:00.94,-0.029521131888032,-0.0192508865147829,0.00335758877918124,0,
00:00:00.944,0.0224091857671738,0.0200676713138819,-0.0023341684136539698,0,
00:00:00.948,0.024994982406497,0.018461337313056,0.00306528597138822,0,
00:00:00.952,-0.0037867208011448396,-0.0108373714610934,-0.000882921449374408,0,
00:00:00.956,-0.013688875362277001,-0.0213580876588821,-0.00141952862031758,0,
00:00:00.96,-0.00445967772975564,0.0046189194545149794,-0.000651615671813488,0,
00:00:00.964,0.00359521503560245,0.0192057806998491,0.00226100906729698,0,
00:00:00.968,-0.0174674764275551,-0.0197386480867863,-0.00761753600090742,0,
00:00:00.972,0.00988150388002396,0.00119751575402915,0.00896997656673193,0,
00:00:00.976,0.0163730457425117,0.0117108952254057,0.0031221352983266102,0,
00:00:00.98,0.00327396090142429,0.0038096327334642397,-0.00392872607335448,0,
00:00:00.984,-0.0071901245974004295,-0.00192602362949401,-0.0037005557678639897,0,
00:00:00.988,-0.009248427115380759,0.00219515943899751,-0.00530995754525065,0,
00:00:00.992,-0.00114453840069473,-0.0133509933948517,0.00905986223369837,0,
00:00:00.996,0.00032907476997934304,-0.0043388563208282,-0.00102528359275311,0,
00:00:01,0.0068714311346411705,0.009370059706270691,0.00245541636832058,0,
00:00:01.004,0.00756428716704249,0.00814629532396793,-0.0019002058543264898,0,
00:00:01.008,-0.0029802008066326397,-0.0022076379973441397,-0.00418261578306556,0,
00:00:01.012,-0.0126274954527617,-0.0136987725272775,-0.0009358709212392571,0,
00:00:01.016,-0.0215907823294401,-0.0167785901576281,0.00605210056528449,0,
00:00:01.02,0.0255215112119913,0.0191976688802242,0.00487100146710873,0,
00:00:01.024,0.0182067304849625,0.0307382959872484,-0.00965355150401592,0,
00:00:01.028,0.008271205238997941,0.0038271213416010102,-0.00312918541021645,0,
00:00:01.032,-0.0145358592271805,-0.0232403371483088,0.00608116714283824,0,
00:00:01.036,-0.0299724265933037,-0.0289796590805054,-0.00035372027195990096,0,
00:00:01.04,0.008890635333955291,0.00314658437855542,0.0138831613585353,0,
00:00:01.044,0.0132087860256433,0.0203738436102867,-0.0134830633178353,0,
00:00:01.048,0.00367509154602885,0.0183995831757784,-0.0127503853291273,0,
00:00:01.052,-0.0141996564343572,-0.0267690438777208,-0.0028302741702646,0,
00:00:01.056,0.00652160216122866,0.0015333793126046699,0.0156870260834694,0,
00:00:01.06,0.0178141593933105,0.0267935004085302,0.0104630142450333,0,
00:00:01.064,-0.0141004174947739,-0.0211272463202477,-0.0038437370676547298,0,
00:00:01.068,-0.004901786800473929,-0.00486888969317079,-0.00204259133897722,0,
00:00:01.072,0.00202375510707498,0.0019579029176384198,-0.00551415141671896,0,
00:00:01.076,-0.00228080153465271,-0.0008536402601748701,-0.00153951591346413,0,
00:00:01.08,0.0083041125908494,0.0164513867348433,-0.000317050464218482,0,
00:00:01.084,-0.00146957079414278,-0.0061471383087337,-0.00393528956919909,0,
00:00:01.088,-0.0203557386994362,-0.016832297667861002,-0.0017282200278714301,0,
00:00:01.092,0.0176265686750412,0.0064333872869610795,0.0140414349734783,0,
00:00:01.096,0.00700456323102117,0.0019152489257976398,-0.00222866213880479,0,
00:00:01.1,-0.00271318154409528,0.00877438019961119,-0.00219960208050907,0,
00:00:01.104,0.00424095895141363,0.00924146827310324,-0.0037172418087720897,0,
00:00:01.108,0.00231337081640959,0.00757262436673045,-0.000928624358493835,0,
00:00:01.112,-0.0331026501953602,-0.0488661341369152,0.00144080840982497,0,
00:00:01.116,0.000108272120996844,-0.00833138357847929,0.0124216983094811,0,
00:00:01.12,0.0271531362086535,0.0319760292768478,-0.010658698156476,0,
00:00:01.124,0.0105334501713514,0.0208543762564659,-0.00402188533917069,0,
00:00:01.128,-0.00323209562338889,0.00657450314611197,0.00639167800545692,0,
00:00:01.132,-0.0130926435813308,-0.0175077244639397,-0.0060815988108515705,0,
00:00:01.136,-0.00582092953845859,-0.0151070905849338,-0.00313937780447304,0,
00:00:01.14,0.00204696808941662,-0.00668067578226328,0.00407368596643209,0,
00:00:01.144,0.00301952031441033,0.0141053413972259,0.00852643325924873,0,
00:00:01.148,-0.00871850643306971,-0.00152975891251117,-0.0020717999432236,0,
00:00:01.152,0.0100845787674189,0.000861996726598591,-0.00804379675537348,0,
00:00:01.156,0.0076711713336408095,0.00819637905806303,0.0017770542763173602,0,
00:00:01.16,-0.0017762468196451699,-0.00238299765624106,0.00118077441584319,0,
00:00:01.164,-0.00665269140154123,-0.00664671417325735,0.00350366625934839,0,
00:00:01.168,0.00262153334915638,0.00330088171176612,0.0012244703248143198,0,
00:00:01.172,-0.0034592039883136697,-0.000546764524187893,0.0008966380264610051,0,
00:00:01.176,-0.00235509406775236,-0.0037832474336028103,-0.00405995966866612,0,
00:00:01.18,-0.0038289465010166203,-0.00536035653203726,0.000907792884390801,0,
00:00:01.184,0.0100487982854247,0.009655791334807871,-0.00880459975451231,0,
00:00:01.188,-0.00696368096396327,-0.0064491429366171395,0.00190735689830035,0,
00:00:01.192,0.00813347566872835,0.00682533159852028,0.00683765858411789,0,
00:00:01.196,0.00464048096910119,0.007134709041565659,0.00348467333242297,0,
00:00:01.2,0.000208202618523501,0.00195369520224631,-0.00280372658744454,0,
00:00:01.204,-0.007066690828651191,-0.0112521462142467,-0.0070622656494379,0,
00:00:01.208,-0.0143747441470623,-0.00328139076009393,-0.0012489460641518198,0,
00:00:01.212,-0.00234751892276108,-0.0144693162292242,0.0181751344352961,0,
00:00:01.216,0.0161098744720221,0.0171620678156614,-0.00506627792492509,0,
00:00:01.22,0.0103999460116029,0.0129753379151225,-0.0148387830704451,0,
00:00:01.224,0.00621880404651165,0.00691406661644578,0.00577540369704366,0,
00:00:01.228,-0.0204869117587805,-0.0276139136403799,0.0058176550082862395,0,
00:00:01.232,-0.016266318038106003,-0.0136629827320576,-0.0075877485796809205,0,
00:00:01.236,0.0203637052327394,0.0286487489938736,-0.00317845190875232,0,
00:00:01.24,0.0133077101781964,0.00736128073185682,0.007104179356247191,0,
00:00:01.244,-0.0140484822914004,-0.0115278121083975,0.0116273825988173,0,
00:00:01.248,-0.00822631549090147,-0.00672899559140205,-0.0073609319515526295,0,
00:00:01.252,0.0022240704856813,-0.00509506789967418,-0.0118340896442533,0,
00:00:01.256,0.00903820153325796,0.00857373606413603,0.00163017632439733,0,
00:00:01.26,-0.00262381881475449,0.00659313704818487,0.0157687328755856,0,
00:00:01.264,0.0036359806545078798,0.00499275838956237,0.00025018618907779504,0,
00:00:01.268,-0.007925719954073429,-0.0152944484725595,-0.0173931922763586,0,
00:00:01.272,-0.00334125990048051,-0.00950978510081768,0.0009438679553568359,0,
00:00:01.276,0.00679214065894485,0.0117276459932327,0.0009505657362751661,0,
00:00:01.28,0.00508356327190995,0.0102313803508878,0.007324456702917809,0,
00:00:01.284,0.00463592726737261,0.00638592476025224,0.0038268307689577298,0,
00:00:01.288,-0.000339542108122259,0.0025895412545651197,-0.00503174774348736,0,
00:00:01.292,-0.0248327329754829,-0.0332084447145462,-0.00552209233865142,0,
00:00:01.296,0.00045898609096184405,-0.00479488866403699,0.0062130908481776706,0,
00:00:01.3,0.0188154838979244,0.0213895756751299,0.00392595492303371,0,
00:00:01.304,0.0120834382250905,0.0159419476985931,0.0012437223922461302,0,
00:00:01.308,-0.00627331528812647,-0.00196685083210468,-0.0136250695213675,0,
00:00:01.312,-0.00591332418844104,-0.00979574397206306,-0.00303715514019132,0,
00:00:01.316,-0.0143395913764834,-0.0109375724568963,0.0131019921973348,0,
00:00:01.32,-0.0208301618695259,-0.022531459107995002,0.00707681011408567,0,
00:00:01.324,0.0256084688007832,0.0164044722914696,-0.0039898524992168,0,
00:00:01.328,0.0305610373616219,0.0346203967928886,-0.0105553045868874,0,
00:00:01.332,-0.0052016815170645705,-0.00454744463786483,-8.21798894321546e-05,0,
00:00:01.336,-0.0151010397821665,-0.0116086807101965,0.00068811303935945,0,
00:00:01.34,-0.0174187142401934,-0.0153848743066192,0.0021304984111338897,0,
00:00:01.344,-0.0035071519669145302,-0.0016442978521809,0.000270815013209358,0,
00:00:01.348,0.0220699310302734,0.0185589641332626,0.0013316030381247401,0,
00:00:01.352,0.00681429682299495,0.0056260735727846605,0.00380524224601686,0,
00:00:01.356,-0.00430656177923083,-0.0073874294757843,-0.000953877286519855,0,
00:00:01.36,-0.0140206925570965,-0.016983937472105002,-0.00172878010198474,0,
00:00:01.364,-0.0162867791950703,-0.0171497631818056,0.005169200710952279,0,
00:00:01.368,0.0193311180919409,0.0269942581653595,-0.00408106110990047,0,
00:00:01.372,0.0114483227953315,0.0164431240409613,-0.0045767854899168,0,
00:00:01.376,0.00808643735945225,0.0101462099701166,0.000337832199875265,0,
00:00:01.38,-0.0121604045853019,-0.0172582846134901,-0.00305551756173372,0,
00:00:01.384,-0.0126329073682427,-0.0239699948579073,0.00460567511618137,0,
00:00:01.388,-0.000736475165467709,0.00506584299728274,-0.000677381292916834,0,
00:00:01.392,0.009103121235966679,0.0189270116388798,0.00222500343807042,0,
00:00:01.396,0.007568456232547759,-0.0015731636667624099,-0.000567605369724333,0,
00:00:01.4,-0.00640288833528757,-0.0060524959117174105,0.0039817518554627895,0,
00:00:01.404,-0.0032292539253830897,-0.00573719432577491,-0.00142294226679951,0,
00:00:01.408,-0.00255356100387871,0.00397525215521455,-0.0006064886110834781,0,
00:00:01.412,0.0113166365772486,0.0038021095097065,-0.00373446894809604,0,
00:00:01.416,-0.0111635467037559,0.000926205888390541,-0.004018772859126329,0,
00:00:01.42,-0.0037673520855605602,-0.00954268127679825,0.00458623096346855,0,
00:00:01.424,0.0116557814180851,0.0061077643185854,0.00565087608993053,0,
00:00:01.428,0.00605885125696659,0.0116287060081959,-0.00575166009366512,0,
00:00:01.432,-0.00015533457917626898,0.000830890785437077,-0.00146548904012889,0,
00:00:01.436,-0.0226190555840731,-0.0323620662093163,0.007257418707013129,0,
00:00:01.44,0.000750558043364435,0.000671488989610225,-0.0167401842772961,0,
00:00:01.444,0.00906504038721323,0.0185827165842056,0.0100754462182522,0,
00:00:01.448,0.00781193608418107,0.0197003372013569,0.0137504180893302,0,
00:00:01.452,0.00702338945120573,-0.00153913162648678,-0.0106717180460691,0,
00:00:01.456,-0.00131033989600837,-0.00837886892259121,-0.0018091662786901,0,
00:00:01.46,-0.000322091626003385,-0.00343691627494991,0.004623467102646829,0,
00:00:01.464,-0.0186890661716461,-0.0161643140017986,-0.00773676065728068,0,
00:00:01.468,-0.0126543352380395,-0.0144521063193679,0.0046872366219759,0,
00:00:01.472,0.0167238283902407,0.0172637552022934,0.000721446820534766,0,
00:00:01.476,0.0118462219834328,0.0144973834976554,-0.00551433116197586,0,
00:00:01.48,0.000554222846403718,0.007402871735394,-0.0037864553742110703,0,
00:00:01.484,-0.0017796497559174897,-0.00027771131135523303,0.0044231107458472295,0,
00:00:01.488,-0.00175099249463528,-0.007209116127341991,0.0157760437577963,0,
00:00:01.492,-0.0159657243639231,-0.0145239159464836,-0.0071283155120909205,0,
00:00:01.496,0.000192092731595039,-0.007286278530955309,-0.00648579746484756,0,
00:00:01.5,0.0182843245565891,0.0103721935302019,-0.00292573519982398,0,
00:00:01.504,0.00200449698604643,0.0014177412958815698,0.00037328794132918103,0,
00:00:01.508,-0.0044835489243269,0.0111488802358508,-5.86477835895494e-05,0,
00:00:01.512,-0.0110495211556554,0.00024029680935200298,0.00606031203642488,0,
00:00:01.516,0.0034666794817894697,-0.0036919058766216,-0.00133119185920805,0,
00:00:01.52,0.00914945732802153,0.0026073642075061802,0.00677415356040001,0,
00:00:01.524,0.0043016313575208204,-0.0036699229385703798,-0.0059076729230582705,0,
00:00:01.528,-0.0184028819203377,-0.0069368761032819705,-0.007735372986644509,0,
00:00:01.532,-0.0015526101924479,-0.00492399232462049,0.000511230551637709,0,
00:00:01.536,0.0162685308605433,0.0119298044592142,0.00355233624577522,0,
00:00:01.54,-0.0036910017952323,-0.00880258064717054,0.0031362520530819897,0,
00:00:01.544,-0.00310281780548394,0.0027245772071182697,0.00337602733634412,0,
00:00:01.548,-0.005306183360517029,0.00479109026491642,-0.0148307159543037,0,
00:00:01.552,0.00227000680752099,0.000489101104903966,0.00898045115172863,0,
00:00:01.556,0.00625364854931831,-0.00245556118898094,0.01887814886868,0,
00:00:01.56,0.00696166791021824,0.007838088087737559,-0.0065251043997705,0,
00:00:01.564,-0.00101010897196829,0.0078752376139164,-0.0142465541139245,0,
00:00:01.568,-0.00822103396058083,-0.0168964583426714,-0.0118793789297342,0,
00:00:01.572,-0.0124316988512874,-0.0135980164632201,0.0026171680074185103,0,
00:00:01.576,-0.0037275936920195796,9.22019316931255e-05,0.010725081898272001,0,
00:00:01.58,0.0151888271793723,0.00890023726969957,0.00973003543913364,0,
00:00:01.584,0.0127274002879858,0.0137982498854399,0.0017139364499598698,0,
00:00:01.588,-0.0031834258697927,0.00750733725726604,-0.008438499644398691,0,
00:00:01.592,-0.0155110796913505,-0.00515944790095091,-0.0017865207046270399,0,
00:00:01.596,0.00695808231830597,-0.00646806042641401,-0.000512477767188102,0,
00:00:01.6,0.00544171407818794,-0.0059168073348701,-0.00251190084964037,0,
00:00:01.604,-0.00923425145447254,-0.00938426796346903,-0.000336589058861136,0,
00:00:01.608,0.00138250587042421,0.0038995738141238702,-0.000380376790417358,0,
00:00:01.612,0.0044989809393882795,0.0131907304748893,0.00624595489352942,0,
00:00:01.616,-0.00749974604696035,-0.0012563094496727,0.00318326358683407,0,
00:00:01.62,-0.000593101896811277,-0.005974769126623871,-0.00938798952847719,0,
00:00:01.624,0.00763303320854902,-0.000117376432172023,0.00682911369949579,0,
00:00:01.628,0.00196418282575905,0.00181651941966265,-0.00026485146372579,0,
00:00:01.632,0.0008674159762449559,-0.0026481153909117,-0.00427875807508826,0,
00:00:01.636,-0.0061692027375102,0.00437957607209682,-0.00377297820523381,0,
00:00:01.64,-0.00124814640730619,0.00283045694231987,0.00527285318821669,0,
00:00:01.644,-0.0011531914351508,-0.00250375922769308,0.0102853486314416,0,
00:00:01.648,0.00329849356785417,0.00381257850676775,-0.00763794919475913,0,
00:00:01.652,0.0128678753972054,-0.000471447681775317,-0.00505706528201699,0,
00:00:01.656,-0.0157428327947855,-0.010319422930479,-0.00139274611137807,0,
00:00:01.66,-0.0158506464213133,-0.0128055782988667,0.0012062971945852,0,
00:00:01.664,0.0206909961998463,0.0168137215077877,0.00208503333851695,0,
00:00:01.668,0.0160489547997713,0.0147257661446929,0.00162540876772255,0,
00:00:01.672,-0.0134871574118733,-0.00323647493496537,0.000616547360550612,0,
00:00:01.676,-0.0119239334017038,-0.0189093090593815,0.00181762571446598,0,
00:00:01.68,0.00194514775648713,-0.000631275353953242,-0.00056666653836146,0,
00:00:01.684,0.0049764122813940005,0.00830454844981432,-0.00424005789682269,0,
00:00:01.688,0.007360468618571759,0.0100317904725671,-0.00422485964372754,0,
00:00:01.692,0.0090037751942873,0.0155530478805304,0.00262392801232636,0,
00:00:01.696,-0.0288395527750254,-0.0381585247814655,0.00368581549264491,0,
00:00:01.7,-0.008280592970550059,-0.0149464132264256,-3.0072751542320502e-05,0,
00:00:01.704,0.023548012599348998,0.0193753074854612,0.00406243558973074,0,
00:00:01.708,0.0127507299184799,0.0270084589719772,-0.00153941009193659,0,
00:00:01.712,-0.00955442059785128,-0.0015615615993738198,-0.000765437434893101,0,
00:00:01.716,-0.00900957640260458,-0.010904960334301,-0.0038532023318111897,0,
00:00:01.72,-0.000209453981369734,-0.0154109187424183,-0.0040709893219173,0,
00:00:01.724,0.00908565986901522,0.00242064939811826,0.00458892062306404,0,
00:00:01.728,0.00282656843774021,0.0125605277717113,0.0015290257288143,0,
00:00:01.732,0.00045749274431727805,0.00442111724987626,0.000305447669234127,0,
00:00:01.736,-0.0137384831905365,-0.0080784922465682,-0.00429117446765304,0,
00:00:01.74,-0.0238176714628935,-0.0297120492905378,-0.000457371206721291,0,
00:00:01.744,0.0180166997015476,0.0201712995767593,0.0132315391674638,0,
00:00:01.748,0.0222196448594332,0.0227139480412006,-0.00243714940734208,0,
00:00:01.752,0.0121111422777176,0.00379804987460375,-0.00216956622898579,0,
00:00:01.756,-0.0134125659242272,-0.0122832031920552,-0.00614854833111167,0,
00:00:01.76,-0.0098579153418541,-0.006661014631390571,-0.0101722618564963,0,
00:00:01.764,-0.0138488477095962,-0.0117984041571617,0.00156554765999317,0,
00:00:01.768,0.00468406407162547,0.004974509589374071,0.0111894672736526,0,
00:00:01.772,0.0104723526164889,0.00964349042624235,0.00458438601344824,0,
00:00:01.776,0.00536245759576559,0.00431305961683393,-0.000350409914972261,0,
00:00:01.78,-0.00281477347016335,-0.0034805152099579603,-0.00476385978981853,0,
00:00:01.784,-0.0018377386732026898,0.00012032427912345201,0.0013038031756877901,0,
00:00:01.788,-0.00199075019918382,-0.00161721592303365,-0.00396359665319324,0,
00:00:01.792,-0.00360164605081081,-0.0130528910085559,0.00448038941249251,0,
00:00:01.796,-0.00685410760343075,-0.000372868002159521,-0.0026326400693506,0,
00:00:01.8,0.0141114722937346,0.01576828956604,-0.00446288753300905,0,
00:00:01.804,0.0036854802165180397,0.0126073798164725,0.00181034824345261,0,
00:00:01.808,-0.00672341184690595,-0.0121687492355704,0.000975006783846766,0,
00:00:01.812,-0.0106919128447771,-0.0212291982024908,0.00382077181711793,0,
00:00:01.816,0.00811352115124464,0.00954816397279501,0.0038833015132695397,0,
00:00:01.82,0.0077323564328253295,0.0163398832082748,-0.0027095708064734897,0,
00:00:01.824,0.00171823590062559,-0.00119910435751081,-0.00361400609835982,0,
00:00:01.828,0.00118610437493771,-0.0015266602858901,-0.00402869423851371,0,
00:00:01.832,-0.00820798054337502,-0.003921500407159329,0.00199977471493185,0,
00:00:01.836,-0.006216843612492079,-0.008310875855386259,0.00696959579363465,0,
00:00:01.84,-0.00314275245182216,-0.00253489473834634,-0.00246188812889159,0,
00:00:01.844,0.00258561572991312,0.0051712999120354704,-0.00125375657808036,0,
00:00:01.848,0.00937694404274225,0.00512366183102131,-0.00322285923175514,0,
00:00:01.852,0.00657781958580017,0.006309176329523329,-0.000909239111933857,0,
00:00:01.856,-0.00551098026335239,-0.00251187290996313,-0.00488659087568522,0,
00:00:01.86,-0.0060282787308096894,-0.0030585618223995,0.007990376092493529,0,
00:00:01.864,-0.00658938428387046,-0.0160589665174484,0.0147015647962689,0,
00:00:01.868,0.00280585209839046,0.00523018138483167,-0.00906348414719105,0,
00:00:01.872,0.0138926515355706,0.0174704771488905,-0.00553478859364986,0,
00:00:01.876,0.000245849339989945,-0.0026150979101657898,-0.009102883748710159,0,
00:00:01.88,-0.0178690254688263,-0.0230235531926155,0.0012020681751892,0,
00:00:01.884,0.00665754545480013,0.0142273865640163,0.00986337754875422,0,
00:00:01.888,0.0116986883804202,0.013230798766017,0.007444946561008691,0,
00:00:01.892,-0.00853939168155193,0.006061492953449489,-0.0111557170748711,0,
00:00:01.896,-0.00241547054611146,-0.0164701510220766,5.68204050068744e-05,0,
00:00:01.9,0.000374725495930761,-0.00321003212593496,0.0044314400292933,0,
00:00:01.904,0.00529743079096079,0.00392600987106562,0.00133943255059421,0,
00:00:01.908,-0.007210660725831991,-0.0142613379284739,-0.00805618520826101,0,
00:00:01.912,-0.00523372367024422,-0.0118772201240063,0.007324237376451491,0,
00:00:01.916,0.0108068967238069,0.0261894576251507,0.0012442684965208199,0,
00:00:01.92,0.00675469310954213,0.0181788709014654,-0.00911766197532415,0,
00:00:01.924,-0.000910159258637577,-0.0018068935023620699,-0.00379772926680744,0,
00:00:01.928,-0.009311693720519541,-0.0151271345093846,0.00279529532417655,0,
00:00:01.932,0.0030706129036843803,-0.00650430656969547,0.0116499429568648,0,
00:00:01.936,-0.00929833389818668,-0.00587628129869699,0.0024140151217579803,0,
00:00:01.94,-0.00280714500695467,0.000799130415543914,-0.0117488242685795,0,
00:00:01.944,0.0129283592104912,0.009362508542835709,-0.00108301639556885,0,
00:00:01.948,0.0032150165643543,0.007737603038549421,0.0135477818548679,0,
00:00:01.952,0.000484365387819707,-0.00622234307229519,-0.0109014371410012,0,
00:00:01.956,-0.00897434819489717,-0.00524599198251963,-0.000915703654754907,0,
00:00:01.96,0.000220055531826802,0.00345992762595415,0.00196018884889781,0,
00:00:01.964,0.006556318141520021,0.00255866860970855,0.00161540834233165,0,
00:00:01.968,0.0059389639645814896,0.00181074696592987,-0.00373378791846335,0,
00:00:01.972,-0.0276169814169407,-0.0183632131665945,0.0055612623691558795,0,
00:00:01.976,0.008168681524693971,0.0104149961844087,0.00266810087487102,0,
00:00:01.98,0.021562073379755003,0.012643625959753999,0.00039160752203315496,0,
00:00:01.984,-0.00157111533917487,-0.00166226516012102,-0.0117235612124205,0,
00:00:01.988,-0.0100692790001631,-0.00782151520252228,0.00152893562335521,0,
00:00:01.992,-0.010239951312542,-0.0065143718384206295,0.00184564490336925,0,
00:00:01.996,0.00388027704320848,0.000171784340636805,0.00419476674869657,0,
00:00:02,0.0149848554283381,0.0126763209700584,-0.00244557578116655,0,
00:00:02.004,-0.00389575376175344,0.00290054082870483,0.000962088291998953,0,
00:00:02.008,-0.00420930841937661,0.00019285368034616102,0.00328674144111574,0,
00:00:02.012,-0.00268806843087077,-0.0158090945333242,-0.0037326421588659295,0,
00:00:02.016,0.0013765674084425,-0.00307727279141545,-0.00224568787962198,0,
00:00:02.02,0.000838504463899881,0.0039004252757877103,0.0047196610830724205,0,
00:00:02.024,0.00178483838681132,0.00956534594297409,7.15375135769136e-05,0,
00:00:02.028,-0.00891192350536585,-0.000370849826140329,-0.00358432717621326,0,
00:00:02.032,0.00176596210803837,-0.0066167782060802,-0.00140952912624925,0,
00:00:02.036,0.0005595562397502361,-0.0038242710288614,0.0052245561964809895,0,
00:00:02.04,0.0114433942362666,0.0152580114081502,0.00633250456303358,0,
00:00:02.044,-0.00201984331943095,0.00203282455913723,-0.00766082806512713,0,
00:00:02.048,0.00197669910266995,-0.00114956148900092,-0.0147788897156715,0,
00:00:02.052,-0.0061843139119446295,-0.016490301117301,0.010937012732028998,0,
00:00:02.056,-0.0152442948892713,-0.0154737895354629,0.0075066029094159594,0,
00:00:02.06,0.0131131652742624,0.0224173832684755,0.00128428288735449,0,
00:00:02.064,0.0124744819477201,0.0160006042569876,-0.00484274467453361,0,
00:00:02.068,-0.0117881475016475,-0.0122209759429097,-0.0037003951147198703,0,
00:00:02.072,0.000433799315942451,-0.00586429471150041,-0.0110988533124328,0,
00:00:02.076,-0.004654641728848221,0.00138158432673663,0.0174862667918205,0,
00:00:02.08,0.0057854619808495,0.0019616533536464,0.00210835062898695,0,
00:00:02.084,0.005709218326956029,0.00264602620154619,0.00335568143054843,0,
00:00:02.088,-0.00265994807705283,0.00366038316860795,-0.0005479282699525361,0,
00:00:02.092,-0.0149756381288171,-0.0167803540825844,-0.0183346662670374,0,
00:00:02.096,0.0049134586006403,-0.0019383527105674102,0.0010887763928622,0,
00:00:02.1,0.00575265800580382,0.0149204470217228,0.00606725318357348,0,
00:00:02.104,0.0121247032657266,0.0080666970461607,0.00030077213887125297,0,
00:00:02.108,-0.000700292177498341,-0.00403614109382033,0.00308664399199188,0,
00:00:02.112,-0.00745679857209325,-0.00496779987588525,-6.30045224170317e-06,0,
00:00:02.116,-0.0260131433606148,-0.0212289188057184,0.00411745347082615,0,
00:00:02.12,0.0101986071094871,0.00918708555400372,-0.00163339672144502,0,
00:00:02.124,0.0194677487015724,0.0171983353793621,-0.0071891304105520205,0,
00:00:02.128,0.0037979644257575295,0.0023521515540778602,-0.00226798211224377,0,
00:00:02.132,0.00201155547983944,-0.000267492840066552,0.00677489070221782,0,
00:00:02.136,-0.0180461090058088,-0.0133909853175282,0.0105690332129598,0,
00:00:02.14,-0.00289822393096983,-0.00452805496752262,-0.00411091232672334,0,
00:00:02.144,-0.000686756509821862,0.0024143704213202,-0.007756611797958609,0,
00:00:02.148,0.0123798567801714,0.0132217723876238,-0.00924279354512692,0,
00:00:02.152,0.00389875448308885,-0.00197651702910662,0.00112374417949468,0,
00:00:02.156,-0.00874322094023228,-0.00930876284837723,0.0034184621181339,0,
00:00:02.16,-0.000782852643169463,-0.0012488241773098699,0.0091010294854641,0,
00:00:02.164,0.009692562744021421,0.0154506638646126,0.00198810850270092,0,
00:00:02.168,-0.00474041327834129,-5.9290265198796994e-05,-0.0018598282476887103,0,
00:00:02.172,-0.0187199655920267,-0.0304053891450167,0.00127531157340854,0,
00:00:02.176,0.00920857675373554,0.0082024559378624,-0.0060597872361540794,0,
00:00:02.18,0.0068399575538933294,0.0146750789135695,-0.00609978893771768,0,
00:00:02.184,0.0100128194317222,0.0098526244983077,0.0040603708475828205,0,
00:00:02.188,-0.0052508893422782395,-0.000576110265683383,-0.00196384615264833,0,
00:00:02.192,-0.00637607928365469,-0.00684848055243492,0.0073577519506216,0,
00:00:02.196,0.00561980530619621,-0.0051148789934814,0.00398676842451096,0,
00:00:02.2,-0.0050056288018822705,-0.005839371588081121,-0.00122885103337467,0,
00:00:02.204,-0.00621942151337862,-0.00574771128594875,-0.0100716855376959,0,
00:00:02.208,-0.00243532913736999,3.2574094802839695e-05,0.000389263586839661,0,
00:00:02.212,0.00803704187273979,0.0067573506385088,0.00333030917681754,0,
00:00:02.216,0.0105138709768653,0.0142049826681614,0.00046195488539524403,0,
00:00:02.22,-0.00473136780783534,0.000827933778055012,0.00474649202078581,0,
00:00:02.224,-0.00791636109352112,-0.00465320702642202,-0.00102830200921744,0,
00:00:02.228,0.00589382322505116,-0.00290752784349024,-0.00677391607314348,0,
00:00:02.232,-0.00126694678328931,0.00139173096977174,0.0062017310410738,0,
00:00:02.236,-0.000339395686751232,-0.0017713602865114802,0.000916511344257742,0,
00:00:02.24,-0.0051624565385282,-0.0120055051520467,-0.00433075847104192,0,
00:00:02.244,-0.0013381688622757801,-0.0053272801451385,-0.0048146452754735895,0,
00:00:02.248,0.0045925360172987,0.013781507499516002,0.00216606073081493,0,
00:00:02.252,0.007877328433096409,0.0122751072049141,0.00356790772639215,0,
00:00:02.256,-0.000992948887869716,0.00132585957180709,0.00634951051324606,0,
00:00:02.26,-0.00862114690244198,-0.0167106501758099,-0.0016151065938174699,0,
00:00:02.264,-0.00404458772391081,-0.00812438502907753,-0.00834480952471495,0,
00:00:02.268,-0.00044816249283030597,0.015632277354598,-0.00131737964693457,0,
00:00:02.272,0.0144469318911433,0.00882542598992586,0.00434366567060351,0,
00:00:02.276,0.00763123529031873,-0.0024150421377271396,-0.00329588050954044,0,
00:00:02.28,-0.0190975572913885,-0.0224308203905821,0.00399873265996575,0,
00:00:02.284,-0.00652330787852407,0.00278752692975104,-0.0008485983125865459,0,
00:00:02.288,-0.00525680230930448,-0.00377198262140155,0.00435236096382141,0,
00:00:02.292,0.0164356492459774,0.00934652425348759,0.007813723757863041,0,
00:00:02.296,0.0158499274402857,0.0270757786929607,-0.00565573712810874,0,
00:00:02.3,0.0030933914240449697,-0.00243485905230045,-0.0120802838355303,0,
00:00:02.304,-0.0155308954417706,-0.0179846249520779,-0.0025605489499867,0,
00:00:02.308,-0.0148187326267362,-0.00824915058910847,0.00324696698226035,0,
00:00:02.312,-0.00349255371838808,-0.00792620331048965,0.00888704787939787,0,
00:00:02.316,0.009655246511101721,0.0101152658462524,-0.0068707894533872604,0,
00:00:02.32,0.0062817451544106,0.00424705212935805,0.00357230333611369,0,
00:00:02.324,0.000530566379893571,0.0015602018684148801,0.00158866995479912,0,
00:00:02.328,0.00583485513925552,0.00225628772750497,0.00465903291478753,0,
00:00:02.332,-0.00406344188377261,-0.0045638307929039,-0.00213726656511426,0,
00:00:02.336,-0.00287589593790472,-0.00038793773273937404,-0.00595893105491996,0,
00:00:02.34,-0.00844188313931227,-0.00328376959078014,0.00346947927027941,0,
00:00:02.344,0.0006629756535403429,0.0025746871251612897,-0.000810089462902397,0,
00:00:02.348,0.00688791647553444,0.0116194076836109,-0.0062031503766775105,0,
00:00:02.352,0.0108131086453795,0.00201038573868573,-0.00148781586904079,0,
00:00:02.356,-0.0117397578433156,-0.0210627876222134,0.009362310171127321,0,
00:00:02.36,-0.00337275024503469,-0.0028068982064724,0.004716347903013229,0,
00:00:02.364,0.0035849777050316295,0.00402554217725992,-0.0100054983049631,0,
00:00:02.368,0.00502157956361771,0.0132767474278808,0.00117322825826705,0,
00:00:02.372,-0.0036369978915900005,-0.000398628617404029,0.00045506292372010594,0,
00:00:02.376,0.00315671437419951,0.0073108063079416795,-0.00345110124908388,0,
00:00:02.38,-0.00413601845502853,-0.00556891923770308,0.00678284466266632,0,
00:00:02.384,-0.00326270936056972,-0.0103262402117252,0.0017696832073852398,0,
00:00:02.388,0.0038832041900605,0.00110463588498533,0.00082694023149088,0,
00:00:02.392,-0.00214299676008523,-0.0110237244516611,-0.00618276419118047,0,
00:00:02.396,-0.0052468553185463,0.00125068880151957,-0.0053931693546474,0,
00:00:02.4,0.000818879168946296,0.008483082987368109,0.00490554375573993,0,
00:00:02.404,0.0112286424264312,0.0187570210546255,0.010883460752666002,0,
00:00:02.408,0.00729043688625097,0.00654594972729683,-0.0046774758957326395,0,
00:00:02.412,-0.0106427650898695,-0.0208922512829304,-0.0126231703907251,0,
00:00:02.416,0.000435038149589673,-0.0163832772523165,0.00308203790336847,0,
00:00:02.42,-0.00226658186875284,0.00757150445133448,0.00993896182626486,0,
00:00:02.424,-0.012655658647418001,0.0035656488034874205,0.00334574514999986,0,
00:00:02.428,0.00697774812579155,0.012351862154901002,-0.00945407245308161,0,
00:00:02.432,0.0129378661513329,0.0019065832020714899,-0.00570234470069408,0,
00:00:02.436,-0.000105044673546217,-0.00459648389369249,0.00496501754969358,0,
00:00:02.44,-0.00653887586668134,-0.0141107682138681,0.00245609926059842,0,
00:00:02.444,-0.00607224088162184,-0.00604294426739216,0.0009728591539897019,0,
00:00:02.448,0.00819790177047253,0.0222178213298321,2.9128603273420598e-05,0,
00:00:02.452,0.00419184239581227,0.0129926446825266,-0.0046157380566000895,0,
00:00:02.456,-0.00417501060292125,-0.0151007464155555,0.007535520009696479,0,
00:00:02.46,-0.00905858259648085,-0.0200758688151836,-0.00107775325886905,0,
00:00:02.464,-0.00243838201276958,0.0043082353658974205,-0.0010198317468166401,0,
00:00:02.468,0.0016431794501841099,0.00321318954229355,-0.008130591362714771,0,
00:00:02.472,0.009621948003768921,0.00153358676470816,0.004145888146013021,0,
00:00:02.476,0.00351343979127705,0.0115410462021828,0.00205338676460087,0,
00:00:02.48,0.00768836308270693,0.018611341714859,-0.00135397887788713,0,
00:00:02.484,-0.0062435562722384895,-0.0114168515428901,0.00191072886809707,0,
00:00:02.488,-0.0171644371002913,-0.0197751726955175,0.00124104530550539,0,
00:00:02.492,0.00057479680981487,-0.00643744552507997,-0.000231020938372239,0,
00:00:02.496,0.0102867688983679,0.00769988307729363,0.000990141998045146,0,
00:00:02.5,0.00117738672997802,0.0178108513355255,-0.00305420951917768,0,
00:00:02.504,-0.00344540202058852,-0.0154190436005592,-0.00634825928136706,0,
00:00:02.508,0.000822831701952964,-0.009772740304470059,0.0121086249127984,0,
00:00:02.512,0.0013705026358366,0.00884746015071869,-0.00546455755829811,0,
00:00:02.516,-0.0015590088441968,0.0030305441468954104,-0.00484753772616386,0,
00:00:02.52,0.00783455185592175,0.0216604731976986,0.00421774806454778,0,
00:00:02.524,-0.000874197867233306,0.00340570299886167,-0.000757099944166839,0,
00:00:02.528,-0.0238479096442461,-0.0441662296652794,6.232032319530839e-05,0,
00:00:02.532,0.0151415653526783,0.0028376970440149303,0.00546053517609835,0,
00:00:02.536,0.00887380074709654,0.0163934305310249,-0.00253190868534148,0,
00:00:02.54,-0.00334555469453335,0.00165101804304868,-0.00471612857654691,0,
00:00:02.544,-0.00405742088332772,0.0019827194046229102,0.0117217553779483,0,
00:00:02.548,-0.00135160074569285,0.00101909774821252,-0.00321571063250303,0,
00:00:02.552,0.0071454239077866095,0.00379623472690582,-0.0128506729379296,0,
00:00:02.556,-0.00013859396858606498,-0.00106993946246803,0.0018466702895239,0,
00:00:02.56,-0.00981593783944845,-0.012798773124813999,0.0026334661524742803,0,
00:00:02.564,-0.00162813276983798,0.00142336613498628,0.00481645436957479,0,
00:00:02.568,0.0116186598315835,0.008544920943677429,-0.00430186511948705,0,
00:00:02.572,0.00252990494482219,0.0070842350833118,0.00489236274734139,0,
00:00:02.576,-0.0120466249063611,-0.0129580115899444,-0.00354294455610216,0,
00:00:02.58,-0.0117273721843958,-0.0123345116153359,0.0067169205285608794,0,
00:00:02.584,0.01937235891819,0.00716927647590637,-0.00023065527784638101,0,
00:00:02.588,0.00793126877397299,0.0055735143832862395,-0.0100326333194971,0,
00:00:02.592,-0.00626522116363049,0.006874032318592071,0.004278165753930811,0,
00:00:02.596,-0.00866358727216721,0.00689770095050335,-0.00496032740920782,0,
00:00:02.6,0.00990220252424479,0.00903716776520014,0.0032011833973228897,0,
00:00:02.604,-0.009146281518042091,-0.0248360652476549,0.00375542137771845,0,
00:00:02.608,0.00066471821628511,-0.0111322393640876,0.00150374183431268,0,
00:00:02.612,-0.00196511670947075,0.00626865448430181,0.00139726942870766,0,
00:00:02.616,0.00497206998988986,0.0106453485786915,-0.00361789274029434,0,
00:00:02.62,0.00307389930821955,0.0006689215078949929,-0.00099915312603116,0,
00:00:02.624,-0.00656182505190372,-0.00563814910128713,-0.0110942516475916,0,
00:00:02.628,0.00372846121899784,0.00302584003657103,0.00723673822358251,0,
00:00:02.632,-0.00136032642330974,0.0032493025064468397,0.0100422035902739,0,
00:00:02.636,0.00141371937934309,-0.0034166919067502,-0.00130713952239603,0,
00:00:02.64,0.0029553088825196,0.00465718004852533,0.00255632726475596,0,
00:00:02.644,-0.0043328087776899294,-0.00278130080550909,-0.0041336971335113,0,
00:00:02.648,-0.00265417015179992,-0.000769718433730304,-0.00929343514144421,0,
00:00:02.652,0.00466950889676809,-0.00273915030993521,-0.0009478246211074289,0,
00:00:02.656,0.000295191392069682,-0.000755327520892024,0.00537666864693165,0,
00:00:02.66,-0.00327440816909075,0.00741326436400414,0.00188044365495443,0,
00:00:02.664,0.0009037129930220539,4.1214420889445995e-06,0.000658709614071995,0,
00:00:02.668,0.00542222522199154,-0.00142082758247852,0.000141874508699402,0,
00:00:02.672,-0.007688946090638641,-0.0115485703572631,-0.00431081606075168,0,
00:00:02.676,0.00238684169016778,0.00289722648449242,0.00985824596136808,0,
00:00:02.68,-0.0017352094873786,0.00325882202014327,-0.0050550289452076,0,
00:00:02.684,-0.00015012736548669598,0.000793435785453767,-0.000766411074437201,0,
00:00:02.688,0.00784419104456902,-0.000589152099564672,-0.0026605143211782,0,
00:00:02.692,-0.0102368546649814,0.00157594913616776,-0.00514005729928613,0,
00:00:02.696,0.0103617459535599,0.0148838507011533,0.00896766874939203,0,
00:00:02.7,0.00264504202641547,3.48496905644424e-05,-0.00320547935552895,0,
00:00:02.704,-0.00817822013050318,-0.019803473725915,-0.0018447005422785898,0,
00:00:02.708,-0.00801682565361261,-0.00843352545052767,0.0118944207206368,0,
00:00:02.712,-0.000653951021376997,0.000659677432850003,-0.00291208876296878,0,
00:00:02.716,0.00667845690622926,0.0096875261515379,-0.00605977093800902,0,
00:00:02.72,0.0117645645514131,0.0187894646078348,-0.0037271187175065296,0,
00:00:02.724,-0.00218828697688878,0.00151478894986212,0.0017571678617969199,0,
00:00:02.728,-0.0208386797457933,-0.0302375815808773,-0.0042729135602712605,0,
00:00:02.732,0.00703418999910355,0.0026678207796067,0.0024990059901028898,0,
00:00:02.736,0.018391115590930002,0.0141997598111629,0.00655129132792354,0,
00:00:02.74,-0.00167896447237581,0.0127692809328437,0.005242315586656329,0,
00:00:02.744,-0.0145333334803581,-0.0105335088446736,-0.00296131917275488,0,
00:00:02.748,-0.013214036822318998,-0.0364116877317429,-0.000545352115295827,0,
00:00:02.752,0.0167220737785101,0.0235128290951252,-0.00695432210341096,0,
00:00:02.756,0.012152205221354998,0.0160442441701889,-0.0037934638094157,0,
00:00:02.76,-0.00187671359162778,0.01019939314574,0.000849541858769953,0,
00:00:02.764,-0.0114019550383091,-0.0124507173895836,0.00335741741582751,0,
00:00:02.768,-0.006365467328578229,-0.0119980331510305,-0.0008913248893804849,0,
00:00:02.772,-0.00133499933872372,-0.00408058008179069,0.00768527248874307,0,
00:00:02.776,0.0127696814015508,0.0109572820365429,0.00121719378512353,0,
00:00:02.78,0.00437915651127696,-0.0026971846818924,-0.0065735075622797,0,
00:00:02.784,0.0018511171219870398,0.00174215354491025,0.00702992500737309,0,
00:00:02.788,-0.0169399250298738,-0.0010350146330893,-0.00884082447737455,0,
00:00:02.792,-0.009378974325954909,-0.00888204108923674,-0.00314829451963305,0,
00:00:02.796,0.0170111674815416,0.0124157853424549,0.0120484940707684,0,
00:00:02.8,0.0137120606377721,0.007539524696767329,-0.0043497015722096,0,
00:00:02.804,-0.010426813736558,-0.008009324781596659,-0.0074904779903590705,0,
00:00:02.808,-0.00715830270200968,-0.00695356959477067,0.00250955438241363,0,
00:00:02.812,0.00265084835700691,0.00477210991084576,0.00356757990084589,0,
00:00:02.816,-0.00172882596962154,-0.00543527537956834,-0.00260232691653073,0,
00:00:02.82,0.0018789138412103102,0.00267626764252782,-0.0027240444906055897,0,
00:00:02.824,0.0038222856819629704,0.00146018655505031,0.00790130719542503,0,
00:00:02.828,-0.00356011441908777,0.0035596557427197703,0.00416569923982024,0,
00:00:02.832,-0.00017988140461966398,0.0032604103907942802,-0.003656683024019,0,
00:00:02.836,0.0068560126237571205,0.0071399211883544905,-0.006545873824507001,0,
00:00:02.84,0.000707328377757221,-0.0178475808352232,0.0038483713287860203,0,
00:00:02.844,-0.0233050473034382,-0.0123385023325682,-0.008379955776035791,0,
00:00:02.848,-6.120609032223001e-05,0.00237561855465174,0.008470466360449791,0,
00:00:02.852,0.0216903686523438,0.0189135726541281,0.007597108837217091,0,
00:00:02.856,0.0137605499476194,0.0125326719135046,-0.0133298132568598,0,
00:00:02.86,-0.0108168171718717,-0.00152780348435044,0.00172240007668734,0,
00:00:02.864,-0.00768804550170898,-0.0138019090518355,0.0038467817939817897,0,
00:00:02.868,-0.0149004328995943,-0.0160665828734636,-0.00879851635545492,0,
00:00:02.872,0.0065747294574976,0.00211840332485735,0.0132834296673536,0,
00:00:02.876,0.009334840811789041,0.00880208797752857,0.00468216277658939,0,
00:00:02.88,0.00882054958492517,0.00960215460509062,-0.00773471128195524,0,
00:00:02.884,-0.0044730543158948395,0.009306409396231171,-0.00668786279857159,0,
00:00:02.888,-0.00443949783220887,-0.00861999578773975,-0.00791826378554106,0,
00:00:02.892,-0.00141044426709414,-0.0056099439971149,0.00811139959841967,0,
00:00:02.896,-0.0139043964445591,-0.0165830478072166,0.0103785172104836,0,
00:00:02.9,0.00651967246085405,0.009909178130328659,0.0010049389675259599,0,
00:00:02.904,0.0114596541970968,0.0122977150604129,-0.0013640068937093,0,
00:00:02.908,0.000772429280914366,-0.00944808404892683,-0.00589557457715273,0,
00:00:02.912,0.0019386667991057,-0.000929460395127535,-0.0039172633551061205,0,
00:00:02.916,-0.00594975659623742,0.00305702281184495,-0.00251686247065663,0,
00:00:02.92,-0.00420801667496562,0.00311348587274551,0.0038532509934157103,0,
00:00:02.924,0.00167789263650775,0.00333993136882782,0.0102398116141558,0,
00:00:02.928,-0.0020264803897589397,-0.00260588596574962,-0.00210560904815793,0,
00:00:02.932,0.00685583613812923,-0.00115263683255762,-0.0115231787785888,0,
00:00:02.936,0.00511230900883675,0.00671751843765378,0.00023337799939326899,0,
00:00:02.94,-0.0039614988490939106,-0.0115050729364157,0.0041749193333089395,0,
00:00:02.944,-0.00982358306646347,-0.009512748569250109,0.0035346825607121,0,
00:00:02.948,-0.00350171397440135,0.00711184740066528,0.00332688470371068,0,
00:00:02.952,0.00507143512368202,0.007671261206269259,-0.00268680159933865,0,
00:00:02.956,0.00759721733629704,0.0029144550208002303,-0.00526355905458331,0,
00:00:02.96,-0.00145203934516758,-0.0054931854829192205,-0.0016199172241613301,0,
00:00:02.964,-0.0063102552667260205,-0.0094784265384078,0.0059115504845976795,0,
00:00:02.968,0.00955546740442514,0.0127297379076481,0.005100771319121121,0,
00:00:02.972,0.00207382976077497,0.0056384187191724795,-0.00516535341739655,0,
00:00:02.976,-0.00564261246472597,9.33234769036062e-05,-0.00890912674367428,0,
00:00:02.98,0.00123278994578868,-0.0052125523798167706,0.00693135336041451,0,
00:00:02.984,-0.0116272596642375,-0.0205684658139944,0.0009842409053817391,0,
00:00:02.988,-0.00794226583093405,-0.00206468976102769,-0.0004343944019638,0,
00:00:02.992,0.01515675149858,0.0233352687209845,0.0018181765917688602,0,
00:00:02.996,0.00735407834872603,0.0112860081717372,-0.00599711108952761,0,
00:00:03,0.00322310789488256,-0.0063127102330327,0.004655162803828721,0,
00:00:03.004,-0.000264685979345813,-0.004808104131370779,0.0054545821622014,0,
00:00:03.008,-0.0027201818302273802,-0.00491909636184573,-0.00855981279164553,0,
00:00:03.012,-0.00975835416465998,-0.0034946626983583,0.0017613999079912899,0,
00:00:03.016,-0.0114589342847466,-0.00518087903037667,0.00227047293446958,0,
00:00:03.02,0.00486152758821845,-0.00116449082270265,-0.0018575397552922398,0,
00:00:03.024,0.0134072005748749,0.00714589841663837,-0.00132978789042681,0,
00:00:03.028,0.00252528861165047,0.00903725810348988,0.00639338605105877,0,
00:00:03.032,0.00239861197769642,0.007197518832981591,-0.00696482602506876,0,
00:00:03.036,-0.0044180341064930006,-0.00653565349057317,-0.00608004070818424,0,
00:00:03.04,-0.00495407171547413,-0.0101348524913192,0.005550941452383999,0,
00:00:03.044,-0.00254236510954797,-0.00220553367398679,0.007974089123308659,0,
00:00:03.048,0.00429543247446418,0.00808689184486866,-0.00188125425484031,0,
00:00:03.052,0.0018836207455024102,0.00110329408198595,0.0011342469369992599,0,
00:00:03.056,-0.00954132061451674,-0.00887391343712807,-0.0053096916526556,0,
00:00:03.06,-0.0110148005187511,-0.023970277979970003,0.00527041126042604,0,
00:00:03.064,0.0187521800398827,0.0355423614382744,-0.0031989556737244103,0,
00:00:03.068,0.0177727490663528,0.0206057913601398,-0.0101846680045128,0,
00:00:03.072,0.000733439403120428,-0.00970270112156868,0.000231432481086813,0,
00:00:03.076,-0.0254872292280197,-0.0247844476252794,0.0118834795430303,0,
00:00:03.08,-0.00475790351629257,-0.00900080800056458,0.00391348032280803,0,
00:00:03.084,0.00429279590025544,0.014829482883215,-0.0019693635404110003,0,
00:00:03.088,0.0058206906542182,-0.000221405163756572,-0.0102773122489452,0,
00:00:03.092,-0.0025772736407816397,-0.00663585588335991,0.0027544097974896396,0,
00:00:03.096,0.00874343980103731,0.0203611422330141,0.00383246759884059,0,
00:00:03.1,0.00381228816695511,0.00198477413505316,-0.000853118777740747,0,
00:00:03.104,-0.00485016591846943,-0.0095373447984457,0.00300549599342048,0,
00:00:03.108,-0.00562431896105409,-0.00638659158721566,-0.0062425616197288,0,
00:00:03.112,-0.00283209630288184,-0.0049478393048048,-0.00288864830508828,0,
00:00:03.116,0.000260569591773674,-0.0019445939688012,0.00596854789182544,0,
00:00:03.12,-0.0021637151949107604,-0.000687457039020956,0.0018871194915846,0,
00:00:03.124,0.008143072016537191,0.0136734051629901,0.0038892903830856102,0,
00:00:03.128,0.00671168137341738,0.0201015714555979,-0.00706469640135765,0,
00:00:03.132,-0.00505268899723887,-0.0175018310546875,-0.004337674006819729,0,
00:00:03.136,-0.0139792179688811,-0.0288718305528164,0.0048452471382916,0,
00:00:03.14,0.00975957419723272,0.0119308214634657,0.00979842059314251,0,
00:00:03.144,0.0035369216930121205,0.0156064787879586,-0.00999857671558857,0,
00:00:03.148,0.00390677060931921,0.008390414528548721,-0.0071801836602389795,0,
00:00:03.152,-0.0139439282938838,-0.0108745722100139,0.00035713482066057595,0,
00:00:03.156,0.0072397738695144705,-0.0021793302148580603,0.0110697038471699,0,
00:00:03.16,-0.00048866483848542,-0.00898649357259274,-0.0009661030489951369,0,
00:00:03.164,-0.0050020259805023705,0.0009017743868753311,0.00376730458810925,0,
00:00:03.168,0.00853362679481506,0.0139736020937562,-0.004722944926470521,0,
00:00:03.172,0.0108267497271299,0.00983926653862,-0.00222036940976977,0,
00:00:03.176,-0.00984376948326826,-0.0119958659633994,-0.00730509404093027,0,
00:00:03.18,-0.00785940140485764,-0.0111215328797698,0.00361624360084534,0,
00:00:03.184,-0.0196823962032795,-0.0176624767482281,0.00521606905385852,0,
00:00:03.188,0.0190004575997591,0.0275923442095518,0.00897970516234636,0,
00:00:03.192,0.0101203052327037,-0.0011029883753508301,-0.004027703311294321,0,
00:00:03.196,0.0108100669458508,0.0134457582607865,-0.00665349001064897,0,
00:00:03.2,-0.00809855572879314,-0.00670876260846853,-0.0102504836395383,0,
00:00:03.204,-0.008248750120401379,-0.0118661057204008,0.00560539262369275,0,
00:00:03.208,-0.0135373342782259,-0.00543618621304631,0.00700364727526903,0,
00:00:03.212,0.00253608962520957,-0.00045194392441771903,-0.0031219485681504,0,
00:00:03.216,0.0122853750362992,0.0131401093676686,0.000971932662650943,0,
00:00:03.22,0.0047610765323042896,0.00222398573532701,0.00625533517450094,0,
00:00:03.224,0.0012713801115751301,-0.0006014226819388571,0.00143098272383213,0,
00:00:03.228,-0.0072648786008358,-0.0053660967387259,0.00503649050369859,0,
00:00:03.232,-0.000584980938583612,-0.00364701729267836,-0.0166133213788271,0,
00:00:03.236,-0.00198054546490312,-0.0025023254565894604,-0.0118741318583488,0,
00:00:03.24,-0.0026039385702461,0.00162338046357036,0.0141791459172964,0,
00:00:03.244,0.00504011800512671,0.00786289107054472,0.0019637024961412,0,
00:00:03.248,-0.00503459852188826,-0.00289174960926175,-0.00221051322296262,0,
00:00:03.252,0.0097644105553627,0.00610385928303003,-0.00171413784846663,0,
00:00:03.256,0.0065753608942031895,0.000933992036152631,0.00645676022395492,0,
00:00:03.26,-0.0153453145176172,-0.0105510493740439,0.00609177444130182,0,
00:00:03.264,-0.00202816631644964,-0.011948898434639,0.00161204393953085,0,
00:00:03.268,0.000982196885161102,0.0094141997396946,-0.0088672349229455,0,
00:00:03.272,0.0032536382786929603,0.008003399707376959,-0.006837521214038129,0,
00:00:03.276,0.007365284021943809,0.00770149799063802,0.000708979845512658,0,
00:00:03.28,0.00597852701321244,0.00789886992424726,-0.00140795425977558,0,
00:00:03.284,-0.0196602493524551,-0.019967133179307,0.0061583174392581,0,
00:00:03.288,0.00179426744580269,-0.0172640550881624,0.00213246163912117,0,
00:00:03.292,0.00830505043268204,0.0128051703795791,0.00636128336191177,0,
00:00:03.296,0.0016887040110305,0.0102268243208528,-0.00872678123414516,0,
00:00:03.3,0.00461047189310193,0.00516741489991546,0.000326494744513184,0,
00:00:03.304,-0.0102378092706203,-0.0104885520413518,-0.00762274954468012,0,
00:00:03.308,-0.00847708620131016,-0.00392848625779152,0.0010277827968820901,0,
00:00:03.312,0.000724919606000185,0.0015124115161597698,0.0113220484927297,0,
00:00:03.316,0.0188592150807381,0.0118252346292138,-0.0013145057018846302,0,
00:00:03.32,-0.0032769718673080197,-0.00516481185331941,0.0010961132356897,0,
00:00:03.324,-0.00655121356248856,-0.0057490863837301705,-0.00114066421519965,0,
00:00:03.328,0.0010494146263226901,0.00263789901509881,-0.0068747540935874,0,
00:00:03.332,0.000864998961333185,0.00416639354079962,0.0035798447206616397,0,
00:00:03.336,0.00344776455312967,-0.000142234057420865,-0.00387565791606903,0,
00:00:03.34,-0.0177563466131687,-0.0259017162024975,0.0072240750305354595,0,
00:00:03.344,-0.00274361507035792,0.0123910121619701,-0.005494522396475079,0,
00:00:03.348,0.0213640257716179,0.0267600174993277,-0.00107887794729322,0,
00:00:03.352,0.0137100350111723,0.0013667856110259901,0.00161784025840461,0,
00:00:03.356,-0.00899715628474951,-0.0105469403788447,0.00627797236666083,0,
00:00:03.36,-0.0120728686451912,-0.0151940761134028,-0.00684682233259082,0,
00:00:03.364,-0.00854823831468821,-0.007925275713205341,0.00280539295636117,0,
00:00:03.368,-0.00411961507052183,0.00331780966371298,0.00437401235103607,0,
00:00:03.372,0.0156501214951277,0.0191963408142328,-0.00239114393480122,0,
00:00:03.376,0.0075612189248204205,0.00202556722797453,-0.0036300148349255297,0,
00:00:03.38,-0.00920618046075106,-0.0109605519101024,-0.00413030339404941,0,
00:00:03.384,-0.00131426507141441,-0.00122020626440644,-0.00629746355116367,0,
00:00:03.388,0.00358860031701624,0.0042899409309029605,0.0129398396238685,0,
00:00:03.392,0.00987563468515873,0.0104952696710825,0.00628985092043877,0,
00:00:03.396,-0.00902986899018288,-0.00667193904519081,-0.00702869985252619,0,
00:00:03.4,-0.00671947468072176,-0.00872170552611351,0.0036538112908601796,0,
00:00:03.404,-0.00440897233784199,-0.00830910075455904,-0.00333782704547048,0,
00:00:03.408,0.0053576547652483,0.0048954566009342705,-0.0032882750965654898,0,
00:00:03.412,0.000495988701004535,0.00485530588775873,0.00112052878830582,0,
00:00:03.416,-0.007265042979270221,-0.004423690494149921,-0.000968542415648699,0,
00:00:03.42,0.00973523780703545,0.00975423026829958,4.62578755104914e-05,0,
00:00:03.424,0.0039439275860786395,0.000145657060784288,0.00111257110256702,0,
00:00:03.428,0.0072323065251112,0.0114450175315142,0.0054399697110056894,0,
00:00:03.432,0.0036699776537716397,-0.00389799638651311,-0.00319685810245574,0,
00:00:03.436,-0.0102261919528246,-0.00740080326795578,-0.00947591848671436,0,
00:00:03.44,-0.0225670859217644,-0.0239539947360754,0.00719368923455477,0,
00:00:03.444,0.0035882480442524,0.00359779200516641,0.0102884210646152,0,
00:00:03.448,0.017595661804080003,0.0213010739535093,-0.00747097795829177,0,
00:00:03.452,0.00897172186523676,0.019238630309701,-0.0024667952675372397,0,
00:00:03.456,-0.00617478927597404,-0.0166879445314407,0.00127931230235845,0,
00:00:03.46,-0.007574230898171659,-0.0202114060521126,-0.008339653722941879,0,
00:00:03.464,-0.009818452410399909,-0.00464452942833304,0.0045238994061946895,0,
00:00:03.468,0.00650725606828928,0.0266510359942913,0.00727038364857435,0,
00:00:03.472,0.0159207358956337,-0.000289375311695039,-0.006360515486449001,0,
00:00:03.476,-0.010967344045639002,-0.0153626073151827,0.00105209345929325,0,
00:00:03.48,-0.00181222159881145,0.00505917146801949,-0.00387084041722119,0,
00:00:03.484,0.00525391567498446,0.0058610481210053,0.0111843077465892,0,
00:00:03.488,-0.00695682549849153,-0.0009912631940096619,0.00679053692147136,0,
00:00:03.492,0.00516023952513933,0.00145928433630615,-0.0140081979334354,0,
00:00:03.496,0.00697490014135838,0.00458304909989238,-0.00703091267496347,0,
00:00:03.5,-0.0221096444875002,-0.0259838867932558,0.00693532405421138,0,
00:00:03.504,0.00493994075804949,-0.00642364611849189,0.00492206029593945,0,
00:00:03.508,0.0182540770620108,0.0297892689704895,-0.00427193567156792,0,
00:00:03.512,-0.00445514498278499,0.00832546036690474,-0.00523634161800146,0,
00:00:03.516,-0.0131357936188579,-0.0124310236424208,0.00215564295649529,0,
00:00:03.52,0.00530925393104553,-0.0021127127110958104,0.00799337401986122,0,
00:00:03.524,0.0125729339197278,0.0128559935837984,-0.00151013676077127,0,
00:00:03.528,-0.0103217279538512,-0.0138099957257509,-0.00298457243479788,0,
00:00:03.532,0.0010240969713777302,-0.00839107856154442,-0.00151331583037972,0,
00:00:03.536,0.00326146744191647,0.006129377987235779,0.00223868992179632,0,
00:00:03.54,-0.0111644798889756,-0.00317044369876385,0.00108497170731425,0,
00:00:03.544,0.00649675726890564,0.004454811569303271,-0.00684336526319385,0,
00:00:03.548,-0.0010764854960143599,0.004259066190570589,0.00461673457175493,0,
00:00:03.552,-0.00050213118083775,-0.000692580942995846,0.00185724208131433,0,
00:00:03.556,0.00543178245425224,0.00294326222501695,0.000182836331077851,0,
00:00:03.56,0.00412613153457642,0.0017472809413448,0.0035431166179478203,0,
00:00:03.564,-0.0101064871996641,-0.00709603680297732,-0.0129915978759527,0,
00:00:03.568,0.00299977581016719,-0.00290479860268533,0.00204916950315237,0,
00:00:03.572,-0.00178901967592537,-0.00228012329898775,0.0121914288029075,0,
00:00:03.576,0.00104140397161245,0.00527601642534137,0.00433968566358089,0,
00:00:03.58,0.0049546123482286895,0.00536532560363412,-0.0144020756706595,0,
00:00:03.584,-0.0226247739046812,-0.0271136816591024,0.00913935527205467,0,
00:00:03.588,0.0120055666193366,0.0137351853772998,-0.0069335643202066395,0,
00:00:03.592,0.0181071851402521,0.0234541352838278,-0.00551158748567104,0,
00:00:03.596,0.0028513700235635,0.00705206440761685,-0.00192697532474995,0,
00:00:03.6,-0.00683282082900405,-0.0102832103148103,0.00165116158314049,0,
00:00:03.604,-0.0149641642346978,-0.0216612331569195,0.0159865170717239,0,
00:00:03.608,-0.00161502871196717,-0.00847147312015295,-0.00221305619925261,0,
00:00:03.612,0.004000364802777771,0.0177193731069565,-0.00129457260482013,0,
00:00:03.616,0.0128147341310978,0.015546596609056001,-0.00496677542105317,0,
00:00:03.62,-0.0053207091987133,-0.0128688896074891,-0.00955051276832819,0,
00:00:03.624,-0.016627736389636997,-0.0254837349057198,0.007545024156570429,0,
00:00:03.628,0.0143003463745117,0.0186960026621819,0.0127232158556581,0,
00:00:03.632,0.004248175770044329,0.0212215594947338,-0.00918328110128641,0,
00:00:03.636,-0.00296066352166235,-0.00505724688991904,-0.0018707989947870398,0,
00:00:03.64,-0.00466168252751231,-0.0127785662189126,-0.00909357890486717,0,
00:00:03.644,0.005647923797369001,-0.004794272594153879,0.000866959802806377,0,
00:00:03.648,0.000672815309371799,-0.00133976491633803,0.0120424330234528,0,
00:00:03.652,0.00224876101128757,0.00298047484830022,0.005823174957185979,0,
00:00:03.656,-0.00613027531653643,0.0106557700783014,-0.00837562698870897,0,
00:00:03.66,-0.00653734710067511,0.0034661779645830397,-0.00819441396743059,0,
00:00:03.664,-0.000429491541581228,-0.0162444207817316,-0.000464536424260587,0,
00:00:03.668,0.0081437136977911,0.00357434316538274,0.0130479149520397,0,
00:00:03.672,0.0110889505594969,0.0115641867741942,0.0015163318021222901,0,
00:00:03.676,-0.00629009306430817,-0.000213425839319825,-0.0056793834082782295,0,
00:00:03.68,-0.024803763255477004,-0.0313306115567684,-0.0041559971868991895,0,
00:00:03.684,0.00782098527997732,0.00706662936136127,0.007642703596502541,0,
00:00:03.688,0.0200336072593927,0.0268983673304319,0.00206004409119487,0,
00:00:03.692,0.0101287672296166,0.0092939268797636,-0.0144361723214388,0,
00:00:03.696,-0.0129916071891785,-0.0125454282388091,-0.00608012266457081,0,
00:00:03.7,-0.00986393820494413,-0.00816913228482008,0.00851196888834238,0,
00:00:03.704,-0.00552083272486925,-0.0127312559634447,0.0129158906638622,0,
00:00:03.708,0.0015868378104642,0.00491241412237287,-0.00245564244687557,0,
00:00:03.712,0.0074114655144512705,0.00801314506679773,-0.0005998893175274129,0,
00:00:03.716,0.0113139441236854,0.0109354257583618,-0.00225145486183465,0,
00:00:03.72,-0.00303677166812122,-0.00136875500902534,-0.00920494832098484,0,
00:00:03.724,-0.0173167381435633,-0.0193973071873188,0.00175155024044216,0,
00:00:03.728,-0.00124410283751786,-0.0027261157520115397,0.00847987551242113,0,
00:00:03.732,0.0171762686222792,0.0151758892461658,-0.00314059294760227,0,
00:00:03.736,0.00564371049404144,0.008655466139316559,0.0012891084188595401,0,
00:00:03.74,-0.0104644959792495,-0.00772391399368644,0.00237457174807787,0,
00:00:03.744,-0.00992358196526766,-0.0112268216907978,-0.0156146232038736,0,
00:00:03.748,0.00110002572182566,0.008457521907985209,0.00450365711003542,0,
00:00:03.752,0.00952361058443785,0.00175756751559675,0.016838688403368,0,
00:00:03.756,0.00901968963444233,0.0051653855480253705,-0.000863136141560972,0,
00:00:03.76,-0.005200234707444911,-0.00324247335083783,-0.00229195528663695,0,
00:00:03.764,-0.00542720826342702,-0.0117423413321376,-0.0154322581365705,0,
00:00:03.768,-0.0185696389526129,-0.005967726465314629,-0.00329761393368244,0,
00:00:03.772,0.00198946776799858,-0.00211772648617625,0.019988439977169,0,
00:00:03.776,0.0243359189480543,0.0248777661472559,-0.0104224532842636,0,
00:00:03.78,0.0033095113467425104,-0.00015775572683196499,0.007713181432336571,0,
00:00:03.784,-0.000827979412861168,0.00072911789175123,0.00125083688180894,0,
00:00:03.788,-0.00561825651675463,0.00284627894870937,-0.009976177476346491,0,
00:00:03.792,-0.00852274522185326,-0.007215051446110009,-0.00287670758552849,0,
00:00:03.796,-0.00819396786391735,-0.0235818084329367,-1.0304419447493301e-05,0,
00:00:03.8,0.00500456755980849,0.00240301084704697,0.00560981966555119,0,
00:00:03.804,0.009035244584083559,0.0195012297481298,0.00226980447769165,0,
00:00:03.808,0.00192562048323452,0.00556444469839334,0.00714279478415847,0,
00:00:03.812,0.00267710909247398,-0.00292718736454844,-0.0038405437953770204,0,
00:00:03.816,-0.008258511312305929,-0.007529777009040121,-0.00753048760816455,0,
00:00:03.82,-0.00492420047521591,-0.0103225773200393,-0.0030620358884334603,0,
00:00:03.824,0.00488903140649199,0.00838246010243893,0.00987906288355589,0,
00:00:03.828,-0.00018500362057238798,0.009918622672557829,-0.00649573281407356,0,
00:00:03.832,0.008608886040747171,0.00194484903477132,-0.00384426349774003,0,
00:00:03.836,-0.0107635473832488,-0.00844188127666712,0.00391904311254621,0,
00:00:03.84,0.000747553713154048,-0.0121416049078107,0.0108004352077842,0,
00:00:03.844,0.00528215244412422,0.00542343035340309,0.000298297702101991,0,
00:00:03.848,0.00196342659182847,0.007928178645670409,-0.00948108546435833,0,
00:00:03.852,-0.00162867270410061,0.00201435899361968,-0.00580843817442656,0,
00:00:03.856,-0.0174483079463243,-0.00463347882032394,0.00645112339407206,0,
00:00:03.86,0.0158422868698835,0.010969971306622,0.00192422710824758,0,
00:00:03.864,0.00700836116448045,0.000400136661482975,-0.00293316878378391,0,
00:00:03.868,-0.00542641524225473,-0.0170480310916901,0.000411733955843374,0,
00:00:03.872,-0.00310275726951659,-0.007782563567161559,-0.00347713381052017,0,
00:00:03.876,-0.00126699893735349,0.008098265156149859,0.0020253984257578897,0,
00:00:03.88,0.00210214895196259,0.0237578488886356,0.007109790574759241,0,
00:00:03.884,-0.00130093505140394,-0.00330678070895374,-0.0064720162190496896,0,
00:00:03.888,-0.0008919747197069231,-0.0203356631100178,-0.00562731362879276,0,
00:00:03.892,0.000304792134556919,-0.0118150422349572,0.0119167258962989,0,
00:00:03.896,0.00927556492388248,0.0158393736928701,0.0100922621786594,0,
00:00:03.9,-0.00699730915948749,0.0241996124386787,-0.0131290331482887,0,
00:00:03.904,-0.0206820201128721,-0.0401393957436085,-0.0125825190916657,0,
00:00:03.908,0.008876734413206579,-0.00282632606104016,-0.00149305653758347,0,
00:00:03.912,0.0246691629290581,0.0310174599289894,0.0168174188584089,0,
00:00:03.916,0.00231587793678045,0.00923884846270084,0.00209723971784115,0,
00:00:03.92,-0.008188965730369091,-0.00814341381192207,-0.00543165858834982,0,
00:00:03.924,-0.0049821203574538205,-0.00905543193221092,-0.0037094000726938204,0,
00:00:03.928,-0.00693834805861115,-0.0107851335778832,0.0039078495465219,0,
00:00:03.932,-0.0117488112300634,-0.00885080173611641,-0.00214405357837677,0,
00:00:03.936,0.008726442232728001,0.0164787657558918,0.00490559125319123,0,
00:00:03.94,0.00983184296637774,0.0116733089089394,-0.00321420934051275,0,
00:00:03.944,0.0020155068486928896,-0.0036407164297998,-0.00120496063027531,0,
00:00:03.948,-0.00145302410237491,-0.008670893497765059,-0.0048823687247932,0,
00:00:03.952,-0.000144775476655923,5.92933974985499e-05,-0.000563738867640495,0,
00:00:03.956,-0.00771694909781218,-0.00697642751038074,0.00731795793399215,0,
00:00:03.96,0.0038147771265357702,0.0125077525153756,0.0019879639148712197,0,
00:00:03.964,0.00757473520934582,0.00436982652172446,-0.00297681335359812,0,
00:00:03.968,0.0024710621219128396,0.00535744614899158,-0.0018832164350897102,0,
00:00:03.972,-0.0318734608590603,-0.042414952069521006,0.000141129974508658,0,
00:00:03.976,0.0040845754556357895,0.006735472474247221,0.00946973729878664,0,
00:00:03.98,0.0244155451655388,0.0311834421008825,-0.0047772638499736795,0,
00:00:03.984,0.0172253046184778,0.0175780821591616,-0.00611074222251773,0,
00:00:03.988,-0.00229091942310333,-0.0043436880223453,-0.0025549393612891397,0,
00:00:03.992,-0.0137006277218461,-0.00945728924125433,0.00103624793700874,0,
00:00:03.996,-0.0322642251849175,-0.0432401858270168,-0.0035512596368789703,0,
00:00:04,0.000750155013520271,-0.00421575037762523,0.0103804506361485,0,
00:00:04.004,0.0235570147633553,0.0288875941187143,0.0102691417559981,0,
00:00:04.008,0.0130528341978788,0.0260470844805241,-0.00514996843412519,0,
00:00:04.012,0.000640594167634845,0.00669684493914247,-0.0146456770598888,0,
00:00:04.016,-0.0106225041672587,-0.031855221837759,-0.00346801127307117,0,
00:00:04.02,-0.00752474553883076,-0.00703960889950395,0.0041096531786024605,0,
00:00:04.024,0.00293314503505826,0.0128480950370431,0.00817587412893772,0,
00:00:04.028,0.0031682625412941,0.00517365941777825,0.0063175824470818,0,
00:00:04.032,-0.00132547505199909,-0.00815175473690033,-0.00674819760024548,0,
00:00:04.036,-0.00734026357531548,-0.0152469417080283,0.00115516199730337,0,
00:00:04.04,0.0102560184895992,0.0214265193790197,-2.0532876078505103e-05,0,
00:00:04.044,0.00193656724877656,0.00679020490497351,-0.0041300244629383105,0,
00:00:04.048,0.000266488699708134,-0.00319794449023902,-0.0045538721606135394,0,
00:00:04.052,-0.00233269692398608,-0.00028406162164174,-0.0018896876135841,0,
00:00:04.056,-0.0134074920788407,-0.0316402949392796,0.0137423183768988,0,
00:00:04.06,0.00999847054481506,0.013270441442728001,0.00162566883955151,0,
00:00:04.064,0.00802599918097258,0.0213074162602425,-0.00832884479314089,0,
00:00:04.068,-0.0059306719340384,0.00486436765640974,-0.00490196235477924,0,
00:00:04.072,-0.0131902582943439,-0.0230329278856516,-0.00146615749690682,0,
00:00:04.076,0.0117010055109859,0.0023760353215038802,0.0138246640563011,0,
00:00:04.08,0.0135037275031209,0.0130008198320866,-0.00285672210156918,0,
00:00:04.084,-0.00135362846776843,-0.000559322710614651,0.00139702844899148,0,
00:00:04.088,-0.0167515017092228,-0.0077436612918973,-0.00992774777114391,0,
00:00:04.092,-0.0124166384339333,-0.0195029024034739,2.05072174139787e-05,0,
00:00:04.096,0.0171116422861815,0.0261332057416439,0.00734137836843729,0,
00:00:04.1,0.00555157382041216,0.00458635669201612,-0.00540623627603054,0,
00:00:04.104,-0.004820010159164671,-0.0135374367237091,0.00371312466450036,0,
00:00:04.108,0.0032288923393935,0.00344495777972043,0.00047098356299102306,0,
00:00:04.112,0.00512729398906231,0.00515186367556453,0.00138388643972576,0,
00:00:04.116,-0.012401289306581001,-0.0194426700472832,-0.0130975302308798,0,
00:00:04.12,-0.00469985930249095,0.0091334730386734,0.00786587037146091,0,
00:00:04.124,0.00642106682062149,0.0124284252524376,0.0101193450391293,0,
00:00:04.128,0.00520324427634478,-0.0010273607913404699,0.00411402387544513,0,
00:00:04.132,-0.00113649712875485,-0.004909418057650329,-0.0106343748047948,0,
00:00:04.136,-4.09356325690169e-05,-0.00586979370564222,-0.00587231479585171,0,
00:00:04.14,0.00108346808701754,0.00910846795886755,-0.0009350253967568279,0,
00:00:04.144,-0.0179616622626781,-0.01575299911201,-0.00203803437761962,0,
00:00:04.148,0.00699668703600764,-0.0010959979845210901,0.0109592648223042,0,
00:00:04.152,0.0192057359963655,0.022213701158762002,0.00133483624085784,0,
00:00:04.156,0.008106377907097341,0.0153138246387243,-0.00231562135741115,0,
00:00:04.16,-0.0213069934397936,-0.0311608854681253,-0.00251001212745905,0,
00:00:04.164,-0.0133326444774866,-0.0205390974879265,-0.00542687252163887,0,
00:00:04.168,0.0074430056847631905,0.0181491859257221,0.00604937924072146,0,
00:00:04.172,0.0179116316139698,0.0257736798375845,-3.0156921638990803e-05,0,
00:00:04.176,-0.0012508389772847301,-0.00297846016474068,0.00148712424561381,0,
00:00:04.18,-0.0113660031929612,-0.0200591664761305,-0.00598080875352025,0,
00:00:04.184,-0.0120951700955629,-0.00952383037656546,0.00702337455004454,0,
00:00:04.188,0.0115027539432049,0.0137875378131866,0.00996333081275225,0,
00:00:04.192,0.0122010326012969,0.00972248986363411,-0.0036295033060014205,0,
00:00:04.196,0.0041429833509028,0.00631762854754925,-0.0215778313577175,0,
00:00:04.2,-0.015846986323595002,-0.0199088584631681,-0.0057349302805960204,0,
00:00:04.204,-0.00922590959817171,-0.0134127335622907,0.0072362534701824206,0,
00:00:04.208,0.00362032139673829,0.00040149700362235297,0.0172829143702984,0,
00:00:04.212,0.0114631298929453,0.0236468687653542,0.00797407422214746,0,
00:00:04.216,0.00545384315773845,0.0128404693678021,-0.0028529183473438,0,
00:00:04.22,-0.005893445108085871,-0.00686664553359151,-0.0141878109425306,0,
00:00:04.224,0.00505759101361036,-0.0026593692600727103,-0.00116234819870442,0,
00:00:04.228,-0.0175433605909348,-0.0211557485163212,-0.006517449859529729,0,
00:00:04.232,0.00131433457136154,-0.01228844281286,0.0112775266170502,0,
00:00:04.236,0.00444844318553805,0.0167677383869886,0.004926670808345079,0,
00:00:04.24,0.0109808510169387,0.0220946967601776,-0.007322356570512059,0,
00:00:04.244,0.00103231228422374,0.005471136886626479,0.0022155009210109698,0,
00:00:04.248,-0.00857488438487053,-0.0251276455819607,-0.000363575178198516,0,
00:00:04.252,-0.00315684569068253,-0.0008010599995031951,-0.00290015642531216,0,
00:00:04.256,0.00661260960623622,0.0107219852507114,0.00365401152521372,0,
00:00:04.26,-0.00201625819317997,0.000981142045930028,-0.000204568641493097,0,
00:00:04.264,-0.025953121483326,-0.0358135886490345,-0.00106714654248208,0,
00:00:04.268,0.0225658994168043,0.020510122179985,-0.00271978648379445,0,
00:00:04.272,0.0189233105629683,0.0263741798698902,0.0040561524219811,0,
00:00:04.276,-6.8149352046020795e-06,0.0067803240381181205,5.5146687373053296e-05,0,
00:00:04.28,-0.00756531534716487,-0.0139229074120522,-0.0031178095377981697,0,
00:00:04.284,-0.016104020178318,-0.0230720918625593,0.0011953258654102698,0,
00:00:04.288,-0.00702041340991855,-0.0011035002535209099,0.0035483089741319396,0,
00:00:04.292,0.0052095074206590705,0.0118405288085341,0.000544263340998441,0,
00:00:04.296,0.00784544181078672,-0.000311560201225802,-0.010301873087883,0,
00:00:04.3,0.00725486455485225,0.00671395193785429,0.00127201620489359,0,
00:00:04.304,0.0012602256610989599,0.0029786664526909603,0.009083364158868791,0,
00:00:04.308,-0.00532787013798952,-0.00599134154617786,0.00397971039637923,0,
00:00:04.312,-0.00443968502804637,-0.00416128896176815,-0.0062257582321763,0,
00:00:04.316,-0.00340226851403713,0.003957333974540229,-0.00899133831262589,0,
00:00:04.32,0.0134793128818274,0.008614508435130121,0.011572721414268001,0,
00:00:04.324,-0.00833482295274735,-0.0107916807755828,-0.0045695295557379705,0,
00:00:04.328,-0.0149155464023352,-0.0177211277186871,0.004625553265213971,0,
00:00:04.332,0.00617169309407473,0.00432578707113862,0.00114486226812005,0,
00:00:04.336,0.0193621627986431,0.0339970141649246,-0.00504609569907188,0,
00:00:04.34,0.00526675768196583,0.00148453854490072,-0.0123756118118763,0,
00:00:04.344,-0.011852147988975001,-0.0206436160951853,0.00291239540092647,0,
00:00:04.348,-0.00511062052100897,-0.00445902021601796,0.0122052589431405,0,
00:00:04.352,0.000477166118798777,-0.00556460488587618,0.00231536198407412,0,
00:00:04.356,-0.00165281305089593,0.00745131308212876,0.00277794897556305,0,
00:00:04.36,-0.000475166947580874,0.00813525356352329,-0.006013927049934861,0,
00:00:04.364,0.0031171222217381,0.00124946783762425,-0.00270039075985551,0,
00:00:04.368,0.0017526326701045,-0.00793681386858225,0.00118624872993678,0,
00:00:04.372,-0.000229353245231323,-0.002795928157866,-0.0038952329196035897,0,
00:00:04.376,-0.00742358854040504,-0.007809116970747709,-0.00525742769241333,0,
00:00:04.38,0.00485886260867119,0.0159912128001451,0.0184464547783136,0,
00:00:04.384,-0.0037698531523346897,-0.0121253207325935,-0.0076298117637634295,0,
00:00:04.388,0.006611475721001629,0.00224157003685832,-0.00546104041859508,0,
00:00:04.392,0.00865924917161465,0.017630759626627,0.005536977201700211,0,
00:00:04.396,0.00819847825914621,0.0224689785391092,-0.00568094942718744,0,
00:00:04.4,-0.0308493003249168,-0.039142232388257994,0.0018821475096046899,0,
00:00:04.404,-0.0038859143387526295,-0.0167276412248611,0.0069152605719864394,0,
00:00:04.408,0.0126168755814433,0.0094944080337882,-0.00693012308329344,0,
00:00:04.412,0.0077840583398938205,0.0083687286823988,0.00227382103912532,0,
00:00:04.416,-4.3652871681843e-05,0.00832793675363064,-0.00232493993826211,0,
00:00:04.42,0.00426078261807561,0.00297389249317348,0.00132294103968889,0,
00:00:04.424,-0.0116720348596573,-0.0060245506465435,0.00138051935937256,0,
00:00:04.428,0.00039692682912573197,0.00420241849496961,0.000348510598996654,0,
00:00:04.432,0.00281642563641071,-0.00397495087236166,-0.0025632418692112,0,
00:00:04.436,0.011950608342886,0.0039216815494000894,0.00539245409891009,0,
00:00:04.44,-0.009996833279728891,-0.0137768620625138,-0.0069758603349328,0,
00:00:04.444,-0.0133513677865267,-0.00589441135525703,0.00278838141821325,0,
00:00:04.448,-0.00826020445674658,-0.0038659500423818796,0.0023587490431964397,0,
00:00:04.452,0.019032409414649,0.0269295331090689,-0.000244886352447793,0,
00:00:04.456,0.0201598070561886,0.0179690960794687,-0.010048727504909,0,
00:00:04.46,0.0015366303268820002,-0.00673619471490383,-0.00412387121468782,0,
00:00:04.464,-0.0325334519147873,-0.037768479436636006,0.0261643156409264,0,
00:00:04.468,0.00814531557261944,0.00990468170493841,-0.0109893186017871,0,
00:00:04.472,-0.0161821860820055,-0.0194999221712351,0.0021250918507576,0,
00:00:04.476,0.0154512841254473,0.0231659486889839,0.00409244140610099,0,
00:00:04.48,0.0139898639172316,0.013059695251286002,-0.0200295262038708,0,
00:00:04.484,0.00514666130766273,0.00903852470219135,0.00228699436411262,0,
00:00:04.488,-0.00515491142868996,-0.00352698168717325,0.0029814220033586,0,
00:00:04.492,-0.0235814303159714,-0.0229310989379883,0.008517757058143621,0,
00:00:04.496,0.00489051826298237,-0.0019111299188807602,-0.000222711387323216,0,
00:00:04.5,0.00929870922118425,0.007384430617094041,-0.00165777315851301,0,
00:00:04.504,0.00472257053479552,0.00531990826129913,0.00328645086847246,0,
00:00:04.508,-0.00467234337702394,-0.0032548066228628198,0.0022619902156293397,0,
00:00:04.512,-0.00540973292663693,-0.00213260785676539,-0.008914610370993609,0,
00:00:04.516,0.008297973312437529,0.00274057546630502,-0.00303075811825693,0,
00:00:04.52,0.004001377150416371,0.00837014801800251,0.0011688226368278302,0,
00:00:04.524,-0.00447688298299909,0.000478874280815944,-0.00137257145252079,0,
00:00:04.528,-0.0134866405278444,-0.0203130561858416,0.00629288656637073,0,
00:00:04.532,0.00756700662896037,0.00313692865893245,0.006353026255965229,0,
00:00:04.536,0.00724900513887405,0.00989799294620752,-0.00603184755891562,0,
00:00:04.54,-0.00489938817918301,-0.00145936000626534,0.00595738785341382,0,
00:00:04.544,-0.011538777500391001,-0.0057111312635242896,-0.0140609350055456,0,
00:00:04.548,0.006669371854513879,0.0024722481612116103,0.006563787814229729,0,
00:00:04.552,0.0197465345263481,0.0131375854834914,0.00535821774974465,0,
00:00:04.556,-0.00305167934857309,-0.00475241476669908,-0.00459653651341796,0,
00:00:04.56,-0.00474541168659925,0.00196747086010873,-0.00606954749673605,0,
00:00:04.564,-0.00820970628410578,-0.00424822652712464,-0.000638835539575666,0,
00:00:04.568,-0.00476156501099467,-0.007395253051072359,0.00971969030797482,0,
00:00:04.572,0.00205580168403685,-0.00100728694815189,-0.0017394375754520301,0,
00:00:04.576,0.00303059280849993,-0.000329030561260879,-0.00248323148116469,0,
00:00:04.58,0.0018527056090533699,-0.0019699307158589398,0.00165467010810971,0,
00:00:04.584,-0.009929982014000421,0.0029838180635124397,0.00324631715193391,0,
00:00:04.588,0.0115602156147361,0.0158427618443966,-0.000187517303857021,0,
00:00:04.592,0.005655308254063129,0.0005492975469678639,-0.00681723654270172,0,
00:00:04.596,-0.0011144762393087099,-0.0047019361518323395,-0.000917966652195901,0,
00:00:04.6,-0.00027021087589673703,-0.0027915700338780897,-0.00027756736380979397,0,
00:00:04.604,-0.00597708998247981,-0.0173966940492392,0.00204008375294507,0,
00:00:04.608,-0.0216655973345041,-0.0197146832942963,0.0069453418254852295,0,
00:00:04.612,-0.00229915301315486,0.0170775819569826,-5.79444167669863e-06,0,
00:00:04.616,0.0305526833981276,0.0372897833585739,-0.000792007660493255,0,
00:00:04.62,0.0195168498903513,0.0151899736374617,-0.004749118350446221,0,
00:00:04.624,-0.000708826526533812,-0.011227598413825,-0.00503690401092172,0,
00:00:04.628,-0.0277198776602745,-0.0365016832947731,0.00196191412396729,0,
00:00:04.632,-0.0193188264966011,-0.0201309993863106,0.00760828517377377,0,
00:00:04.636,0.004205319564789529,0.0110553335398436,-0.00795060023665428,0,
00:00:04.64,0.0101448120549321,0.0201860778033733,0.0030362417455762603,0,
00:00:04.644,0.022327434271573996,0.0183458924293518,0.00372382602654397,0,
00:00:04.648,0.00174846476875246,0.00339908641763031,0.00104036752600223,0,
00:00:04.652,-0.0197779592126608,-0.0249425917863846,0.00284677185118198,0,
00:00:04.656,-0.00476578623056412,-0.0124437464401126,-0.00394986476749182,0,
00:00:04.66,0.00433472590520978,0.00408674357458949,-0.0109345782548189,0,
00:00:04.664,0.0061030425131321,0.0217052027583122,0.00357314059510827,0,
00:00:04.668,-0.000758320966269821,0.00142097775824368,-0.0009164033108390869,0,
00:00:04.672,-0.00462305266410112,-0.00939579773694277,0.00426415354013443,0,
00:00:04.676,-0.0017929282039403898,-0.011645907536148999,0.0125823514536023,0,
00:00:04.68,-0.00693384651094675,-0.014524039812386001,-0.0102527150884271,0,
00:00:04.684,0.0125666670501232,0.0194477923214436,0.0028728896286338602,0,
00:00:04.688,0.0107329282909632,0.0296510327607393,-0.00331249227747321,0,
00:00:04.692,0.0019540621433407103,-0.00151852716226131,-0.00930084940046072,0,
00:00:04.696,-0.0216255858540535,-0.0385163463652134,0.00517749693244696,0,
00:00:04.7,0.00036197854205966,0.00681276293471456,0.00400780001655221,0,
00:00:04.704,0.0033227482344955197,0.0029976058285683398,0.00428723217919469,0,
00:00:04.708,-0.00273530324921012,0.00101989775430411,0.00875203963369131,0,
00:00:04.712,0.00801436696201563,0.0048948647454381,-0.0103480219841003,0,
00:00:04.716,0.0032488189171999697,0.00959652103483677,-0.00958010647445917,0,
00:00:04.72,0.00592260435223579,-0.00348500325344503,-0.000508943514432758,0,
00:00:04.724,-0.0038270861841738202,-0.004511522594839329,-0.0009503146866336461,0,
00:00:04.728,-0.0131093244999647,-0.0104890679940581,-0.0009151396225206551,0,
00:00:04.732,0.00515967281535268,0.007742380257695909,0.0069663464091718206,0,
00:00:04.736,-0.00227322173304856,-0.00110549863893539,0.0235818959772587,0,
00:00:04.74,-0.00730653665959835,-0.0075310505926609,-0.008707764558494091,0,
00:00:04.744,0.0115897348150611,0.010654921643436,-0.0204102266579866,0,
00:00:04.748,0.0015268613351509,-0.00147669785656035,0.006294176448136571,0,
00:00:04.752,0.00127357908058912,-0.00141082680784166,-0.011328861117363002,0,
00:00:04.756,0.0015239245258271699,0.0174614824354649,0.00850019883364439,0,
00:00:04.76,0.00044447270920500197,-0.00155605911277235,0.00229816930368543,0,
00:00:04.764,-0.00940396636724472,-0.0321056097745895,0.00634417682886124,0,
00:00:04.768,-0.0024507474154233898,0.000768015859648585,0.00445065414533019,0,
00:00:04.772,0.00206819386221468,0.015672393143177,-0.0060406094416976,0,
00:00:04.776,0.00133366149384528,0.00162136042490602,0.000696847506333143,0,
00:00:04.78,0.0106981340795755,0.00419397046789527,-0.0076336883939802595,0,
00:00:04.784,0.0006408398621715611,0.00738738663494587,-0.00147493334952742,0,
00:00:04.788,-0.0176198091357946,-0.00999348424375057,-7.56346562411636e-05,0,
00:00:04.792,-0.00624400936067104,-0.022705439478159003,0.00895159691572189,0,
00:00:04.796,0.0125270579010248,0.0165638905018568,-0.000355147640220821,0,
00:00:04.8,0.0191380996257067,0.0192129276692867,-0.000473125925054774,0,
00:00:04.804,0.0011101794661954,0.00277773290872574,-0.009907235391438009,0,
00:00:04.808,-0.0140471877530217,-0.0158218629658222,0.0061059701256454,0,
00:00:04.812,-0.0154182789847255,-0.0184462573379278,0.00344587815925479,0,
00:00:04.816,-0.00113494507968426,0.00345337903127074,-0.00149798591155559,0,
00:00:04.82,0.0128592988476157,0.0096204848960042,0.0028944513760507102,0,
00:00:04.824,0.00161087512969971,0.00514807319268584,-0.00187457620631903,0,
00:00:04.828,0.005667258054018021,0.00833639409393072,-0.00041777206934057203,0,
00:00:04.832,-0.00190482230391353,0.00428838981315494,-0.00116854382213205,0,
00:00:04.836,-0.008545272052288059,-0.0183387696743011,-0.00969942007213831,0,
00:00:04.84,-0.007697870954871179,-0.012633373029530002,0.00503750750795007,0,
00:00:04.844,0.0101882824674249,0.0163829512894154,0.00864173658192158,0,
00:00:04.848,0.01823322288692,0.0149278976023197,-0.00523899961262941,0,
00:00:04.852,-0.0195261463522911,-0.0278234500437975,-0.000671194167807698,0,
00:00:04.856,-0.00854751095175743,-0.00980754010379314,0.0164483226835728,0,
00:00:04.86,0.0126970838755369,0.0323748663067818,-0.00559655344113708,0,
00:00:04.864,-0.0008370352443307639,0.00459794700145721,-0.0187599547207356,0,
00:00:04.868,0.0019201145041734,-0.00232465891167521,-0.00270725623704493,0,
00:00:04.872,0.00200458243489265,-0.00944097619503737,0.0120824938639998,0,
00:00:04.876,-0.00798449385911226,-0.0115712927654386,0.0054154247045517,0,
00:00:04.88,-0.0122074745595455,-0.000435571098932996,0.0016463020583614698,0,
00:00:04.884,0.0138492016121745,0.00918717589229345,-0.0113219143822789,0,
00:00:04.888,0.011128356680273998,0.00973476562649012,-0.0048956559039652296,0,
00:00:04.892,-0.000833305763080716,-0.0103277154266834,0.00724776973947883,0,
00:00:04.896,-0.00560776889324188,-0.0152325853705406,0.0106359794735909,0,
00:00:04.9,-0.0113716758787632,0.0170597657561302,-0.0022049506660550802,0,
00:00:04.904,0.009826581925153729,0.0183493383228779,-0.00118395721074194,0,
00:00:04.908,-0.000569139432627708,-0.00646814191713929,-0.0117543404921889,0,
00:00:04.912,0.00163741887081414,-0.0192361008375883,0.00196240749210119,0,
00:00:04.916,-0.00716934492811561,-0.0070762662217021,0.0021991569083184,0,
00:00:04.92,-0.00491025438532233,-0.0031496393494308,0.000152365129906684,0,
00:00:04.924,0.008653943426907059,0.00898813456296921,-0.00273076561279595,0,
00:00:04.928,0.00226311315782368,0.0170569214969873,0.008042666129767891,0,
00:00:04.932,0.0065569244325161,0.00854937825351954,0.00887899473309517,0,
00:00:04.936,-0.00200124038383365,-0.00437948666512966,-0.007085025310516359,0,
00:00:04.94,-0.00931724812835455,-0.018781928345561003,-0.00760740227997303,0,
00:00:04.944,-0.00226403679698706,-0.00520562473684549,0.00335435010492802,0,
00:00:04.948,-0.000285438291030005,0.0048461789265275,-0.00243680039420724,0,
00:00:04.952,0.00486163748428226,0.0074712750501930705,-0.00788577925413847,0,
00:00:04.956,0.0120154786854982,0.00270284782163799,0.0044158780947327605,0,
00:00:04.96,-0.00502465479075909,-0.00997400283813477,0.0149936871603131,0,
00:00:04.964,-0.0244293306022882,-0.020201088860631,-0.0019513975130394101,0,
00:00:04.968,0.00949022546410561,0.0237883199006319,-0.00220946758054197,0,
00:00:04.972,0.0153282480314374,0.0341826044023037,-0.0063878707587719,0,
00:00:04.976,0.0037696277722716297,-0.0111198499798775,-0.006289408542215821,0,
00:00:04.98,-0.00156413775403053,-0.0208704713732004,-0.006741478107869629,0,
00:00:04.984,-0.00355462310835719,-0.0111118936911225,0.0075978105887770705,0,
00:00:04.988,-0.00139361270703375,-0.0016759764403104802,0.0114450706169009,0,
00:00:04.992,-0.0250131879001856,-0.0019845177885144897,0.0195343401283026,0,
00:00:04.996,0.000649034045636654,0.00760602112859488,-0.0219757109880447,0,
00:00:05,0.0280940476804972,0.0131597239524126,-0.0128407906740904,0,
00:00:05.004,0.0016762602608650901,-0.000839100277516991,0.00096375570865348,0,
00:00:05.008,0.0011591691290959698,0.0010141772218048599,0.0037813850212842204,0,
00:00:05.012,-0.00165001198183745,0.0025391078088432602,0.007120487280189991,0,
00:00:05.016,-0.0058269090950489,0.0009437711560167369,0.00383869535289705,0,
00:00:05.02,-0.0165137145668268,-0.0225970502942801,-0.00241944845765829,0,
00:00:05.024,0.000370991649106145,-0.00258137984201312,-0.0007252814830280839,0,
00:00:05.028,0.0143780494108796,0.0139017542824149,0.00296058086678386,0,
00:00:05.032,0.00831181835383177,0.0050466195680201106,-0.009528763592243191,0,
00:00:05.036,-0.000763242598623037,0.00437125749886036,-0.0044625224545598,0,
00:00:05.04,-0.0305802635848522,-0.0285633429884911,0.00874513480812311,0,
00:00:05.044,0.0181035380810499,0.0248166956007481,0.00790806394070387,0,
00:00:05.048,0.0149099351838231,0.0127875590696931,-0.00422050757333636,0,
00:00:05.052,0.00658435886725783,-0.00507373781874776,-0.00332537526264787,0,
00:00:05.056,-0.004084893502295021,-0.00661458587273955,-0.00438129063695669,0,
00:00:05.06,-0.0236668903380632,-0.0161489490419626,-0.0009662790689617401,0,
00:00:05.064,-0.0253124497830868,-0.0203232076019049,-0.000107630039565265,0,
00:00:05.068,0.0291918311268091,0.0292727015912533,0.006872120779007671,0,
00:00:05.072,0.0220115296542645,0.0171277429908514,0.0016412461409345302,0,
00:00:05.076,0.00161934748757631,-0.00354392849840224,-0.0009489079820923509,0,
00:00:05.08,-0.0152009986341,-0.0153004713356495,-0.00165114656556398,0,
00:00:05.084,-0.00413520028814673,0.005490330979228021,-0.00125526427291334,0,
00:00:05.088,-0.0007870127446949481,-0.00089000875595957,-0.000488803081680089,0,
00:00:05.092,0.00220005330629647,0.0014692225959152,-0.00400786427780986,0,
00:00:05.096,-0.00150512135587633,-0.00979841500520706,0.00645629642531276,0,
00:00:05.1,-0.0134337143972516,-0.007590127177536491,0.00170748797245324,0,
00:00:05.104,0.0185952018946409,0.0224477984011173,-0.00731349270790815,0,
00:00:05.108,0.0032431315630674397,-0.00602063350379467,0.006135694216936829,0,
00:00:05.112,-0.00470556458458304,-0.00850650947540998,0.00784203037619591,0,
00:00:05.116,-0.0075965365394949904,-0.0043786838650703395,-0.00741161173209548,0,
00:00:05.12,0.00980110093951225,0.0260163061320782,-0.0134824896231294,0,
00:00:05.124,0.007125259377062321,0.00982607994228601,0.00589156150817871,0,
00:00:05.128,-0.0129319448024035,-0.0300946850329638,0.0010073974262923,0,
00:00:05.132,-0.0122618218883872,-0.0193707309663296,0.00447286013513803,0,
00:00:05.136,0.0112884091213346,0.01585996709764,0.0136919524520636,0,
00:00:05.14,0.0118164597079158,0.0184136629104614,-0.0133915804326534,0,
00:00:05.144,-0.000325746019370854,-0.000609972164966166,0.0026127009186893697,0,
00:00:05.148,-0.0119834961369634,0.00263031874783337,-0.00345097202807665,0,
00:00:05.152,-0.0016573133179917901,0.0043000467121601105,-0.00548004452139139,0,
00:00:05.156,0.00025908320094458797,-0.0196960810571909,0.00101412972435355,0,
00:00:05.16,0.00462854793295264,-0.0191415920853615,-0.00125271489378065,0,
00:00:05.164,0.00720938667654991,0.00838770531117916,0.0083389962092042,0,
00:00:05.168,-0.0016392891993746198,0.0136252315714955,-0.0060812383890152,0,
00:00:05.172,-0.0109728323295712,0.00215372489765286,-0.0019439978059381199,0,
00:00:05.176,-0.00197137403301895,0.00293083768337965,0.0139079857617617,0,
00:00:05.18,0.00978791154921055,0.00744168180972338,0.0013038278557360198,0,
00:00:05.184,0.00908329803496599,0.009736509993672371,-0.00705881649628282,0,
00:00:05.188,-0.0119733065366745,-0.0270404238253832,-0.0057224640622735,0,
00:00:05.192,-0.0146554848179221,-0.0242939237505198,0.0046192747540772,0,
00:00:05.196,0.008229200728237629,0.0232836659997702,-0.00229937769472599,0,
00:00:05.2,0.0125266276299953,0.0160284489393234,-0.00223526381887496,0,
00:00:05.204,0.0089157922193408,0.00563793303444982,-0.0022032381966710104,0,
00:00:05.208,-0.0151216182857752,-0.0152371609583497,0.0054995003156364,0,
00:00:05.212,-0.00754162017256022,-0.0175898391753435,0.0014221855672076301,0,
00:00:05.216,0.00112288212403655,0.0109395934268832,0.00173363613430411,0,
00:00:05.22,0.0156390368938446,0.0338376350700855,-0.0027781564276665397,0,
00:00:05.224,0.00945093855261803,0.00419542007148266,-0.00434359116479754,0,
00:00:05.228,-0.0221032872796059,-0.0407761968672276,-0.0005356502369977531,0,
00:00:05.232,-0.0132300816476345,-0.0226260609924793,0.004500714130699629,0,
00:00:05.236,0.00856561958789825,0.00682301120832562,0.000945683568716049,0,
00:00:05.24,0.0150706255808473,0.0335700921714306,0.00210375525057316,0,
00:00:05.244,0.0138807306066155,0.0314095132052898,0.0061596492305398,0,
00:00:05.248,-0.0282434560358524,-0.0452178791165352,-0.00771622778847814,0,
00:00:05.252,-0.00425441144034266,-0.0130134271457791,-0.0110986437648535,0,
00:00:05.256,0.010664408095181,0.0145071353763342,-0.0102075766772032,0,
00:00:05.26,0.00575400004163384,0.00586486188694835,0.032123401761055,0,
00:00:05.264,0.000838326115626842,0.0039001940749585602,0.0042813448235392605,0,
00:00:05.268,2.4072191081359102e-05,0.00402456102892756,-0.0112527217715979,0,
00:00:05.272,-0.00669996486976743,-0.0149428592994809,-0.0169112421572208,0,
00:00:05.276,0.0006601985660381621,0.00369794177822769,-0.0023412571754306602,0,
00:00:05.28,0.0011460110545158401,0.00659508816897869,0.00867959298193455,0,
00:00:05.284,-0.012417072430253001,-0.0159022193402052,0.00618950417265296,0,
00:00:05.288,0.0153686460107565,0.0120348371565342,0.007466488983482121,0,
00:00:05.292,0.00326589564792812,0.0108709558844566,0.0006152389105409379,0,
00:00:05.296,-0.00242151180282235,-0.0028296581003814897,-0.00671566044911742,0,
00:00:05.3,-0.0035424998495727795,-0.0143076768144965,-0.0077866418287158,0,
00:00:05.304,-0.000189139551366679,-0.0067961341701448,6.84437691234052e-05,0,
00:00:05.308,-0.00241499021649361,-0.00159392587374896,0.000842789304442704,0,
00:00:05.312,-0.00497564719989896,0.0108844256028533,0.00677094934508204,0,
00:00:05.316,0.00287741213105619,0.00934307184070349,-0.00113421480637044,0,
00:00:05.32,0.0111176948994398,0.0132697494700551,0.00453848158940673,0,
00:00:05.324,0.00144403544254601,-0.01658820733428,-0.004185332916677,0,
00:00:05.328,-0.0104602975770831,-0.00479917228221893,-0.00418072519823909,0,
00:00:05.332,0.0112187452614307,0.0215706843882799,-0.007533746305853129,0,
00:00:05.336,-0.0182856861501932,-0.036430399864912,0.0133048696443439,0,
00:00:05.34,-0.0021443627774715398,-0.0142099261283875,0.00519665656611323,0,
00:00:05.344,0.0124560911208391,0.0181351341307163,-0.0067494185641408,0,
00:00:05.348,-0.0029265342745929995,0.0195198319852352,-0.0119942910969257,0,
00:00:05.352,0.0070821475237608,0.0106409629806876,0.0005549130146391691,0,
00:00:05.356,0.00501624122262001,0.006057933904230589,0.0172622818499804,0,
00:00:05.36,-0.0046228393912315395,-0.0254409797489643,0.00508409691974521,0,
00:00:05.364,-0.0107057392597198,-0.013923685066402,-0.0131382448598742,0,
00:00:05.368,-0.00834719836711884,-0.00115919217932969,-0.0124636022374034,0,
00:00:05.372,0.0128721417859197,0.0170966666191816,0.0107512418180704,0,
00:00:05.376,0.009063763543963429,0.0130051095038652,0.0111951297149062,0,
00:00:05.38,-0.0123387845233083,-0.00807387381792068,-0.00281562353484333,0,
00:00:05.384,0.00449089054018259,2.37916119658621e-05,-0.0059542227536439896,0,
00:00:05.388,0.00203309371136129,-0.0103689823299646,-0.0100459381937981,0,
00:00:05.392,-0.000424101017415524,-0.0064798560924828105,0.00746891414746642,0,
00:00:05.396,-0.00570195727050304,0.00690592871978879,0.00875589344650507,0,
00:00:05.4,0.00670689297839999,0.0158885568380356,-0.000821119523607194,0,
00:00:05.404,0.00288279703818262,0.0036674162838608,-0.00441428273916245,0,
00:00:05.408,-0.00670158676803112,-0.0113426931202412,-0.00788975972682238,0,
00:00:05.412,-0.0026595122180879103,-0.00808754656463861,0.000552260200493038,0,
00:00:05.416,-0.00418707728385925,-0.0135803828015924,0.0040135872550308704,0,
00:00:05.42,-0.000998615636490285,0.00262899347580969,0.0036880599800497298,0,
00:00:05.424,0.00654348125681281,0.0131082870066166,-0.00459386501461267,0,
00:00:05.428,0.0102411601692438,0.0124480463564396,0.007622803095728159,0,
00:00:05.432,0.006620472297072411,0.0135042844340205,0.00982636213302612,0,
00:00:05.436,-0.00627664057537913,-0.0102636236697435,-0.0187491700053215,0,
00:00:05.44,-0.0303537677973509,-0.0399579964578152,-0.0042672916315496,0,
00:00:05.444,0.0113371182233095,0.0103299431502819,0.007566259708255529,0,
00:00:05.448,0.0193748734891415,0.0226715467870235,0.00531830126419663,0,
00:00:05.452,0.0041864784434437795,0.0141077684238553,-0.0018356627551838801,0,
00:00:05.456,-0.0163169633597136,-0.0202713925391436,-0.0049974899739027,0,
00:00:05.46,0.00782087538391352,-0.0013097135815769401,0.00253632548265159,0,
00:00:05.464,-0.0134006561711431,0.00326600857079029,-0.000191591112525202,0,
00:00:05.468,-0.0032780400943011,-0.0127681437879801,0.00164656236302108,0,
00:00:05.472,0.0075523932464420795,0.000611789175309241,-0.0019348441855981898,0,
00:00:05.476,0.0120684439316392,0.00881527084857225,-0.00332827446982265,0,
00:00:05.48,0.00585922924801707,0.0106615563854575,0.00221107318066061,0,
00:00:05.484,-0.0101118637248874,-0.00469143548980355,0.00270105944946408,0,
00:00:05.488,-0.0064499662257731,-0.00167155545204878,0.00118690053932369,0,
00:00:05.492,0.0021797816734761,-0.00213261903263628,-0.00452679023146629,0,
00:00:05.496,-0.00686942506581545,-0.00636448804289103,0.0048940503038466,0,
00:00:05.5,0.00103241845499724,-0.00564771890640259,-0.0018224724335596,0,
00:00:05.504,0.00901857484132051,0.0111594088375568,0.00431263027712703,0,
00:00:05.508,0.00468282261863351,0.00780396163463593,-0.0041418336331844295,0,
00:00:05.512,-0.00322985649108887,-0.00192122580483556,0.000184539705514908,0,
00:00:05.516,-0.00416867341846228,-0.00260605057701468,-0.00290972017683089,0,
00:00:05.52,-0.00426549045369029,-0.00961776170879602,-0.0225634463131428,0,
00:00:05.524,0.0020239271689206396,0.0033257361501455303,0.0179518591612577,0,
00:00:05.528,-0.00328918546438217,-0.0042449519969523,0.0282856151461601,0,
00:00:05.532,0.0137313921004534,0.0132854729890823,-0.000697876326739788,0,
00:00:05.536,0.00104231561999768,0.0015368118183687301,-0.0219776853919029,0,
00:00:05.54,-0.0114648519083858,-0.0126256728544831,-0.0115110799670219,0,
00:00:05.544,0.00237908610142767,0.0030190199613571197,0.00640089437365532,0,
00:00:05.548,-0.0102917617186904,-0.00224574655294418,0.00475349789485335,0,
00:00:05.552,0.00902020838111639,0.00466759456321597,-0.00193738716188818,0,
00:00:05.556,0.0138182220980525,0.0114946821704507,0.00417954428121448,0,
00:00:05.56,-0.00912875961512327,-0.0100393481552601,-0.00575173739343882,0,
00:00:05.564,-0.0129029331728816,-0.0108023192733526,0.00743943173438311,0,
00:00:05.568,0.008310179226100441,0.00266639911569655,0.000296802201773971,0,
00:00:05.572,0.000687967869453132,0.0014581204159185301,0.00468895398080349,0,
00:00:05.576,0.00211932975798845,0.0117034921422601,-0.00304553378373384,0,
00:00:05.58,0.00504808034747839,0.00403878511860967,-0.009394564665853979,0,
00:00:05.584,-0.00449778605252504,-0.00626517971977592,-0.0017016975907608901,0,
00:00:05.588,-0.0044883880764246,-0.00923108588904142,0.000437734794104472,0,
00:00:05.592,-0.0013908491237089,-0.00575080839917064,0.00953585095703602,0,
00:00:05.596,0.00330943870358169,-0.000212203012779355,-4.943803287460471e-05,0,
00:00:05.6,0.00019372082897462,0.00998665392398834,-0.0108703412115574,0,
00:00:05.604,-0.0144988028332591,0.00303287780843675,0.0122130326926708,0,
00:00:05.608,0.0266867987811565,0.0174714103341103,-0.00192357518244535,0,
00:00:05.612,0.0105080604553223,-0.0076228198595345,-0.00379621190950274,0,
00:00:05.616,-0.0369208827614784,-0.0322046875953674,-0.00362484832294285,0,
00:00:05.62,0.00461174640804529,0.0028582389932125802,0.00890806503593922,0,
00:00:05.624,0.0198814235627651,0.0236914101988077,-0.0006271600723266599,0,
00:00:05.628,0.00611063605174422,0.0149190863594413,-0.005497298203408721,0,
00:00:05.632,-0.032236386090517,-0.0273549854755402,-0.000582413980737329,0,
00:00:05.636,-0.0166714303195477,-0.0238352436572313,-0.00103502417914569,0,
00:00:05.64,0.0419165082275867,0.0267178565263748,0.0113400621339679,0,
00:00:05.644,0.0158109981566668,0.0254412274807692,-0.00988485570997,0,
00:00:05.648,-0.0120979407802224,-0.0059150704182684396,0.0017241733148694,0,
00:00:05.652,-0.0147578148171306,-0.0183236878365278,-0.0066172536462545395,0,
00:00:05.656,-0.00109645584598184,0.000127048973808996,0.00310303759761155,0,
00:00:05.66,-0.0011436187196523,-0.00303067197091877,0.00251249806024134,0,
00:00:05.664,0.000101713514595758,-0.007545618340373041,0.00025415321579203,0,
00:00:05.668,-0.00490306131541729,0.0030166259966790698,0.0178744494915009,0,
00:00:05.672,-0.000602272397372872,0.00938548520207405,-0.0079640531912446,0,
00:00:05.676,0.0267088953405619,0.0164674110710621,-0.0244570635259151,0,
00:00:05.68,7.53803469706327e-05,0.00734497094526887,0.00343193183653057,0,
00:00:05.684,-0.0384843610227108,-0.0623079761862755,0.00612546829506755,0,
00:00:05.688,0.00428081164136529,0.0137184849008918,0.0171999428421259,0,
00:00:05.692,0.0263719540089369,0.0405725985765457,-0.0054319789633154895,0,
00:00:05.696,0.0118626523762941,0.0122743137180805,0.0009752645855769519,0,
00:00:05.7,-0.007551845628768209,-0.0161142814904451,-0.00648311339318752,0,
00:00:05.704,-0.0276257563382387,-0.0236001238226891,-0.0091366246342659,0,
00:00:05.708,0.0046451585367322,0.00427998229861259,0.0050823618657887,0,
00:00:05.712,0.009333513677120209,-0.00143110170029104,0.0012795195216313,0,
00:00:05.716,-0.0100577287375927,-0.0105517758056521,0.0014956392114982,0,
00:00:05.72,0.00891962181776762,0.022766349837183997,0.0121141606941819,0,
00:00:05.724,0.0123496297746897,0.0166423059999943,-0.0108206430450082,0,
00:00:05.728,-0.0023055060300976,-0.005529505200684071,-0.00403505936264992,0,
00:00:05.732,-0.0025582413654774397,-0.0103207239881158,-0.0018880125135183302,0,
00:00:05.736,-0.0111877582967281,-0.0133877182379365,0.00803307443857193,0,
00:00:05.74,-0.0112564442679286,-0.0170085318386555,-0.008785238489508629,0,
00:00:05.744,0.016607528552413,0.0198339391499758,0.0119304023683071,0,
00:00:05.748,0.0068940408527851105,0.0150948278605938,-0.0005902214907109741,0,
00:00:05.752,-0.0030422729905694697,0.00360285164788365,-0.00412883562967181,0,
00:00:05.756,-0.00445247069001198,-0.00681437132880092,-0.00310609419830143,0,
00:00:05.76,-0.00238570105284452,-0.007243595086038109,-0.0007908936822786929,0,
00:00:05.764,2.54300684900954e-05,-0.0035315942950546702,-0.0011279284954071,0,
00:00:05.768,0.00343863852322102,0.000300786748994142,0.0034869092050939803,0,
00:00:05.772,0.0036407101433724204,0.0085775526240468,0.00693437596783042,0,
00:00:05.776,-0.0109962550923228,-0.0117783276364207,-0.00752664916217327,0,
00:00:05.78,0.0025180170778185103,0.0105944275856018,-0.00870612263679504,0,
00:00:05.784,0.00497289560735226,-0.00805529672652483,0.0176017116755247,0,
00:00:05.788,0.0047686048783361894,0.0034602894447743897,0.00377219822257757,0,
00:00:05.792,-0.0042759496718645104,0.0151584148406982,-0.018057856708765,0,
00:00:05.796,-0.00775482458993793,-0.0141572589054704,0.00419398816302419,0,
00:00:05.8,0.0054456521756947,-0.00540707586333156,0.0051193218678236,0,
00:00:05.804,0.0131608452647924,0.0181005895137787,-0.007712391670793291,0,
00:00:05.808,-0.00103041925467551,-0.00340148527175188,-0.0029610625933855802,0,
00:00:05.812,-0.0231438875198364,-0.021913668140768994,0.0136682223528624,0,
00:00:05.816,0.00143451278563589,-0.00299060950055718,-0.00231795781292021,0,
00:00:05.82,-0.0047176796942949295,0.00220423634164035,-0.004238171968609089,0,
00:00:05.824,0.0216157454997301,0.0306890271604061,0.00252065109089017,0,
00:00:05.828,0.011469405144453002,0.00537887634709477,-0.00517487060278654,0,
00:00:05.832,-0.0160463396459818,-0.018476702272892,0.000428456376539543,0,
00:00:05.836,-0.0032466959673911303,-0.0011986753670498698,0.0108632147312164,0,
00:00:05.84,-0.00625711213797331,-0.0139248976483941,0.00047584404819645,0,
00:00:05.844,0.00815800298005342,0.00418596575036645,-0.00763742672279477,0,
00:00:05.848,0.0008225819328799839,0.000428062689024955,-0.00807747431099415,0,
00:00:05.852,-0.00327814975753427,0.0011116543319076302,-0.0035375119186937796,0,
00:00:05.856,0.00105290429200977,0.00659761531278491,0.0015922675374895302,0,
00:00:05.86,-0.000539337168447673,0.00917503610253334,0.0106898350641131,0,
00:00:05.864,0.00258584646508098,0.00122880050912499,0.0048054656945169,0,
00:00:05.868,0.00962146278470755,-0.00106240750756115,0.00432146247476339,0,
00:00:05.872,-0.01467558555305,-0.0209628604352474,-0.00637455191463232,0,
00:00:05.876,-0.006247959565371271,-0.0059419465251267,-0.00205822451971471,0,
00:00:05.88,0.0110398065298796,0.021293006837368,-0.0021816804073751,0,
00:00:05.884,0.0089168818667531,0.0030097379349172102,-0.0041591124609112705,0,
00:00:05.888,-0.007099604234099391,0.00242320355027914,-0.00527234980836511,0,
00:00:05.892,-0.0111261587589979,-0.0163491535931826,0.00787901319563389,0,
00:00:05.896,0.00203571817837656,-0.00103744631633162,0.00212510023266077,0,
00:00:05.9,0.0137812001630664,0.00872842594981194,-0.00128135294653475,0,
00:00:05.904,-0.0144273871555924,-0.0099275428801775,0.008623545989394191,0,
00:00:05.908,-0.0062099182978272395,-0.0018578135641291699,0.00404341705143452,0,
00:00:05.912,0.018139349296689,0.0235207341611385,-0.008882625959813591,0,
00:00:05.916,0.0168085880577564,0.013623459264636003,-0.0104229785501957,0,
00:00:05.92,-0.00401302520185709,-0.0114087304100394,-0.00296230637468398,0,
00:00:05.924,-0.0262431818991899,-0.0360402166843414,-0.000580982945393771,0,
00:00:05.928,-0.006541240029037,-0.00165847421158105,0.00973484572023153,0,
00:00:05.932,0.00467259623110294,0.0211238563060761,0.00761085469275713,0,
00:00:05.936,0.0119925076141953,0.00924865715205669,-0.0065555293112993206,0,
00:00:05.94,0.00599394459277391,9.36699070734903e-05,0.0134600400924683,0,
00:00:05.944,-0.01567118242383,-0.0104745319113135,-0.00342443305999041,0,
00:00:05.948,0.00921917427331209,0.00150843651499599,-0.0109514743089676,0,
00:00:05.952,0.00519103137776256,0.000479339068988338,-0.0109583027660847,0,
00:00:05.956,-0.0048670480027794795,0.0024503108579665396,-0.000501164933666587,0,
00:00:05.96,-0.00402602180838585,-0.00991032086312771,0.0172656625509262,0,
00:00:05.964,-0.0005866996943950651,0.00442414311692119,0.0021726789418608,0,
00:00:05.968,0.00379732507281005,0.00633560167625546,-0.007616261485964059,0,
00:00:05.972,0.00427399249747396,0.013358841650187999,0.0043515185825526706,0,
00:00:05.976,-0.00024372182087972798,-0.00652315095067024,-0.00254177232272923,0,
00:00:05.98,-0.00324680120684206,-0.0149094415828586,-0.00701180752366781,0,
00:00:05.984,-0.007509299553930759,-0.0151353031396866,0.007180845830589529,0,
00:00:05.988,0.00022329967760015298,0.0124274203553796,-0.0019234791398048399,0,
00:00:05.992,-0.000675086630508304,0.021767683327198,0.00259211845695972,0,
00:00:05.996,0.00936408992856741,0.00351786543615162,0.000863760360516608,0,
00:00:06,0.007057809736579659,-0.0190929118543863,-0.00545539055019617,0,
00:00:06.004,-0.00127130444161594,-0.00113260443322361,-0.004256854299455879,0,
00:00:06.008,-0.0185662731528282,-0.0150117743760347,0.00581401027739048,0,
00:00:06.012,-0.00441520800814033,0.00160083663649857,0.0112157873809338,0,
00:00:06.016,0.0149237904697657,0.0221766922622919,-0.0069524021819233894,0,
00:00:06.02,0.00981163699179888,0.0121995368972421,-0.0048793232999742,0,
00:00:06.024,0.0040565477684140205,0.0060560954734683,-0.0016345385229215,0,
00:00:06.028,-0.00788205116987228,-0.0157561041414738,0.000797527143731713,0,
00:00:06.032,-0.0158292260020971,-0.0222731344401836,-0.00240972056053579,0,
00:00:06.036,-0.00772233493626118,-0.00932116154581308,0.00541333062574267,0,
00:00:06.04,0.00871002767235041,0.0088032428175211,0.00183562317397445,0,
00:00:06.044,0.0103380586951971,0.0177717041224241,0.008405645377933979,0,
00:00:06.048,0.0074039027094841,0.00960213597863913,-0.0127465212717652,0,
00:00:06.052,-0.0126486551016569,-0.0194777380675077,0.00272350362502038,0,
00:00:06.056,0.0068359444849193105,0.0153605183586478,-0.0019736688118428,0,
00:00:06.06,0.0105939144268632,0.0102377347648144,0.00061858567642048,0,
00:00:06.064,-0.0121404882520437,-0.0134455375373363,-0.00166726764291525,0,
00:00:06.068,-0.0145323574542999,-0.0193592794239521,-0.000230095611186698,0,
00:00:06.072,0.00620845053344965,-0.00267658405937254,0.0012675435282289997,0,
00:00:06.076,0.00783083029091358,0.0162287261337042,0.0037100040353834603,0,
00:00:06.08,0.00521286809816957,0.00818933825939894,0.00115296128205955,0,
00:00:06.084,-0.0115037877112627,-0.00643251975998282,-0.0138281369581819,0,
00:00:06.088,0.00120525411330163,-0.000678428157698363,0.0138025498017669,0,
00:00:06.092,0.00802191719412804,-0.0018779494566842898,0.00433640880510211,0,
00:00:06.096,0.0024489967618137602,0.0141248786821961,-0.00467659346759319,0,
00:00:06.1,-0.00937605369836092,-0.0108830593526363,-0.0111730201169848,0,
00:00:06.104,-0.00514374999329448,-0.0102480323985219,0.00805977452546358,0,
00:00:06.108,0.0013647727901116,-0.00833061523735523,-0.000354743446223438,0,
00:00:06.112,0.00876215379685164,0.0018138743471354198,0.00121192564256489,0,
00:00:06.116,0.00226580211892724,0.0207764767110348,0.0026103057898581,0,
00:00:06.12,0.00062733399681747,0.019518468528986,-0.00029983217245899103,0,
00:00:06.124,-0.0128181893378496,-0.0186016391962767,-0.0106541672721505,0,
00:00:06.128,0.0105709582567215,-0.0102919051423669,0.0075962441042065594,0,
00:00:06.132,-0.000212814265978523,0.0008051554323174059,-0.00275956536643207,0,
00:00:06.136,-0.0113354213535786,-0.0110505726188421,-0.00303073949180543,0,
00:00:06.14,0.0120409475639462,0.00764185655862093,0.0228271707892418,0,
00:00:06.144,0.0066194892860949,0.019309539347887,-0.008940275758504871,0,
00:00:06.148,-0.0195345617830753,-0.0164860114455223,-0.0166968069970608,0,
00:00:06.152,0.00852651614695787,0.00244972272776067,-0.0015513814287260199,0,
00:00:06.156,0.0009918839205056429,0.00589259341359138,0.0030425121076405,0,
00:00:06.16,-0.00699494872242212,-0.009959295392036441,0.0117330504581332,0,
00:00:06.164,0.00761901680380106,0.00189510500058532,0.00280881114304066,0,
00:00:06.168,0.00323390564881265,0.00160347216296941,-0.007044000085443259,0,
00:00:06.172,0.007745779585093259,0.014059254899621001,-0.000443454715423286,0,
00:00:06.176,-0.00604080082848668,-0.000421010714489967,-0.00596414180472493,0,
00:00:06.18,-0.0271887350827456,-0.0340545810759068,0.0014004763215780302,0,
00:00:06.184,0.00881029665470123,0.00615673419088125,0.012358202598988998,0,
00:00:06.188,0.0187848806381226,0.0191816389560699,-0.00263088545762002,0,
00:00:06.192,0.0100771971046925,0.0034377397969365103,-0.0096628637984395,0,
00:00:06.196,-0.0159365627914667,-0.0023787741083651803,0.0007646428421139719,0,
00:00:06.2,-0.0127571588382125,-0.007385389413684609,0.00322268810123205,0,
00:00:06.204,0.0127827906981111,0.008098990656435491,0.00835775583982468,0,
