Elapsed_Time,EMG
00:00:00,0.006008148
00:00.0,0.005985260000000001
00:00.0,0.005887985
00:00.0,0.005922318
00:00.0,0.006093978999999999
00:00.0,0.006053924999999999
00:00.0,0.005979538
00:00.0,0.005922317000000001
00:00.0,0.006002427
00:00.0,0.006013871
00:00.0,0.006002427
00:00.0,0.005996705
00:00.0,0.005973816
00:00.1,0.005962372
00:00.1,0.006048203
00:00.1,0.005968094
00:00.1,0.005945206000000001
00:00.1,0.0059795379999999995
00:00.1,0.006019592
00:00.1,0.005945204999999999
00:00.1,0.005996703999999999
00:00.1,0.005996704
00:00.1,0.005985260000000001
00:00.1,0.006002426
00:00.1,0.006025313999999999
00:00.1,0.006036759
00:00.1,0.0060310369999999995
00:00.1,0.005950928
00:00.1,0.005985261
00:00.1,0.0060138710000000005
00:00.1,0.006088257
00:00.1,0.006048203
00:00.1,0.005985260000000001
00:00.1,0.005956650000000001
00:00.1,0.006002425999999999
00:00.1,0.006025314
00:00.1,0.006031037
00:00.1,0.006082535
00:00.2,0.005933762
00:00.2,0.005973817
00:00.2,0.005985261
00:00.2,0.005962372
00:00.2,0.0059795379999999995
00:00.2,0.005985261
00:00.2,0.00595665
00:00.2,0.005968093999999999
00:00.2,0.00604248
00:00.2,0.006059647
00:00.2,0.006065369
00:00.2,0.006053924
00:00.2,0.00598526
00:00.2,0.005990983
00:00.2,0.005996704
00:00.2,0.006019592
00:00.2,0.005979538
00:00.2,0.005979538999999999
00:00.2,0.006019592999999999
00:00.2,0.006042481000000001
00:00.2,0.006059646000000001
00:00.2,0.006128311000000001
00:00.2,0.006036758
00:00.2,0.005905151
00:00.2,0.005916595
00:00.3,0.005945206
00:00.3,0.0060081480000000005
00:00.3,0.0060310369999999995
00:00.3,0.006036759
00:00.3,0.006019591
00:00.3,0.005950927
00:00.3,0.006082535
00:00.3,0.006025315
00:00.3,0.006031036
00:00.3,0.006076812
00:00.3,0.006065368
00:00.3,0.006128311000000001
00:00.3,0.006162641999999999
00:00.3,0.006048202000000001
00:00.3,0.005950928
00:00.3,0.005968094
00:00.3,0.006013871
00:00.3,0.006031036
00:00.3,0.006019592999999999
00:00.3,0.005996704
00:00.3,0.006025314
00:00.3,0.005956650000000001
00:00.3,0.005968093999999999
00:00.3,0.006008149
00:00.3,0.006059646
00:00.4,0.006053924
00:00.4,0.006025315
00:00.4,0.006071091
00:00.4,0.00598526
00:00.4,0.005979539000000001
00:00.4,0.006076812
00:00.4,0.006071091
00:00.4,0.006025315
00:00.4,0.00598526
00:00.4,0.006042481000000001
00:00.4,0.006059646
00:00.4,0.00604248
00:00.4,0.006025314
00:00.4,0.006076812
00:00.4,0.006093979
00:00.4,0.006048202
00:00.4,0.005945206
00:00.4,0.006002426
00:00.4,0.006042481000000001
00:00.4,0.006122589
00:00.4,0.006099701
00:00.4,0.005996703999999999
00:00.4,0.0060310369999999995
00:00.4,0.005996705000000001
00:00.4,0.006031037
00:00.5,0.006065368000000001
00:00.5,0.00601387
00:00.5,0.006059646000000001
00:00.5,0.006065368
00:00.5,0.006122589
00:00.5,0.006053924999999999
00:00.5,0.006042481
00:00.5,0.0059738149999999995
00:00.5,0.006013870000000001
00:00.5,0.00604248
00:00.5,0.0060138710000000005
00:00.5,0.006053925
00:00.5,0.006116867000000001
00:00.5,0.006065369
00:00.5,0.006036758000000001
00:00.5,0.006099700999999999
00:00.5,0.005996704
00:00.5,0.005945204999999999
00:00.5,0.0060253139999999995
00:00.5,0.006036759
00:00.5,0.006048202
00:00.5,0.006093979
00:00.5,0.006065368999999999
00:00.5,0.006013871
00:00.5,0.005996703000000001
00:00.6,0.006065369
00:00.6,0.0061340330000000005
00:00.6,0.006065368000000001
00:00.6,0.006031036000000001
00:00.6,0.00601387
00:00.6,0.006008148
00:00.6,0.005990981000000001
00:00.6,0.0059108730000000005
00:00.6,0.006151199999999999
00:00.6,0.006053924
00:00.6,0.006053925000000001
00:00.6,0.0061798090000000005
00:00.6,0.006053925
00:00.6,0.006002427
00:00.6,0.0060081480000000005
00:00.6,0.006013871
00:00.6,0.006036759000000001
00:00.6,0.006042480000000001
00:00.6,0.005996703999999999
00:00.6,0.006076813
00:00.6,0.006076813
00:00.6,0.006019592
00:00.6,0.006031036000000001
00:00.6,0.006088257
00:00.6,0.006162644
00:00.7,0.006139755
00:00.7,0.006048202999999999
00:00.7,0.005968093999999999
00:00.7,0.005990982000000001
00:00.7,0.005996703000000001
00:00.7,0.006008148
00:00.7,0.006053925
00:00.7,0.006053924
00:00.7,0.006065369
00:00.7,0.006002426
00:00.7,0.005968094
00:00.7,0.006019592
00:00.7,0.0061054230000000004
00:00.7,0.006139755
00:00.7,0.00623703
00:00.7,0.0060882570000000006
00:00.7,0.0058822629999999996
00:00.7,0.005945205
00:00.7,0.0060081480000000005
00:00.7,0.006053925000000001
00:00.7,0.0060768129999999995
00:00.7,0.006093979
00:00.7,0.006042481000000001
00:00.7,0.005996705
00:00.7,0.006019593
00:00.8,0.006042480000000001
00:00.8,0.00617981
00:00.8,0.006168365
00:00.8,0.00601387
00:00.8,0.005996703999999999
00:00.8,0.006088257999999999
00:00.8,0.006082535
00:00.8,0.0060882570000000006
00:00.8,0.0060310369999999995
00:00.8,0.005962371
00:00.8,0.006025314
00:00.8,0.006099701
00:00.8,0.006088257
00:00.8,0.0060539240000000005
00:00.8,0.006019593
00:00.8,0.006048203
00:00.8,0.006065369
00:00.8,0.005979537
00:00.8,0.005990982000000001
00:00.8,0.006019592
00:00.8,0.006088257
00:00.8,0.006111145
00:00.8,0.0060768129999999995
00:00.8,0.006053925
00:00.8,0.006031037
00:00.9,0.006008149
00:00.9,0.006036759
00:00.9,0.006168365
00:00.9,0.006162643
00:00.9,0.006031037
00:00.9,0.005945205
00:00.9,0.006008148
00:00.9,0.006053924
00:00.9,0.006122589
00:00.9,0.006099702
00:00.9,0.006036758
00:00.9,0.006088257
00:00.9,0.006099701
00:00.9,0.006002426
00:00.9,0.006053925
00:00.9,0.006019593
00:00.9,0.005973815
00:00.9,0.005973815
00:00.9,0.006099701
00:00.9,0.006179809
00:00.9,0.006071091
00:00.9,0.005933760999999999
00:00.9,0.00604248
00:00.9,0.006048203
00:00.9,0.006076813
00:01.0,0.006111145
00:01.0,0.006088257
00:01.0,0.006093979
00:01.0,0.006116867000000001
00:01.0,0.00604248
00:01.0,0.006048202
00:01.0,0.006048203
00:01.0,0.006099701
00:01.0,0.006065368
00:01.0,0.006002426
00:01.0,0.006053924999999999
00:01.0,0.006025314000000001
00:00:01,0.006185531999999999
00:01.0,0.006174087000000001
00:01.0,0.006065369
00:01.0,0.006002426
00:01.0,0.006002426
00:01.0,0.006013870000000001
00:01.0,0.0060882570000000006
00:01.0,0.006088257
00:01.0,0.0061054230000000004
00:01.0,0.006013869999999999
00:01.0,0.006013871
00:01.0,0.006082535
00:01.0,0.006134032999999999
00:01.1,0.0061225889999999995
00:01.1,0.006105423
00:01.1,0.006059647
00:01.1,0.006053924
00:01.1,0.006059646
00:01.1,0.006048202000000001
00:01.1,0.006065368999999999
00:01.1,0.006076813
00:01.1,0.006116867
00:01.1,0.006059646
00:01.1,0.006071091
00:01.1,0.006065369
00:01.1,0.006071091000000001
00:01.1,0.006071090999999999
00:01.1,0.006036758000000001
00:01.1,0.0060081480000000005
00:01.1,0.006042481
00:01.1,0.006099701
00:01.1,0.006071091
00:01.1,0.006116867000000001
00:01.1,0.006031036
00:01.1,0.006076813
00:01.1,0.006082534999999999
00:01.1,0.006002426
00:01.1,0.006019592
00:01.2,0.006128311
00:01.2,0.0060539240000000005
00:01.2,0.006065369
00:01.2,0.006093979
00:01.2,0.006093979
00:01.2,0.0061225889999999995
00:01.2,0.006076811999999999
00:01.2,0.006048202
00:01.2,0.006065368
00:01.2,0.006048202
00:01.2,0.006042480000000001
00:01.2,0.0061225889999999995
00:01.2,0.006214140999999999
00:01.2,0.006134034
00:01.2,0.005950928
00:01.2,0.006059645999999999
00:01.2,0.006076812
00:01.2,0.006065368
00:01.2,0.006134033
00:01.2,0.006111145
00:01.2,0.00604248
00:01.2,0.00601387
00:01.2,0.006076812
00:01.2,0.006145478
00:01.2,0.006168365
00:01.3,0.006093980000000001
00:01.3,0.005973816
00:01.3,0.006048202
00:01.3,0.006093979
00:01.3,0.006088257
00:01.3,0.006139756
00:01.3,0.006093979
00:01.3,0.006099701000000001
00:01.3,0.006059646000000001
00:01.3,0.006082534
00:01.3,0.006088258
00:01.3,0.00612259
00:01.3,0.006116868000000001
00:01.3,0.006019592
00:01.3,0.006031036000000001
00:01.3,0.0061397560000000006
00:01.3,0.006099700999999999
00:01.3,0.005996704
00:01.3,0.00617981
00:01.3,0.006174088
00:01.3,0.0060882570000000006
00:01.3,0.006048202
00:01.3,0.006053924
00:01.3,0.006116867
00:01.3,0.006093978999999999
00:01.4,0.00604248
00:01.4,0.006071091
00:01.4,0.006076812
00:01.4,0.006168366000000001
00:01.4,0.006191253999999999
00:01.4,0.00612259
00:01.4,0.006093979
00:01.4,0.006048202
00:01.4,0.006093979
00:01.4,0.006156922
00:01.4,0.006048202000000001
00:01.4,0.006036758
00:01.4,0.006082535
00:01.4,0.006139756
00:01.4,0.006065368
00:01.4,0.006134032999999999
00:01.4,0.0061225889999999995
00:01.4,0.006116867999999999
00:01.4,0.006122590000000001
00:01.4,0.006111146
00:01.4,0.006059647
00:01.4,0.006099701
00:01.4,0.006116867000000001
00:01.4,0.006151199
00:01.4,0.006093978
00:01.5,0.006088257
00:01.5,0.006065368
00:01.5,0.006088258
00:01.5,0.006134033999999999
00:01.5,0.006082535
00:01.5,0.0060768129999999995
00:01.5,0.006134034
00:01.5,0.006082534999999999
00:01.5,0.0061855320000000005
00:01.5,0.006134034
00:01.5,0.006093977999999999
00:01.5,0.006082535
00:01.5,0.006111145
00:01.5,0.006162644
00:01.5,0.006111145
00:01.5,0.006128311
00:01.5,0.006059646
00:01.5,0.006042479999999999
00:01.5,0.006128311
00:01.5,0.006145477999999999
00:01.5,0.006111145
00:01.5,0.006111146
00:01.5,0.006059646
00:01.5,0.006105423
00:01.5,0.006099702
00:01.6,0.00612259
00:01.6,0.006122589
00:01.6,0.0061740879999999995
00:01.6,0.006122589
00:01.6,0.006031036
00:01.6,0.006105422
00:01.6,0.006065368
00:01.6,0.006088257
00:01.6,0.006174088
00:01.6,0.00617981
00:01.6,0.006048201999999999
00:01.6,0.006116867000000001
00:01.6,0.0062026979999999995
00:01.6,0.006145478
00:01.6,0.006008148
00:01.6,0.006076813
00:01.6,0.006139756
00:01.6,0.006196976
00:01.6,0.006093979
00:01.6,0.006048201999999999
00:01.6,0.006093979
00:01.6,0.006134034
00:01.6,0.006134034
00:01.6,0.006082534999999999
00:01.6,0.006093979
00:01.7,0.006162643999999999
00:01.7,0.006111145
00:01.7,0.006088257
00:01.7,0.006042481000000001
00:01.7,0.006134033999999999
00:01.7,0.006162644
00:01.7,0.0061225889999999995
00:01.7,0.00612259
00:01.7,0.006156922
00:01.7,0.006134034
00:01.7,0.006088257
00:01.7,0.006088256
00:01.7,0.006134034000000001
00:01.7,0.006162643999999999
00:01.7,0.006031036
00:01.7,0.006116867
00:01.7,0.006122589
00:01.7,0.0060882570000000006
00:01.7,0.006196976
00:01.7,0.006202697
00:01.7,0.006145477
00:01.7,0.006116867000000001
00:01.7,0.006065369
00:01.7,0.006099701
00:01.7,0.006088257
00:01.8,0.006031036
00:01.8,0.0061054230000000004
00:01.8,0.0061454779999999985
00:01.8,0.006237031
00:01.8,0.006214141
00:01.8,0.0060825340000000006
00:01.8,0.006065369
00:01.8,0.0060596470000000005
00:01.8,0.006071091
00:01.8,0.006082535
00:01.8,0.0061855320000000005
00:01.8,0.0061397560000000006
00:01.8,0.006105423
00:01.8,0.0061283119999999995
00:01.8,0.006128310999999999
00:01.8,0.006191254
00:01.8,0.006145478
00:01.8,0.006065369
00:01.8,0.006082535
00:01.8,0.006122590000000001
00:01.8,0.006088257
00:01.8,0.0061340330000000005
00:01.8,0.006099701
00:01.8,0.006128312
00:01.8,0.0061569220000000004
00:01.9,0.0061569220000000004
00:01.9,0.006099701
00:01.9,0.006076813
00:01.9,0.006134033
00:01.9,0.0060825340000000006
00:01.9,0.006093978
00:01.9,0.006162644
00:01.9,0.0061740879999999995
00:01.9,0.006191253999999999
00:01.9,0.006116867000000001
00:01.9,0.006053925
00:01.9,0.006025315
00:01.9,0.0060825340000000006
00:01.9,0.006134033
00:01.9,0.006151200000000001
00:01.9,0.0061740879999999995
00:01.9,0.0062026979999999995
00:01.9,0.006168366000000001
00:01.9,0.006202697000000001
00:01.9,0.006242752
00:01.9,0.006111145000000001
00:01.9,0.006093978
00:01.9,0.0061054230000000004
00:01.9,0.006116867
00:01.9,0.006156920000000001
00:02.0,0.006122589
00:02.0,0.006076812
00:02.0,0.006116867
00:02.0,0.006145476999999999
00:02.0,0.006162643
00:02.0,0.006145477
00:02.0,0.006128310999999999
00:02.0,0.006116867
00:02.0,0.006168365
00:02.0,0.006225586
00:02.0,0.006185530999999999
00:02.0,0.006059647
00:00:02,0.006059647
00:02.0,0.006145477
00:02.0,0.0060825340000000006
00:02.0,0.006128311
00:02.0,0.0062084209999999996
00:02.0,0.006231308999999999
00:02.0,0.006145478
00:02.0,0.0061454759999999995
00:02.0,0.0061340330000000005
00:02.0,0.0060882570000000006
00:02.0,0.006139755
00:02.0,0.006168366
00:02.0,0.006162643000000001
00:02.1,0.0061340330000000005
00:02.1,0.006139754999999999
00:02.1,0.0061168659999999994
00:02.1,0.0061340330000000005
00:02.1,0.0061855320000000005
00:02.1,0.006225586000000001
00:02.1,0.006162643000000001
00:02.1,0.006116867000000001
00:02.1,0.006145477
00:02.1,0.006088256
00:02.1,0.006156920999999999
00:02.1,0.00620842
00:02.1,0.006151199
00:02.1,0.006156921000000001
00:02.1,0.006151199
00:02.1,0.006116867
00:02.1,0.006174087
00:02.1,0.006191254
00:02.1,0.006174087
00:02.1,0.006168366
00:02.1,0.006082535
00:02.1,0.006093979
00:02.1,0.006116867000000001
00:02.1,0.006185532
00:02.1,0.006174088
00:02.2,0.006162643
00:02.2,0.006168365
00:02.2,0.00617981
00:02.2,0.006185531
00:02.2,0.00617981
00:02.2,0.006162643
00:02.2,0.006105422000000001
00:02.2,0.006219863999999999
00:02.2,0.006202698
00:02.2,0.0061512
00:02.2,0.006156921
00:02.2,0.006128311
00:02.2,0.00617981
00:02.2,0.006242753
00:02.2,0.006174088000000001
00:02.2,0.006179809
00:02.2,0.006214142000000001
00:02.2,0.006116867
00:02.2,0.006093979000000001
00:02.2,0.006116867000000001
00:02.2,0.006225586
00:02.2,0.006254197
00:02.2,0.006179809999999999
00:02.2,0.006122589000000001
00:02.2,0.006139755
00:02.3,0.006185531
00:02.3,0.006214142
00:02.3,0.006191255
00:02.3,0.006214143
00:02.3,0.006111144999999999
00:02.3,0.006174087
00:02.3,0.006191254
00:02.3,0.00620842
00:02.3,0.006271363
00:02.3,0.006145477
00:02.3,0.006111145
00:02.3,0.006116867
00:02.3,0.006168366000000001
00:02.3,0.006174087000000001
00:02.3,0.0061454759999999995
00:02.3,0.006145477
00:02.3,0.006259919
00:02.3,0.0062370310000000005
00:02.3,0.0062026979999999995
00:02.3,0.006162644
00:02.3,0.006225587
00:02.3,0.0062084209999999996
00:02.3,0.0062370310000000005
00:02.3,0.0061511989999999996
00:02.3,0.006162643000000001
00:02.4,0.006191253
00:02.4,0.006225587
00:02.4,0.006242753
00:02.4,0.0061798090000000005
00:02.4,0.00620842
00:02.4,0.0061340330000000005
00:02.4,0.006196976000000001
00:02.4,0.006242753000000001
00:02.4,0.0061798090000000005
00:02.4,0.006214142999999999
00:02.4,0.006145477
00:02.4,0.0062026979999999995
00:02.4,0.006254197
00:02.4,0.006196976
00:02.4,0.006168366
00:02.4,0.0061740879999999995
00:02.4,0.006191254
00:02.4,0.006237030000000001
00:02.4,0.006219864
00:02.4,0.006259919
00:02.4,0.006196976000000001
00:02.4,0.006071091
00:02.4,0.0061683649999999994
00:02.4,0.006237031
00:02.4,0.006254196000000001
00:02.5,0.006254197
00:02.5,0.006191253999999999
00:02.5,0.006259918
00:02.5,0.006277085000000001
00:02.5,0.006259919
00:02.5,0.006225586000000001
00:02.5,0.006259918000000001
00:02.5,0.006277085
00:02.5,0.00617981
00:02.5,0.006168366000000001
00:02.5,0.006168366
00:02.5,0.006196976
00:02.5,0.00620842
00:02.5,0.006214142
00:02.5,0.006196976000000001
00:02.5,0.00620842
00:02.5,0.0062026979999999995
00:02.5,0.006202698
00:02.5,0.006185532
00:02.5,0.006248475000000001
00:02.5,0.0062084209999999996
00:02.5,0.0061855320000000005
00:02.5,0.006242752
00:02.5,0.0062484739999999995
00:02.5,0.0062999729999999995
00:02.6,0.006294251000000001
00:02.6,0.006259919000000001
00:02.6,0.006139755
00:02.6,0.00617981
00:02.6,0.006282806
00:02.6,0.006259919
00:02.6,0.006259919
00:02.6,0.006265640999999999
00:02.6,0.0062026979999999995
00:02.6,0.006191253999999999
00:02.6,0.006231308
00:02.6,0.006219864
00:02.6,0.006219864
00:02.6,0.006294251
00:02.6,0.006322861
00:02.6,0.006185530999999999
00:02.6,0.006128311
00:02.6,0.006156922
00:02.6,0.006208420000000001
00:02.6,0.006237029999999999
00:02.6,0.00623703
00:02.6,0.006248475
00:02.6,0.006299973
00:02.6,0.006248475
00:02.6,0.006225586000000001
00:02.7,0.0062313080000000005
00:02.7,0.006259919
00:02.7,0.006277085
00:02.7,0.006214142000000001
00:02.7,0.006196976
00:02.7,0.006225586000000001
00:02.7,0.006265639999999999
00:02.7,0.006191254
00:02.7,0.006282807
00:02.7,0.006305695
00:02.7,0.006317138999999999
00:02.7,0.006185532
00:02.7,0.006196975
00:02.7,0.006214142
00:02.7,0.006225586
00:02.7,0.006265639999999999
00:02.7,0.006294251000000001
00:02.7,0.006305694
00:02.7,0.0061855320000000005
00:02.7,0.0061512
00:02.7,0.006294251
00:02.7,0.006334305
00:02.7,0.006311417
00:02.7,0.006271363
00:02.7,0.006196975
00:02.8,0.006271362
00:02.8,0.006282805999999999
00:02.8,0.0063457489999999995
00:02.8,0.006254196
00:02.8,0.006214142
00:02.8,0.006174088
00:02.8,0.00626564
00:02.8,0.006305695
00:02.8,0.0062770840000000005
00:02.8,0.006242752
00:02.8,0.0062484739999999995
00:02.8,0.006259918
00:02.8,0.006254196
00:02.8,0.006271362999999999
00:02.8,0.006259918
00:02.8,0.006248474
00:02.8,0.006254197
00:02.8,0.006254196
00:02.8,0.006317138999999999
00:02.8,0.006322861000000001
00:02.8,0.006322860999999999
00:02.8,0.006299972
00:02.8,0.006282805999999999
00:02.8,0.006231308
00:02.8,0.0062484739999999995
00:02.9,0.00626564
00:02.9,0.006322861
00:02.9,0.006340027
00:02.9,0.006225586
00:02.9,0.0062313080000000005
00:02.9,0.006305694999999999
00:02.9,0.006374359
00:02.9,0.006317139
00:02.9,0.00623703
00:02.9,0.006231308
00:02.9,0.006196976
00:02.9,0.006305695
00:02.9,0.006368638
00:02.9,0.006362916
00:02.9,0.00620842
00:02.9,0.00623703
00:02.9,0.006294251000000001
00:02.9,0.006288527999999999
00:02.9,0.006282806
00:02.9,0.006282806000000001
00:02.9,0.006317138999999999
00:02.9,0.006259918000000001
00:02.9,0.006259919
00:02.9,0.006322861000000001
00:02.9,0.006282805999999999
00:03.0,0.006282806
00:03.0,0.006305695
00:03.0,0.0063285830000000005
00:03.0,0.0062942499999999995
00:03.0,0.006248474
00:03.0,0.006288528
00:03.0,0.006317138999999999
00:03.0,0.006340027
00:03.0,0.0062942499999999995
00:03.0,0.006271362
00:03.0,0.00623703
00:03.0,0.006288528
00:00:03,0.006305694
00:03.0,0.00629425
00:03.0,0.006311417
00:03.0,0.006334305
00:03.0,0.006259918
00:03.0,0.006242752
00:03.0,0.00623703
00:03.0,0.00620842
00:03.0,0.0062484739999999995
00:03.0,0.006368637
00:03.0,0.006345749
00:03.0,0.0062484739999999995
00:03.0,0.006317138
00:03.1,0.006282806
00:03.1,0.006271362
00:03.1,0.006317139
00:03.1,0.006305694999999999
00:03.1,0.006248473
00:03.1,0.006248474
00:03.1,0.006305694
00:03.1,0.0063571930000000006
00:03.1,0.006288528
00:03.1,0.006288528000000001
00:03.1,0.006357193
00:03.1,0.006362916000000001
00:03.1,0.00632286
00:03.1,0.006248474
00:03.1,0.006271362
00:03.1,0.006288528000000001
00:03.1,0.006345749
00:03.1,0.006311415999999999
00:03.1,0.006271362
00:03.1,0.006271362000000001
00:03.1,0.006265639999999999
00:03.1,0.006271361999999999
00:03.1,0.00635147
00:03.1,0.006357193
00:03.1,0.0063457489999999995
00:03.2,0.00640297
00:03.2,0.006271361999999999
00:03.2,0.006208420000000001
00:03.2,0.006214142000000001
00:03.2,0.006248474
00:03.2,0.006299972
00:03.2,0.006294251000000001
00:03.2,0.006305694999999999
00:03.2,0.00634575
00:03.2,0.00637436
00:03.2,0.006277084
00:03.2,0.006328582
00:03.2,0.006277084
00:03.2,0.006299971999999999
00:03.2,0.006311415999999999
00:03.2,0.006288528
00:03.2,0.006271361999999999
00:03.2,0.006305695
00:03.2,0.006282805999999999
00:03.2,0.006191254
00:03.2,0.00623703
00:03.2,0.006362915
00:03.2,0.0063743590000000004
00:03.2,0.006305694
00:03.2,0.006305695000000001
00:03.3,0.006305694
00:03.3,0.006277084
00:03.3,0.006311417000000001
00:03.3,0.006282805999999999
00:03.3,0.006254196
00:03.3,0.00623703
00:03.3,0.00626564
00:03.3,0.0062770840000000005
00:03.3,0.006282805999999999
00:03.3,0.006288528999999999
00:03.3,0.006259918000000001
00:03.3,0.0062942499999999995
00:03.3,0.0062484739999999995
00:03.3,0.0062313080000000005
00:03.3,0.00626564
00:03.3,0.006299972
00:03.3,0.006288528
00:03.3,0.006299972
00:03.3,0.006254196
00:03.3,0.006254196000000001
00:03.3,0.006208420000000001
00:03.3,0.006168366000000001
00:03.3,0.006282806
00:03.3,0.006340027000000001
00:03.3,0.0062313080000000005
00:03.4,0.006191254000000001
00:03.4,0.006231306999999999
00:03.4,0.006242752
00:03.4,0.006242752
00:03.4,0.006259918
00:03.4,0.006237030000000001
00:03.4,0.006191254
00:03.4,0.0062427509999999995
00:03.4,0.00632286
00:03.4,0.0062427509999999995
00:03.4,0.006271362
00:03.4,0.006277084
00:03.4,0.006265639999999999
00:03.4,0.006162644
00:03.4,0.006145478
00:03.4,0.0061340330000000005
00:03.4,0.006128311
00:03.4,0.006231308
00:03.4,0.0062770840000000005
00:03.4,0.006305694999999999
00:03.4,0.006225586
00:03.4,0.006214141
00:03.4,0.006242752
00:03.4,0.006191253
00:03.4,0.006162644
00:03.5,0.006099701
00:03.5,0.006168366
00:03.5,0.006225586
00:03.5,0.006259917
00:03.5,0.006254196
00:03.5,0.0061798090000000005
00:03.5,0.006196975
00:03.5,0.006259918
00:03.5,0.006202697
00:03.5,0.006156920999999999
00:03.5,0.006128311
00:03.5,0.006168366
00:03.5,0.006145477000000001
00:03.5,0.006185531
00:03.5,0.006225585
00:03.5,0.006242752000000001
00:03.5,0.006139754999999999
00:03.5,0.006208419
00:03.5,0.0061111460000000005
00:03.5,0.006145476999999999
00:03.5,0.006145477
00:03.5,0.0061054230000000004
00:03.5,0.006111145000000001
00:03.5,0.006156921
00:03.5,0.006174087
00:03.6,0.006156921
00:03.6,0.006208419
00:03.6,0.006231307
00:03.6,0.006225586
00:03.6,0.0061340330000000005
00:03.6,0.006088257
00:03.6,0.0061054230000000004
00:03.6,0.0061340330000000005
00:03.6,0.006134033
00:03.6,0.006139755
00:03.6,0.00620842
00:03.6,0.0061855320000000005
00:03.6,0.006082535000000001
00:03.6,0.006093979000000001
00:03.6,0.006065369
00:03.6,0.0061054230000000004
00:03.6,0.006111145
00:03.6,0.0061340330000000005
00:03.6,0.006093978
00:03.6,0.006088257
00:03.6,0.0061511989999999996
00:03.6,0.006185530999999999
00:03.6,0.006128311000000001
00:03.6,0.006145477
00:03.6,0.006099700999999999
00:03.7,0.006134033
00:03.7,0.006134033
00:03.7,0.006093979
00:03.7,0.006139754999999999
00:03.7,0.006196976
00:03.7,0.006145477
00:03.7,0.0060310369999999995
00:03.7,0.006076813000000001
00:03.7,0.006042481000000001
00:03.7,0.006088257
00:03.7,0.006168366
00:03.7,0.006099701
00:03.7,0.006128312
00:03.7,0.006105423
00:03.7,0.006082535000000001
00:03.7,0.006116867000000001
00:03.7,0.0061225889999999995
00:03.7,0.006099701
00:03.7,0.006088257
00:03.7,0.006071090999999999
00:03.7,0.0061054230000000004
00:03.7,0.006168364999999999
00:03.7,0.006122589000000001
00:03.7,0.006042481
00:03.7,0.006025315000000001
00:03.8,0.006076813
00:03.8,0.006139755
00:03.8,0.0061225889999999995
00:03.8,0.006111145
00:03.8,0.0060710899999999995
00:03.8,0.006048202
00:03.8,0.0061054230000000004
00:03.8,0.006088257
00:03.8,0.006053924
00:03.8,0.006065368
00:03.8,0.006065369
00:03.8,0.006111145
00:03.8,0.006116867
00:03.8,0.006053925
00:03.8,0.006053925
00:03.8,0.0061283100000000005
00:03.8,0.006134033
00:03.8,0.006048203
00:03.8,0.005996704
00:03.8,0.006036758000000001
00:03.8,0.006082535
00:03.8,0.006168365
00:03.8,0.0061225889999999995
00:03.8,0.006065368
00:03.8,0.00604248
00:03.9,0.006059646
00:03.9,0.006013869999999999
00:03.9,0.006002426000000001
00:03.9,0.006031035999999999
00:03.9,0.00607109
00:03.9,0.006048202
00:03.9,0.006048202
00:03.9,0.006031037
00:03.9,0.0060997
00:03.9,0.006088257
00:03.9,0.006076811999999999
00:03.9,0.0060539240000000005
00:03.9,0.006036758
00:03.9,0.006059646
00:03.9,0.006053924
00:03.9,0.006059646
00:03.9,0.006059645999999999
00:03.9,0.006071091000000001
00:03.9,0.006082535
00:03.9,0.0060253139999999995
00:03.9,0.0059623720000000005
00:03.9,0.006042479999999999
00:03.9,0.006093978
00:03.9,0.0060539240000000005
00:03.9,0.005996703999999999
00:04.0,0.005996704000000001
00:04.0,0.006002426000000001
00:04.0,0.006002426
00:04.0,0.006065368
00:04.0,0.006025314
00:04.0,0.005996703999999999
00:04.0,0.006042479999999999
00:04.0,0.006048202
00:04.0,0.006019592
00:04.0,0.006019592
00:04.0,0.006019592
00:04.0,0.005990982000000001
00:00:04,0.0060253139999999995
00:04.0,0.006019592
00:04.0,0.006025314
00:04.0,0.006116867
00:04.0,0.006065368
00:04.0,0.005990982000000001
00:04.0,0.006059646
00:04.0,0.006002425999999999
00:04.0,0.00598526
00:04.0,0.0059795379999999995
00:04.0,0.0060081480000000005
00:04.0,0.006048202
00:04.0,0.006025314
00:04.1,0.005990983
00:04.1,0.006036758
00:04.1,0.006036759
00:04.1,0.006002426
00:04.1,0.00601387
00:04.1,0.005996704
00:04.1,0.005990982
00:04.1,0.0060253139999999995
00:04.1,0.00601387
00:04.1,0.006042479999999999
00:04.1,0.005996704
00:04.1,0.005979538
00:04.1,0.005973816
00:04.1,0.005996704000000001
00:04.1,0.0059623720000000005
00:04.1,0.00601387
00:04.1,0.006019592000000001
00:04.1,0.006048202
00:04.1,0.005996703999999999
00:04.1,0.005962372
00:04.1,0.006013870000000001
00:04.1,0.005945206
00:04.1,0.005990982
00:04.1,0.005996704
00:04.1,0.006002427
00:04.2,0.005996705000000001
00:04.2,0.005985260000000001
00:04.2,0.0059795379999999995
00:04.2,0.006025314
00:04.2,0.006048201999999999
00:04.2,0.005979538
00:04.2,0.00595665
00:04.2,0.005979538
00:04.2,0.005990982000000001
00:04.2,0.005979538
00:04.2,0.005945206
00:04.2,0.00601387
00:04.2,0.006059647
00:04.2,0.006053925
00:04.2,0.006013871
00:04.2,0.0059108730000000005
00:04.2,0.005968094
00:04.2,0.005973816
00:04.2,0.005968094
00:04.2,0.005979538
00:04.2,0.005985259999999999
00:04.2,0.00598526
00:04.2,0.005996703999999999
00:04.2,0.006025315
00:04.2,0.005990982000000001
00:04.3,0.005922318
00:04.3,0.0060596470000000005
00:04.3,0.006065369
00:04.3,0.005979538
00:04.3,0.0059623720000000005
00:04.3,0.00592804
00:04.3,0.005916595
00:04.3,0.006048203
00:04.3,0.006031037000000001
00:04.3,0.006042481
00:04.3,0.005990982000000001
00:04.3,0.006008148
00:04.3,0.006025315000000001
00:04.3,0.00598526
00:04.3,0.00595665
00:04.3,0.005887985
00:04.3,0.006013869999999999
00:04.3,0.006013871
00:04.3,0.006002426999999999
00:04.3,0.006065369
00:04.3,0.005990983
00:04.3,0.005996705000000001
00:04.3,0.006019592000000001
00:04.3,0.005979539000000001
00:04.3,0.005950927999999999
00:04.4,0.005950928
00:04.4,0.005973816
00:04.4,0.005968094000000001
00:04.4,0.005979538
00:04.4,0.006031037
00:04.4,0.005968094
00:04.4,0.005968094
00:04.4,0.006031037
00:04.4,0.005996704
00:04.4,0.005916594000000001
00:04.4,0.005962373
00:04.4,0.006002426999999999
00:04.4,0.006031036
00:04.4,0.006082535
00:04.4,0.005956649
00:04.4,0.005950927
00:04.4,0.005945206
00:04.4,0.005968094
00:04.4,0.006065368999999999
00:04.4,0.006071090999999999
00:04.4,0.005996705
00:04.4,0.0059566490000000005
00:04.4,0.00592804
00:04.4,0.005962373
00:04.4,0.006053925
00:04.5,0.006013871
00:04.5,0.005922317
00:04.5,0.0059280389999999995
00:04.5,0.005973816000000001
00:04.5,0.006065368
00:04.5,0.005973816
00:04.5,0.005950927999999999
00:04.5,0.00595665
00:04.5,0.0059795379999999995
00:04.5,0.005973817
00:04.5,0.006025314
00:04.5,0.005968094
00:04.5,0.005887985
00:04.5,0.0059623720000000005
00:04.5,0.005979539
00:04.5,0.005968093999999999
00:04.5,0.006002425999999999
00:04.5,0.005979538
00:04.5,0.005922317
00:04.5,0.005968094
00:04.5,0.006036758999999999
00:04.5,0.0060138710000000005
00:04.5,0.006013871
00:04.5,0.0059852609999999995
00:04.5,0.005968093999999999
00:04.6,0.006008149
00:04.6,0.006019593000000001
00:04.6,0.0060138710000000005
00:04.6,0.006013871
00:04.6,0.0059337619999999995
00:04.6,0.00592804
00:04.6,0.005928039999999999
00:04.6,0.005985259999999999
00:04.6,0.005968093999999999
00:04.6,0.0059165960000000005
00:04.6,0.005990982
00:04.6,0.00604248
00:04.6,0.005950927
00:04.6,0.0059795379999999995
00:04.6,0.005985261
00:04.6,0.005979537999999999
00:04.6,0.005990982000000001
00:04.6,0.005996703999999999
00:04.6,0.005945205999999999
00:04.6,0.005922318
00:04.6,0.005928040000000001
00:04.6,0.005985260000000001
00:04.6,0.005968093999999999
00:04.6,0.005922318
00:04.6,0.0059795379999999995
00:04.7,0.006002427000000001
00:04.7,0.006019593
00:04.7,0.005973816
00:04.7,0.005962372
00:04.7,0.005973816000000001
00:04.7,0.005910874
00:04.7,0.005916596
00:04.7,0.005928040000000001
00:04.7,0.005990982
00:04.7,0.006036759
00:04.7,0.006008148
00:04.7,0.0060253139999999995
00:04.7,0.005910874
00:04.7,0.005916596
00:04.7,0.005950928000000001
00:04.7,0.005985259999999999
00:04.7,0.005973816000000001
00:04.7,0.005933761000000001
00:04.7,0.00592804
00:04.7,0.005990982
00:04.7,0.005996704000000001
00:04.7,0.006013869999999999
00:04.7,0.005916596
00:04.7,0.005916596
00:04.7,0.0059165960000000005
00:04.8,0.00592804
00:04.8,0.005990982000000001
00:04.8,0.005996704
00:04.8,0.005905150999999999
00:04.8,0.005916596
00:04.8,0.0059165960000000005
00:04.8,0.005910874
00:04.8,0.005973816
00:04.8,0.005985260000000001
00:04.8,0.005950927999999999
00:04.8,0.00595665
00:04.8,0.005939484000000001
00:04.8,0.005939483000000001
00:04.8,0.006048202999999999
00:04.8,0.005882264
00:04.8,0.005859375
00:04.8,0.005950928
00:04.8,0.0059795379999999995
00:04.8,0.005968094
00:04.8,0.005996703999999999
00:04.8,0.0059795379999999995
00:04.8,0.005922317999999999
00:04.8,0.005910873
00:04.8,0.005933762
00:04.8,0.005939483999999999
00:04.9,0.005956650000000001
00:04.9,0.0060081480000000005
00:04.9,0.005956650000000001
00:04.9,0.005945206
00:04.9,0.005916596
00:04.9,0.0059051519999999995
00:04.9,0.005933762
00:04.9,0.005939484000000001
00:04.9,0.005893708
00:04.9,0.0059165960000000005
00:04.9,0.005990982
00:04.9,0.006019591999999999
00:04.9,0.005973816
00:04.9,0.005996704
00:04.9,0.005916596
00:04.9,0.005887985
00:04.9,0.005893707
00:04.9,0.00595665
00:04.9,0.006013869999999999
00:04.9,0.00595665
00:04.9,0.005990982000000001
00:04.9,0.006025314
00:04.9,0.005933762
00:04.9,0.0059337619999999995
00:04.9,0.005922318
00:05.0,0.005945206000000001
00:05.0,0.00592804
00:05.0,0.005968094
00:05.0,0.005985260000000001
00:05.0,0.0059795379999999995
00:05.0,0.005910873
00:05.0,0.005893706999999999
00:05.0,0.005910874
00:05.0,0.005910874
00:05.0,0.005950928000000001
00:05.0,0.005905152
00:05.0,0.005962372
00:00:05,0.006031036
00:05.0,0.005996703999999999
00:05.0,0.005939484
00:05.0,0.005945206
00:05.0,0.005962372
00:05.0,0.005945206
00:05.0,0.005956650000000001
00:05.0,0.00592804
00:05.0,0.005979539
00:05.0,0.005968094
00:05.0,0.005933760999999999
00:05.0,0.005916596
00:05.0,0.005910874
00:05.1,0.005922318000000001
00:05.1,0.005910874
00:05.1,0.005939484
00:05.1,0.005922318
00:05.1,0.00598526
00:05.1,0.006008148
00:05.1,0.00595665
00:05.1,0.005893707
00:05.1,0.005939484000000001
00:05.1,0.005950927999999999
00:05.1,0.005922318
00:05.1,0.005933762
00:05.1,0.005945206
00:05.1,0.0058994289999999994
00:05.1,0.005922317
00:05.1,0.0059680950000000005
00:05.1,0.005973816
00:05.1,0.005928039
00:05.1,0.005933762
00:05.1,0.005945206
00:05.1,0.005916596
00:05.1,0.006019592000000001
00:05.1,0.005990982000000001
00:05.1,0.0059280389999999995
00:05.1,0.005933762
00:05.2,0.005968094
00:05.2,0.005985259999999999
00:05.2,0.005893707000000001
00:05.2,0.005882261999999999
00:05.2,0.005922317
00:05.2,0.005916594999999999
00:05.2,0.005870817999999999
00:05.2,0.005939482999999999
00:05.2,0.005933760999999999
00:05.2,0.005928039
00:05.2,0.005973816000000001
00:05.2,0.005979538
00:05.2,0.005956650000000001
00:05.2,0.005939483999999999
00:05.2,0.005939483
00:05.2,0.005905151
00:05.2,0.005933762
00:05.2,0.00598526
00:05.2,0.005968093999999999
00:05.2,0.0059337619999999995
00:05.2,0.005887985
00:05.2,0.005836487
00:05.2,0.005922317999999999
00:05.2,0.005933762
00:05.2,0.005950927999999999
00:05.3,0.005933762
00:05.3,0.0059280389999999995
00:05.3,0.005870818
00:05.3,0.005950927
00:05.3,0.005916594999999999
00:05.3,0.005865097
00:05.3,0.00592804
00:05.3,0.005945206
00:05.3,0.005893707
00:05.3,0.005847931
00:05.3,0.005870819
00:05.3,0.005893707999999999
00:05.3,0.0059337619999999995
00:05.3,0.0059623720000000005
00:05.3,0.0058650970000000005
00:05.3,0.005739212
00:05.3,0.005956649
00:05.3,0.005945206
00:05.3,0.0059165960000000005
00:05.3,0.005933762
00:05.3,0.00595665
00:05.3,0.005928039
00:05.3,0.005916594999999999
00:05.3,0.0058994289999999994
00:05.3,0.005882263
00:05.4,0.005882263
00:05.4,0.005899429
00:05.4,0.005876541000000001
00:05.4,0.005876542
00:05.4,0.0058994289999999994
00:05.4,0.005922317
00:05.4,0.005893707
00:05.4,0.005899429
00:05.4,0.005893707
00:05.4,0.005859375000000001
00:05.4,0.005882264000000001
00:05.4,0.005842209000000001
00:05.4,0.005865097
00:05.4,0.0058994289999999994
00:05.4,0.0058536529999999995
00:05.4,0.005939484
00:05.4,0.0059337619999999995
00:05.4,0.005893707
00:05.4,0.005870819
00:05.4,0.0058650970000000005
00:05.4,0.005859376
00:05.4,0.005893708000000001
00:05.4,0.005887984
00:05.4,0.005876541
00:05.4,0.005899429
00:05.5,0.0059795379999999995
00:05.5,0.005916595
00:05.5,0.005836486000000001
00:05.5,0.0058307639999999996
00:05.5,0.005865097
00:05.5,0.005899430000000001
00:05.5,0.005893706
00:05.5,0.005865096
00:05.5,0.005796432
00:05.5,0.005830765
00:05.5,0.005859375000000001
00:05.5,0.005887985000000001
00:05.5,0.0059337619999999995
00:05.5,0.005865097
00:05.5,0.005853653
00:05.5,0.005887985
00:05.5,0.0058708200000000006
00:05.5,0.005842208
00:05.5,0.005928040000000001
00:05.5,0.0059280389999999995
00:05.5,0.0058994289999999994
00:05.5,0.005893707999999999
00:05.5,0.005865097
00:05.5,0.005796432
00:05.5,0.005865096
00:05.6,0.005865097
00:05.6,0.005887986
00:05.6,0.00589943
00:05.6,0.005876541
00:05.6,0.005859375
00:05.6,0.005853653
00:05.6,0.005830764
00:05.6,0.005853651999999999
00:05.6,0.005842208
00:05.6,0.00587082
00:05.6,0.005882264
00:05.6,0.005853654
00:05.6,0.005807876
00:05.6,0.00579071
00:05.6,0.005842209
00:05.6,0.005819321
00:05.6,0.0058135980000000005
00:05.6,0.005825042000000001
00:05.6,0.005887985
00:05.6,0.005847931000000001
00:05.6,0.005853654
00:05.6,0.005853653
00:05.6,0.0058536529999999995
00:05.6,0.005802155000000001
00:05.6,0.005825043
00:05.7,0.005825042
00:05.7,0.005916594999999999
00:05.7,0.005847932
00:05.7,0.005790711
00:05.7,0.005813598
00:05.7,0.0058593759999999995
00:05.7,0.005842209000000001
00:05.7,0.0058193210000000006
00:05.7,0.005779266
00:05.7,0.0057621
00:05.7,0.0058193210000000006
00:05.7,0.005842209
00:05.7,0.0058650970000000005
00:05.7,0.005836487
00:05.7,0.005807876
00:05.7,0.005830765999999999
00:05.7,0.005784988000000001
00:05.7,0.005779265999999999
00:05.7,0.0057849880000000005
00:05.7,0.005802155
00:05.7,0.0058135980000000005
00:05.7,0.00579071
00:05.7,0.005767822
00:05.7,0.005796433
00:05.7,0.005859375
00:05.8,0.005859375
00:05.8,0.005893708000000001
00:05.8,0.005813599
00:05.8,0.005767822000000001
00:05.8,0.005767821
00:05.8,0.005739211
00:05.8,0.005790711
00:05.8,0.0058364870000000004
00:05.8,0.005802155
00:05.8,0.005813598
00:05.8,0.005853654
00:05.8,0.005882264
00:05.8,0.005847931000000001
00:05.8,0.005796431999999999
00:05.8,0.0057621
00:05.8,0.005716323000000001
00:05.8,0.005790709999999999
00:05.8,0.005825044
00:05.8,0.005870819
00:05.8,0.005847931
00:05.8,0.005813599
00:05.8,0.005807876
00:05.8,0.005756378
00:05.8,0.005762101
00:05.8,0.005853653
00:05.9,0.005905151
00:05.9,0.005830765
00:05.9,0.005802155
00:05.9,0.005767823
00:05.9,0.005790709999999999
00:05.9,0.005825043
00:05.9,0.005853653
00:05.9,0.005905152
00:05.9,0.0057849880000000005
00:05.9,0.005796432000000001
00:05.9,0.005876542
00:05.9,0.005825043
00:05.9,0.005830765
00:05.9,0.005779266
00:05.9,0.005802154
00:05.9,0.005802155
00:05.9,0.005807876
00:05.9,0.005836486
00:05.9,0.005813599
00:05.9,0.005802155
00:05.9,0.005813599000000001
00:05.9,0.005819319999999999
00:05.9,0.005836486
00:05.9,0.005882263
00:05.9,0.005830765000000001
00:06.0,0.005842209
00:06.0,0.005819321
00:06.0,0.0057907110000000005
00:06.0,0.005779267
00:06.0,0.0058078769999999995
00:06.0,0.0058364870000000004
00:06.0,0.005899429
00:06.0,0.005870818
00:06.0,0.005779266
00:06.0,0.005756379000000001
00:06.0,0.005784989
00:06.0,0.0058078769999999995
00:00:06,0.005796433
00:06.0,0.005762101
00:06.0,0.005744934000000001
00:06.0,0.005825042000000001
00:06.0,0.0058994289999999994
00:06.0,0.005859375
00:06.0,0.005830765
00:06.0,0.0058193210000000006
00:06.0,0.005830765
00:06.0,0.005825043
00:06.0,0.005773545
00:06.0,0.005842209
00:06.0,0.005830765
00:06.1,0.005773545
00:06.1,0.005819321
00:06.1,0.005779267
00:06.1,0.005784988999999999
00:06.1,0.005807877
00:06.1,0.005830765
00:06.1,0.005830765
00:06.1,0.005807877
00:06.1,0.005819321
00:06.1,0.005779266999999999
00:06.1,0.005784989
00:06.1,0.005773545
00:06.1,0.005722046
00:06.1,0.005796433
00:06.1,0.005887986
00:06.1,0.005813599000000001
00:06.1,0.0058536529999999995
00:06.1,0.0058536529999999995
00:06.1,0.005784988
00:06.1,0.0057392120000000005
00:06.1,0.005847931000000001
00:06.1,0.005887985
00:06.1,0.005859375
00:06.1,0.005825043
00:06.1,0.005830765
00:06.2,0.0058135980000000005
00:06.2,0.00579071
00:06.2,0.0058021539999999995
00:06.2,0.005830765
00:06.2,0.005796432000000001
00:06.2,0.005773544
00:06.2,0.0057849880000000005
00:06.2,0.005893708
00:06.2,0.005870819
00:06.2,0.005813598
00:06.2,0.005807876000000001
00:06.2,0.005807876
00:06.2,0.005842207999999999
00:06.2,0.005819321
00:06.2,0.0058536529999999995
00:06.2,0.005825042999999999
00:06.2,0.005767822000000001
00:06.2,0.005796432000000001
00:06.2,0.005842209
00:06.2,0.005847931
00:06.2,0.005865097999999999
00:06.2,0.005830765
00:06.2,0.005784988
00:06.2,0.005882264
00:06.2,0.005910874
00:06.3,0.005887986
00:06.3,0.005807876000000001
00:06.3,0.005727768
00:06.3,0.005807876
00:06.3,0.005853653
00:06.3,0.0059337619999999995
00:06.3,0.00587082
00:06.3,0.00584793
00:06.3,0.0058021539999999995
00:06.3,0.005825042999999999
00:06.3,0.005887985
00:06.3,0.005887985
00:06.3,0.005847931
00:06.3,0.005825044000000001
00:06.3,0.005842209
00:06.3,0.005887985
00:06.3,0.005893707
00:06.3,0.005893707
00:06.3,0.005847931
00:06.3,0.005847931000000001
00:06.3,0.005882263
00:06.3,0.0058994289999999994
00:06.3,0.005819321
00:06.3,0.005825043
00:06.3,0.0058536529999999995
00:06.4,0.005853653
00:06.4,0.005853653
00:06.4,0.005876541
00:06.4,0.005876541000000001
00:06.4,0.005876541000000001
00:06.4,0.005859375
00:06.4,0.005756378999999999
00:06.4,0.005796432
00:06.4,0.005842209000000001
00:06.4,0.005922317
00:06.4,0.005950927999999999
00:06.4,0.005876541
00:06.4,0.005847931
00:06.4,0.005859375000000001
00:06.4,0.005859375
00:06.4,0.0058078769999999995
00:06.4,0.005859375
00:06.4,0.005842209
00:06.4,0.005870819
00:06.4,0.005870819
00:06.4,0.0058593759999999995
00:06.4,0.005876541999999999
00:06.4,0.005876541
00:06.4,0.005865097
00:06.4,0.005859374999999999
00:06.5,0.005905151
00:06.5,0.005865097
00:06.5,0.005853653
00:06.5,0.005859375000000001
00:06.5,0.005830765
00:06.5,0.0058536529999999995
00:06.5,0.0059051519999999995
00:06.5,0.005899429
00:06.5,0.0058822629999999996
00:06.5,0.005847932
00:06.5,0.005853653
00:06.5,0.005870819
00:06.5,0.005847931
00:06.5,0.005859375
00:06.5,0.005887986
00:06.5,0.0058994289999999994
00:06.5,0.005859375
00:06.5,0.005887986
00:06.5,0.005910874
00:06.5,0.0059051519999999995
00:06.5,0.00592804
00:06.5,0.005847931
00:06.5,0.005853653
00:06.5,0.005945206
00:06.5,0.0059337619999999995
00:06.6,0.0059337619999999995
00:06.6,0.005887984000000001
00:06.6,0.005899429
00:06.6,0.005916595
00:06.6,0.005905151
00:06.6,0.005916595
00:06.6,0.005950928
00:06.6,0.0059795379999999995
00:06.6,0.005962371
00:06.6,0.005916594999999999
00:06.6,0.005887984999999999
00:06.6,0.005893707
00:06.6,0.0058994289999999994
00:06.6,0.005899429
00:06.6,0.005830765
00:06.6,0.005910873
00:06.6,0.006002427
00:06.6,0.005962372999999999
00:06.6,0.005905150999999999
00:06.6,0.005916595
00:06.6,0.005922317
00:06.6,0.005876541
00:06.6,0.0059108730000000005
00:06.6,0.005887984999999999
00:06.6,0.005836487
00:06.7,0.005825043
00:06.7,0.005939483
00:06.7,0.005979538
00:06.7,0.0059566490000000005
00:06.7,0.005996704
00:06.7,0.006042481000000001
00:06.7,0.005945205
00:06.7,0.005825043
00:06.7,0.005859375
00:06.7,0.005933761000000001
00:06.7,0.005939483
00:06.7,0.005933760999999999
00:06.7,0.005933761
00:06.7,0.005968094
00:06.7,0.0059795379999999995
00:06.7,0.005968093000000001
00:06.7,0.005990982
00:06.7,0.005962371
00:06.7,0.005887985
00:06.7,0.005945205
00:06.7,0.005973815
00:06.7,0.006013870000000001
00:06.7,0.005973816
00:06.7,0.005962372
00:06.7,0.005973816
00:06.8,0.006008148
00:06.8,0.006002426000000001
00:06.8,0.005973816
00:06.8,0.006013871
00:06.8,0.0059795379999999995
00:06.8,0.00598526
00:06.8,0.006008149
00:06.8,0.005979539000000001
00:06.8,0.005962372
00:06.8,0.006008149
00:06.8,0.005962372
00:06.8,0.005968094
00:06.8,0.006013870000000001
00:06.8,0.006019593
00:06.8,0.006008148999999999
00:06.8,0.006036759
00:06.8,0.006036759
00:06.8,0.006008148
00:06.8,0.0059795379999999995
00:06.8,0.005996705
00:06.8,0.006025315
00:06.8,0.0060310369999999995
00:06.8,0.005990983
00:06.8,0.005962371
00:06.8,0.005973816
00:06.9,0.006036758999999999
00:06.9,0.006048202999999999
00:06.9,0.006019592999999999
00:06.9,0.005990982
00:06.9,0.0060310369999999995
00:06.9,0.006019592000000001
00:06.9,0.006019593
00:06.9,0.006002425999999999
00:06.9,0.0060310369999999995
00:06.9,0.006076813
00:06.9,0.005973815
00:06.9,0.0059280389999999995
00:06.9,0.0060596470000000005
00:06.9,0.006099701000000001
00:06.9,0.006156920999999999
00:06.9,0.006008148
00:06.9,0.006036758
00:06.9,0.005985259999999999
00:06.9,0.005910873
00:06.9,0.006076813
00:06.9,0.006151199
00:06.9,0.006071091
00:06.9,0.006048203
00:06.9,0.006008148999999999
00:06.9,0.006048203
00:07.0,0.006105423
00:07.0,0.0060882570000000006
00:07.0,0.00604248
00:07.0,0.006036758
00:07.0,0.006008148
00:07.0,0.006002425
00:07.0,0.006076812000000001
00:07.0,0.006076813
00:07.0,0.006065368999999999
00:07.0,0.006093978999999999
00:07.0,0.0060768129999999995
00:07.0,0.00601387
00:00:07,0.006059647
00:07.0,0.006105424
00:07.0,0.006082535
00:07.0,0.006116867000000001
00:07.0,0.00617981
00:07.0,0.006088258
00:07.0,0.00604248
00:07.0,0.005973816
00:07.0,0.006036758
00:07.0,0.0060768129999999995
00:07.0,0.006099702
00:07.0,0.006111146
00:07.0,0.006093978999999999
00:07.1,0.00612259
00:07.1,0.0061111460000000005
00:07.1,0.006076813
00:07.1,0.006065369
00:07.1,0.006048202000000001
00:07.1,0.006088257999999999
00:07.1,0.0060539240000000005
00:07.1,0.006025314
00:07.1,0.006082536
00:07.1,0.006048202
00:07.1,0.006082535
00:07.1,0.006122589999999999
00:07.1,0.006042479999999999
00:07.1,0.006059646
00:07.1,0.0061054230000000004
00:07.1,0.006105424
00:07.1,0.006099702
00:07.1,0.006111146
00:07.1,0.006059647
00:07.1,0.0060768129999999995
00:07.1,0.006111145
00:07.1,0.0061225889999999995
00:07.1,0.0061569220000000004
00:07.1,0.006111145
00:07.1,0.006053925
00:07.2,0.006099701
00:07.2,0.006082535
00:07.2,0.0061054230000000004
00:07.2,0.006111145
00:07.2,0.006031035999999999
00:07.2,0.006008148
00:07.2,0.006099701999999999
00:07.2,0.006168366
00:07.2,0.006139756
00:07.2,0.006139756
00:07.2,0.006174088
00:07.2,0.006099701
00:07.2,0.0061054230000000004
00:07.2,0.006088257
00:07.2,0.006116867999999999
00:07.2,0.006116867000000001
00:07.2,0.006139756
00:07.2,0.006151200000000001
00:07.2,0.006116868
00:07.2,0.006082535
00:07.2,0.006053925
00:07.2,0.006139756
00:07.2,0.006139756
00:07.2,0.006076813
00:07.2,0.006082535
00:07.3,0.006059645999999999
00:07.3,0.006042481
00:07.3,0.006002426
00:07.3,0.006093979
00:07.3,0.006174088
00:07.3,0.006134033
00:07.3,0.006145477000000001
00:07.3,0.006134033
00:07.3,0.006099701000000001
00:07.3,0.006116867
00:07.3,0.006076813
00:07.3,0.006076813
00:07.3,0.006082535
00:07.3,0.006111145
00:07.3,0.006122589
00:07.3,0.0061340330000000005
00:07.3,0.006099701
00:07.3,0.006088257
00:07.3,0.006076814
00:07.3,0.006019592
00:07.3,0.0060539240000000005
00:07.3,0.006059647
00:07.3,0.006088257
00:07.3,0.006111145999999999
00:07.3,0.006134033999999999
00:07.4,0.0060710899999999995
00:07.4,0.0060997
00:07.4,0.006139755
00:07.4,0.006156922
00:07.4,0.006082536
00:07.4,0.006082535
00:07.4,0.006145477
00:07.4,0.0061225889999999995
00:07.4,0.006162644
00:07.4,0.0061512
00:07.4,0.006093979
00:07.4,0.006036759
00:07.4,0.006071090999999999
00:07.4,0.006076813
00:07.4,0.006128312
00:07.4,0.006145478
00:07.4,0.006145478
00:07.4,0.006082535000000001
00:07.4,0.006093979000000001
00:07.4,0.006151199999999999
00:07.4,0.0061054230000000004
00:07.4,0.0060825340000000006
00:07.4,0.0061054230000000004
00:07.4,0.006099701
00:07.4,0.006093979
00:07.5,0.006076813
00:07.5,0.006134033
00:07.5,0.006156922
00:07.5,0.006139755
00:07.5,0.006168366
00:07.5,0.006139755
00:07.5,0.006122589
00:07.5,0.006105423
00:07.5,0.0061225889999999995
00:07.5,0.006076813
00:07.5,0.006042479999999999
00:07.5,0.0061283119999999995
00:07.5,0.006139755
00:07.5,0.006116867
00:07.5,0.006116867
00:07.5,0.0061512
00:07.5,0.006156922
00:07.5,0.0060596470000000005
00:07.5,0.006019592000000001
00:07.5,0.0061512
00:07.5,0.006082534
00:07.5,0.0060825340000000006
00:07.5,0.0060710899999999995
00:07.5,0.006128311
00:07.5,0.006122589
00:07.6,0.006145477
00:07.6,0.006099701000000001
00:07.6,0.006116867
00:07.6,0.006111144999999999
00:07.6,0.006134033
00:07.6,0.0061340330000000005
00:07.6,0.006065368
00:07.6,0.0060768129999999995
00:07.6,0.006099701
00:07.6,0.006116867
00:07.6,0.006093979
00:07.6,0.006093978999999999
00:07.6,0.006156921
00:07.6,0.006105421999999999
00:07.6,0.00612831
00:07.6,0.006145477
00:07.6,0.006099701
00:07.6,0.006122589
00:07.6,0.006174088000000001
00:07.6,0.006145477999999999
00:07.6,0.006071091000000001
00:07.6,0.006082534
00:07.6,0.006076811999999999
00:07.6,0.006059646
00:07.6,0.006139754999999999
00:07.7,0.006116867
00:07.7,0.006076813
00:07.7,0.006116867
00:07.7,0.006179809999999999
00:07.7,0.006162644
00:07.7,0.006134033
00:07.7,0.0060825340000000006
00:07.7,0.006059646
00:07.7,0.006111145
00:07.7,0.006128311000000001
00:07.7,0.006156921
00:07.7,0.006116867000000001
00:07.7,0.00612831
00:07.7,0.0060825340000000006
00:07.7,0.006065368
00:07.7,0.0061054230000000004
00:07.7,0.0061225889999999995
00:07.7,0.0060997000000000004
00:07.7,0.0060539240000000005
00:07.7,0.006048202
00:07.7,0.006162643
00:07.7,0.006151199
00:07.7,0.006111145
00:07.7,0.006168365
00:07.7,0.006162643
00:07.8,0.006076812
00:07.8,0.006036758
00:07.8,0.006019592000000001
00:07.8,0.006099701000000001
00:07.8,0.006179809
00:07.8,0.006162643
00:07.8,0.006105423
00:07.8,0.006093979
00:07.8,0.006116868
00:07.8,0.0061569220000000004
00:07.8,0.0061340330000000005
00:07.8,0.006036758
00:07.8,0.006031036
00:07.8,0.006128310999999999
00:07.8,0.006179809999999999
00:07.8,0.006185532
00:07.8,0.006082534
00:07.8,0.006082534
00:07.8,0.006088256
00:07.8,0.006082535
00:07.8,0.006093979
00:07.8,0.006191254
00:07.8,0.006111144000000001
00:07.8,0.0061054230000000004
00:07.8,0.006088257
00:07.9,0.006065368
00:07.9,0.006019592
00:07.9,0.006134034
00:07.9,0.006208419999999999
00:07.9,0.006202697
00:07.9,0.006128310999999999
00:07.9,0.006128311000000001
00:07.9,0.006139755
00:07.9,0.006162644
00:07.9,0.0061340330000000005
00:07.9,0.0060539240000000005
00:07.9,0.0060539240000000005
00:07.9,0.006076812
00:07.9,0.006076812000000001
00:07.9,0.006105422
00:07.9,0.006111144
00:07.9,0.006139756
00:07.9,0.006116867999999999
00:07.9,0.006134033999999999
00:07.9,0.006105423
00:07.9,0.006082535
00:07.9,0.0060825340000000006
00:07.9,0.006093978999999999
00:07.9,0.006065369
00:07.9,0.006093978999999999
00:08.0,0.006179809
00:08.0,0.006088257
00:08.0,0.0060825340000000006
00:08.0,0.006174088
00:08.0,0.006219863999999999
00:08.0,0.006128311
00:08.0,0.006059646
00:08.0,0.006071090000000001
00:08.0,0.0060882570000000006
00:08.0,0.0062026979999999995
00:08.0,0.0061512
00:08.0,0.006105422000000001
00:00:08,0.006053924
00:08.0,0.0060596470000000005
00:08.0,0.0060997
00:08.0,0.006088255999999999
00:08.0,0.006088256
00:08.0,0.006065369
00:08.0,0.006162644
00:08.0,0.006151199
00:08.0,0.0061054230000000004
00:08.0,0.006111145
00:08.0,0.006139755
00:08.0,0.006099702
00:08.0,0.006093979
00:08.1,0.006179809999999999
00:08.1,0.006076812000000001
00:08.1,0.0060882570000000006
00:08.1,0.006088255999999999
00:08.1,0.006076811999999999
00:08.1,0.006156922
00:08.1,0.006134034
00:08.1,0.006122589
00:08.1,0.006162644
00:08.1,0.006122588
00:08.1,0.006105422
00:08.1,0.006168366000000001
00:08.1,0.0061512
00:08.1,0.006048202
00:08.1,0.0060882570000000006
00:08.1,0.0061855320000000005
00:08.1,0.006351471
00:08.1,0.006305694
00:08.1,0.005968094
00:08.1,0.005973816
00:08.1,0.006134033
00:08.1,0.006225586
00:08.1,0.006185530999999999
00:08.1,0.006065368
00:08.1,0.006042481000000001
00:08.2,0.006099701
00:08.2,0.006139755
00:08.2,0.006151199999999999
00:08.2,0.006168366
00:08.2,0.006145477999999999
00:08.2,0.006093978
00:08.2,0.006242752999999999
00:08.2,0.006214141
00:08.2,0.006168366
00:08.2,0.006145478
00:08.2,0.006076813
00:08.2,0.006031036
00:08.2,0.006105423
00:08.2,0.006191254
00:08.2,0.006299973
00:08.2,0.006156921
00:08.2,0.005973816
00:08.2,0.006076813
00:08.2,0.0061511989999999996
00:08.2,0.006111145
00:08.2,0.006185532
00:08.2,0.006128311
00:08.2,0.006088256
00:08.2,0.006093979
00:08.2,0.006122589
00:08.3,0.006111145
00:08.3,0.006082535
00:08.3,0.006111145
00:08.3,0.006225585
00:08.3,0.006277083
00:08.3,0.006334305
00:08.3,0.006242752
00:08.3,0.006019592
00:08.3,0.005945206
00:08.3,0.0061340330000000005
00:08.3,0.006128311
00:08.3,0.005979539
00:08.3,0.006048203
00:08.3,0.0061054230000000004
00:08.3,0.006168365
00:08.3,0.006128312
00:08.3,0.006122589
00:08.3,0.006116867000000001
00:08.3,0.00612259
00:08.3,0.006128310999999999
00:08.3,0.006156922
00:08.3,0.006053925
00:08.3,0.006088255999999999
00:08.3,0.006019592
00:08.3,0.006071090000000001
00:08.4,0.006191253999999999
00:08.4,0.006202698
00:08.4,0.006162644
00:08.4,0.006139755
00:08.4,0.006237029999999999
00:08.4,0.006196976
00:08.4,0.00612259
00:08.4,0.006025314
00:08.4,0.006036758999999999
00:08.4,0.006031036
00:08.4,0.006116867
00:08.4,0.006145477999999999
00:08.4,0.006093979
00:08.4,0.006116867
00:08.4,0.0062026979999999995
00:08.4,0.006305695
00:08.4,0.006265639999999999
00:08.4,0.006019593
00:08.4,0.005968094
00:08.4,0.006031036
00:08.4,0.006053924
00:08.4,0.006156921
00:08.4,0.006116867
00:08.4,0.006059647
00:08.4,0.006053924
00:08.5,0.0061511989999999996
00:08.5,0.006111145
00:08.5,0.006065368000000001
00:08.5,0.006076813
00:08.5,0.006082535000000001
00:08.5,0.006156921000000001
00:08.5,0.0061225889999999995
00:08.5,0.006076812000000001
00:08.5,0.006139756
00:08.5,0.006088257
00:08.5,0.006025314
00:08.5,0.00607109
00:08.5,0.006151199
00:08.5,0.006202698
00:08.5,0.006134034
00:08.5,0.0061225889999999995
00:08.5,0.006111145
00:08.5,0.005996704
00:08.5,0.006128311
00:08.5,0.006214142000000001
00:08.5,0.0061283100000000005
00:08.5,0.006105423
00:08.5,0.006156921
00:08.5,0.0061054230000000004
00:08.5,0.006065369
00:08.6,0.006099701
00:08.6,0.006053925
00:08.6,0.006122589
00:08.6,0.006196975
00:08.6,0.006185530999999999
00:08.6,0.006139755
00:08.6,0.006042481
00:08.6,0.0060596470000000005
00:08.6,0.006019592000000001
00:08.6,0.006116867
00:08.6,0.006156922
00:08.6,0.006168366
00:08.6,0.006185531
00:08.6,0.006036758
00:08.6,0.00595665
00:08.6,0.006116867
00:08.6,0.0061855320000000005
00:08.6,0.006254196
00:08.6,0.006116867
00:08.6,0.006048202
00:08.6,0.006145477999999999
00:08.6,0.006168366
00:08.6,0.006105423999999999
00:08.6,0.006071091
00:08.6,0.006105423
00:08.7,0.006076812000000001
00:08.7,0.006145478
00:08.7,0.0060882570000000006
00:08.7,0.006076811999999999
00:08.7,0.0060539240000000005
00:08.7,0.006093979000000001
00:08.7,0.006093978999999999
00:08.7,0.006139755
00:08.7,0.006088257
00:08.7,0.005996704
00:08.7,0.006156920999999999
00:08.7,0.006174088
00:08.7,0.006196975
00:08.7,0.006174087
00:08.7,0.0060825340000000006
00:08.7,0.006048202
00:08.7,0.006111145
00:08.7,0.006088256
00:08.7,0.006059646
00:08.7,0.00607109
00:08.7,0.006134034
00:08.7,0.006116867999999999
00:08.7,0.006134032999999999
00:08.7,0.006093978999999999
00:08.7,0.0061054230000000004
00:08.8,0.00612259
00:08.8,0.006185532
00:08.8,0.006122589
00:08.8,0.006065369
00:08.8,0.006076813
00:08.8,0.006093979
00:08.8,0.006191253999999999
00:08.8,0.006254196
00:08.8,0.006128311
00:08.8,0.006025314
00:08.8,0.006071091
00:08.8,0.0061511989999999996
00:08.8,0.0062313080000000005
00:08.8,0.006271362
00:08.8,0.006151199999999999
00:08.8,0.006008148
00:08.8,0.006088257
00:08.8,0.006145477
00:08.8,0.006185532
00:08.8,0.006082535
00:08.8,0.006082535
00:08.8,0.0061397560000000006
00:08.8,0.006111144999999999
00:08.8,0.006162644
00:08.8,0.006162644
00:08.9,0.006168366
00:08.9,0.006065369
00:08.9,0.0060768129999999995
00:08.9,0.006111146
00:08.9,0.006116866
00:08.9,0.006105424
00:08.9,0.006151199999999999
00:08.9,0.006134033
00:08.9,0.006156921
00:08.9,0.006214142000000001
00:08.9,0.006111145
00:08.9,0.00606537
00:08.9,0.0061512
00:08.9,0.006036758
00:08.9,0.006076812
00:08.9,0.006174088
00:08.9,0.0062255850000000005
00:08.9,0.00620842
00:08.9,0.00617981
00:08.9,0.006088256
00:08.9,0.006082534
00:08.9,0.006059646
00:08.9,0.0060882570000000006
00:08.9,0.006088257
00:08.9,0.006099701000000001
00:09.0,0.006111145
00:09.0,0.006214142
00:09.0,0.00620842
00:09.0,0.0061855320000000005
00:09.0,0.006162643999999999
00:09.0,0.006128312
00:09.0,0.006168366
00:09.0,0.00620842
00:09.0,0.006116867000000001
00:09.0,0.006111145
00:09.0,0.006082536
00:09.0,0.006088256
00:00:09,0.00612259
00:09.0,0.006111146
00:09.0,0.0061855320000000005
00:09.0,0.006174087
00:09.0,0.006031037
00:09.0,0.006093978999999999
00:09.0,0.006128312
00:09.0,0.00612831
00:09.0,0.00612259
00:09.0,0.00609398
00:09.0,0.006105423
00:09.0,0.006116868
00:09.0,0.006168366
00:09.1,0.006162644
00:09.1,0.006145477999999999
00:09.1,0.006191254
00:09.1,0.006225586
00:09.1,0.0061512
00:09.1,0.006013869999999999
00:09.1,0.006048202
00:09.1,0.006122590000000001
00:09.1,0.0061512
00:09.1,0.006145478
00:09.1,0.006139756
00:09.1,0.0061283119999999995
00:09.1,0.006168366
00:09.1,0.006134034
00:09.1,0.006111145
00:09.1,0.006105423
00:09.1,0.00609398
00:09.1,0.006174087
00:09.1,0.006305695
00:09.1,0.006219864
00:09.1,0.006031036
00:09.1,0.005990982000000001
00:09.1,0.006099701000000001
00:09.1,0.006128311
00:09.1,0.006076811999999999
00:09.2,0.006156922
00:09.2,0.006151199
00:09.2,0.0061855320000000005
00:09.2,0.0060997000000000004
00:09.2,0.006059646
00:09.2,0.006053925
00:09.2,0.00609398
00:09.2,0.006185532
00:09.2,0.006202698
00:09.2,0.006185532
00:09.2,0.006179809999999999
00:09.2,0.006128311
00:09.2,0.0060768129999999995
00:09.2,0.006162644
00:09.2,0.0061511989999999996
00:09.2,0.006139755
00:09.2,0.0061340330000000005
00:09.2,0.006088257
00:09.2,0.006076812
00:09.2,0.00612259
00:09.2,0.006128311
00:09.2,0.006185531000000001
00:09.2,0.006116868
00:09.2,0.006065368000000001
00:09.2,0.0060539240000000005
00:09.3,0.006071091
00:09.3,0.006099701000000001
00:09.3,0.006162644
00:09.3,0.006179810000000001
00:09.3,0.006179809999999999
00:09.3,0.0060310369999999995
00:09.3,0.006008148
00:09.3,0.006145478
00:09.3,0.006162644
00:09.3,0.006134033
00:09.3,0.006145477
00:09.3,0.006145478
00:09.3,0.00612259
00:09.3,0.0060882570000000006
00:09.3,0.006128311
00:09.3,0.0062026979999999995
00:09.3,0.00620842
00:09.3,0.006128310999999999
00:09.3,0.006128311
00:09.3,0.006162642999999999
00:09.3,0.006082534
00:09.3,0.006111145
00:09.3,0.006168366
00:09.3,0.006134034
00:09.3,0.006116868
00:09.4,0.006053924
00:09.4,0.0060825340000000006
00:09.4,0.006116867
00:09.4,0.006168365
00:09.4,0.006116868
00:09.4,0.0061512
00:09.4,0.006059647
00:09.4,0.006065368000000001
00:09.4,0.006076813
00:09.4,0.006116867
00:09.4,0.006214142
00:09.4,0.0061740879999999995
00:09.4,0.006139754999999999
00:09.4,0.006145477999999999
00:09.4,0.006082533999999999
00:09.4,0.006076812
00:09.4,0.006099702
00:09.4,0.006139755
00:09.4,0.0061855320000000005
00:09.4,0.00617981
00:09.4,0.00604248
00:09.4,0.0060539240000000005
00:09.4,0.006145477000000001
00:09.4,0.0061283119999999995
00:09.4,0.006128311
00:09.5,0.006093978
00:09.5,0.006105423
00:09.5,0.006151199999999999
00:09.5,0.006099701
00:09.5,0.006128311
00:09.5,0.0061225889999999995
00:09.5,0.006134031999999999
00:09.5,0.006105422
00:09.5,0.0060882570000000006
00:09.5,0.006134034
00:09.5,0.006168366
00:09.5,0.006185530999999999
00:09.5,0.006088256
00:09.5,0.006093979
00:09.5,0.006162643
00:09.5,0.006139755
00:09.5,0.006185532
00:09.5,0.006191253
00:09.5,0.006076811999999999
00:09.5,0.006036759
00:09.5,0.006093978999999999
00:09.5,0.006156921
00:09.5,0.006162643
00:09.5,0.006071091000000001
00:09.5,0.0061340330000000005
00:09.6,0.006156921
00:09.6,0.006122589
00:09.6,0.0061340330000000005
00:09.6,0.0062026979999999995
00:09.6,0.006208419999999999
00:09.6,0.0061225889999999995
00:09.6,0.0060882570000000006
00:09.6,0.006151200000000001
00:09.6,0.006196975
00:09.6,0.0061511989999999996
00:09.6,0.0061340330000000005
00:09.6,0.006128311
00:09.6,0.006111144999999999
00:09.6,0.006128311
00:09.6,0.006111145
00:09.6,0.006145477
00:09.6,0.006214142999999999
00:09.6,0.006208419
00:09.6,0.006139755
00:09.6,0.006134033
00:09.6,0.006082535
00:09.6,0.0062313080000000005
00:09.6,0.00620842
00:09.6,0.006065369
00:09.6,0.006099701
00:09.7,0.006082535
00:09.7,0.006076813
00:09.7,0.0062541969999999995
00:09.7,0.0062770840000000005
00:09.7,0.006208419000000001
00:09.7,0.006134033
00:09.7,0.006122589
00:09.7,0.006196976
00:09.7,0.0061855320000000005
00:09.7,0.006145477
00:09.7,0.006105423
00:09.7,0.006174087000000001
00:09.7,0.0061855320000000005
00:09.7,0.006053925
00:09.7,0.006191253000000001
00:09.7,0.006116867
00:09.7,0.0061683649999999994
00:09.7,0.0062828070000000005
00:09.7,0.006225586000000001
00:09.7,0.006134033
00:09.7,0.006145477
00:09.7,0.0061511989999999996
00:09.7,0.006162643000000001
00:09.7,0.006156922
00:09.7,0.006145477
00:09.8,0.0061511989999999996
00:09.8,0.006168366000000001
00:09.8,0.0061340330000000005
00:09.8,0.006202699
00:09.8,0.006214142000000001
00:09.8,0.006202698
00:09.8,0.0061054230000000004
00:09.8,0.006191253999999999
00:09.8,0.006219864
00:09.8,0.0061225889999999995
00:09.8,0.006162643
00:09.8,0.006179810000000001
00:09.8,0.006174087
00:09.8,0.0061511989999999996
00:09.8,0.0061798090000000005
00:09.8,0.006162643000000001
00:09.8,0.006145477
00:09.8,0.006139755
00:09.8,0.006191253999999999
00:09.8,0.00617981
00:09.8,0.006111145
00:09.8,0.006128311
00:09.8,0.0061054230000000004
00:09.8,0.006174087
00:09.8,0.006179809999999999
00:09.9,0.0061855320000000005
00:09.9,0.006105423
00:09.9,0.006179809999999999
00:09.9,0.006214142000000001
00:09.9,0.006156921
00:09.9,0.006145477
00:09.9,0.006162644
00:09.9,0.006116867
00:09.9,0.0061855320000000005
00:09.9,0.0061798090000000005
00:09.9,0.006111144999999999
00:09.9,0.006162643999999999
00:09.9,0.006196976
00:09.9,0.006088257
00:09.9,0.006122589
00:09.9,0.006151199
00:09.9,0.006139755
00:09.9,0.006151199000000001
00:09.9,0.0061512
00:09.9,0.0061511989999999996
00:09.9,0.006225585
00:09.9,0.006168365
00:09.9,0.006162643
00:09.9,0.006042481000000001
00:09.9,0.006082535
00:10.0,0.006139755
00:10.0,0.006156922
00:10.0,0.006174088
00:10.0,0.006168366
00:10.0,0.00617981
00:10.0,0.006168366
00:10.0,0.006122589
00:10.0,0.006088257
00:10.0,0.006134034
00:10.0,0.0061855320000000005
00:10.0,0.006254196
00:10.0,0.006225586
00:00:10,0.006111145
00:10.0,0.0060882570000000006
00:10.0,0.006093979
00:10.0,0.006145478
00:10.0,0.006174087
00:10.0,0.006116868
00:10.0,0.006093978999999999
00:10.0,0.006093978999999999
00:10.0,0.006116868
00:10.0,0.0061397560000000006
00:10.0,0.006088258
00:10.0,0.006093979
00:10.0,0.006134034
00:10.1,0.006145478
00:10.1,0.0061512
00:10.1,0.0061340330000000005
00:10.1,0.0060596470000000005
00:10.1,0.006139756
00:10.1,0.006174088
00:10.1,0.0062026979999999995
00:10.1,0.006191254
00:10.1,0.006208420000000001
00:10.1,0.0061740879999999995
00:10.1,0.006082535000000001
00:10.1,0.0060768129999999995
00:10.1,0.006162644
00:10.1,0.006162644
00:10.1,0.006099701999999999
00:10.1,0.006065368999999999
00:10.1,0.006128311
00:10.1,0.006202698
00:10.1,0.00617981
00:10.1,0.006105423
00:10.1,0.0060253139999999995
00:10.1,0.006031036
00:10.1,0.0061054230000000004
00:10.1,0.006134034
00:10.1,0.00609398
00:10.2,0.006036758000000001
00:10.2,0.0061225889999999995
00:10.2,0.006254196
00:10.2,0.00623703
00:10.2,0.006254196
00:10.2,0.0061283119999999995
00:10.2,0.006053925
00:10.2,0.006019592
00:10.2,0.006082535
00:10.2,0.006122590000000001
00:10.2,0.00612259
00:10.2,0.006111145
00:10.2,0.006128311
00:10.2,0.006048203
00:10.2,0.006116868
00:10.2,0.006156921000000001
00:10.2,0.006179809
00:10.2,0.006065369
00:10.2,0.005962372
00:10.2,0.006093979
00:10.2,0.006116867
00:10.2,0.006053925
00:10.2,0.006071090999999999
00:10.2,0.006151200000000001
00:10.2,0.00612259
00:10.3,0.006134034000000001
00:10.3,0.006145477
00:10.3,0.006116867999999999
00:10.3,0.006116868
00:10.3,0.006099701999999999
00:10.3,0.006111146
00:10.3,0.006139754999999999
00:10.3,0.006128311
00:10.3,0.006168365
00:10.3,0.006134033
00:10.3,0.006134034
00:10.3,0.006031036
00:10.3,0.005945206
00:10.3,0.00606537
00:10.3,0.006162644
00:10.3,0.006162643000000001
00:10.3,0.006128311000000001
00:10.3,0.00607109
00:10.3,0.006048201999999999
00:10.3,0.006002426
00:10.3,0.006076813
00:10.3,0.006145477
00:10.3,0.0061225889999999995
00:10.3,0.006145477
00:10.3,0.006202697
00:10.4,0.006082535
00:10.4,0.006008148
00:10.4,0.006128311
00:10.4,0.006214142000000001
00:10.4,0.006088256
00:10.4,0.006036758999999999
00:10.4,0.006065369
00:10.4,0.006099701000000001
00:10.4,0.0060825340000000006
00:10.4,0.006031036
00:10.4,0.006093979
00:10.4,0.006105422
00:10.4,0.006111144999999999
00:10.4,0.0061512
00:10.4,0.006116866
00:10.4,0.006111145
00:10.4,0.006002426
00:10.4,0.006053924
00:10.4,0.006116867
00:10.4,0.006151199
00:10.4,0.0060710899999999995
00:10.4,0.006111145
00:10.4,0.006128311
00:10.4,0.006093978
00:10.4,0.0060825340000000006
00:10.5,0.006105421999999999
00:10.5,0.006076813
00:10.5,0.006019592000000001
00:10.5,0.006116866
00:10.5,0.006111145
00:10.5,0.006128311000000001
00:10.5,0.006134034
00:10.5,0.006162643999999999
00:10.5,0.0061340330000000005
00:10.5,0.005933762
00:10.5,0.0059623720000000005
00:10.5,0.006162643
00:10.5,0.006093978
00:10.5,0.006059646
00:10.5,0.006065368000000001
00:10.5,0.0060253139999999995
00:10.5,0.006048202
00:10.5,0.006088256
00:10.5,0.006139756
00:10.5,0.0061512
00:10.5,0.006093978999999999
00:10.5,0.006059647
00:10.5,0.006048202
00:10.5,0.0061054230000000004
00:10.5,0.006111144999999999
00:10.6,0.006116866
00:10.6,0.0061283119999999995
00:10.6,0.006111146
00:10.6,0.006013869999999999
00:10.6,0.0060539240000000005
00:10.6,0.006128311
00:10.6,0.006093978
00:10.6,0.005973816000000001
00:10.6,0.005933762
00:10.6,0.006071091
00:10.6,0.006271363
00:10.6,0.00617981
00:10.6,0.006019591999999999
00:10.6,0.006042479999999999
00:10.6,0.006065368
00:10.6,0.006036758000000001
00:10.6,0.00604248
00:10.6,0.006065368000000001
00:10.6,0.006088257
00:10.6,0.006128312
00:10.6,0.006128312
00:10.6,0.006076812
00:10.6,0.006031036
00:10.6,0.006048202
00:10.6,0.0060882570000000006
00:10.7,0.006099700999999999
00:10.7,0.006042481
00:10.7,0.006065369
00:10.7,0.006059646
00:10.7,0.006065368
00:10.7,0.006019592999999999
00:10.7,0.00604248
00:10.7,0.006076813
00:10.7,0.006111144999999999
00:10.7,0.006105423
00:10.7,0.006059646
00:10.7,0.005985259999999999
00:10.7,0.005990982
00:10.7,0.006036758
00:10.7,0.006053924
00:10.7,0.006082535
00:10.7,0.00607109
00:10.7,0.006025315
00:10.7,0.006128311
00:10.7,0.006036758
00:10.7,0.0059623720000000005
00:10.7,0.006031036
00:10.7,0.006105423
00:10.7,0.0061054230000000004
00:10.7,0.006042479999999999
00:10.8,0.0060596470000000005
00:10.8,0.006093979
00:10.8,0.006025314
00:10.8,0.006008148
00:10.8,0.006088257
00:10.8,0.006128311
00:10.8,0.006082534
00:10.8,0.005962372
00:10.8,0.005990982
00:10.8,0.0060882570000000006
00:10.8,0.00607109
00:10.8,0.006053925
00:10.8,0.006071091
00:10.8,0.006059647
00:10.8,0.006059646
00:10.8,0.006025314
00:10.8,0.006048203
00:10.8,0.006048203
00:10.8,0.006031037
00:10.8,0.0060310369999999995
00:10.8,0.006053925
00:10.8,0.006071091
00:10.8,0.006076813
00:10.8,0.006082535
00:10.8,0.006042481000000001
00:10.9,0.0059795379999999995
00:10.9,0.006002426
00:10.9,0.006059646
00:10.9,0.006179808999999999
00:10.9,0.006013871
00:10.9,0.006002426999999999
00:10.9,0.006071091
00:10.9,0.006065369
00:10.9,0.006048202999999999
00:10.9,0.005922317000000001
00:10.9,0.005968094
00:10.9,0.006008148999999999
00:10.9,0.006082535
00:10.9,0.006065369
00:10.9,0.006053924999999999
00:10.9,0.006099701
00:10.9,0.006122588
00:10.9,0.00604248
00:10.9,0.005979538
00:10.9,0.006002426
00:10.9,0.006031036
00:10.9,0.006071091
00:10.9,0.0060825340000000006
00:10.9,0.006053925
00:10.9,0.006093978999999999
00:11.0,0.006053924999999999
00:11.0,0.006053925
00:11.0,0.006065369
00:11.0,0.006019592000000001
00:11.0,0.006002426999999999
00:11.0,0.006025315
00:11.0,0.006122589
00:11.0,0.0061054230000000004
00:11.0,0.006036758000000001
00:11.0,0.0060310369999999995
00:11.0,0.005950928999999999
00:11.0,0.005899428
00:00:11,0.006059647
00:11.0,0.006065368999999999
00:11.0,0.006048203
00:11.0,0.005996703999999999
00:11.0,0.006036758000000001
00:11.0,0.006111143999999999
00:11.0,0.006036759
00:11.0,0.006082535
00:11.0,0.006093979
00:11.0,0.006053925
00:11.0,0.006019593
00:11.0,0.006002426
00:11.0,0.006099701000000001
00:11.1,0.006053925
00:11.1,0.006019592
00:11.1,0.0060997000000000004
00:11.1,0.006099701
00:11.1,0.006025315
00:11.1,0.006031037
00:11.1,0.006002426999999999
00:11.1,0.005968094
00:11.1,0.00598526
00:11.1,0.005962372
00:11.1,0.006042479999999999
00:11.1,0.006071091
00:11.1,0.006036759
00:11.1,0.006042481000000001
00:11.1,0.006048203
00:11.1,0.006082534
00:11.1,0.006128310999999999
00:11.1,0.006088257
00:11.1,0.006008149
00:11.1,0.006002426999999999
00:11.1,0.006053925
00:11.1,0.0060539240000000005
00:11.1,0.0060825340000000006
00:11.1,0.006048202
00:11.1,0.0059623720000000005
00:11.2,0.006048202000000001
00:11.2,0.0060310369999999995
00:11.2,0.006008149000000001
00:11.2,0.006036758000000001
00:11.2,0.0060710899999999995
00:11.2,0.005968094
00:11.2,0.005956649999999999
00:11.2,0.006019593
00:11.2,0.006059646
00:11.2,0.006059646
00:11.2,0.005945206
00:11.2,0.006019592
00:11.2,0.0060596470000000005
00:11.2,0.005990982000000001
00:11.2,0.005968094
00:11.2,0.006048202
00:11.2,0.0061168659999999994
00:11.2,0.006082533999999999
00:11.2,0.005996704
00:11.2,0.006053925
00:11.2,0.006008149
00:11.2,0.006013870999999999
00:11.2,0.006025314
00:11.2,0.0060539240000000005
00:11.2,0.00604248
00:11.3,0.005990982
00:11.3,0.005945206
00:11.3,0.00595665
00:11.3,0.006031035999999999
00:11.3,0.006025314
00:11.3,0.005956650000000001
00:11.3,0.005945204999999999
00:11.3,0.005973817
00:11.3,0.006128311000000001
00:11.3,0.006036758000000001
00:11.3,0.005973816
00:11.3,0.006013870000000001
00:11.3,0.006019592000000001
00:11.3,0.00604248
00:11.3,0.006036758000000001
00:11.3,0.005973816
00:11.3,0.005962372
00:11.3,0.005968094
00:11.3,0.006048202999999999
00:11.3,0.006025314
00:11.3,0.0059623720000000005
00:11.3,0.006019592
00:11.3,0.006076813
00:11.3,0.00598526
00:11.3,0.005956649999999999
00:11.4,0.006002426
00:11.4,0.005939484
00:11.4,0.00598526
00:11.4,0.006036758000000001
00:11.4,0.006042479999999999
00:11.4,0.005945206000000001
00:11.4,0.0059623720000000005
00:11.4,0.006019592
00:11.4,0.005996704
00:11.4,0.006053924
00:11.4,0.006065368
00:11.4,0.005973816000000001
00:11.4,0.005990982000000001
00:11.4,0.0060253139999999995
00:11.4,0.006082535
00:11.4,0.006019592000000001
00:11.4,0.005928039
00:11.4,0.005950927999999999
00:11.4,0.005996704
00:11.4,0.0059566490000000005
00:11.4,0.005933762
00:11.4,0.006008148
00:11.4,0.006065368000000001
00:11.4,0.006002426000000001
00:11.4,0.005973816
00:11.5,0.0060081480000000005
00:11.5,0.006048202
00:11.5,0.005962371
00:11.5,0.005950927000000001
00:11.5,0.006025314
00:11.5,0.005996704
00:11.5,0.0059280389999999995
00:11.5,0.005996704
00:11.5,0.006053925
00:11.5,0.006048203
00:11.5,0.005979538
00:11.5,0.00595665
00:11.5,0.0059795379999999995
00:11.5,0.005990982
00:11.5,0.005922317999999999
00:11.5,0.005939484
00:11.5,0.006082534999999999
00:11.5,0.006088257
00:11.5,0.00598526
00:11.5,0.005945206
00:11.5,0.005916595
00:11.5,0.005990981
00:11.5,0.00607109
00:11.5,0.005979538
00:11.5,0.005990982000000001
00:11.6,0.006002426
00:11.6,0.005990982000000001
00:11.6,0.005990982000000001
00:11.6,0.005968094
00:11.6,0.005973816
00:11.6,0.005968094
00:11.6,0.005990982000000001
00:11.6,0.0060081480000000005
00:11.6,0.006065368999999999
00:11.6,0.005968094
00:11.6,0.005933761000000001
00:11.6,0.005990982000000001
00:11.6,0.005996704
00:11.6,0.006059647
00:11.6,0.006065369
00:11.6,0.005939484
00:11.6,0.005962372
00:11.6,0.006048203
00:11.6,0.006036759000000001
00:11.6,0.005939483
00:11.6,0.005905151
00:11.6,0.005950928
00:11.6,0.006048203
00:11.6,0.006008148
00:11.6,0.005973816
00:11.7,0.005950927
00:11.7,0.006002427
00:11.7,0.005996705
00:11.7,0.0060138710000000005
00:11.7,0.006031036000000001
00:11.7,0.0060024250000000005
00:11.7,0.005990981
00:11.7,0.0059680950000000005
00:11.7,0.0059280389999999995
00:11.7,0.006048203
00:11.7,0.006071091
00:11.7,0.006008147
00:11.7,0.005996703
00:11.7,0.005945205
00:11.7,0.005933762
00:11.7,0.006002426
00:11.7,0.006025314000000001
00:11.7,0.006008148
00:11.7,0.005922318000000001
00:11.7,0.00592804
00:11.7,0.005945206000000001
00:11.7,0.006025315000000001
00:11.7,0.005985259
00:11.7,0.006002426999999999
00:11.7,0.005933760999999999
00:11.8,0.005950928000000001
00:11.8,0.006019592999999999
00:11.8,0.005990983
00:11.8,0.006002426
00:11.8,0.005990982000000001
00:11.8,0.006042481
00:11.8,0.0060138710000000005
00:11.8,0.005950928
00:11.8,0.005950927
00:11.8,0.005950926999999999
00:11.8,0.005990983
00:11.8,0.006002426999999999
00:11.8,0.006008149
00:11.8,0.005956650000000001
00:11.8,0.005887985
00:11.8,0.005933761
00:11.8,0.005950929
00:11.8,0.0060081480000000005
00:11.8,0.006059647
00:11.8,0.006088257
00:11.8,0.006065369
00:11.8,0.006036759
00:11.8,0.0058994289999999994
00:11.8,0.005956650000000001
00:11.8,0.006002427
00:11.9,0.005990983
00:11.9,0.005950928
00:11.9,0.006031037
00:11.9,0.006053925
00:11.9,0.006019593
00:11.9,0.005973817
00:11.9,0.005990983
00:11.9,0.005950927
00:11.9,0.0059680950000000005
00:11.9,0.005939484000000001
00:11.9,0.0059452049999999985
00:11.9,0.006036759
00:11.9,0.006105423
00:11.9,0.006019593
00:11.9,0.005933760999999999
00:11.9,0.005950927
00:11.9,0.005950927999999999
00:11.9,0.005956649999999999
00:11.9,0.006031037
00:11.9,0.006071091
00:11.9,0.0060310369999999995
00:11.9,0.005990983
00:11.9,0.005973816
00:11.9,0.005962370999999999
00:11.9,0.005950927999999999
00:12.0,0.005962372
00:12.0,0.005990983
00:12.0,0.006048203
00:12.0,0.005985261
00:12.0,0.005922317
00:12.0,0.005996705000000001
00:12.0,0.0060768129999999995
00:12.0,0.006071091000000001
00:12.0,0.005968094
00:12.0,0.005939484
00:12.0,0.005933762
00:12.0,0.005945205
00:00:12,0.006019593
00:12.0,0.006019593
00:12.0,0.006036759
00:12.0,0.006088255999999999
00:12.0,0.006065369
00:12.0,0.005950927000000001
00:12.0,0.005962371000000001
00:12.0,0.0059165960000000005
00:12.0,0.005996705
00:12.0,0.006053925
00:12.0,0.006025315
00:12.0,0.0060138710000000005
00:12.0,0.005968094
00:12.1,0.0059795379999999995
00:12.1,0.005968094
00:12.1,0.005962372
00:12.1,0.005990982000000001
00:12.1,0.005996704
00:12.1,0.006071091
00:12.1,0.006082535
00:12.1,0.006002427
00:12.1,0.006008148
00:12.1,0.006042481
00:12.1,0.005979539
00:12.1,0.006002427
00:12.1,0.006042481000000001
00:12.1,0.005968095
00:12.1,0.005956649999999999
00:12.1,0.006071091
00:12.1,0.0060596470000000005
00:12.1,0.006019593
00:12.1,0.0059795379999999995
00:12.1,0.005968094
00:12.1,0.005968094
00:12.1,0.006002426
00:12.1,0.006048203
00:12.1,0.006065368999999999
00:12.1,0.006008148999999999
00:12.2,0.006048203
00:12.2,0.006008149000000001
00:12.2,0.005990982
00:12.2,0.006128311
00:12.2,0.006008149000000001
00:12.2,0.005996705
00:12.2,0.006025314
00:12.2,0.006088258
00:12.2,0.0059852609999999995
00:12.2,0.006013871
00:12.2,0.006019593
00:12.2,0.005962372999999999
00:12.2,0.0059337619999999995
00:12.2,0.00601387
00:12.2,0.006128312
00:12.2,0.006071091
00:12.2,0.005968094
00:12.2,0.005962370999999999
00:12.2,0.005985259000000001
00:12.2,0.006019592
00:12.2,0.0060081480000000005
00:12.2,0.006031036
00:12.2,0.006019593
00:12.2,0.00598526
00:12.2,0.005996704
00:12.3,0.006002427
00:12.3,0.006065368999999999
00:12.3,0.006048202999999999
00:12.3,0.006053925
00:12.3,0.006019593
00:12.3,0.00604248
00:12.3,0.0060253139999999995
00:12.3,0.00601387
00:12.3,0.005933761
00:12.3,0.005950927
00:12.3,0.006048202
00:12.3,0.006048203
00:12.3,0.0060081480000000005
00:12.3,0.00598526
00:12.3,0.005985259
00:12.3,0.00601387
00:12.3,0.006019592
00:12.3,0.005990982000000001
00:12.3,0.005996704
00:12.3,0.005956650000000001
00:12.3,0.005973815
00:12.3,0.006008148
00:12.3,0.006145477
00:12.3,0.006048202
00:12.3,0.005928039
00:12.4,0.0060539240000000005
00:12.4,0.006025314
00:12.4,0.00601387
00:12.4,0.005996703
00:12.4,0.005945206
00:12.4,0.0059623720000000005
00:12.4,0.005968093000000001
00:12.4,0.006002426
00:12.4,0.006036758000000001
00:12.4,0.005990982
00:12.4,0.005893707999999999
00:12.4,0.005933761
00:12.4,0.006059646999999999
00:12.4,0.006088258
00:12.4,0.00601387
00:12.4,0.005990982000000001
00:12.4,0.005973816
00:12.4,0.005973815
00:12.4,0.006059646
00:12.4,0.006042480000000001
00:12.4,0.005910873
00:12.4,0.005876541
00:12.4,0.005950927
00:12.4,0.006048203
00:12.4,0.006025314
00:12.5,0.005968093
00:12.5,0.0060882570000000006
00:12.5,0.006036758999999999
00:12.5,0.005968093
00:12.5,0.00595665
00:12.5,0.005985259
00:12.5,0.005990982
00:12.5,0.0060081480000000005
00:12.5,0.005979538
00:12.5,0.005928039
00:12.5,0.006019592000000001
00:12.5,0.006048202
00:12.5,0.006036759
00:12.5,0.005945205
00:12.5,0.005985259000000001
00:12.5,0.005979537
00:12.5,0.005928039
00:12.5,0.005887985
00:12.5,0.005950927000000001
00:12.5,0.006025314
00:12.5,0.006048202
00:12.5,0.0060768129999999995
00:12.5,0.0060024250000000005
00:12.5,0.00598526
00:12.5,0.006002426
00:12.6,0.006013871
00:12.6,0.006019592000000001
00:12.6,0.00604248
00:12.6,0.006042479999999999
00:12.6,0.006053924
00:12.6,0.005916595
00:12.6,0.005933761
00:12.6,0.006019592999999999
00:12.6,0.006008147000000001
00:12.6,0.006013869000000001
00:12.6,0.005996703
00:12.6,0.0059795379999999995
00:12.6,0.005968093000000001
00:12.6,0.005979537
00:12.6,0.006013870000000001
00:12.6,0.005916595
00:12.6,0.0059738149999999995
00:12.6,0.006065368
00:12.6,0.006048203
00:12.6,0.006048203
00:12.6,0.006065369
00:12.6,0.00604248
00:12.6,0.006036759
00:12.6,0.005968093
00:12.6,0.0060081480000000005
00:12.7,0.006013870000000001
00:12.7,0.006002426
00:12.7,0.0060081480000000005
00:12.7,0.006025315
00:12.7,0.006053925000000001
00:12.7,0.006111145
00:12.7,0.005968093
00:12.7,0.005945205
00:12.7,0.0059280389999999995
00:12.7,0.005956649
00:12.7,0.006002426
00:12.7,0.006036759
00:12.7,0.006031037
00:12.7,0.005979538000000001
00:12.7,0.005968094
00:12.7,0.006036758999999999
00:12.7,0.006013869999999999
00:12.7,0.006093979
00:12.7,0.006088257
00:12.7,0.00595665
00:12.7,0.005968093000000001
00:12.7,0.006002426000000001
00:12.7,0.005968093000000001
00:12.7,0.0059738149999999995
00:12.7,0.005985259999999999
00:12.8,0.006059647
00:12.8,0.006053925
00:12.8,0.006076813
00:12.8,0.006031035999999999
00:12.8,0.0059967039999999985
00:12.8,0.005962371
00:12.8,0.005933761000000001
00:12.8,0.006002427
00:12.8,0.006053925000000001
00:12.8,0.006042481000000001
00:12.8,0.005996704
00:12.8,0.005996703
00:12.8,0.005985259
00:12.8,0.005922317
00:12.8,0.006048202999999999
00:12.8,0.006025315000000001
00:12.8,0.006048203
00:12.8,0.006002426
00:12.8,0.006025315
00:12.8,0.005996704
00:12.8,0.005939483000000001
00:12.8,0.005945205
00:12.8,0.005973817
00:12.8,0.006065369
00:12.8,0.006019593
00:12.9,0.006048203
00:12.9,0.006053925
00:12.9,0.006059647
00:12.9,0.006025314
00:12.9,0.005996705
00:12.9,0.0059738149999999995
00:12.9,0.006025315000000001
00:12.9,0.005962371
00:12.9,0.005973815
00:12.9,0.006013869
00:12.9,0.006031037
00:12.9,0.0060138710000000005
00:12.9,0.006002426
00:12.9,0.006042481000000001
00:12.9,0.005985261
00:12.9,0.006013869
00:12.9,0.005973815
00:12.9,0.005990981000000001
00:12.9,0.005973816000000001
00:12.9,0.005973817
00:12.9,0.006071091000000001
00:12.9,0.006065369
00:12.9,0.006013869999999999
00:12.9,0.0060253139999999995
00:12.9,0.006042481000000001
00:13.0,0.006025315000000001
00:13.0,0.006065369
00:13.0,0.00598526
00:13.0,0.006025315000000001
00:13.0,0.006036758999999999
00:13.0,0.005985259000000001
00:13.0,0.005973815
00:13.0,0.005962370999999999
00:13.0,0.005979538
00:13.0,0.0060138710000000005
00:13.0,0.006025315
00:13.0,0.006053925000000001
00:00:13,0.006042481000000001
00:13.0,0.005962371
00:13.0,0.005979537
00:13.0,0.006002426999999999
00:13.0,0.006025315
00:13.0,0.006019592999999999
00:13.0,0.006053925
00:13.0,0.006053925
00:13.0,0.006065368999999999
00:13.0,0.006048203
00:13.0,0.006031036
00:13.0,0.006008148
00:13.0,0.006002426
00:13.1,0.005996705000000001
00:13.1,0.005990983
00:13.1,0.005962371
00:13.1,0.006002427
00:13.1,0.006002426999999999
00:13.1,0.005973815999999999
00:13.1,0.006019592
00:13.1,0.006031037
00:13.1,0.006002426999999999
00:13.1,0.005945206000000001
00:13.1,0.005962372
00:13.1,0.005979539
00:13.1,0.005956649999999999
00:13.1,0.00598526
00:13.1,0.006116867
00:13.1,0.006065369
00:13.1,0.005973815
00:13.1,0.005979537
00:13.1,0.005990983000000001
00:13.1,0.005996705000000001
00:13.1,0.006031037
00:13.1,0.0060138710000000005
00:13.1,0.00598526
00:13.1,0.006008149
00:13.1,0.005956649
00:13.2,0.0059852609999999995
00:13.2,0.0059852609999999995
00:13.2,0.006019592000000001
00:13.2,0.006019592
00:13.2,0.0060081480000000005
00:13.2,0.006025315000000001
00:13.2,0.006008148
00:13.2,0.005990982
00:13.2,0.0060310369999999995
00:13.2,0.0060081480000000005
00:13.2,0.005996705000000001
00:13.2,0.005973816000000001
00:13.2,0.006002426
00:13.2,0.005990982
00:13.2,0.006025314
00:13.2,0.006048203
00:13.2,0.00598526
00:13.2,0.005962372999999999
00:13.2,0.006048203
00:13.2,0.006002426
00:13.2,0.005985259000000001
00:13.2,0.0060768129999999995
00:13.2,0.006008149
00:13.2,0.005950928
00:13.2,0.006031036
00:13.3,0.006059647
00:13.3,0.006053925
00:13.3,0.006053925
00:13.3,0.006031037
00:13.3,0.00598526
00:13.3,0.006002426
00:13.3,0.005933761
00:13.3,0.005950928
00:13.3,0.005990982000000001
00:13.3,0.006048203
00:13.3,0.006059647
00:13.3,0.006025315
00:13.3,0.005979538
00:13.3,0.0059852609999999995
00:13.3,0.006071091
00:13.3,0.006105423
00:13.3,0.006025315
00:13.3,0.005910873
00:13.3,0.005968094
00:13.3,0.006036758
00:13.3,0.006093978999999999
00:13.3,0.006019592
00:13.3,0.005990982
00:13.3,0.006076813
00:13.3,0.006013871
00:13.4,0.00595665
00:13.4,0.0060081480000000005
00:13.4,0.006002426
00:13.4,0.006036759000000001
00:13.4,0.006019592
00:13.4,0.005990982
00:13.4,0.0059566490000000005
00:13.4,0.006031037
00:13.4,0.005979539000000001
00:13.4,0.005996705
00:13.4,0.005990982
00:13.4,0.006042481
00:13.4,0.006082535
00:13.4,0.006031036
00:13.4,0.0060081480000000005
00:13.4,0.006048202
00:13.4,0.0060253139999999995
00:13.4,0.005973816
00:13.4,0.006036758000000001
00:13.4,0.00601387
00:13.4,0.0060253139999999995
00:13.4,0.006053925
00:13.4,0.006076811999999999
00:13.4,0.0060310369999999995
00:13.4,0.0059623720000000005
00:13.5,0.005950928
00:13.5,0.006025315
00:13.5,0.006111145
00:13.5,0.006053925
00:13.5,0.005928040000000001
00:13.5,0.00598526
00:13.5,0.006025314
00:13.5,0.006059646999999999
00:13.5,0.005985259
00:13.5,0.005962371000000001
00:13.5,0.006053924999999999
00:13.5,0.006031036000000001
00:13.5,0.006065369
00:13.5,0.006036758000000001
00:13.5,0.006116868
00:13.5,0.006071091
00:13.5,0.006053924999999999
00:13.5,0.005990982
00:13.5,0.005990982
00:13.5,0.005973816000000001
00:13.5,0.005990980999999999
00:13.5,0.006002425
00:13.5,0.006139756
00:13.5,0.006111146
00:13.5,0.006002426
00:13.6,0.00598526
00:13.6,0.005996703999999999
00:13.6,0.005990982
00:13.6,0.005939483000000001
00:13.6,0.0060195909999999995
00:13.6,0.006093978
00:13.6,0.006116866999999999
00:13.6,0.006071091
00:13.6,0.0060253139999999995
00:13.6,0.0059623720000000005
00:13.6,0.005996704
00:13.6,0.006019593
00:13.6,0.006093978999999999
00:13.6,0.006071091000000001
00:13.6,0.006002425999999999
00:13.6,0.006048201999999999
00:13.6,0.006048202
00:13.6,0.006082536
00:13.6,0.006059647
00:13.6,0.006031034999999999
00:13.6,0.006019592000000001
00:13.6,0.006031036
00:13.6,0.00604248
00:13.6,0.005979536999999999
00:13.6,0.0060081480000000005
00:13.7,0.005990982000000001
00:13.7,0.0060596470000000005
00:13.7,0.006099701
00:13.7,0.006008148
00:13.7,0.005990982000000001
00:13.7,0.0061283119999999995
00:13.7,0.006116868
00:13.7,0.006111146
00:13.7,0.00604248
00:13.7,0.005996704
00:13.7,0.006065368000000001
00:13.7,0.006048201999999999
00:13.7,0.006076814000000001
00:13.7,0.006036756999999999
00:13.7,0.006048202
00:13.7,0.006059646
00:13.7,0.005996702999999999
00:13.7,0.006031036
00:13.7,0.006071091000000001
00:13.7,0.006019592
00:13.7,0.005979536999999999
00:13.7,0.0060081480000000005
00:13.7,0.006042479999999999
00:13.7,0.006065368999999999
00:13.7,0.006008148
00:13.8,0.006065368
00:13.8,0.006036758
00:13.8,0.005990981999999999
00:13.8,0.006134034
00:13.8,0.006139755
00:13.8,0.006053925000000001
00:13.8,0.006025313
00:13.8,0.006053925
00:13.8,0.006099701
00:13.8,0.006008148
00:13.8,0.005945206000000001
00:13.8,0.006065368000000001
00:13.8,0.006093979
00:13.8,0.006031036
00:13.8,0.006031037
00:13.8,0.006053925
00:13.8,0.006082535
00:13.8,0.006059647
00:13.8,0.0060081480000000005
00:13.8,0.005990981
00:13.8,0.006008147
00:13.8,0.00601387
00:13.8,0.006025315
00:13.8,0.006128312
00:13.8,0.006139755
00:13.9,0.006048203
00:13.9,0.006053925
00:13.9,0.006105423
00:13.9,0.006174087
00:13.9,0.006122589000000001
00:13.9,0.005990980999999999
00:13.9,0.005990982
00:13.9,0.005996704
00:13.9,0.006048201999999999
00:13.9,0.006093977999999999
00:13.9,0.0060825340000000006
00:13.9,0.006013869999999999
00:13.9,0.006025314
00:13.9,0.006076812
00:13.9,0.006128311
00:13.9,0.00612259
00:13.9,0.006042479999999999
00:13.9,0.006002425999999999
00:13.9,0.00598526
00:13.9,0.006036756999999999
00:13.9,0.006025315
00:13.9,0.006065369
00:13.9,0.0060768129999999995
00:13.9,0.006122589
00:13.9,0.006088256999999999
00:14.0,0.006048202999999999
00:14.0,0.006025312999999999
00:14.0,0.005996703
00:14.0,0.006082535
00:14.0,0.0061340330000000005
00:14.0,0.006105424
00:14.0,0.006082535
00:14.0,0.006076813
00:14.0,0.006065369
00:14.0,0.0060596470000000005
00:14.0,0.006048202
00:14.0,0.0060768129999999995
00:00:14,0.006048203
00:14.0,0.005990983
00:14.0,0.006093978999999999
00:14.0,0.006065368
00:14.0,0.006019592000000001
00:14.0,0.006031036
00:14.0,0.006031036
00:14.0,0.00601387
00:14.0,0.006088257
00:14.0,0.006042481
00:14.0,0.006099701
00:14.0,0.006128311
00:14.0,0.006134034
00:14.1,0.006088257
00:14.1,0.00604248
00:14.1,0.005996704
00:14.1,0.005990980999999999
00:14.1,0.006082535
00:14.1,0.006168366
00:14.1,0.006076813
00:14.1,0.006025314
00:14.1,0.006082535
00:14.1,0.006031035999999999
00:14.1,0.006036756999999999
00:14.1,0.006036758000000001
00:14.1,0.006111145
00:14.1,0.006162643
00:14.1,0.006048202
00:14.1,0.0059623720000000005
00:14.1,0.006002425
00:14.1,0.006053924
00:14.1,0.006071090999999999
00:14.1,0.006111146
00:14.1,0.006082535
00:14.1,0.0060539240000000005
00:14.1,0.006036758
00:14.1,0.006002426
00:14.1,0.0061569220000000004
00:14.2,0.00612259
00:14.2,0.005945204999999999
00:14.2,0.006008148
00:14.2,0.0061340330000000005
00:14.2,0.0061683649999999994
00:14.2,0.0060882570000000006
00:14.2,0.006082534
00:14.2,0.006099702
00:14.2,0.006065369
00:14.2,0.006065368
00:14.2,0.006065368
00:14.2,0.0060997
00:14.2,0.006099701000000001
00:14.2,0.006076812000000001
00:14.2,0.006065368
00:14.2,0.006042479999999999
00:14.2,0.006008148
00:14.2,0.006065368
00:14.2,0.006093978
00:14.2,0.006036758999999999
00:14.2,0.006048202000000001
00:14.2,0.006156921000000001
00:14.2,0.006111144
00:14.2,0.0060539240000000005
00:14.2,0.006042479999999999
00:14.3,0.006036759
00:14.3,0.005973816
00:14.3,0.0059337619999999995
00:14.3,0.006105423
00:14.3,0.006242752999999999
00:14.3,0.006196976
00:14.3,0.0061569220000000004
00:14.3,0.00607109
00:14.3,0.006053924
00:14.3,0.0060596470000000005
00:14.3,0.0061283119999999995
00:14.3,0.006134033
00:14.3,0.006076811999999999
00:14.3,0.006093978000000001
00:14.3,0.006065369
00:14.3,0.006099701
00:14.3,0.006162643
00:14.3,0.006145477000000001
00:14.3,0.006042481
00:14.3,0.006048202
00:14.3,0.006059646
00:14.3,0.0060596470000000005
00:14.3,0.006111145
00:14.3,0.0061225889999999995
00:14.3,0.006099701000000001
00:14.4,0.006162644000000001
00:14.4,0.006134034
00:14.4,0.006105422000000001
00:14.4,0.006139755
00:14.4,0.006088256
00:14.4,0.006145476999999999
00:14.4,0.00620842
00:14.4,0.006225586
00:14.4,0.006082534
00:14.4,0.006082535000000001
00:14.4,0.006065368
00:14.4,0.006048203
00:14.4,0.0060882570000000006
00:14.4,0.0061512
00:14.4,0.006185531
00:14.4,0.0060997000000000004
00:14.4,0.006082534
00:14.4,0.006076811999999999
00:14.4,0.0060710899999999995
00:14.4,0.006122588
00:14.4,0.006134033
00:14.4,0.006151199999999999
00:14.4,0.006145477
00:14.4,0.006099701
00:14.4,0.006071091
00:14.5,0.006116867
00:14.5,0.006191253000000001
00:14.5,0.006128311
00:14.5,0.006048202
00:14.5,0.006139755
00:14.5,0.0061569220000000004
00:14.5,0.006179809
00:14.5,0.006116867
00:14.5,0.006105423
00:14.5,0.0061340330000000005
00:14.5,0.0060825340000000006
00:14.5,0.0060997
00:14.5,0.006082535
00:14.5,0.006128310999999999
00:14.5,0.006174088
00:14.5,0.006134034
00:14.5,0.006093979
00:14.5,0.006065369
00:14.5,0.006105422999999999
00:14.5,0.006122589
00:14.5,0.006116867
00:14.5,0.006059646
00:14.5,0.006059645999999999
00:14.5,0.00620842
00:14.5,0.006185532
00:14.6,0.006105422
00:14.6,0.006139756
00:14.6,0.006139755
00:14.6,0.0061512
00:14.6,0.006042479999999999
00:14.6,0.006036758000000001
00:14.6,0.006082535000000001
00:14.6,0.006076812000000001
00:14.6,0.006082535000000001
00:14.6,0.006082535
00:14.6,0.006139754999999999
00:14.6,0.006134032
00:14.6,0.0061397560000000006
00:14.6,0.006139755
00:14.6,0.006128311000000001
00:14.6,0.006134033
00:14.6,0.0060539240000000005
00:14.6,0.006036758000000001
00:14.6,0.006065368000000001
00:14.6,0.006116866
00:14.6,0.006139755
00:14.6,0.006134032999999999
00:14.6,0.006162644000000001
00:14.6,0.006151199
00:14.6,0.0060882570000000006
00:14.7,0.006082535
00:14.7,0.0061340330000000005
00:14.7,0.006088257
00:14.7,0.0060997
00:14.7,0.006053923999999999
00:14.7,0.006128312
00:14.7,0.006145477
00:14.7,0.006111144
00:14.7,0.006065368000000001
00:14.7,0.006145477000000001
00:14.7,0.006168366
00:14.7,0.006134031999999999
00:14.7,0.006088257
00:14.7,0.006088256
00:14.7,0.006162643
00:14.7,0.006116866000000001
00:14.7,0.0060710899999999995
00:14.7,0.006053924
00:14.7,0.006059645999999999
00:14.7,0.00620842
00:14.7,0.0061512
00:14.7,0.006082535000000001
00:14.7,0.006093978
00:14.7,0.006105422
00:14.7,0.0060997
00:14.8,0.006111145
00:14.8,0.006071091000000001
00:14.8,0.006065369
00:14.8,0.006105423
00:14.8,0.0060825340000000006
00:14.8,0.00604248
00:14.8,0.006093978000000001
00:14.8,0.006111144
00:14.8,0.006128310999999999
00:14.8,0.006116866
00:14.8,0.006139755
00:14.8,0.006076812
00:14.8,0.006002426000000001
00:14.8,0.006059646000000001
00:14.8,0.006088256999999999
00:14.8,0.006134033
00:14.8,0.006122589
00:14.8,0.006048202999999999
00:14.8,0.006031036
00:14.8,0.006082535
00:14.8,0.006082534
00:14.8,0.006202698
00:14.8,0.0060997000000000004
00:14.8,0.005968094
00:14.8,0.006031036000000001
00:14.9,0.006065368000000001
00:14.9,0.0060539240000000005
00:14.9,0.00601387
00:14.9,0.006088256
00:14.9,0.006059645999999999
00:14.9,0.006036757999999999
00:14.9,0.006065368000000001
00:14.9,0.006059646000000001
00:14.9,0.006031036
00:14.9,0.0060253139999999995
00:14.9,0.006093978999999999
00:14.9,0.0060882570000000006
00:14.9,0.006031036
00:14.9,0.006042481000000001
00:14.9,0.006048202999999999
00:14.9,0.006053924
00:14.9,0.006065368000000001
00:14.9,0.006025314
00:14.9,0.005979538
00:14.9,0.0060081480000000005
00:14.9,0.006042479999999999
00:14.9,0.006065368
00:14.9,0.006116868
00:14.9,0.005985259999999999
00:14.9,0.005945206000000001
00:15.0,0.005996704000000001
00:15.0,0.006042479999999999
00:15.0,0.00601387
00:15.0,0.006013870000000001
00:15.0,0.005968094
00:15.0,0.005939483000000001
00:15.0,0.005979538
00:15.0,0.006053924
00:15.0,0.006099701000000001
00:15.0,0.005968094
00:15.0,0.005933762
00:15.0,0.005859375
00:00:15,0.005996704
