,Elapsed Time,EMG
0,00:00:00,2.7358782291412322
1,00:00:00.004,-2.609702289104459
2,00:00:00.008,-2.160362541675573
3,00:00:00.012,-0.22228365764021868
4,00:00:00.016,1.1027200818061842
5,00:00:00.02,1.3401805758476257
6,00:00:00.024,0.8414057567715627
7,00:00:00.028,0.13483418896794305
8,00:00:00.032,-0.39084935933351506
9,00:00:00.036,-0.5733032301068306
10,00:00:00.04,-0.4265755750238896
11,00:00:00.044,-0.13316161930561038
12,00:00:00.048,0.0784210273995995
13,00:00:00.052,0.1642218269407754
14,00:00:00.056,0.13978568837046598
15,00:00:00.06,0.07729992317035769
16,00:00:00.064,0.012825340963900051
17,00:00:00.068,-0.04495569271966809
18,00:00:00.072,-0.05910260602831845
19,00:00:00.076,-0.03425903152674438
20,00:00:00.08,-0.014791910536587221
21,00:00:00.084,0.00492834707256405
22,00:00:00.088,0.02039154898375274
23,00:00:00.092,0.03393357899039984
24,00:00:00.096,0.012847096659243079
25,00:00:00.1,-0.0167246970522683
26,00:00:00.104,-0.01744832890108229
27,00:00:00.108,-0.01388453668914735
28,00:00:00.112,-0.0007038207259029102
29,00:00:00.116,0.016832248424179817
30,00:00:00.12,0.037588072707876556
31,00:00:00.124,-0.0046230440493673
32,00:00:00.128,-0.04260251508094369
33,00:00:00.132,-0.01834571396466347
34,00:00:00.136,0.0011818582424894
35,00:00:00.14,0.02631821972317995
36,00:00:00.144,-0.0026782725472003274
37,00:00:00.148,0.01580678857862949
38,00:00:00.152,0.022459895350039002
39,00:00:00.156,-0.007349191000685091
40,00:00:00.16,-0.03124514035880566
41,00:00:00.164,-0.022520004538819152
42,00:00:00.168,0.002709152831812384
43,00:00:00.172,0.02562251716153694
44,00:00:00.176,0.0070040469290688495
45,00:00:00.18,-0.0028495729129645064
46,00:00:00.184,0.009257456185878211
47,00:00:00.188,-0.00897077345871366
48,00:00:00.192,-0.0012138178863096939
49,00:00:00.196,-0.015709537008660873
50,00:00:00.2,-0.00912094768136739
51,00:00:00.204,0.0208607369568199
52,00:00:00.208,-0.0044965728593524545
53,00:00:00.212,0.009573681978508823
54,00:00:00.216,0.018430596799589687
55,00:00:00.22,-0.004826802818570288
56,00:00:00.224,-0.03159790835343306
57,00:00:00.228,-0.009462413087021563
58,00:00:00.232,0.01807972032111142
59,00:00:00.236,0.01791959366528314
60,00:00:00.24,-0.008138619363307953
61,00:00:00.244,-0.01560082717332987
62,00:00:00.248,0.007127875695005109
63,00:00:00.252,0.013848639151547111
64,00:00:00.256,-0.01042600907385349
65,00:00:00.26,-0.01224620896391571
66,00:00:00.264,0.01646920922212302
67,00:00:00.268,0.006869193050079049
68,00:00:00.272,-0.02031939418520776
69,00:00:00.276,0.0017406297847628802
70,00:00:00.28,0.02136194461490953
71,00:00:00.284,-0.011539675062522299
72,00:00:00.288,-0.015352948335930719
73,00:00:00.292,-0.006164740421809251
74,00:00:00.296,0.01211007835809141
75,00:00:00.3,0.03604604699648921
76,00:00:00.304,-0.005239757068920884
77,00:00:00.308,-0.027395182754844382
78,00:00:00.312,-0.01778065992402841
79,00:00:00.316,0.01556677813641724
80,00:00:00.32,0.012753263727063313
81,00:00:00.324,-0.014927611511666331
82,00:00:00.328,-0.01878718566149473
83,00:00:00.332,0.02807540516369049
84,00:00:00.336,0.03308501461287965
85,00:00:00.34,-0.01327811111696065
86,00:00:00.344,-0.01595015509519724
87,00:00:00.348,-0.01923921075649563
88,00:00:00.352,-0.00817248085513711
89,00:00:00.356,0.01003824686631559
90,00:00:00.36,-0.0022483087668661006
91,00:00:00.364,-0.014500087825581421
92,00:00:00.368,0.0601733410730958
93,00:00:00.372,0.03894326114095746
94,00:00:00.376,-0.04418038949370387
95,00:00:00.38,-0.05718656862154604
96,00:00:00.384,-0.02152588695753364
97,00:00:00.388,0.023611081298440747
98,00:00:00.392,0.05115932063199581
99,00:00:00.396,0.00010109710274263729
100,00:00:00.4,-0.018738343380391598
101,00:00:00.404,-0.01825599092990159
102,00:00:00.408,0.00291362055577338
103,00:00:00.412,0.014538026181981002
104,00:00:00.416,0.01674817630555486
105,00:00:00.42,0.00183574832044542
106,00:00:00.424,-0.02439787052571771
107,00:00:00.428,-0.004803425399586551
108,00:00:00.432,-0.013415651163086299
109,00:00:00.436,0.0056261022109538395
110,00:00:00.44,0.019081333652138738
111,00:00:00.444,0.014708049129694693
112,00:00:00.448,-0.009226062218658623
113,00:00:00.452,-0.013116526184603568
114,00:00:00.456,-0.009182994159346022
115,00:00:00.46,0.01487384526990359
116,00:00:00.464,0.01965059852227572
117,00:00:00.468,-0.013357997377170203
118,00:00:00.472,-0.02579817455261946
119,00:00:00.476,-0.006522345356643205
120,00:00:00.48,0.012811813372536562
121,00:00:00.484,0.021905664005316752
122,00:00:00.488,0.0174928359920159
123,00:00:00.492,0.00014270283281807815
124,00:00:00.496,-0.037230745423585204
125,00:00:00.5,-0.01590484194457535
126,00:00:00.504,0.006814705440774548
127,00:00:00.508,0.02033024316187951
128,00:00:00.512,0.009096447640331462
129,00:00:00.516,-0.009308594861067825
130,00:00:00.52,0.004097804194316259
131,00:00:00.524,-0.00530957663431764
132,00:00:00.528,-0.004071051836945121
133,00:00:00.532,-0.006582652451470489
134,00:00:00.536,0.01215368637349456
135,00:00:00.54,0.015851182397454953
136,00:00:00.544,-0.01113569631706924
137,00:00:00.548,-0.025022208690643297
138,00:00:00.552,0.00704153371043504
139,00:00:00.556,0.0185723805334419
140,00:00:00.56,0.01111411489546303
141,00:00:00.564,-0.01924196979962293
142,00:00:00.568,-0.01721951336367056
143,00:00:00.572,0.01264506473671645
144,00:00:00.576,0.005809280162793587
145,00:00:00.58,-0.0036472205538302612
146,00:00:00.584,0.01267310534603894
147,00:00:00.588,0.00857208843808621
148,00:00:00.592,-0.00732504401821643
149,00:00:00.596,-0.02454788144677886
150,00:00:00.6,-0.00476911477744579
151,00:00:00.604,0.007824920758139342
152,00:00:00.608,0.01072109816595912
153,00:00:00.612,0.015353273774962872
154,00:00:00.616,-0.0064552254043519506
155,00:00:00.62,-0.021687385917175554
156,00:00:00.624,0.0029754205024801117
157,00:00:00.628,0.03273846139200031
158,00:00:00.632,0.003946563694626101
159,00:00:00.636,-0.028347192332148562
160,00:00:00.64,-0.01727731688879431
161,00:00:00.644,-0.01969264890067279
162,00:00:00.648,0.01860184594988824
163,00:00:00.652,0.04175430600298567
164,00:00:00.656,0.009074549365323042
165,00:00:00.66,-0.02040845237206665
166,00:00:00.664,-0.0199940926395357
167,00:00:00.668,-0.001765748078469193
168,00:00:00.672,0.005665650882292539
169,00:00:00.676,0.006052401804481631
170,00:00:00.68,0.0032140390248969163
171,00:00:00.684,-0.0019738383853109514
172,00:00:00.688,0.00648149265907704
173,00:00:00.692,0.0020236133132130003
174,00:00:00.696,-0.005608438485069208
175,00:00:00.7,-0.018187185283750292
176,00:00:00.704,-0.00751310912892222
177,00:00:00.708,0.013452345679979771
178,00:00:00.712,0.011295156786218279
179,00:00:00.716,0.005255848940578284
180,00:00:00.72,0.005629341787425804
181,00:00:00.724,0.0026899967342615206
182,00:00:00.728,-0.0250664127524942
183,00:00:00.732,-0.00899640657007695
184,00:00:00.736,4.133326001465017e-05
185,00:00:00.74,0.0049900547310244275
186,00:00:00.744,0.027164891595020918
187,00:00:00.748,0.01860989211127162
188,00:00:00.752,-0.0266945442417636
189,00:00:00.756,-0.018539882265031327
190,00:00:00.76,-0.015191378304734823
191,00:00:00.764,0.008752021472901121
192,00:00:00.768,0.02246099372860047
193,00:00:00.772,0.01421730103902519
194,00:00:00.776,0.0007542153107351641
195,00:00:00.78,-0.0061426034662872605
196,00:00:00.784,-0.03071443666704
197,00:00:00.788,-0.009292576112784445
198,00:00:00.792,0.024325890990439768
199,00:00:00.796,0.01258392643649131
200,00:00:00.8,-0.005646372679620988
201,00:00:00.804,0.0021205464145168692
202,00:00:00.808,-0.0035233163507655237
203,00:00:00.812,-0.0026672850362956502
204,00:00:00.816,-0.01732954103499647
205,00:00:00.82,-0.00871183839626611
206,00:00:00.824,0.024903659214032807
207,00:00:00.828,0.04139509820379321
208,00:00:00.832,-0.005048040882684339
209,00:00:00.836,-0.04934223974123601
210,00:00:00.84,-0.025301100686192478
211,00:00:00.844,0.01512000034563241
212,00:00:00.848,0.03547676606103776
213,00:00:00.852,-0.0037648023571819106
214,00:00:00.856,-0.005995744839310639
215,00:00:00.86,-0.0024138438166119197
216,00:00:00.864,0.0005568136330111884
217,00:00:00.868,0.020072819257620722
218,00:00:00.872,-0.00667479203548282
219,00:00:00.876,-0.01044909423217178
220,00:00:00.88,-0.026690360624343157
221,00:00:00.884,-0.01215653819963336
222,00:00:00.888,0.02318702614866191
223,00:00:00.892,0.027544686105102308
224,00:00:00.896,0.007719707558862863
225,00:00:00.9,-0.0027204803191125397
226,00:00:00.904,-0.005443444068077956
227,00:00:00.908,-0.01202979730442166
228,00:00:00.912,-0.021912830416113162
229,00:00:00.916,-0.0017213973915204371
230,00:00:00.92,-0.0071514224691782225
231,00:00:00.924,0.012399943079799412
232,00:00:00.928,0.03180685779079793
233,00:00:00.932,0.022415628307498978
234,00:00:00.936,-0.01655189972370868
235,00:00:00.94,-0.01872300938703117
236,00:00:00.944,-0.01112277014181017
237,00:00:00.948,-0.012505750986747399
238,00:00:00.952,0.0010809937957674204
239,00:00:00.956,0.01900977496552512
240,00:00:00.96,0.009946206351742148
241,00:00:00.964,-0.016297157621011128
242,00:00:00.968,0.004545467207208279
243,00:00:00.972,0.017620735685341043
244,00:00:00.976,-0.0008692818228155409
245,00:00:00.98,-0.0119254361561616
246,00:00:00.984,-0.01794147491455077
247,00:00:00.988,0.005045978352427484
248,00:00:00.992,0.017557799175847346
249,00:00:00.996,-0.00240232050418854
250,00:00:01,-0.010190085158683363
251,00:00:01.004,-0.0054510727641172724
252,00:00:01.008,0.007561867765616624
253,00:00:01.012,0.01994839124381546
254,00:00:01.016,-0.01542827696539461
255,00:00:01.02,-0.013966418337076899
256,00:00:01.024,0.012343725669779818
257,00:00:01.028,0.0010211981134489196
258,00:00:01.032,0.011976640089415019
259,00:00:01.036,0.00716425571590662
260,00:00:01.04,-0.014436923898756499
261,00:00:01.044,-0.02315211761742831
262,00:00:01.048,-0.012654894031584249
263,00:00:01.052,0.0044795951755531825
264,00:00:01.056,0.03495152632240211
265,00:00:01.06,0.012899690773338078
266,00:00:01.064,-0.014096121885813773
267,00:00:01.068,0.009412966202944512
268,00:00:01.072,-0.0011601972219068572
269,00:00:01.076,-0.024138100445270552
270,00:00:01.08,-0.006949563568923627
271,00:00:01.084,-0.00098645119578578
272,00:00:01.088,0.004499803530052307
273,00:00:01.092,0.01085089286789298
274,00:00:01.096,0.007855186166125348
275,00:00:01.1,0.008059347979724421
276,00:00:01.104,-0.0025158857461065
277,00:00:01.108,-0.0194313218817115
278,00:00:01.112,-0.013291480951011177
279,00:00:01.116,0.01591123733669519
280,00:00:01.12,0.00898753083311022
281,00:00:01.124,0.0040974456351250115
282,00:00:01.128,0.0039641221519559604
283,00:00:01.132,-0.015247327653924
284,00:00:01.136,0.0029287268407642802
285,00:00:01.14,-0.002796186046907681
286,00:00:01.144,-0.013195000006817286
287,00:00:01.148,-0.0009730253368616104
288,00:00:01.152,0.00935681886039674
289,00:00:01.156,0.013078253017738458
290,00:00:01.16,0.01053236611187458
291,00:00:01.164,0.0049363863654434716
292,00:00:01.168,-0.008588977660110683
293,00:00:01.172,-0.02431815466843546
294,00:00:01.176,-0.01906393398530776
295,00:00:01.18,0.008746876148507
296,00:00:01.184,0.03513224376365534
297,00:00:01.188,0.035837573697790504
298,00:00:01.192,-0.042139925993978936
299,00:00:01.196,-0.04503184603527191
300,00:00:01.2,-0.0015946822331898123
301,00:00:01.204,0.031602491741068675
302,00:00:01.208,0.04421308643941303
303,00:00:01.212,0.005906232283450659
304,00:00:01.216,-0.027789454907178882
305,00:00:01.22,-0.039444923750124886
306,00:00:01.224,-0.016286845086142462
307,00:00:01.228,0.018841668614186367
308,00:00:01.232,0.02685764734633263
309,00:00:01.236,0.01899075007531787
310,00:00:01.24,-0.01028457330539827
311,00:00:01.244,-0.012600988615304232
312,00:00:01.248,0.01275578883360136
313,00:00:01.252,0.003501178347505635
314,00:00:01.256,-0.018599532078951583
315,00:00:01.26,-0.022528765257447972
316,00:00:01.264,-0.004604345682309941
317,00:00:01.268,0.01912336377426985
318,00:00:01.272,0.01171641296241431
319,00:00:01.276,0.00682470342144369
320,00:00:01.28,0.0017424155957996897
321,00:00:01.284,0.003876066439261191
322,00:00:01.288,0.01267921668477352
323,00:00:01.292,-0.00976310728583483
324,00:00:01.296,-0.055078213103115566
325,00:00:01.3,-0.002398868266027418
326,00:00:01.304,0.03740107081830507
327,00:00:01.308,0.018462779291439812
328,00:00:01.312,-0.0007805647328495867
329,00:00:01.316,-0.00809918879531324
330,00:00:01.32,-0.00563168700318784
331,00:00:01.324,-0.007964005926623939
332,00:00:01.328,-0.01840275409631432
333,00:00:01.332,0.02552643092349173
334,00:00:01.336,0.030873655574396232
335,00:00:01.34,-0.01995670166797935
336,00:00:01.344,-0.01929961913265292
337,00:00:01.348,-0.004815408435661082
338,00:00:01.352,-0.00437738336040639
339,00:00:01.356,0.01233881851658225
340,00:00:01.36,0.025883256457746067
341,00:00:01.364,-0.0015581891348119764
342,00:00:01.368,-0.028177718631923167
343,00:00:01.372,-0.009236796060577028
344,00:00:01.376,-0.0007117224213288853
345,00:00:01.38,0.024848820408806222
346,00:00:01.384,0.01755756209604437
347,00:00:01.388,-0.01329351065214727
348,00:00:01.392,-0.01097027864307165
349,00:00:01.396,-0.004128275497350843
350,00:00:01.4,-0.011343704296450596
351,00:00:01.404,0.008670625044032931
352,00:00:01.408,-0.002571835939306767
353,00:00:01.412,0.007794316246872771
354,00:00:01.416,0.026904821395874
355,00:00:01.42,0.0023139223339967412
356,00:00:01.424,-0.032148504629731206
357,00:00:01.428,-0.01687706029042598
358,00:00:01.432,0.0021496324334293604
359,00:00:01.436,0.00795246905181562
360,00:00:01.44,0.026192265097051904
361,00:00:01.444,0.009697226341813811
362,00:00:01.448,-0.003755506942979983
363,00:00:01.452,-0.024788304988760536
364,00:00:01.456,-0.018963120877742698
365,00:00:01.46,0.0005196088459342718
366,00:00:01.464,0.015013754367828373
367,00:00:01.468,0.009920608485117562
368,00:00:01.472,0.00595174706541002
369,00:00:01.476,0.018053514882922173
370,00:00:01.48,-0.003484112559817724
371,00:00:01.484,-0.02458233461948111
372,00:00:01.488,-0.02436794119421394
373,00:00:01.492,-0.007667405199754278
374,00:00:01.496,0.04361171973869202
375,00:00:01.5,0.02535291761159897
376,00:00:01.504,-0.02495381468906998
377,00:00:01.508,-0.02946422738023099
378,00:00:01.512,-0.010679379571229181
379,00:00:01.516,0.01575519121252002
380,00:00:01.52,0.0342497089877725
381,00:00:01.524,0.020056906156241918
382,00:00:01.528,-0.018641299189766848
383,00:00:01.532,-0.03379534184932702
384,00:00:01.536,-0.01955806976184251
385,00:00:01.54,0.013257437851280002
386,00:00:01.544,0.00597763655241579
387,00:00:01.548,0.018489977694116536
388,00:00:01.552,0.014904464478604496
389,00:00:01.556,0.0035586076555773607
390,00:00:01.56,-0.01063279656227675
391,00:00:01.564,-0.02741040533874189
392,00:00:01.568,-0.010832878760993479
393,00:00:01.572,0.013278613332659011
394,00:00:01.576,0.01049858331680296
395,00:00:01.58,0.012940028449520465
396,00:00:01.584,0.012759009841829542
397,00:00:01.588,-0.022367992845829562
398,00:00:01.592,-0.012832573615014596
399,00:00:01.596,0.008659618935780593
400,00:00:01.6,-0.00271791662089527
401,00:00:01.604,-0.01200557814445347
402,00:00:01.608,0.005485330155352091
403,00:00:01.612,0.02177779329940675
404,00:00:01.616,0.006788955710362662
405,00:00:01.62,-0.01617916370742028
406,00:00:01.624,-0.01272137509658929
407,00:00:01.628,0.0020328276441432505
408,00:00:01.632,0.01819244219223042
409,00:00:01.636,0.011167585791554302
410,00:00:01.64,-0.01359256869181991
411,00:00:01.644,-0.013686639955267312
412,00:00:01.648,-0.002886012953240419
413,00:00:01.652,-0.007340222335187721
414,00:00:01.656,0.01664890581741929
415,00:00:01.66,0.009802749671507623
416,00:00:01.664,0.0048107327893376385
417,00:00:01.668,-0.0066616258118301595
418,00:00:01.672,-0.01910403789952396
419,00:00:01.676,-0.01193537213839594
420,00:00:01.68,0.025649184826761456
421,00:00:01.684,0.025163247250020487
422,00:00:01.688,-0.014973795274272611
423,00:00:01.692,-0.024240250699222008
424,00:00:01.696,-0.007839635771233585
425,00:00:01.7,0.01355706527829169
426,00:00:01.704,0.00860813213512301
427,00:00:01.708,0.002176253852667285
428,00:00:01.712,0.010622312911436893
429,00:00:01.716,0.008170183340553189
430,00:00:01.72,-0.020941019058227553
431,00:00:01.724,-0.014630195219069707
432,00:00:01.728,-0.003011863387655465
433,00:00:01.732,0.0033152507385239
434,00:00:01.736,0.00157264806330204
435,00:00:01.74,0.0029126750305294995
436,00:00:01.744,0.003984637558460241
437,00:00:01.748,0.043031360022723675
438,00:00:01.752,-0.0022287007886916408
439,00:00:01.756,-0.03749422682449227
440,00:00:01.76,-0.020871422719210348
441,00:00:01.764,0.004362731444416568
442,00:00:01.768,-0.002424022764898841
443,00:00:01.772,-0.001560363860335195
444,00:00:01.776,0.019884909270331225
445,00:00:01.78,0.02660440839827056
446,00:00:01.784,-0.001711121411062778
447,00:00:01.788,-0.009755311533808712
448,00:00:01.792,-0.011087997816503051
449,00:00:01.796,-0.017890664108563215
450,00:00:01.8,-0.0132541568018496
451,00:00:01.804,0.01916771521791819
452,00:00:01.808,0.017923592589795548
453,00:00:01.812,-0.00037561298813671047
454,00:00:01.816,-0.0045832372270524615
455,00:00:01.82,0.013182536971726225
456,00:00:01.824,-0.010801081079989682
457,00:00:01.828,-0.03125891862146094
458,00:00:01.832,0.0082963317981921
459,00:00:01.836,0.03324261307716377
460,00:00:01.84,0.011095983907580358
461,00:00:01.844,-0.027889236807823212
462,00:00:01.848,-0.021510014194063853
463,00:00:01.852,-0.0029209364438429614
464,00:00:01.856,0.02072972408495845
465,00:00:01.86,0.005623660748824481
466,00:00:01.864,0.007099245209246869
467,00:00:01.868,0.010409977869130671
468,00:00:01.872,0.0016158119542524158
469,00:00:01.876,-0.013124703080393391
470,00:00:01.88,-0.033029105979949264
471,00:00:01.884,1.0952353477497543e-06
472,00:00:01.888,0.02129179728217422
473,00:00:01.892,0.01742119016125802
474,00:00:01.896,0.00497226335573941
475,00:00:01.9,-0.00524152885191143
476,00:00:01.904,-0.021521928254514943
477,00:00:01.908,-0.02660783659666772
478,00:00:01.912,0.021895088255405412
479,00:00:01.916,0.03619071608409287
480,00:00:01.92,0.0033671270357444856
481,00:00:01.924,-0.020440986478206517
482,00:00:01.928,-0.020563059020787512
483,00:00:01.932,-0.0024528322974219858
484,00:00:01.936,0.006032245815731628
485,00:00:01.94,0.01385523716453467
486,00:00:01.944,0.0035289996303617967
487,00:00:01.948,0.009586848231265321
488,00:00:01.952,-0.00795214716345072
489,00:00:01.956,-0.02263039641547949
490,00:00:01.96,0.0043875119881704415
491,00:00:01.964,0.030728539801202697
492,00:00:01.968,0.0049910672678379325
493,00:00:01.972,-0.04203453776426615
494,00:00:01.976,-0.02408739097882063
495,00:00:01.98,0.03001276054419574
496,00:00:01.984,0.0287036909721792
497,00:00:01.988,-0.005640820192638788
498,00:00:01.992,-0.01078050630167127
499,00:00:01.996,0.00266170338727533
500,00:00:02,0.002583816400147043
501,00:00:02.004,-0.0156050433870405
502,00:00:02.008,-0.004161002812907095
503,00:00:02.012,0.01773739652708172
504,00:00:02.016,-0.01422053889837116
505,00:00:02.02,0.00342634087428451
506,00:00:02.024,0.0268782619386912
507,00:00:02.028,0.004147619474679227
508,00:00:02.032,-0.023999880533665422
509,00:00:02.036,-0.02376613765954968
510,00:00:02.04,-0.002698105759918682
511,00:00:02.044,0.012693378143012562
512,00:00:02.048,0.021762469783425317
513,00:00:02.052,0.009763408888829875
514,00:00:02.056,-0.016022733994759668
515,00:00:02.06,0.008144740175339393
516,00:00:02.064,0.011527852853760097
517,00:00:02.068,-0.025967550580389846
518,00:00:02.072,-0.03065272467210891
519,00:00:02.076,0.009591366018867113
520,00:00:02.08,0.050115053541958304
521,00:00:02.084,0.0021522892639041008
522,00:00:02.088,-0.038987371139228344
523,00:00:02.092,-0.02304298663511875
524,00:00:02.096,0.0134627555962652
525,00:00:02.1,0.041304373648017687
526,00:00:02.104,0.0054006912978366095
527,00:00:02.108,-0.020306242629885653
528,00:00:02.112,0.003912648651748899
529,00:00:02.116,0.0006097471341490702
530,00:00:02.12,-0.024632623913930785
531,00:00:02.124,-0.018859875388443473
532,00:00:02.128,0.00877319113351405
533,00:00:02.132,0.02504984848201279
534,00:00:02.136,0.0402468072716147
535,00:00:02.14,-0.00831739429850131
536,00:00:02.144,-0.03743030363693834
537,00:00:02.148,-0.01032747759018091
538,00:00:02.152,0.004839555942453439
539,00:00:02.156,0.002818374894559391
540,00:00:02.16,0.004086836663191204
541,00:00:02.164,-0.01450637495145202
542,00:00:02.168,0.0203721298603341
543,00:00:02.172,0.013152544037438929
544,00:00:02.176,0.008668681555718656
545,00:00:02.18,0.005155556951649492
546,00:00:02.184,-0.0393123782705515
547,00:00:02.188,-0.0247743052823352
548,00:00:02.192,0.01624670997262002
549,00:00:02.196,0.02671237895265217
550,00:00:02.2,-0.01017098454758524
551,00:00:02.204,-0.010466917185112841
552,00:00:02.208,0.00359916989691555
553,00:00:02.212,0.042159791570156854
554,00:00:02.216,0.01683453656733034
555,00:00:02.22,-0.04727421933785076
556,00:00:02.224,-0.030979137518443122
557,00:00:02.228,-0.0019806246273219603
558,00:00:02.232,-0.0028124339878559087
559,00:00:02.236,0.023464075289666632
560,00:00:02.24,0.03709121327847249
561,00:00:02.244,0.001760986633598801
562,00:00:02.248,-0.02314371755346648
563,00:00:02.252,-0.00603693071752787
564,00:00:02.256,-0.00438328075688332
565,00:00:02.26,0.004557382198981941
566,00:00:02.264,0.005353528802515941
567,00:00:02.268,-0.016668527852743892
568,00:00:02.272,-0.00664823157421779
569,00:00:02.276,0.006139889475889507
570,00:00:02.28,0.015226016985252498
571,00:00:02.284,0.0044189381878823215
572,00:00:02.288,-0.007084450800903144
573,00:00:02.292,0.007136468887438239
574,00:00:02.296,0.01043691067025065
575,00:00:02.3,3.4242402762169836e-05
576,00:00:02.304,-0.02716612862423064
577,00:00:02.308,-0.023574148770421768
578,00:00:02.312,0.0170037120115012
579,00:00:02.316,0.02170021552592516
580,00:00:02.32,-0.01418936438858509
581,00:00:02.324,0.011725254356861099
582,00:00:02.328,0.015073060756549283
583,00:00:02.332,-0.006755430837074524
584,00:00:02.336,-0.007722785929217938
585,00:00:02.34,-0.013885284075513479
586,00:00:02.344,-0.009034700764459556
587,00:00:02.348,-0.0001617558300495217
588,00:00:02.352,0.03552210470661521
589,00:00:02.356,0.009698695299448444
590,00:00:02.36,-0.034115317044779665
591,00:00:02.364,-0.01218640757724643
592,00:00:02.368,0.01794802024960519
593,00:00:02.372,0.008405486587435
594,00:00:02.376,-0.010502555873245051
595,00:00:02.38,-0.0005887241568416396
596,00:00:02.384,0.020275120623409772
597,00:00:02.388,-0.006148521148134026
598,00:00:02.392,-0.024105325341224622
599,00:00:02.396,0.004873757134191689
600,00:00:02.4,0.01576283667236567
601,00:00:02.404,0.0011092086788266889
602,00:00:02.408,-0.01769626257009805
603,00:00:02.412,-0.00999392615631222
604,00:00:02.416,0.023368123918771702
605,00:00:02.42,0.006614334859477827
606,00:00:02.424,0.004460120806470521
607,00:00:02.428,-0.004203734803013509
608,00:00:02.432,-0.00849996716715396
609,00:00:02.436,-0.004974335432052611
610,00:00:02.44,-0.004638108017388728
611,00:00:02.444,-0.01266352157108486
612,00:00:02.448,0.01304214890114967
613,00:00:02.452,0.011776689789257938
614,00:00:02.456,0.009486791677772999
615,00:00:02.46,0.007539020152762529
616,00:00:02.464,-0.00906305317766964
617,00:00:02.468,-0.028653671615757038
618,00:00:02.472,-0.010367091745138172
619,00:00:02.476,0.01099930459167809
620,00:00:02.48,0.01209541223943237
621,00:00:02.484,0.02508868969744069
622,00:00:02.488,0.00794913177378476
623,00:00:02.492,-0.01983371010283005
624,00:00:02.496,-0.024775530211627518
625,00:00:02.5,0.0011500755790621094
626,00:00:02.504,0.018966911826282767
627,00:00:02.508,-0.007025256461929532
628,00:00:02.512,-0.016100243665277958
629,00:00:02.516,-0.005351613974198701
630,00:00:02.52,0.043909044004976694
631,00:00:02.524,0.01962646981701259
632,00:00:02.528,-0.01159881392959505
633,00:00:02.532,-0.04352782876230772
634,00:00:02.536,-0.02708839683327826
635,00:00:02.54,0.010945613379590213
636,00:00:02.544,0.0377056081779301
637,00:00:02.548,0.02915855613537129
638,00:00:02.552,-0.0162681266665459
639,00:00:02.556,-0.017450710074626806
640,00:00:02.56,-0.023222084157168872
641,00:00:02.564,-0.00916240783408284
642,00:00:02.568,0.03739929932635277
643,00:00:02.572,0.02986882627010346
644,00:00:02.576,-0.01803681673482056
645,00:00:02.58,-0.024125244129208988
646,00:00:02.584,-0.02266163821332162
647,00:00:02.588,-0.0013503131922334502
648,00:00:02.592,0.0286977924406528
649,00:00:02.596,0.02388327952940012
650,00:00:02.6,-0.004081012215465311
651,00:00:02.604,-0.017260617612919277
652,00:00:02.608,-0.0025530239799991276
653,00:00:02.612,0.001540623139590019
654,00:00:02.616,-0.00511008047033102
655,00:00:02.62,-0.010953879333101215
656,00:00:02.624,-0.001105669856769968
657,00:00:02.628,0.00955708930268884
658,00:00:02.632,0.03032148675993081
659,00:00:02.636,-0.002657372868270608
660,00:00:02.64,-0.003846867475658659
661,00:00:02.644,-0.015807591029442812
662,00:00:02.648,-0.02513973787426946
663,00:00:02.652,0.00401898520067335
664,00:00:02.656,0.0011569448906811877
665,00:00:02.66,0.023046148358844252
666,00:00:02.664,0.026622447185218296
667,00:00:02.668,-0.02282502443995326
668,00:00:02.672,-0.021861567394807963
669,00:00:02.676,0.006750293541699639
670,00:00:02.68,0.01404469599947333
671,00:00:02.684,0.006388300564140062
672,00:00:02.688,-0.015000010724179398
673,00:00:02.692,-0.013709561899304392
674,00:00:02.696,0.01514793746173382
675,00:00:02.7,0.010488728978089057
676,00:00:02.704,-0.01724167354404926
677,00:00:02.708,0.00261326786130667
678,00:00:02.712,0.024638565722852973
679,00:00:02.716,-0.02318558422848583
680,00:00:02.72,-0.02213211508933454
681,00:00:02.724,0.020453208591788972
682,00:00:02.728,0.023909073555842087
683,00:00:02.732,-0.01541384076699618
684,00:00:02.736,-0.015175645123235881
685,00:00:02.74,0.01746896165423091
686,00:00:02.744,0.011160811822264805
687,00:00:02.748,-0.0025504209334030804
688,00:00:02.752,-0.030871139606460957
689,00:00:02.756,-0.01889414107427001
690,00:00:02.76,0.02091748741804622
691,00:00:02.764,0.020614781649783278
692,00:00:02.768,0.007513748481869689
693,00:00:02.772,0.00458090717438608
694,00:00:02.776,0.0006170747947180677
695,00:00:02.78,-0.0164632283267565
696,00:00:02.784,-0.023961727507412413
697,00:00:02.788,0.00602762401103974
698,00:00:02.792,0.00615253672003746
699,00:00:02.796,0.0056783082691254155
700,00:00:02.8,-0.0022075843298807697
701,00:00:02.804,0.026404077070765194
702,00:00:02.808,0.022344827069900937
703,00:00:02.812,-0.032319788875611315
704,00:00:02.816,-0.0407406167360022
705,00:00:02.82,-0.0057686121435836
706,00:00:02.824,0.024609513289760764
707,00:00:02.828,0.01888289535418152
708,00:00:02.832,0.006660018116235731
709,00:00:02.836,-0.0031965952366590452
710,00:00:02.84,-0.007280081692442758
711,00:00:02.844,-0.027058287349063924
712,00:00:02.848,0.00857442733831703
713,00:00:02.852,0.02476004784693945
714,00:00:02.856,0.01886481931433086
715,00:00:02.86,-0.0008396306075155791
716,00:00:02.864,-0.04520582605618988
717,00:00:02.868,-0.02765830210410059
718,00:00:02.872,0.02969056600704785
719,00:00:02.876,0.04121013078838582
720,00:00:02.88,-0.0025635032216087
721,00:00:02.884,-0.02314144675619901
722,00:00:02.888,-0.0122708382550627
723,00:00:02.892,-0.004476765308936595
724,00:00:02.896,0.01641864096745849
725,00:00:02.9,0.014565393328666689
726,00:00:02.904,-0.012669808638747785
727,00:00:02.908,-0.0061305214476306035
728,00:00:02.912,-0.00282170693390072
729,00:00:02.916,0.0061344684800133135
730,00:00:02.92,-0.006123400758951909
731,00:00:02.924,-0.0003327068407088605
732,00:00:02.928,0.01991945784538984
733,00:00:02.932,0.00260422681458295
734,00:00:02.936,-0.0038217367837205495
735,00:00:02.94,-0.017753063002601217
736,00:00:02.944,-0.01538136310409755
737,00:00:02.948,-0.004218756410409696
738,00:00:02.952,0.03951251786202189
739,00:00:02.956,0.02296397567261013
740,00:00:02.96,-0.02285823598504071
741,00:00:02.964,-0.02650901704328131
742,00:00:02.968,-0.01811808615457267
743,00:00:02.972,0.00948383891955018
744,00:00:02.976,0.02676143567077813
745,00:00:02.98,0.01421052170917396
746,00:00:02.984,-0.014525290462188412
747,00:00:02.988,-0.023781209951266688
748,00:00:02.992,0.012619217741303139
749,00:00:02.996,0.03565481619443747
750,00:00:03,0.008189225336536734
751,00:00:03.004,-0.04004001989960667
752,00:00:03.008,-0.031424707965925294
753,00:00:03.012,0.01939056860283015
754,00:00:03.016,0.007068006874760616
755,00:00:03.02,0.003040724608581561
756,00:00:03.024,-0.002009624411584811
757,00:00:03.028,0.005714741069823498
758,00:00:03.032,0.00855268957093358
759,00:00:03.036,0.00917270325589925
760,00:00:03.04,-0.0026057309005409505
761,00:00:03.044,0.00031396537087857203
762,00:00:03.048,-0.019643511855974793
763,00:00:03.052,-0.01915326528251173
764,00:00:03.056,0.0058375889202579795
765,00:00:03.06,0.0006859868299215997
766,00:00:03.064,0.01146645285189151
767,00:00:03.068,0.023086725181201515
768,00:00:03.072,0.01556112966500223
769,00:00:03.076,-0.01421865925658494
770,00:00:03.08,-0.03500429308041931
771,00:00:03.084,-0.005242620696662922
772,00:00:03.088,0.02602664160076527
773,00:00:03.092,-0.014442310202866772
774,00:00:03.096,-0.0022836225107312202
775,00:00:03.1,0.02221872203517707
776,00:00:03.104,0.01423341454938058
777,00:00:03.108,-0.013727274723351009
778,00:00:03.112,-0.020042015239596412
779,00:00:03.116,-0.01793914893642066
780,00:00:03.12,0.01038517768029124
781,00:00:03.124,0.02798428013920784
782,00:00:03.128,0.00604062457568944
783,00:00:03.132,0.008684598025865848
784,00:00:03.136,-0.02262627682648601
785,00:00:03.14,-0.01770990551449361
786,00:00:03.144,-0.00105906429234892
787,00:00:03.148,0.0012222699697304043
788,00:00:03.152,0.02263768645934759
789,00:00:03.156,0.006183344637975099
790,00:00:03.16,-0.01547734532505274
791,00:00:03.164,-0.00270685064606368
792,00:00:03.168,0.0019848253577947604
793,00:00:03.172,0.00027838302776216984
794,00:00:03.176,0.005137854692293332
795,00:00:03.18,-0.008836719032842659
796,00:00:03.184,0.011832355623482727
797,00:00:03.188,0.00505626876838506
798,00:00:03.192,-0.01902618864551184
799,00:00:03.196,-0.0004999403608962898
800,00:00:03.2,0.00943108298815787
801,00:00:03.204,-0.00154063862282783
802,00:00:03.208,-0.00388120254501701
803,00:00:03.212,-0.0038949602749198706
804,00:00:03.216,0.019556156941689606
805,00:00:03.22,-0.007496016216464339
806,00:00:03.224,-0.004090830683708201
807,00:00:03.228,0.010861932765692441
808,00:00:03.232,0.00473737088032067
809,00:00:03.236,-0.029121337691321927
810,00:00:03.24,-0.017824129667133082
811,00:00:03.244,0.015249246032908548
812,00:00:03.248,0.013670048676431151
813,00:00:03.252,0.01886514120269566
814,00:00:03.256,0.01736577658448364
815,00:00:03.26,-0.009167635464109486
816,00:00:03.264,-0.03572643990628417
817,00:00:03.268,-0.0368904194328934
818,00:00:03.272,0.03682049204508074
819,00:00:03.276,0.039816710632294354
820,00:00:03.28,-0.02079406741540883
821,00:00:03.284,-0.024138891836628342
822,00:00:03.288,0.0006274133920669606
823,00:00:03.292,0.028382213553413776
824,00:00:03.296,0.00762088701594621
825,00:00:03.3,-0.014311810722574599
826,00:00:03.304,-0.01292440120596439
827,00:00:03.308,-0.0041168324241880345
828,00:00:03.312,0.00939676025882363
829,00:00:03.316,-7.939850911498937e-05
830,00:00:03.32,-0.010685619432479159
831,00:00:03.324,0.01936485362239183
832,00:00:03.328,0.004077717676409518
833,00:00:03.332,-0.00037527823587879105
834,00:00:03.336,0.0041283683385700005
835,00:00:03.34,-0.02134839829523115
836,00:00:03.344,-0.01895163371227684
837,00:00:03.348,0.0037783618317917093
838,00:00:03.352,0.01086649810895324
839,00:00:03.356,0.024040402728132862
840,00:00:03.36,0.00977302924729884
841,00:00:03.364,-0.02248074393719439
842,00:00:03.368,0.01767917745746668
843,00:00:03.372,-0.00093139367527328
844,00:00:03.376,-0.030512296361848733
845,00:00:03.38,-0.012855931359808892
846,00:00:03.384,0.00812429981306194
847,00:00:03.388,0.010340911860112094
848,00:00:03.392,0.016784177394583818
849,00:00:03.396,0.0005509581824298952
850,00:00:03.4,-0.0020051491446793114
851,00:00:03.404,-0.001654289721045644
852,00:00:03.408,-0.011853545322082935
853,00:00:03.412,0.00618556444533169
854,00:00:03.416,0.006486688158474861
855,00:00:03.42,-0.01338937669061124
856,00:00:03.424,0.012694055214524273
857,00:00:03.428,0.0009534480050206193
858,00:00:03.432,-0.001620549242943501
859,00:00:03.436,-0.022441030945628857
860,00:00:03.44,-0.004469120904104781
861,00:00:03.444,0.012101494619855655
862,00:00:03.448,0.005295537994243211
863,00:00:03.452,0.01085080532357096
864,00:00:03.456,0.02460646141844331
865,00:00:03.46,-0.006471016502473503
866,00:00:03.464,-0.02379710599780084
867,00:00:03.468,-0.016927628370467532
868,00:00:03.472,-0.00330023840069771
869,00:00:03.476,0.010800732241477836
870,00:00:03.48,-0.0026665367186069493
871,00:00:03.484,0.0033529681386426143
872,00:00:03.488,0.004058656631968911
873,00:00:03.492,0.027690550778061162
874,00:00:03.496,0.00240191933698952
875,00:00:03.5,-0.01843648881185804
876,00:00:03.504,-0.02105728536844257
877,00:00:03.508,-0.010944528636173345
878,00:00:03.512,0.009925674501573663
879,00:00:03.516,0.01813772792229427
880,00:00:03.52,-0.00144879415165634
881,00:00:03.524,0.0018948370707221338
882,00:00:03.528,0.023585969349369424
883,00:00:03.532,-0.020971884485334182
884,00:00:03.536,-0.02867957483977072
885,00:00:03.54,0.004311054275603964
886,00:00:03.544,0.00892483512870968
887,00:00:03.548,0.021799794398248248
888,00:00:03.552,7.838546298443924e-05
889,00:00:03.556,-0.014892501756548845
890,00:00:03.56,-0.004389391513541339
891,00:00:03.564,0.007325188722461472
892,00:00:03.568,-0.001028292230330412
893,00:00:03.572,-0.006692257942631842
894,00:00:03.576,-0.003429194912314402
895,00:00:03.58,0.0056079760834108995
896,00:00:03.584,0.016853870823979378
897,00:00:03.588,-0.0045923457946628315
898,00:00:03.592,-0.010699332691729051
899,00:00:03.596,0.0031418987782671996
900,00:00:03.6,-0.0066559775732457655
901,00:00:03.604,-0.00435405876487493
902,00:00:03.608,0.009283075807616118
903,00:00:03.612,-0.0034963419893756795
904,00:00:03.616,0.002271268749609579
905,00:00:03.62,0.027231885585933892
906,00:00:03.624,-0.00632989220321178
907,00:00:03.628,-0.03389874659478668
908,00:00:03.632,-0.005634784465655689
909,00:00:03.636,0.01121658948250115
910,00:00:03.64,0.0014365196693688687
911,00:00:03.644,0.013475635321810852
912,00:00:03.648,0.02617284515872597
913,00:00:03.652,-0.0047724038595333695
914,00:00:03.656,-0.02894380968064062
915,00:00:03.66,-0.03179441031534233
916,00:00:03.664,-0.006545113952597601
917,00:00:03.668,0.023133149370551134
918,00:00:03.672,0.0321473092772067
919,00:00:03.676,0.02853697689715769
920,00:00:03.68,-0.00462486752076074
921,00:00:03.684,-0.042001179419457926
922,00:00:03.688,-0.032436563167721026
923,00:00:03.692,0.00768938905093819
924,00:00:03.696,0.026631468324922008
925,00:00:03.7,0.016389079166401643
926,00:00:03.704,-0.001038834394421433
927,00:00:03.708,-0.0021092328242957492
928,00:00:03.712,-0.015924190753139607
929,00:00:03.716,-0.01925054937601091
930,00:00:03.72,0.011216242332011472
931,00:00:03.724,0.015112005305127223
932,00:00:03.728,0.00771084986627101
933,00:00:03.732,-0.011106148362159758
934,00:00:03.736,0.014911365462467031
935,00:00:03.74,0.00937567045912146
936,00:00:03.744,-0.030418410315178373
937,00:00:03.748,-0.02493158262223012
938,00:00:03.752,0.010326825780794031
939,00:00:03.756,0.023354855598881792
940,00:00:03.76,0.01539399893954392
941,00:00:03.764,-0.00011851784074679001
942,00:00:03.768,-0.0137570695951581
943,00:00:03.772,-0.018992131226696043
944,00:00:03.776,0.00922372075729073
945,00:00:03.78,0.011988087091594941
946,00:00:03.784,-0.0034046649234369397
947,00:00:03.788,-0.01518412097357212
948,00:00:03.792,0.01654544030316174
949,00:00:03.796,0.001568888488691305
950,00:00:03.8,-0.01170664862729609
951,00:00:03.804,0.0067578938324004394
952,00:00:03.808,0.011619241413427513
953,00:00:03.812,0.010290980804711582
954,00:00:03.816,-0.028779233805835237
955,00:00:03.82,-0.021960606682114307
956,00:00:03.824,0.0020885505946353143
957,00:00:03.828,0.01670020073652269
958,00:00:03.832,0.01696875831112266
959,00:00:03.836,0.016829602303914726
960,00:00:03.84,0.013936962379375473
961,00:00:03.844,-0.016279535600915516
962,00:00:03.848,-0.04185478528961543
963,00:00:03.852,-0.02630521357059477
964,00:00:03.856,0.02108576847240329
965,00:00:03.86,0.02574713155627254
966,00:00:03.864,0.019591845106333473
967,00:00:03.868,-0.0018570825923234261
968,00:00:03.872,-0.01629168214276431
969,00:00:03.876,0.006896950566442685
970,00:00:03.88,0.00481228483840823
971,00:00:03.884,-0.019499529385939202
972,00:00:03.888,-0.01635482662823054
973,00:00:03.892,-0.005108961369842288
974,00:00:03.896,0.02037225791718815
975,00:00:03.9,0.0263806264847518
976,00:00:03.904,0.00014230841770767992
977,00:00:03.908,-0.0026222153101116393
978,00:00:03.912,-0.010508388746529852
979,00:00:03.916,-0.0179824663209729
980,00:00:03.92,-0.01539989945013076
981,00:00:03.924,-7.477751933037975e-05
982,00:00:03.928,0.0238268137909472
983,00:00:03.932,0.018505096668377533
984,00:00:03.936,0.00014278353773989125
985,00:00:03.94,0.0035449737915769102
986,00:00:03.944,0.0058854480739682895
987,00:00:03.948,-0.019631985342130107
988,00:00:03.952,-0.03169262874871495
989,00:00:03.956,0.00028645119164138946
990,00:00:03.96,0.015836807666346427
991,00:00:03.964,-0.0006788717582821898
992,00:00:03.968,0.0028997531626373503
993,00:00:03.972,0.023695370182394992
994,00:00:03.976,0.00529191817622632
995,00:00:03.98,-0.013837341684848072
996,00:00:03.984,-0.01785677479347212
997,00:00:03.988,0.012761653400957598
998,00:00:03.992,0.026747730793431308
999,00:00:03.996,-0.01200075980159454
1000,00:00:04,-0.03452412519254724
1001,00:00:04.004,-0.018989287025760897
1002,00:00:04.008,-0.0027540151568246035
1003,00:00:04.012,0.03296101946034473
1004,00:00:04.016,0.03114097705110907
1005,00:00:04.02,-0.0007240008126245833
1006,00:00:04.024,0.0026028845459222802
1007,00:00:04.028,-0.0044458917109295734
1008,00:00:04.032,-0.04140163399279122
1009,00:00:04.036,-0.01636474370025098
1010,00:00:04.04,0.01607650658115747
1011,00:00:04.044,0.03541409061290322
1012,00:00:04.048,0.010670573916286261
1013,00:00:04.052,-0.026558015379123372
1014,00:00:04.056,-0.0027946205809712384
1015,00:00:04.06,-0.01124641997739673
1016,00:00:04.064,-0.01309004449285567
1017,00:00:04.068,-0.00063797016628086
1018,00:00:04.072,0.04758307244628671
1019,00:00:04.076,0.06289755785837772
1020,00:00:04.08,-0.03645388735458259
1021,00:00:04.084,-0.08262436091899877
1022,00:00:04.088,-0.03424992776126596
1023,00:00:04.092,0.032758934685261906
1024,00:00:04.096,0.04957813490182159
1025,00:00:04.1,0.010771723231300712
1026,00:00:04.104,-0.014196238480508319
1027,00:00:04.108,0.004241507092956454
1028,00:00:04.112,0.013900876743718971
1029,00:00:04.116,-0.025076074060052644
1030,00:00:04.12,-0.02818867051973942
1031,00:00:04.124,0.009140203488641417
1032,00:00:04.128,0.0035220771096646816
1033,00:00:04.132,0.02352089807391164
1034,00:00:04.136,0.0006622476448683362
1035,00:00:04.14,-0.0071992068551480805
1036,00:00:04.144,0.004049146780744191
1037,00:00:04.148,-0.0038590113981626897
1038,00:00:04.152,-0.00032479314540978434
1039,00:00:04.156,0.008482598306727603
1040,00:00:04.16,-0.014639646833529696
1041,00:00:04.164,-0.01214440492913127
1042,00:00:04.168,-0.0016124512767419247
1043,00:00:04.172,0.0044170340327127685
1044,00:00:04.176,0.02520091226324435
1045,00:00:04.18,0.01891437079757451
1046,00:00:04.184,-0.02475998597219584
1047,00:00:04.188,-0.026978065958246616
1048,00:00:04.192,0.01635220024036247
1049,00:00:04.196,0.01357678091153508
1050,00:00:04.2,0.0006028551142662694
1051,00:00:04.204,-0.026105550583451972
1052,00:00:04.208,-0.010826802812516679
1053,00:00:04.212,0.020435600774362687
1054,00:00:04.216,0.026764962356537553
1055,00:00:04.22,0.0017745917430147598
1056,00:00:04.224,-0.02824494935339321
1057,00:00:04.228,-0.007585968036437412
1058,00:00:04.232,0.0073610290419310505
1059,00:00:04.236,0.01294370443793014
1060,00:00:04.24,0.012815912021324039
1061,00:00:04.244,-0.007435231033014129
1062,00:00:04.248,-0.021372968156356413
1063,00:00:04.252,-0.00515669188462198
1064,00:00:04.256,0.006765794474631539
1065,00:00:04.26,0.0013852118863724107
1066,00:00:04.264,0.01821684325113893
1067,00:00:04.268,-0.0007787064532749278
1068,00:00:04.272,-0.005892780376598241
1069,00:00:04.276,-0.027702050982043192
1070,00:00:04.28,0.00507067819125946
1071,00:00:04.284,0.027838868554681526
1072,00:00:04.288,0.008104649139568222
1073,00:00:04.292,-0.010450141213368586
1074,00:00:04.296,-0.002763829746982081
1075,00:00:04.3,-0.00864829355850817
1076,00:00:04.304,-0.015641235688235635
1077,00:00:04.308,0.0038602256681770095
1078,00:00:04.312,0.007478663814254103
1079,00:00:04.316,0.00956471404060722
1080,00:00:04.32,0.017125600948929773
1081,00:00:04.324,0.004125111241592085
1082,00:00:04.328,-0.01451703114435076
1083,00:00:04.332,-0.014815018745139259
1084,00:00:04.336,-0.006788768863771102
1085,00:00:04.34,-0.0005976744578219952
1086,00:00:04.344,0.0015989330131560564
1087,00:00:04.348,0.0010150827001780302
1088,00:00:04.352,0.02654584380798046
1089,00:00:04.356,0.004017863451736052
1090,00:00:04.36,-0.015168535290285947
1091,00:00:04.364,-0.0116069900977891
1092,00:00:04.368,0.016264332341961563
1093,00:00:04.372,-0.0012955566635355403
1094,00:00:04.376,-0.010632680263370269
1095,00:00:04.38,-0.02589730918407442
1096,00:00:04.384,0.00074384377512616
1097,00:00:04.388,0.03276902792276817
1098,00:00:04.392,0.026133140549063683
1099,00:00:04.396,-0.013209243537858139
1100,00:00:04.4,-0.02058662648778409
1101,00:00:04.404,-0.00793571944814175
1102,00:00:04.408,0.012035555206239223
1103,00:00:04.412,-8.291564881800304e-06
1104,00:00:04.416,-0.01115180278429761
1105,00:00:04.42,-0.00198704423382878
1106,00:00:04.424,0.01902920193970206
1107,00:00:04.428,0.009005148662254221
1108,00:00:04.432,-0.02083943877369167
1109,00:00:04.436,-0.006758051749784503
1110,00:00:04.44,0.022851493107736986
1111,00:00:04.444,-0.001827028521802278
1112,00:00:04.448,-0.01100960839539766
1113,00:00:04.452,-0.006644544460868925
1114,00:00:04.456,0.00015226731193252
1115,00:00:04.46,0.010403296619188035
1116,00:00:04.464,-0.02008362766355276
1117,00:00:04.468,0.015422331402078271
1118,00:00:04.472,0.02480617410037667
1119,00:00:04.476,0.005324064521119
1120,00:00:04.48,-0.02007019449956713
1121,00:00:04.484,-0.04391785425832498
1122,00:00:04.488,0.006024989823345098
1123,00:00:04.492,0.03323265910148622
1124,00:00:04.496,0.012801962671801462
1125,00:00:04.5,-0.0016530538996448762
1126,00:00:04.504,-0.010058510815724729
1127,00:00:04.508,0.004687675376771946
1128,00:00:04.512,-0.0059880537446588295
1129,00:00:04.516,-0.022324760910123618
1130,00:00:04.52,-0.00272374157793819
1131,00:00:04.524,0.01362932007759813
1132,00:00:04.528,0.03493752470239992
1133,00:00:04.532,-0.006698139419313516
1134,00:00:04.536,-0.025529482401907447
1135,00:00:04.54,-0.00611300568562
1136,00:00:04.544,0.0018229142297059393
1137,00:00:04.548,0.0062785226618871
1138,00:00:04.552,0.01638527703471482
1139,00:00:04.556,-0.01105714752338829
1140,00:00:04.56,-0.012866790872067211
1141,00:00:04.564,0.03506328305229544
1142,00:00:04.568,-0.01907685166224836
1143,00:00:04.572,-0.025084706780035024
1144,00:00:04.576,0.004578192594635769
1145,00:00:04.58,0.0194287108606659
1146,00:00:04.584,0.0017957202799152566
1147,00:00:04.588,-0.004462046548724181
1148,00:00:04.592,0.016682037850841918
1149,00:00:04.596,-0.00027940620202570785
1150,00:00:04.6,-0.028797480365028626
1151,00:00:04.604,0.0008334098965860869
1152,00:00:04.608,0.0025119016354437874
1153,00:00:04.612,-0.00227886659558862
1154,00:00:04.616,-0.011077577721152922
1155,00:00:04.62,0.022801417857408548
1156,00:00:04.624,0.013100491603836369
1157,00:00:04.628,0.01383623806759715
1158,00:00:04.632,-0.007623471465194596
1159,00:00:04.636,-0.02347252611070867
1160,00:00:04.64,-0.0207877000502776
1161,00:00:04.644,0.01154508659965359
1162,00:00:04.648,0.019664049119455785
1163,00:00:04.652,-0.008688546513440086
1164,00:00:04.656,-0.013182944414438711
1165,00:00:04.66,-0.005438882391899829
1166,00:00:04.664,0.028660898744419704
1167,00:00:04.668,0.02219130797311665
1168,00:00:04.672,-0.007774547440931201
1169,00:00:04.676,-0.025352230295538913
1170,00:00:04.68,-0.02194727212190632
1171,00:00:04.684,-0.007268592016771432
1172,00:00:04.688,0.02540240366943184
1173,00:00:04.692,0.03290530410595241
1174,00:00:04.696,0.0074411707464605605
1175,00:00:04.7,-0.03075641242321584
1176,00:00:04.704,-0.03147132555022836
1177,00:00:04.708,-0.00632970756851136
1178,00:00:04.712,0.01164966926444322
1179,00:00:04.716,0.04193183220922947
1180,00:00:04.72,0.02834005397744473
1181,00:00:04.724,-0.01960805896669626
1182,00:00:04.728,-0.03825266903731974
1183,00:00:04.732,-0.013135277491528537
1184,00:00:04.736,-0.008739463053643658
1185,00:00:04.74,-0.0003001254517585104
1186,00:00:04.744,0.05175661854445933
1187,00:00:04.748,0.01843112224014476
1188,00:00:04.752,-0.021366133005358313
1189,00:00:04.756,-0.01849446888081724
1190,00:00:04.76,-0.011684038528528576
1191,00:00:04.764,-0.00486386008560657
1192,00:00:04.768,0.01027798419818286
1193,00:00:04.772,0.012925965245813168
1194,00:00:04.776,0.0011289617686998069
1195,00:00:04.78,-0.004508795682340871
1196,00:00:04.784,-0.002554720369516876
1197,00:00:04.788,0.0001766245113685699
1198,00:00:04.792,0.011769419535994537
1199,00:00:04.796,0.007847462489735332
1200,00:00:04.8,-0.01343056093901396
1201,00:00:04.804,-0.024475713260471835
1202,00:00:04.808,-0.008354670309927313
1203,00:00:04.812,0.016423387278337025
1204,00:00:04.816,0.019192185252904892
1205,00:00:04.82,0.005750767420977345
1206,00:00:04.824,-0.015844924841076143
1207,00:00:04.828,-0.0011333369184285402
1208,00:00:04.832,0.03506116755306726
1209,00:00:04.836,-0.01397656369954348
1210,00:00:04.84,-0.035958922700956464
1211,00:00:04.844,-0.0161821823567152
1212,00:00:04.848,0.01337686774786562
1213,00:00:04.852,0.02260684431530537
1214,00:00:04.856,0.013743933755904431
1215,00:00:04.86,-0.002962260259664614
1216,00:00:04.864,0.0011520046973601
1217,00:00:04.868,0.005213629221543662
1218,00:00:04.872,-0.01632757671177383
1219,00:00:04.876,-0.01892268890514967
1220,00:00:04.88,-0.004761588235851377
1221,00:00:04.884,0.001257139840163288
1222,00:00:04.888,0.01529534254223109
1223,00:00:04.892,0.015326937704230659
1224,00:00:04.896,0.002759745424555142
1225,00:00:04.9,0.0037567212712019704
1226,00:00:04.904,-0.00193976226728409
1227,00:00:04.908,-0.01697874208912254
1228,00:00:04.912,-0.026554762531304732
1229,00:00:04.916,-0.010605414398014592
1230,00:00:04.92,0.0369882684899494
1231,00:00:04.924,0.04146949155256149
1232,00:00:04.928,-0.01288927765563131
1233,00:00:04.932,-0.03092701942659915
1234,00:00:04.936,-0.005807376932352782
1235,00:00:04.94,-0.00161737680900842
1236,00:00:04.944,0.00148788758087904
1237,00:00:04.948,0.00763099105097354
1238,00:00:04.952,0.00823857286013663
1239,00:00:04.956,0.002122582751326262
1240,00:00:04.96,-0.0029751523397862903
1241,00:00:04.964,-0.01701697520911694
1242,00:00:04.968,0.01271363836713136
1243,00:00:04.972,0.009109635837376109
1244,00:00:04.976,-0.011451319092884662
1245,00:00:04.98,-0.01144011574797332
1246,00:00:04.984,0.011413722997531298
1247,00:00:04.988,0.01976006326731297
1248,00:00:04.992,-0.008746304549276843
1249,00:00:04.996,-0.025190673768520327
1250,00:00:05,-0.019457756017800396
1251,00:00:05.004,0.038608778268098914
1252,00:00:05.008,0.03616695525124673
1253,00:00:05.012,-0.00685650808736679
1254,00:00:05.016,-0.035430675838142626
1255,00:00:05.02,-0.02843023851164614
1256,00:00:05.024,-0.007259503938257701
1257,00:00:05.028,0.02520302671473471
1258,00:00:05.032,0.04326522769406431
1259,00:00:05.036,-0.003322090662550178
1260,00:00:05.04,-0.01807150070089848
1261,00:00:05.044,-0.021123099606484202
1262,00:00:05.048,-0.0016749114729464002
1263,00:00:05.052,0.013467812212184078
1264,00:00:05.056,0.010296997730620207
1265,00:00:05.06,-0.00016573944594710805
1266,00:00:05.064,-0.021000734530389302
1267,00:00:05.068,-0.009444072144106022
1268,00:00:05.072,0.019923846470192068
1269,00:00:05.076,0.0044318353757262195
1270,00:00:05.08,0.007198484032414852
1271,00:00:05.084,0.02133988682180646
1272,00:00:05.088,-0.016444428707473
1273,00:00:05.092,-0.03680269233882428
1274,00:00:05.096,-0.00859225704334678
1275,00:00:05.1,0.02205082625732758
1276,00:00:05.104,0.007378275040537121
1277,00:00:05.108,0.003760701321880328
1278,00:00:05.112,0.010423305851873005
1279,00:00:05.116,-0.005539549121749584
1280,00:00:05.12,-0.00574015453457832
1281,00:00:05.124,-0.0063497212249785705
1282,00:00:05.128,-0.0019141763914376406
1283,00:00:05.132,0.006087742040108427
1284,00:00:05.136,0.013858974853064872
1285,00:00:05.14,-0.01462195382919163
1286,00:00:05.144,-0.013097407063469289
1287,00:00:05.148,-0.0002348796697333519
1288,00:00:05.152,0.010375731008025468
1289,00:00:05.156,0.011287907254882169
1290,00:00:05.16,0.00970467657316476
1291,00:00:05.164,-0.00936781871132553
1292,00:00:05.168,-0.023369763337541406
1293,00:00:05.172,0.00039929780177772826
1294,00:00:05.176,0.018646100899786664
1295,00:00:05.18,0.018331501516513568
1296,00:00:05.184,-0.007932650391012428
1297,00:00:05.188,-0.027171906898729503
1298,00:00:05.192,-0.01255434681661432
1299,00:00:05.196,0.036465640587266576
1300,00:00:05.2,0.007026125866104853
1301,00:00:05.204,-0.025802147050853756
1302,00:00:05.208,-0.00654734481940977
1303,00:00:05.212,0.007821039296686639
1304,00:00:05.216,0.0007382057956419833
1305,00:00:05.22,0.012367339440970683
1306,00:00:05.224,0.0039700923953205364
1307,00:00:05.228,0.011887191678397361
1308,00:00:05.232,-0.02320162265095858
1309,00:00:05.236,-0.013971650216262784
1310,00:00:05.24,0.0021333897020667813
1311,00:00:05.244,0.008307838579639789
1312,00:00:05.248,0.005211716168560087
1313,00:00:05.252,0.0009592209244146908
1314,00:00:05.256,0.015191699960269051
1315,00:00:05.26,-0.002952464736154071
1316,00:00:05.264,-0.025660299346782222
1317,00:00:05.268,0.006151258712634441
1318,00:00:05.272,0.007807464571669701
1319,00:00:05.276,-0.0067222746292827686
1320,00:00:05.28,0.0008002065587788816
1321,00:00:05.284,0.006864320719614621
1322,00:00:05.288,-0.006155518407467748
1323,00:00:05.292,-0.015437114518135769
1324,00:00:05.296,0.01611808501183987
1325,00:00:05.3,0.028742702292220236
1326,00:00:05.304,-0.013214404636528343
1327,00:00:05.308,-0.03630109736695889
1328,00:00:05.312,0.018089056015014662
1329,00:00:05.316,0.010908399010077119
1330,00:00:05.32,0.0018050134822260614
1331,00:00:05.324,0.0004644233267754299
1332,00:00:05.328,-0.010750397865194782
1333,00:00:05.332,-0.0021427404135465613
1334,00:00:05.336,-0.0031455713324248817
1335,00:00:05.34,-0.00889382185414438
1336,00:00:05.344,0.014299602014943921
1337,00:00:05.348,0.020659104920923738
1338,00:00:05.352,-0.005093923973618075
1339,00:00:05.356,0.0033155296696350113
1340,00:00:05.36,-0.02143953857012091
1341,00:00:05.364,-0.025592537596821792
1342,00:00:05.368,0.01731352589558808
1343,00:00:05.372,0.023873566999100152
1344,00:00:05.376,-0.00018676178297027902
1345,00:00:05.38,-0.008753698493819692
1346,00:00:05.384,0.00504006119444966
1347,00:00:05.388,-0.01213160518091171
1348,00:00:05.392,0.0005579151911660994
1349,00:00:05.396,0.0015977481380105001
1350,00:00:05.4,-0.0016833337867865365
1351,00:00:05.404,0.00187053042463958
1352,00:00:05.408,0.00603282218798995
1353,00:00:05.412,0.017763886135071533
1354,00:00:05.416,-0.0041751677636056705
1355,00:00:05.42,-0.018113638507202247
1356,00:00:05.424,-0.0266882544383407
1357,00:00:05.428,-0.008230604697018879
1358,00:00:05.432,0.04150504851713777
1359,00:00:05.436,0.03808962833136322
1360,00:00:05.44,-0.013801110850181434
1361,00:00:05.444,-0.03580311778932811
1362,00:00:05.448,-0.03188592428341513
1363,00:00:05.452,-0.0006570483092218594
1364,00:00:05.456,0.0415635956451296
1365,00:00:05.46,0.03705363941844555
1366,00:00:05.464,-0.00526920286938548
1367,00:00:05.468,-0.036051836632395834
1368,00:00:05.472,-0.01779095071833582
1369,00:00:05.476,-0.008106142515316609
1370,00:00:05.48,0.013557349053371585
1371,00:00:05.484,0.027300224406644747
1372,00:00:05.488,0.010345826856791938
1373,00:00:05.492,-0.01118624885566533
1374,00:00:05.496,-0.01824154471978541
1375,00:00:05.5,-0.01433892268687486
1376,00:00:05.504,0.014868126250803458
1377,00:00:05.508,0.02538309874944391
1378,00:00:05.512,-0.01949483947828411
1379,00:00:05.516,-0.008812604704871762
1380,00:00:05.52,-0.00575907062739134
1381,00:00:05.524,0.008671650546602901
1382,00:00:05.528,0.019890140742063533
1383,00:00:05.532,0.0006680651567876291
1384,00:00:05.536,-0.009039491415023759
1385,00:00:05.54,-0.01362904813140628
1386,00:00:05.544,-0.00713795656338334
1387,00:00:05.548,-0.004983519145753238
1388,00:00:05.552,0.00799524411559105
1389,00:00:05.556,0.04044767376035455
1390,00:00:05.56,-0.0033328244462609204
1391,00:00:05.564,-0.005910120322369041
1392,00:00:05.568,-0.03349469101522117
1393,00:00:05.572,-0.0179161588312127
1394,00:00:05.576,0.0166536676697433
1395,00:00:05.58,0.010544978198595348
1396,00:00:05.584,0.004153658170253021
1397,00:00:05.588,0.02523425174877047
1398,00:00:05.592,0.00027869432233273983
1399,00:00:05.596,-0.010831310879439119
1400,00:00:05.6,-0.02841212763451044
1401,00:00:05.604,-0.02682464953977613
1402,00:00:05.608,0.01793094119057063
1403,00:00:05.612,0.03004213818348941
1404,00:00:05.616,0.01749320514500145
1405,00:00:05.62,-0.0040117925964295795
1406,00:00:05.624,-0.019291460281237998
1407,00:00:05.628,-0.018244693404994936
1408,00:00:05.632,0.011397910304367565
1409,00:00:05.636,0.02992942673154174
1410,00:00:05.64,-0.010860105860047044
1411,00:00:05.644,-0.03283624583855271
1412,00:00:05.648,-0.006660496117547149
1413,00:00:05.652,0.01156191225163639
1414,00:00:05.656,0.01376402331516147
1415,00:00:05.66,0.0246940751094371
1416,00:00:05.664,0.0019439195748418192
1417,00:00:05.668,-0.009418656758498395
1418,00:00:05.672,-0.02197047806112098
1419,00:00:05.676,-0.010705783322919162
1420,00:00:05.68,-0.0056965111289173295
1421,00:00:05.684,0.004553407081402841
1422,00:00:05.688,0.0122596041765064
1423,00:00:05.692,0.005375559383537614
1424,00:00:05.696,0.019729734282009297
1425,00:00:05.7,0.00629399082390591
1426,00:00:05.704,-0.02500522485934198
1427,00:00:05.708,-0.01279502536635846
1428,00:00:05.712,0.005565406405366949
1429,00:00:05.716,0.0021172789856791405
1430,00:00:05.72,-0.004328776965849097
1431,00:00:05.724,-0.0067271651723785865
1432,00:00:05.728,0.0345563959563151
1433,00:00:05.732,0.01931171666365115
1434,00:00:05.736,-0.03293260419741271
1435,00:00:05.74,-0.031511501059867435
1436,00:00:05.744,0.00043930829269810774
1437,00:00:05.748,0.00779296178370714
1438,00:00:05.752,0.01351670059375465
1439,00:00:05.756,0.00537308596540242
1440,00:00:05.76,0.02121193375205618
1441,00:00:05.764,0.01819481374695894
1442,00:00:05.768,-0.028434363193809955
1443,00:00:05.772,-0.032274845536449076
1444,00:00:05.776,-0.008525818120688203
1445,00:00:05.78,0.00695611536502838
1446,00:00:05.784,0.01051850849762556
1447,00:00:05.788,0.02084387908689679
1448,00:00:05.792,0.011207071001990702
1449,00:00:05.796,-0.01434667594730858
1450,00:00:05.8,-0.016422663582488922
1451,00:00:05.804,-0.0011924742721021288
1452,00:00:05.808,0.029633661499246868
1453,00:00:05.812,-0.006184681784361594
1454,00:00:05.816,-0.016199300065636593
1455,00:00:05.82,0.0036276631290093004
1456,00:00:05.824,-0.010914618149399737
1457,00:00:05.828,-0.01599004585295915
1458,00:00:05.832,0.017229381308425218
1459,00:00:05.836,0.030815733131021282
1460,00:00:05.84,-0.00874496367760002
1461,00:00:05.844,-0.00926385947968811
1462,00:00:05.848,-0.0017848074203356999
1463,00:00:05.852,0.004581586457788941
1464,00:00:05.856,-0.026637219823896885
1465,00:00:05.86,0.005322254262864589
1466,00:00:05.864,0.024342156015336597
1467,00:00:05.868,0.01861456595361233
1468,00:00:05.872,-0.02186468057334423
1469,00:00:05.876,-0.02543784584850077
1470,00:00:05.88,0.0015984685014700595
1471,00:00:05.884,0.013960137497633699
1472,00:00:05.888,0.01485474675428124
1473,00:00:05.892,-0.007289053290151061
1474,00:00:05.896,-0.00666827894747257
1475,00:00:05.9,0.01162605441641062
1476,00:00:05.904,-0.011002858402207492
1477,00:00:05.908,-0.008768783591222021
1478,00:00:05.912,0.02680821064859633
1479,00:00:05.916,0.009029523527715355
1480,00:00:05.92,-0.030063793994486297
1481,00:00:05.924,-0.02494577900506558
1482,00:00:05.928,0.007807195361237933
1483,00:00:05.932,0.0185428503900766
1484,00:00:05.936,0.024650387465953872
1485,00:00:05.94,-0.0012498255819082204
1486,00:00:05.944,-0.01787401805631816
1487,00:00:05.948,-0.0029349645483307514
1488,00:00:05.952,0.0019264520378783397
1489,00:00:05.956,-0.0023932801559567477
1490,00:00:05.96,-0.00839326530694964
1491,00:00:05.964,-0.01296678371727467
1492,00:00:05.968,0.024135268293321223
1493,00:00:05.972,0.03178026294335725
1494,00:00:05.976,-0.02160643879324198
1495,00:00:05.98,-0.019925684202462376
1496,00:00:05.984,-9.103945922106136e-05
1497,00:00:05.988,0.01127020595595238
1498,00:00:05.992,-0.008174012884410326
1499,00:00:05.996,-0.010038958163931931
1500,00:00:06,0.013700178096769381
1501,00:00:06.004,0.007536543300375341
1502,00:00:06.008,0.004184302408248182
1503,00:00:06.012,0.010883472019486362
1504,00:00:06.016,0.00207366514950991
1505,00:00:06.02,-0.036349369271192714
1506,00:00:06.024,-0.030872626113705278
1507,00:00:06.028,0.016352473932784006
1508,00:00:06.032,0.03880924687837245
1509,00:00:06.036,0.02793366741389034
1510,00:00:06.04,-0.016080993227660663
1511,00:00:06.044,-0.01673563302028924
1512,00:00:06.048,-0.012826813559513537
1513,00:00:06.052,-0.00963588897138834
1514,00:00:06.056,-0.0050151584437117
1515,00:00:06.06,0.00794488471001387
1516,00:00:06.064,0.025887989904731533
1517,00:00:06.068,0.00875571416690946
1518,00:00:06.072,-0.014565053395926947
1519,00:00:06.076,-0.01844840240664784
1520,00:00:06.08,-0.0054462547923321905
1521,00:00:06.084,0.02480314392596484
1522,00:00:06.088,0.015108159801457056
1523,00:00:06.092,-0.004111986374482511
1524,00:00:06.096,-0.02027638722211119
1525,00:00:06.1,-0.03163286024937407
1526,00:00:06.104,0.015084270999068426
1527,00:00:06.108,0.04269920988008377
1528,00:00:06.112,-0.0039135509869083745
1529,00:00:06.116,-0.02502416260540491
1530,00:00:06.12,-0.008476624090690167
1531,00:00:06.124,0.0055104317143559785
1532,00:00:06.128,0.0016077575273811913
1533,00:00:06.132,0.010564838186837731
1534,00:00:06.136,0.009577147546224293
1535,00:00:06.14,-0.009686930599855259
1536,00:00:06.144,-0.0024419327965006206
1537,00:00:06.148,0.0023353264550678454
1538,00:00:06.152,-0.0037109401819179757
1539,00:00:06.156,-0.014613506849855221
1540,00:00:06.16,0.00603446969762444
1541,00:00:06.164,0.00700390164274723
1542,00:00:06.168,-0.01601609773933888
1543,00:00:06.172,0.023212347994558503
1544,00:00:06.176,0.03398885019123559
1545,00:00:06.18,-0.013568636204581678
1546,00:00:06.184,-0.0369103443081258
1547,00:00:06.188,-0.02085148915648461
1548,00:00:06.192,0.00394920021062717
1549,00:00:06.196,0.02770321420393886
1550,00:00:06.2,0.0068821866370853925
1551,00:00:06.204,-0.00618083809968084
1552,00:00:06.208,0.0061986605924175785
1553,00:00:06.212,-0.0032429153513930937
1554,00:00:06.216,0.02186539769172667
1555,00:00:06.22,-0.003771914605749772
1556,00:00:06.224,-0.026442022295668714
1557,00:00:06.228,-0.031757037155330264
1558,00:00:06.232,-0.0014231649693101632
1559,00:00:06.236,0.03538184519857164
1560,00:00:06.24,0.024670170270837868
1561,00:00:06.244,-0.00948749808594585
1562,00:00:06.248,0.0003643053350970097
1563,00:00:06.252,-0.014878937741741578
1564,00:00:06.256,-0.0023810782004147395
1565,00:00:06.26,0.01368189376080414
1566,00:00:06.264,0.0061910513322800615
1567,00:00:06.268,-0.020724301371956202
1568,00:00:06.272,-0.022077543195337095
1569,00:00:06.276,0.0042917979881167394
1570,00:00:06.28,0.005437497282400734
1571,00:00:06.284,0.00737022585235536
1572,00:00:06.288,0.042484391480684267
1573,00:00:06.292,0.010714851785451139
1574,00:00:06.296,-0.02841457538306718
1575,00:00:06.3,-0.03528886148706081
1576,00:00:06.304,-0.0067837187089025905
1577,00:00:06.308,0.02330358943436295
1578,00:00:06.312,0.00314686488127336
1579,00:00:06.316,-0.0018469276838004606
1580,00:00:06.32,0.005396298598498104
1581,00:00:06.324,-0.0006814631051383865
1582,00:00:06.328,0.00548779638484121
1583,00:00:06.332,0.000355529482476411
1584,00:00:06.336,0.014286487130448229
1585,00:00:06.34,-0.025128672365099188
1586,00:00:06.344,-0.013881374266929914
1587,00:00:06.348,0.0019934560405090434
1588,00:00:06.352,-0.0001961513189598892
1589,00:00:06.356,0.0008289833028811705
1590,00:00:06.36,0.01375014393124729
1591,00:00:06.364,0.01791982166469102
1592,00:00:06.368,0.009980733273550875
1593,00:00:06.372,-0.02059250522870568
1594,00:00:06.376,-0.006837801105575632
1595,00:00:06.38,0.002384955994784839
1596,00:00:06.384,-0.02070537558756769
1597,00:00:06.388,-0.014155641227262096
1598,00:00:06.392,0.01605657255277037
1599,00:00:06.396,0.03829553676769138
1600,00:00:06.4,0.017688597901724248
1601,00:00:06.404,-0.026098946575075423
1602,00:00:06.408,-0.033280582400038845
1603,00:00:06.412,0.0011490535689517927
1604,00:00:06.416,0.028444631025195073
1605,00:00:06.42,0.006561056929058392
1606,00:00:06.424,-0.025364683417137757
1607,00:00:06.428,-0.010799344192491839
1608,00:00:06.432,0.0010736554104369177
1609,00:00:06.436,0.0138337193056941
1610,00:00:06.44,0.008794999564997838
1611,00:00:06.444,0.01763260364532467
1612,00:00:06.448,0.00984490942209959
1613,00:00:06.452,-0.02177974861115215
1614,00:00:06.456,-0.021046501118689803
1615,00:00:06.46,-0.00799563992768526
1616,00:00:06.464,-0.006331715965643551
1617,00:00:06.468,-0.0076916933394386485
1618,00:00:06.472,0.03393694828264411
1619,00:00:06.476,0.056947834789752946
1620,00:00:06.48,-0.0029319516615942095
1621,00:00:06.484,-0.07294613134581587
1622,00:00:06.488,-0.04165964480489489
1623,00:00:06.492,0.037146950140595415
1624,00:00:06.496,0.04838693630881606
1625,00:00:06.5,0.0097840427188203
1626,00:00:06.504,-0.015843735542148345
1627,00:00:06.508,-0.02580911805853246
1628,00:00:06.512,-0.03278160479385405
1629,00:00:06.516,-0.0021632533025694976
1630,00:00:06.52,0.04198928142432126
1631,00:00:06.524,0.02830399293452501
1632,00:00:06.528,-0.00012717768549919042
1633,00:00:06.532,-0.0047209835611283805
1634,00:00:06.536,-0.03433480812236663
1635,00:00:06.54,-0.02187142998445778
1636,00:00:06.544,0.01891045295633375
1637,00:00:06.548,0.01956281904131172
1638,00:00:06.552,0.0051062094280496205
1639,00:00:06.556,-0.0016673074569553102
1640,00:00:06.56,-0.01868527615442878
1641,00:00:06.564,-0.015102729201316828
1642,00:00:06.568,0.024334545247256797
1643,00:00:06.572,0.02589815738610927
1644,00:00:06.576,0.0009499276056885711
1645,00:00:06.58,-0.028875529533252123
1646,00:00:06.584,-0.018929329933598634
1647,00:00:06.588,-0.00486547313630581
1648,00:00:06.592,0.01670936075970531
1649,00:00:06.596,0.01142201700713485
1650,00:00:06.6,0.00376210547983646
1651,00:00:06.604,0.016990373842418208
1652,00:00:06.608,-0.002753291802946472
1653,00:00:06.612,-0.029265556484460803
1654,00:00:06.616,0.0015134855639189516
1655,00:00:06.62,0.0007150109740905481
1656,00:00:06.624,-0.01970732025802132
1657,00:00:06.628,0.00694402609951794
1658,00:00:06.632,0.02597156882984562
1659,00:00:06.636,0.0248966757208109
1660,00:00:06.64,-0.00748950126580894
1661,00:00:06.644,-0.029334319056943108
1662,00:00:06.648,-0.0032488754950463802
1663,00:00:06.652,-0.0012057669923706293
1664,00:00:06.656,-0.005997599102556701
1665,00:00:06.66,0.012013827217742799
1666,00:00:06.664,-0.004300090484321116
1667,00:00:06.668,0.020576895884005308
1668,00:00:06.672,0.01044060522690416
1669,00:00:06.676,-0.015230962424539009
1670,00:00:06.68,-0.0171557203866541
1671,00:00:06.684,-0.0037057357258163354
1672,00:00:06.688,0.010714210337027899
1673,00:00:06.692,0.0028239474049769303
1674,00:00:06.696,-5.869870074092995e-05
1675,00:00:06.7,-0.0006017034174874399
1676,00:00:06.704,-0.006553040846483782
1677,00:00:06.708,-0.0023538953391835085
1678,00:00:06.712,0.0005571820074692382
1679,00:00:06.716,0.021186372498050332
1680,00:00:06.72,0.02271095779724422
1681,00:00:06.724,-0.01458740170346573
1682,00:00:06.728,-0.04690266493707896
1683,00:00:06.732,-0.008561033057048912
1684,00:00:06.736,0.017079882789403148
1685,00:00:06.74,0.04711299075279387
1686,00:00:06.744,-0.00397452432662249
1687,00:00:06.748,-0.04098230801173485
1688,00:00:06.752,-0.00672547332942486
1689,00:00:06.756,0.008799126400845129
1690,00:00:06.76,0.01962593733333047
1691,00:00:06.764,0.0095994062721729
1692,00:00:06.768,-0.004561430600006135
1693,00:00:06.772,-0.0045230980031192285
1694,00:00:06.776,-0.008391990792006256
1695,00:00:06.78,-0.00954107823781669
1696,00:00:06.784,-0.0007987089920789099
1697,00:00:06.788,0.016193266434129376
1698,00:00:06.792,-0.002855701954104014
1699,00:00:06.796,-0.00805755844339726
1700,00:00:06.8,0.016060422960435975
1701,00:00:06.804,-0.004371307935798535
1702,00:00:06.808,-0.01332584151532501
1703,00:00:06.812,0.00268488889560103
1704,00:00:06.816,0.00997746459324845
1705,00:00:06.82,0.007717523665633054
1706,00:00:06.824,-0.019470094470307224
1707,00:00:06.828,0.003175469464622441
1708,00:00:06.832,0.005573418457061048
1709,00:00:06.836,0.003848058637231585
1710,00:00:06.84,-0.0014858088688924883
1711,00:00:06.844,-0.01864278560969976
1712,00:00:06.848,0.008341315260622652
1713,00:00:06.852,0.006161675322800868
1714,00:00:06.856,0.00777677935548126
1715,00:00:06.86,-0.0009675546316429899
1716,00:00:06.864,-0.02503702603280546
1717,00:00:06.868,0.015967419312801216
1718,00:00:06.872,0.025144816798274402
1719,00:00:06.876,0.008862728471285667
1720,00:00:06.88,-0.02066967543214563
1721,00:00:06.884,-0.04109119810163968
1722,00:00:06.888,-0.011341727105900652
1723,00:00:06.892,0.01642699399963019
1724,00:00:06.896,0.03963886480778458
1725,00:00:06.9,0.005962145864032207
1726,00:00:06.904,0.0033718797822075396
1727,00:00:06.908,-0.01051039656158537
1728,00:00:06.912,-0.00961235701106489
1729,00:00:06.916,-0.010933491401374368
1730,00:00:06.92,-0.01958731608465317
1731,00:00:06.924,0.013317331671714783
1732,00:00:06.928,0.01662593730725348
1733,00:00:06.932,0.003945764823583887
1734,00:00:06.936,-0.0033123042667284708
1735,00:00:06.94,0.011733463965356322
1736,00:00:06.944,-0.012558048125356441
1737,00:00:06.948,-0.006854250095784669
1738,00:00:06.952,-0.00620343978516757
1739,00:00:06.956,0.0010006540687754707
1740,00:00:06.96,0.01806887565180655
1741,00:00:06.964,0.00838437722995878
1742,00:00:06.968,-0.02695933496579532
1743,00:00:06.972,-0.01929551316425199
1744,00:00:06.976,0.0226125586777925
1745,00:00:06.98,0.03890173230320218
1746,00:00:06.984,-0.02125187381170688
1747,00:00:06.988,-0.03474945202469827
1748,00:00:06.992,-0.00042700901394709815
1749,00:00:06.996,0.055905896799231344
1750,00:00:07,0.01826062361942606
1751,00:00:07.004,-0.046789535088464694
1752,00:00:07.008,-0.048312326543964446
1753,00:00:07.012,-0.01623921585269273
1754,00:00:07.016,0.0353840666357428
1755,00:00:07.02,0.06867370568215847
1756,00:00:07.024,0.01726209954358636
1757,00:00:07.028,-0.03016165422741323
1758,00:00:07.032,-0.042426633124705466
1759,00:00:07.036,-0.03519476717337961
1760,00:00:07.04,-0.0011427678982727165
1761,00:00:07.044,0.029104231623932678
1762,00:00:07.048,0.06052847183309494
1763,00:00:07.052,0.02430407016072426
1764,00:00:07.056,-0.030470225494354956
1765,00:00:07.06,-0.05327161750756208
1766,00:00:07.064,-0.037804081570357126
1767,00:00:07.068,0.004014606820419441
1768,00:00:07.072,0.048484137980267364
1769,00:00:07.076,0.0589771359227597
1770,00:00:07.08,-0.003961037262342879
1771,00:00:07.084,-0.05857194075360889
1772,00:00:07.088,-0.03763318061828612
1773,00:00:07.092,0.015772358165122603
1774,00:00:07.096,0.033479259116575066
1775,00:00:07.1,0.01779652992263436
1776,00:00:07.104,-0.00998659036122263
1777,00:00:07.108,-0.0021301389206200803
1778,00:00:07.112,0.002788138925097889
1779,00:00:07.116,-0.023356479592621368
1780,00:00:07.12,-0.020117636071518032
1781,00:00:07.124,0.01257393427658827
1782,00:00:07.128,0.021332992939278483
1783,00:00:07.132,0.0182535560161341
1784,00:00:07.136,-0.0018675317987799592
1785,00:00:07.14,-0.02033276134170589
1786,00:00:07.144,-0.005978963599773118
1787,00:00:07.148,-0.007724482682533571
1788,00:00:07.152,0.01688996958546343
1789,00:00:07.156,0.007383604126516728
1790,00:00:07.16,-0.004633557880879376
1791,00:00:07.164,-0.01093360013328492
1792,00:00:07.168,-0.00823338725604116
1793,00:00:07.172,0.0007501396175939619
1794,00:00:07.176,0.002528641132812486
1795,00:00:07.18,0.02785659325309099
1796,00:00:07.184,0.00840805005282163
1797,00:00:07.188,-0.013521118089556689
1798,00:00:07.192,-0.007188816962298006
1799,00:00:07.196,-0.020124396178289285
1800,00:00:07.2,-0.00645661517046392
1801,00:00:07.204,0.017918999772518922
1802,00:00:07.208,0.01096380816306919
1803,00:00:07.212,-0.01087088882923125
1804,00:00:07.216,0.01184971502516414
1805,00:00:07.22,0.01107386290095746
1806,00:00:07.224,-0.023620993248186988
1807,00:00:07.228,-0.022789370690588798
1808,00:00:07.232,0.02260945132002234
1809,00:00:07.236,0.01437571970745919
1810,00:00:07.24,0.002145422622561455
1811,00:00:07.244,-0.007618203992024059
1812,00:00:07.248,-0.01543714932631702
1813,00:00:07.252,-0.0011983813601545992
1814,00:00:07.256,0.00935496506281197
1815,00:00:07.26,0.00821857259143144
1816,00:00:07.264,0.011079055140726268
1817,00:00:07.268,-0.009874424809822814
1818,00:00:07.272,-0.01052393775898963
1819,00:00:07.276,0.0021400822588475395
1820,00:00:07.28,-0.004100490245036739
1821,00:00:07.284,0.022240524180233465
1822,00:00:07.288,-0.014406630536541343
1823,00:00:07.292,-0.02829578763339671
1824,00:00:07.296,0.0031210473971441405
1825,00:00:07.3,0.02562492620199924
1826,00:00:07.304,0.011968528211582449
1827,00:00:07.308,-0.014435528079047789
1828,00:00:07.312,0.01576879830099642
1829,00:00:07.316,0.01921106665395203
1830,00:00:07.32,-0.008789194049313668
1831,00:00:07.324,-0.043298952747136354
1832,00:00:07.328,-0.03671690775081512
1833,00:00:07.332,0.00550881860544905
1834,00:00:07.336,0.039960108231753166
1835,00:00:07.34,0.04660510190296918
1836,00:00:07.344,0.01648247300181537
1837,00:00:07.348,-0.042290815850719816
1838,00:00:07.352,-0.03596303728409107
1839,00:00:07.356,-0.0035467939451336817
1840,00:00:07.36,0.019558965461328615
1841,00:00:07.364,0.026102666277438426
1842,00:00:07.368,-0.009655287489295011
1843,00:00:07.372,-0.012642780318856274
1844,00:00:07.376,-0.002720883931033309
1845,00:00:07.38,0.004644165979698299
1846,00:00:07.384,0.0038277900166576646
1847,00:00:07.388,-0.013631532579893243
1848,00:00:07.392,0.00845915777608752
1849,00:00:07.396,0.02821128931827843
1850,00:00:07.4,-0.00217447406612337
1851,00:00:07.404,-0.025165960192680394
1852,00:00:07.408,-0.00997893838211894
1853,00:00:07.412,-0.006491918698884539
1854,00:00:07.416,0.00851011299528182
1855,00:00:07.42,-0.0041661728173494296
1856,00:00:07.424,0.01146654365584254
1857,00:00:07.428,0.01999270496889946
1858,00:00:07.432,-0.0011525987647473803
1859,00:00:07.436,-0.013056528754532348
1860,00:00:07.44,-0.008413139032199979
1861,00:00:07.444,0.013658304465934662
1862,00:00:07.448,-0.0018796334043145319
1863,00:00:07.452,-0.015187367745966192
1864,00:00:07.456,0.000753046449972311
1865,00:00:07.46,0.00548737868666649
1866,00:00:07.464,0.006520795461256062
1867,00:00:07.468,-0.019069673937337977
1868,00:00:07.472,0.007092528860084729
1869,00:00:07.476,0.02704496597652907
1870,00:00:07.48,0.003722736786585302
1871,00:00:07.484,-0.015442792268004272
1872,00:00:07.488,-0.0016560667427256693
1873,00:00:07.492,-0.010886705946177239
1874,00:00:07.496,-0.008989847265183891
1875,00:00:07.5,0.004449746280442926
1876,00:00:07.504,-0.00961305166129023
1877,00:00:07.508,0.00802834518253806
1878,00:00:07.512,0.01183071488048881
1879,00:00:07.516,0.013794582569971691
1880,00:00:07.52,0.014014666900038757
1881,00:00:07.524,-0.0009541251347400309
1882,00:00:07.528,-0.01853088254574686
1883,00:00:07.532,-0.031203679274767665
1884,00:00:07.536,-0.009545972570776929
1885,00:00:07.54,-0.0013664574362337602
1886,00:00:07.544,0.028096003923565118
1887,00:00:07.548,0.04632931062951684
1888,00:00:07.552,-0.0023253995459526795
1889,00:00:07.556,-0.04301926842890681
1890,00:00:07.56,-0.022226443339604912
1891,00:00:07.564,0.007101558730937544
1892,00:00:07.568,0.028356697410345133
1893,00:00:07.572,0.020825434708967763
1894,00:00:07.576,-0.01769114316994095
1895,00:00:07.58,-0.02220546547323459
1896,00:00:07.584,-0.006568983706529256
1897,00:00:07.588,-0.0036731917643919604
1898,00:00:07.592,0.0102874497679295
1899,00:00:07.596,0.006940168786968566
1900,00:00:07.6,0.011941906530410058
1901,00:00:07.604,0.011909318622201702
1902,00:00:07.608,0.00440038414672017
1903,00:00:07.612,-0.01279386878013606
1904,00:00:07.616,-0.01203519338741894
1905,00:00:07.62,-0.024123818497173422
1906,00:00:07.624,-0.00670204171910882
1907,00:00:07.628,0.01881880359724164
1908,00:00:07.632,0.02322253049351275
1909,00:00:07.636,0.00253828932181932
1910,00:00:07.64,-0.011585492888116281
1911,00:00:07.644,0.010119093814864748
1912,00:00:07.648,-0.010900501976720989
1913,00:00:07.652,-0.00262199563439935
1914,00:00:07.656,0.011693997468682934
1915,00:00:07.66,-0.00598775828257203
1916,00:00:07.664,-0.02404040237888696
1917,00:00:07.668,-0.001735814614221455
1918,00:00:07.672,0.01581468153744936
1919,00:00:07.676,0.01134267239831388
1920,00:00:07.68,0.0021418455289676807
1921,00:00:07.684,0.0002507469034753783
1922,00:00:07.688,0.007512840733397752
1923,00:00:07.692,-0.01602700044168159
1924,00:00:07.696,-0.005236919671006027
1925,00:00:07.7,-0.002348787820665172
1926,00:00:07.704,-0.0024680865462869406
1927,00:00:07.708,0.005586339975707237
1928,00:00:07.712,0.008613193524070084
1929,00:00:07.716,0.001580981508595875
1930,00:00:07.72,0.0024496931582689255
1931,00:00:07.724,-0.0022690946934744724
1932,00:00:07.728,-0.013208542019128789
1933,00:00:07.732,0.001665008196141569
1934,00:00:07.736,0.002806311473250383
1935,00:00:07.74,0.0030246489914134093
1936,00:00:07.744,0.001993351732380681
1937,00:00:07.748,0.012943617213750258
1938,00:00:07.752,-0.006297315441770476
1939,00:00:07.756,-0.027274250402115244
1940,00:00:07.76,-0.001192535972222685
1941,00:00:07.764,0.02040104623301884
1942,00:00:07.768,0.0110198876354843
1943,00:00:07.772,0.006339150539133703
1944,00:00:07.776,-0.00987357739359137
1945,00:00:07.78,-0.015585467528580949
1946,00:00:07.784,-0.012307061813771721
1947,00:00:07.788,0.00946560106240213
1948,00:00:07.792,0.010403927764855379
1949,00:00:07.796,0.01498253270983699
1950,00:00:07.8,-0.00227837241254748
1951,00:00:07.804,-0.010837149340659399
1952,00:00:07.808,-0.00142221245914697
1953,00:00:07.812,-0.0012396057136356813
1954,00:00:07.816,-0.006023414433002472
1955,00:00:07.82,-0.007665216224268081
1956,00:00:07.824,0.009140268433839088
1957,00:00:07.828,0.0013056984171271333
1958,00:00:07.832,0.01384824584238231
1959,00:00:07.836,-0.0032411058782599914
1960,00:00:07.84,0.00918906764127315
1961,00:00:07.844,0.00016748986672610175
1962,00:00:07.848,-0.02924384735524654
1963,00:00:07.852,-0.013154927873983958
1964,00:00:07.856,0.02168388152495027
1965,00:00:07.86,0.00422650226391851
1966,00:00:07.864,0.005869768559932709
1967,00:00:07.868,0.0125589827075601
1968,00:00:07.872,-0.00746704183984552
1969,00:00:07.876,-0.017783976159989848
1970,00:00:07.88,-0.01777376100653783
1971,00:00:07.884,0.01998700143303719
1972,00:00:07.888,0.023381067323498397
1973,00:00:07.892,-0.002558990342549807
1974,00:00:07.896,-0.007492067059502009
1975,00:00:07.9,-0.01365324045764283
1976,00:00:07.904,-0.013022200670093301
1977,00:00:07.908,0.0012497292482294142
1978,00:00:07.912,0.01477198139764368
1979,00:00:07.916,0.007111217419151216
1980,00:00:07.92,0.00250704854261129
1981,00:00:07.924,-0.00279562850482762
1982,00:00:07.928,0.0057295989536214585
1983,00:00:07.932,0.001304395846091208
1984,00:00:07.936,-0.0020951972110196996
1985,00:00:07.94,-0.01222191209672018
1986,00:00:07.944,-0.016758705954998728
1987,00:00:07.948,-0.01155365802696906
1988,00:00:07.952,0.014518714626319701
1989,00:00:07.956,0.04159191483631725
1990,00:00:07.96,0.010107464215252548
1991,00:00:07.964,-0.018108540447428767
1992,00:00:07.968,-0.02300210151588546
1993,00:00:07.972,-0.01133370911702514
1994,00:00:07.976,-0.00465389469172805
1995,00:00:07.98,0.012334267958067354
1996,00:00:07.984,0.00308855611365289
1997,00:00:07.988,0.01467302138917147
1998,00:00:07.992,0.02632822003215553
1999,00:00:07.996,-0.0034382401499897697
2000,00:00:08,-0.04238398140296345
2001,00:00:08.004,-0.022378715802915422
2002,00:00:08.008,0.005306827137246731
2003,00:00:08.012,0.023528664605692
2004,00:00:08.016,0.020265770610421906
2005,00:00:08.02,0.007352444459684196
2006,00:00:08.024,0.005825366824865338
2007,00:00:08.028,-0.01791141601279378
2008,00:00:08.032,-0.02980403928086162
2009,00:00:08.036,-0.005789609625935561
2010,00:00:08.04,0.0033421889820601743
2011,00:00:08.044,0.0090027377482329
2012,00:00:08.048,0.028286402579396925
2013,00:00:08.052,0.00529823685064912
2014,00:00:08.056,-0.0014281317417044128
2015,00:00:08.06,-0.010418687481433181
2016,00:00:08.064,-0.024517836514860402
2017,00:00:08.068,-0.00378740858286619
2018,00:00:08.072,0.01905565283959734
2019,00:00:08.076,0.00328794354572892
2020,00:00:08.08,-0.009414297703187892
2021,00:00:08.084,0.006674986332654949
2022,00:00:08.088,0.006166126106109002
2023,00:00:08.092,-0.011613875161856389
2024,00:00:08.096,0.01905890973284841
2025,00:00:08.1,0.01248160563409326
2026,00:00:08.104,-0.0173585114534944
2027,00:00:08.108,-0.04002797813154759
2028,00:00:08.112,-0.0012504328042268783
2029,00:00:08.116,0.039329758612439016
2030,00:00:08.12,0.0019376989803276917
2031,00:00:08.124,-0.01643235213123262
2032,00:00:08.128,-0.002139379270374774
2033,00:00:08.132,0.02221974241547287
2034,00:00:08.136,0.02388792185229252
2035,00:00:08.14,-0.010184237908106297
2036,00:00:08.144,-0.03888732722771234
2037,00:00:08.148,-0.026452446822076998
2038,00:00:08.152,0.00217136670835316
2039,00:00:08.156,0.030308964662253888
2040,00:00:08.16,0.03005411894991999
2041,00:00:08.164,-0.00568391149863601
2042,00:00:08.168,-0.012430422735633335
2043,00:00:08.172,0.00868213176727295
2044,00:00:08.176,-0.0009387363679706998
2045,00:00:08.18,-0.02273956988938154
2046,00:00:08.184,-0.017738557420670948
2047,00:00:08.188,0.0015922890743240601
2048,00:00:08.192,0.022415082697989426
2049,00:00:08.196,0.04040041635744271
2050,00:00:08.2,-0.0068405716738197935
2051,00:00:08.204,-0.035804061102680876
2052,00:00:08.208,-0.01755226448585745
2053,00:00:08.212,0.015165587188676
2054,00:00:08.216,0.017596842604689317
2055,00:00:08.22,-0.015435826557222768
2056,00:00:08.224,-0.010411009032395665
2057,00:00:08.228,0.006420405814424169
2058,00:00:08.232,0.01793160312809051
2059,00:00:08.236,0.0167168261250481
2060,00:00:08.24,0.0013836633588653001
2061,00:00:08.244,-0.014769561588764149
2062,00:00:08.248,-0.04076566081494093
2063,00:00:08.252,-0.007601742458064108
2064,00:00:08.256,0.02286238688975575
2065,00:00:08.26,0.020501260645687584
2066,00:00:08.264,0.01176188653334975
2067,00:00:08.268,0.00937507068738341
2068,00:00:08.272,-0.016413694829680074
2069,00:00:08.276,-0.0277790135005489
2070,00:00:08.28,-0.008430587593466043
2071,00:00:08.284,0.028119691181927923
2072,00:00:08.288,0.016189485322684008
2073,00:00:08.292,-0.013263332832139025
2074,00:00:08.296,-0.019343533320352484
2075,00:00:08.3,0.010375743033364412
2076,00:00:08.304,-0.007523842097725719
2077,00:00:08.308,0.0019083929946646003
2078,00:00:08.312,0.01597733562812213
2079,00:00:08.316,0.00742934446316212
2080,00:00:08.32,-0.00549730972852558
2081,00:00:08.324,-0.0023150135239120616
2082,00:00:08.328,-0.0033627657103352236
2083,00:00:08.332,-0.016207251232117418
2084,00:00:08.336,0.0030438709072768606
2085,00:00:08.34,0.002622315412736498
2086,00:00:08.344,-0.014548792270943531
2087,00:00:08.348,0.0051726714009419274
2088,00:00:08.352,0.053572880278807126
2089,00:00:08.356,0.005451405726489601
2090,00:00:08.36,-0.029645537026226517
2091,00:00:08.364,-0.04198434762656686
2092,00:00:08.368,-0.01758267916738988
2093,00:00:08.372,0.034002440515905584
2094,00:00:08.376,0.03987499140203005
2095,00:00:08.38,-0.005780580453574664
2096,00:00:08.384,-0.02107367312419233
2097,00:00:08.388,-0.014101412845775482
2098,00:00:08.392,0.00430576340295374
2099,00:00:08.396,0.00660931004676968
2100,00:00:08.4,0.00980435055680573
2101,00:00:08.404,0.01106035639531911
2102,00:00:08.408,-0.0053275910322554375
2103,00:00:08.412,-0.00580080051440746
2104,00:00:08.416,-0.019616387318819768
2105,00:00:08.42,-0.02474433684255927
2106,00:00:08.424,0.012742467981297488
2107,00:00:08.428,0.019726543687283993
2108,00:00:08.432,0.03752503878786231
2109,00:00:08.436,0.01017122576013208
2110,00:00:08.44,-0.026218372862786124
2111,00:00:08.444,-0.02699329704046248
2112,00:00:08.448,-0.014366160205099733
2113,00:00:08.452,-0.007792700314894318
2114,00:00:08.456,0.02188959764316678
2115,00:00:08.46,0.022443945841587223
2116,00:00:08.464,0.007679884205572311
2117,00:00:08.468,-0.01575517700985074
2118,00:00:08.472,-0.013056904776021838
2119,00:00:08.476,-0.0009017627889988877
2120,00:00:08.48,0.02339254040271045
2121,00:00:08.484,0.014451286755502269
2122,00:00:08.488,-0.02077145734801885
2123,00:00:08.492,-0.02375718159601093
2124,00:00:08.496,0.0019709630869328898
2125,00:00:08.5,0.002652432478498676
2126,00:00:08.504,0.0025560071226209398
2127,00:00:08.508,0.0008694638963788791
2128,00:00:08.512,0.01757123880088332
2129,00:00:08.516,0.01736010354943574
2130,00:00:08.52,-0.01306462283537256
2131,00:00:08.524,-0.01811601174995303
2132,00:00:08.528,0.006526056677103039
2133,00:00:08.532,0.0030887786997482202
2134,00:00:08.536,-0.02229845384135845
2135,00:00:08.54,-0.0023575351806357494
2136,00:00:08.544,0.012887881137430657
2137,00:00:08.548,0.012887611635960632
2138,00:00:08.552,0.00998118927236647
2139,00:00:08.556,0.0050278565613553
2140,00:00:08.56,-0.01422793825622648
2141,00:00:08.564,-0.013610021131171327
2142,00:00:08.568,-0.01150889927521349
2143,00:00:08.572,7.628928869961998e-05
2144,00:00:08.576,0.027108178415801404
2145,00:00:08.58,0.017038203543052074
2146,00:00:08.584,-0.02798175474163148
2147,00:00:08.588,-0.01145186903886497
2148,00:00:08.592,0.00255193340126426
2149,00:00:08.596,0.01048472966067493
2150,00:00:08.6,-0.0030294501921162105
2151,00:00:08.604,0.007049507752526543
2152,00:00:08.608,0.02373584918677804
2153,00:00:08.612,-0.005478326929733161
2154,00:00:08.616,-0.02826559101231395
2155,00:00:08.62,-0.01355935726314781
2156,00:00:08.624,0.0002659866004250896
2157,00:00:08.628,0.004123536287806935
2158,00:00:08.632,0.0176756302826107
2159,00:00:08.636,0.013999388043885086
2160,00:00:08.64,0.0117676283698529
2161,00:00:08.644,-0.01952869188971813
2162,00:00:08.648,-0.015685742895584526
2163,00:00:08.652,0.0008221811149269297
2164,00:00:08.656,-0.0007861293415771812
2165,00:00:08.66,-0.00037150731077417645
2166,00:00:08.664,-0.00490741478279233
2167,00:00:08.668,0.01274212822318074
2168,00:00:08.672,0.0204216968268156
2169,00:00:08.676,-0.01448832685127854
2170,00:00:08.68,-0.021385784610174607
2171,00:00:08.684,0.013784960960038001
2172,00:00:08.688,0.020387209486216303
2173,00:00:08.692,0.00569841219112277
2174,00:00:08.696,-0.02057739172596487
2175,00:00:08.7,-0.03228198830038307
2176,00:00:08.704,-0.007771033386234192
2177,00:00:08.708,0.01838429365307094
2178,00:00:08.712,0.03564914083108302
2179,00:00:08.716,0.01450056093744934
2180,00:00:08.72,-0.016395739585277576
2181,00:00:08.724,-0.011985840363195166
2182,00:00:08.728,-0.0043090205290354745
2183,00:00:08.732,-0.00979247421491896
2184,00:00:08.736,-0.0006597426108783128
2185,00:00:08.74,0.01281520072370768
2186,00:00:08.744,-0.0232202922925353
2187,00:00:08.748,0.0022583848331123608
2188,00:00:08.752,0.04090063093462957
2189,00:00:08.756,0.02862848993390801
2190,00:00:08.76,-0.03884816938079889
2191,00:00:08.764,-0.0445529790595173
2192,00:00:08.768,0.003529497422277919
2193,00:00:08.772,0.019832404563203482
2194,00:00:08.776,0.008531100349500779
2195,00:00:08.78,0.010334211168810722
2196,00:00:08.784,0.020508989924564968
2197,00:00:08.788,-0.006171839311718941
2198,00:00:08.792,-0.03307411354035142
2199,00:00:08.796,-0.01055870484560728
2200,00:00:08.8,0.0068479391047730955
2201,00:00:08.804,0.00010523805394768975
2202,00:00:08.808,0.0148335020057857
2203,00:00:08.812,0.01825750630814585
2204,00:00:08.816,-0.01149874599650502
2205,00:00:08.82,-0.0019965422106906798
2206,00:00:08.824,-0.005867621686775234
2207,00:00:08.828,-0.01766746534849517
2208,00:00:08.832,-0.0005216995486989695
2209,00:00:08.836,0.033370226272381884
2210,00:00:08.84,0.006446463847623819
2211,00:00:08.844,-0.033882956951856655
2212,00:00:08.848,-0.0073568494990468025
2213,00:00:08.852,0.008545352902729073
2214,00:00:08.856,0.022375761065632112
2215,00:00:08.86,0.0038917667061468845
2216,00:00:08.864,-0.01105404063127934
2217,00:00:08.868,-0.00720106926746667
2218,00:00:08.872,-0.004671742070058831
2219,00:00:08.876,0.004910558462142948
2220,00:00:08.88,0.002029631170444186
2221,00:00:08.884,0.0007092930027283719
2222,00:00:08.888,0.004247943055816
2223,00:00:08.892,-0.00619392143562436
2224,00:00:08.896,0.0046856763947289454
2225,00:00:08.9,-0.006900346663314846
2226,00:00:08.904,-0.00948837236501277
2227,00:00:08.908,0.003982245747465641
2228,00:00:08.912,0.0175408616196364
2229,00:00:08.916,0.017929170629940927
2230,00:00:08.92,-0.01197298022452744
2231,00:00:08.924,-0.01943743741139769
2232,00:00:08.928,-0.01849985960870981
2233,00:00:08.932,-0.0034455896820873005
2234,00:00:08.936,0.017534389742650126
2235,00:00:08.94,0.030347900697961453
2236,00:00:08.944,0.01092798856552688
2237,00:00:08.948,-0.013108828105032489
2238,00:00:08.952,-0.02761838049627834
2239,00:00:08.956,-0.007117638364434249
2240,00:00:08.96,0.0017579468985786672
2241,00:00:08.964,-0.009400752722285691
2242,00:00:08.968,0.008785945130512129
2243,00:00:08.972,0.035548225452657796
2244,00:00:08.976,0.02621438680216665
2245,00:00:08.98,-0.016117101418785768
2246,00:00:08.984,-0.04425916098989539
2247,00:00:08.988,-0.03476692829281093
2248,00:00:08.992,0.00876735243946314
2249,00:00:08.996,0.04533284995704886
2250,00:00:09,0.022124558920040744
2251,00:00:09.004,0.008552762796171011
2252,00:00:09.008,-0.0179744359338656
2253,00:00:09.012,-0.049532542820088524
2254,00:00:09.016,0.001846449449658399
2255,00:00:09.02,0.023774379165843112
2256,00:00:09.024,0.015136537374928549
2257,00:00:09.028,0.0055644116364419495
2258,00:00:09.032,0.001878738952655111
2259,00:00:09.036,-0.01636926829814908
2260,00:00:09.04,-0.01387253496795895
2261,00:00:09.044,-0.003757811995455993
2262,00:00:09.048,0.01102472969796509
2263,00:00:09.052,0.01457783579826355
2264,00:00:09.056,-0.004012220306321983
2265,00:00:09.06,-0.005189041650737643
2266,00:00:09.064,0.004639202190446675
2267,00:00:09.068,0.01607685955241322
2268,00:00:09.072,-0.02688737795688207
2269,00:00:09.076,-0.01602373132482176
2270,00:00:09.08,0.01413568551652138
2271,00:00:09.084,0.01455517439171671
2272,00:00:09.088,-0.00936877774074674
2273,00:00:09.092,0.01283903245348484
2274,00:00:09.096,0.02194514777511363
2275,00:00:09.1,-0.023229818732943372
2276,00:00:09.104,-0.03105548676103358
2277,00:00:09.108,-0.02195568766910586
2278,00:00:09.112,0.02229463909679909
2279,00:00:09.116,0.056562646816019
2280,00:00:09.12,0.013968154526082816
2281,00:00:09.124,-0.03654660069150855
2282,00:00:09.128,-0.03020619738526873
2283,00:00:09.132,0.006842038012109695
2284,00:00:09.136,-0.0023019209038466206
2285,00:00:09.14,0.007452513003954664
2286,00:00:09.144,0.00807859341148287
2287,00:00:09.148,-0.010258761234581481
2288,00:00:09.152,0.0034537097089923988
2289,00:00:09.156,0.02508132508955891
2290,00:00:09.16,0.006863889982923861
2291,00:00:09.164,-0.017702368844766187
2292,00:00:09.168,-0.025581854861229637
2293,00:00:09.172,0.00302788370754569
2294,00:00:09.176,0.005351232481189076
2295,00:00:09.18,0.004305758047848944
2296,00:00:09.184,0.008853403967805209
2297,00:00:09.188,-0.008840290247462688
2298,00:00:09.192,0.005613903282210219
2299,00:00:09.196,0.009232326206983998
2300,00:00:09.2,-0.003662536648334939
2301,00:00:09.204,0.00180815008934587
2302,00:00:09.208,0.000327672692947081
2303,00:00:09.212,-0.01504357717931271
2304,00:00:09.216,-0.01706695766188205
2305,00:00:09.22,0.0010685792658478002
2306,00:00:09.224,0.023884488356998152
2307,00:00:09.228,0.012750271707773177
2308,00:00:09.232,-0.0002585696056485202
2309,00:00:09.236,-0.01376857294235382
2310,00:00:09.24,-0.0063655887497589
2311,00:00:09.244,0.010438240133225949
2312,00:00:09.248,-0.00877004442736506
2313,00:00:09.252,-0.00506889354437589
2314,00:00:09.256,0.01062340883072466
2315,00:00:09.26,0.0021024055313318994
2316,00:00:09.264,-0.0014645061455666997
2317,00:00:09.268,-0.010347091476432979
2318,00:00:09.272,0.00250628346111625
2319,00:00:09.276,0.02069247118197377
2320,00:00:09.28,-0.00542107375804334
2321,00:00:09.284,-0.00852803094312548
2322,00:00:09.288,-0.014457310666330159
2323,00:00:09.292,-0.00011614311370067255
2324,00:00:09.296,0.02458210079930726
2325,00:00:09.3,-0.001136836479417981
2326,00:00:09.304,-0.02295720181427893
2327,00:00:09.308,0.009605965577065938
2328,00:00:09.312,0.01631696679396555
2329,00:00:09.316,-0.012460374273359791
2330,00:00:09.32,-0.0035214112140238315
2331,00:00:09.324,-0.0018226945539936497
2332,00:00:09.328,-0.002918698999565094
2333,00:00:09.332,0.00456698250491172
2334,00:00:09.336,-0.0007623053388670104
2335,00:00:09.34,0.00874120133812539
2336,00:00:09.344,0.01288826391100884
2337,00:00:09.348,0.007027214393019668
2338,00:00:09.352,-0.029388203518465158
2339,00:00:09.356,-0.01646508928388361
2340,00:00:09.36,-0.0027841338305734107
2341,00:00:09.364,0.006929645547643311
2342,00:00:09.368,0.03937026392668495
2343,00:00:09.372,0.0014476890210062296
2344,00:00:09.376,-0.024317684117704585
2345,00:00:09.38,-0.00805572723038494
2346,00:00:09.384,0.001401499612256889
2347,00:00:09.388,0.01717200584243981
2348,00:00:09.392,-0.0016438649035990203
2349,00:00:09.396,-0.020382387097924972
2350,00:00:09.4,0.0015131204272620347
2351,00:00:09.404,0.014258431736379851
2352,00:00:09.408,-0.0038419335614889912
2353,00:00:09.412,0.00502537889406085
2354,00:00:09.416,-0.002809600206092001
2355,00:00:09.42,-0.007439806708134716
2356,00:00:09.424,-0.0035512347676558403
2357,00:00:09.428,-0.0005834514740854424
2358,00:00:09.432,0.018576263217255442
2359,00:00:09.436,0.031099830055609345
2360,00:00:09.44,-0.020316367037594277
2361,00:00:09.444,-0.04899526783265166
2362,00:00:09.448,-0.005767394904978572
2363,00:00:09.452,0.018993479214259434
2364,00:00:09.456,0.02217098907567562
2365,00:00:09.46,0.004068994312547146
2366,00:00:09.464,-0.00649969012010843
2367,00:00:09.468,-0.005961753835435955
2368,00:00:09.472,0.01455372292548418
2369,00:00:09.476,0.01648860168643295
2370,00:00:09.48,-0.017596300574950898
2371,00:00:09.484,-0.03140660538338125
2372,00:00:09.488,-0.0188638415420428
2373,00:00:09.492,0.017794818500988237
2374,00:00:09.496,0.03025526180863379
2375,00:00:09.5,0.01650052261538804
2376,00:00:09.504,0.011089503823313864
2377,00:00:09.508,-0.027860650559887287
2378,00:00:09.512,-0.04158233385533096
2379,00:00:09.516,-0.00867760716937482
2380,00:00:09.52,0.033475241361884414
2381,00:00:09.524,0.03492804104462267
2382,00:00:09.528,-0.003876595059409741
2383,00:00:09.532,-0.015874803299084327
2384,00:00:09.536,-0.01076007494702935
2385,00:00:09.54,-0.00458701187744737
2386,00:00:09.544,-0.0077162084198789645
2387,00:00:09.548,-0.005383138777688147
2388,00:00:09.552,0.021770441788248728
2389,00:00:09.556,0.028317804448306578
2390,00:00:09.56,-0.0039683673530817
2391,00:00:09.564,-0.015556051221210461
2392,00:00:09.568,-0.01564471959136426
2393,00:00:09.572,-0.028911591914948062
2394,00:00:09.576,0.011913020163774487
2395,00:00:09.58,0.03424642933532594
2396,00:00:09.584,0.0006623626686632694
2397,00:00:09.588,-0.021604341920465203
2398,00:00:09.592,0.017116947739850737
2399,00:00:09.596,0.02104278537444767
2400,00:00:09.6,-0.00748891604598611
2401,00:00:09.604,-0.04201026167720554
2402,00:00:09.608,-0.00407960778102279
2403,00:00:09.612,0.0147195381578058
2404,00:00:09.616,0.016159726772457358
2405,00:00:09.62,-0.00204773899167776
2406,00:00:09.624,-0.003220951126422728
2407,00:00:09.628,-0.00457522575743497
2408,00:00:09.632,0.009436515159904929
2409,00:00:09.636,0.01720262423623353
2410,00:00:09.64,-0.01435889257118107
2411,00:00:09.644,-0.013670437008840965
2412,00:00:09.648,-0.0038694960239809024
2413,00:00:09.652,-0.0045515874808188484
2414,00:00:09.656,0.0014525053557008507
2415,00:00:09.66,0.0018277178751304806
2416,00:00:09.664,0.016698898281902033
2417,00:00:09.668,0.02012085280148315
2418,00:00:09.672,-0.006983547005802391
2419,00:00:09.676,-0.02193191112019117
2420,00:00:09.68,-0.010215462782070972
2421,00:00:09.684,0.011354843038134322
2422,00:00:09.688,0.00507529149763286
2423,00:00:09.692,-0.007318844494875524
2424,00:00:09.696,-0.00373092165682465
2425,00:00:09.7,-0.002065659307845636
2426,00:00:09.704,0.00039695594023214783
2427,00:00:09.708,0.01719261426478626
2428,00:00:09.712,0.008451833331491795
2429,00:00:09.716,-0.005466696457006041
2430,00:00:09.72,-0.0029856017790734807
2431,00:00:09.724,-0.01038011116907
2432,00:00:09.728,-0.014926695963367811
2433,00:00:09.732,0.0035322152543813
2434,00:00:09.736,0.010392239462817084
2435,00:00:09.74,0.012772564659826461
2436,00:00:09.744,0.007600723882205783
2437,00:00:09.748,-0.01689510233700274
2438,00:00:09.752,-0.006768961349735032
2439,00:00:09.756,0.00283484300598502
2440,00:00:09.76,0.006129361616331148
2441,00:00:09.764,0.006338413135381408
2442,00:00:09.768,-0.0159537608269602
2443,00:00:09.772,0.0015845599118620105
2444,00:00:09.776,0.0014932639896869703
2445,00:00:09.78,0.009656446811277416
2446,00:00:09.784,-0.004538789013167847
2447,00:00:09.788,-0.01159214624203742
2448,00:00:09.792,0.027261400828138063
2449,00:00:09.796,0.005944509175606081
2450,00:00:09.8,-0.01121718483045696
2451,00:00:09.804,-0.015220425091683908
2452,00:00:09.808,-0.02191105042584239
2453,00:00:09.812,-0.0035756988509092536
2454,00:00:09.816,0.008068575058132412
2455,00:00:09.82,0.0266554737463593
2456,00:00:09.824,0.029448946683487503
2457,00:00:09.828,-0.006895927188452333
2458,00:00:09.832,-0.01328213978558779
2459,00:00:09.836,-0.0198835865594447
2460,00:00:09.84,-0.013085411570500551
2461,00:00:09.844,0.0024085761033347747
2462,00:00:09.848,0.0006950669339857982
2463,00:00:09.852,0.005973665160126981
2464,00:00:09.856,0.01871548569761216
2465,00:00:09.86,0.02548540220595892
2466,00:00:09.864,-0.031653514597564936
2467,00:00:09.868,-0.008661887201014906
2468,00:00:09.872,0.010289419325999912
2469,00:00:09.876,-0.01807791972532869
2470,00:00:09.88,-0.01707527656981258
2471,00:00:09.884,0.03034377866424625
2472,00:00:09.888,0.03036230523139239
2473,00:00:09.892,-0.010899953311309208
2474,00:00:09.896,-0.025272459723055366
2475,00:00:09.9,-0.0036284891539253286
2476,00:00:09.904,0.009980947710573673
2477,00:00:09.908,0.00048583245370537
2478,00:00:09.912,-0.01897455169819295
2479,00:00:09.916,-0.00033818162046372977
2480,00:00:09.92,0.016713926917873344
2481,00:00:09.924,0.030328060500323814
2482,00:00:09.928,-0.00378968872246332
2483,00:00:09.932,-0.01521013164892791
2484,00:00:09.936,-0.00887491600587964
2485,00:00:09.94,-0.017882156185805843
2486,00:00:09.944,-0.006776653695851571
2487,00:00:09.948,0.005809508264064789
2488,00:00:09.952,0.005330911604687579
2489,00:00:09.956,0.02425749460235235
2490,00:00:09.96,0.01624756166711443
2491,00:00:09.964,-0.007989564765011887
2492,00:00:09.968,-0.021784916230899377
2493,00:00:09.972,0.00036725157406181135
2494,00:00:09.976,0.0034236585488542897
2495,00:00:09.98,-0.015884052962064733
2496,00:00:09.984,-0.006625537207582964
2497,00:00:09.988,0.01416219491511583
2498,00:00:09.992,0.013802979141473751
2499,00:00:09.996,0.00740088569000363
2500,00:00:10,-0.0024602306075394197
2501,00:00:10.004,0.004795207176357501
2502,00:00:10.008,-0.0045067211613059105
2503,00:00:10.012,-0.043796407291665715
2504,00:00:10.016,-0.0005321428179740897
2505,00:00:10.02,0.029748727101832684
2506,00:00:10.024,0.0178637228673324
2507,00:00:10.028,-0.010772268487926343
2508,00:00:10.032,0.009895257651805881
2509,00:00:10.036,-0.014179613732267176
2510,00:00:10.04,-0.010308419121429319
2511,00:00:10.044,-0.0065967567134066485
2512,00:00:10.048,0.01175744296051562
2513,00:00:10.052,0.0341867231763899
2514,00:00:10.056,-0.0010980827210005332
2515,00:00:10.06,-0.0364637494785711
2516,00:00:10.064,-0.01840797730255875
2517,00:00:10.068,-0.0008186711929738468
2518,00:00:10.072,0.0183709469920359
2519,00:00:10.076,0.01500674732960757
2520,00:00:10.08,0.015294054173864459
2521,00:00:10.084,-0.00673834131703188
2522,00:00:10.088,-0.01604213588871062
2523,00:00:10.092,0.008222551667131482
2524,00:00:10.096,-0.01071578939445318
2525,00:00:10.1,-0.00931922908057459
2526,00:00:10.104,0.0050412599812261795
2527,00:00:10.108,0.00556862028315663
2528,00:00:10.112,0.00662003888282926
2529,00:00:10.116,0.006400115729775278
2530,00:00:10.12,-0.003692572980071413
2531,00:00:10.124,-0.00867764675058425
2532,00:00:10.128,-0.008914125384762887
2533,00:00:10.132,0.00021806743461639253
2534,00:00:10.136,0.018864220270188494
2535,00:00:10.14,0.007498292019590741
2536,00:00:10.144,-0.020115725928917562
2537,00:00:10.148,-0.013298655045218766
2538,00:00:10.152,0.009039309457875797
2539,00:00:10.156,0.01590372039936483
2540,00:00:10.16,0.006096302953665146
2541,00:00:10.164,-0.01628283457830549
2542,00:00:10.168,0.008187243598513291
2543,00:00:10.172,0.01414772029966113
2544,00:00:10.176,-0.018324155826121572
2545,00:00:10.18,-0.02182953897863629
2546,00:00:10.184,-0.013429388636723164
2547,00:00:10.188,0.02140546496957542
2548,00:00:10.192,0.03315573977306484
2549,00:00:10.196,0.01670704968273639
2550,00:00:10.2,-0.022856706738821266
2551,00:00:10.204,-0.02540576149476697
2552,00:00:10.208,-0.01369226274255198
2553,00:00:10.212,0.011115484507172365
2554,00:00:10.216,0.01866374211385841
2555,00:00:10.22,0.006238889298401769
2556,00:00:10.224,-0.011094697547378013
2557,00:00:10.228,-0.002395436575170602
2558,00:00:10.232,-0.0007308619678951882
2559,00:00:10.236,0.010018549859523777
2560,00:00:10.24,-0.0076062089065089804
2561,00:00:10.244,-0.005228046517004258
2562,00:00:10.248,0.007083497941493989
2563,00:00:10.252,0.02101965295150876
2564,00:00:10.256,-0.008367035305127498
2565,00:00:10.26,-0.02678826660849151
2566,00:00:10.264,-0.00941834878176454
2567,00:00:10.268,0.00204914342612028
2568,00:00:10.272,0.00998872029595075
2569,00:00:10.276,0.012844966724514958
2570,00:00:10.28,0.014909591292962428
2571,00:00:10.284,0.01027723844163119
2572,00:00:10.288,-0.012203794030938292
2573,00:00:10.292,-0.02564911684021348
2574,00:00:10.296,-0.013605831656605007
2575,00:00:10.3,0.01469534759235105
2576,00:00:10.304,0.0138654336333275
2577,00:00:10.308,-0.005932051572017371
2578,00:00:10.312,0.008813991880742833
2579,00:00:10.316,-0.003621717682108284
2580,00:00:10.32,-0.015589018876198648
2581,00:00:10.324,0.0052490956149995206
2582,00:00:10.328,0.01471164682880046
2583,00:00:10.332,-0.0037076892913319153
2584,00:00:10.336,-0.0036212776321917807
2585,00:00:10.34,0.014382300025317828
2586,00:00:10.344,-0.008147855522111051
2587,00:00:10.348,-0.02476654504425821
2588,00:00:10.352,-0.0053129034349694805
2589,00:00:10.356,0.01193220494315031
2590,00:00:10.36,0.0034669976739678567
2591,00:00:10.364,0.013290384085848931
2592,00:00:10.368,0.014268094208091508
2593,00:00:10.372,0.01626902818679809
2594,00:00:10.376,-0.016223462065681798
2595,00:00:10.38,-0.03925182484090338
2596,00:00:10.384,-0.01683881692588329
2597,00:00:10.388,0.016737360507249843
2598,00:00:10.392,0.013888756744563543
2599,00:00:10.396,0.006222611293196684
2600,00:00:10.4,0.014934260630980141
2601,00:00:10.404,0.007035882445052261
2602,00:00:10.408,-0.02250818395805252
2603,00:00:10.412,-0.02744067623279989
2604,00:00:10.416,0.015769650228321552
2605,00:00:10.42,0.02486470667645333
2606,00:00:10.424,0.01791209448128937
2607,00:00:10.428,-0.024288903747219568
2608,00:00:10.432,-0.03007666883058854
2609,00:00:10.436,0.01047323703824077
2610,00:00:10.44,0.024348119215574098
2611,00:00:10.444,-0.010507503233384343
2612,00:00:10.448,-0.01892407960258422
2613,00:00:10.452,0.00033617846202105327
2614,00:00:10.456,0.007508818705900923
2615,00:00:10.46,0.02002055593766274
2616,00:00:10.464,0.019556449959054572
2617,00:00:10.468,-0.005513768410310151
2618,00:00:10.472,-0.020182369538815702
2619,00:00:10.476,-0.01852085581049321
2620,00:00:10.48,-0.022186291869729813
2621,00:00:10.484,0.017191101564094438
2622,00:00:10.488,0.03518181666731838
2623,00:00:10.492,0.00057396513875574
2624,00:00:10.496,-0.00158198550343514
2625,00:00:10.5,-0.01847354741767045
2626,00:00:10.504,-0.00382285832893103
2627,00:00:10.508,-0.0021049359638709592
2628,00:00:10.512,-0.00113808154128492
2629,00:00:10.516,0.009290173649787912
2630,00:00:10.52,0.01167933852411806
2631,00:00:10.524,-0.00417881133034826
2632,00:00:10.528,-0.00812136905733496
2633,00:00:10.532,0.01143043022602797
2634,00:00:10.536,0.00242754467763006
2635,00:00:10.54,-0.009429368656128641
2636,00:00:10.544,-0.02622771693859251
2637,00:00:10.548,-0.0006753465859219501
2638,00:00:10.552,0.024694422492757467
2639,00:00:10.556,0.01594158752413928
2640,00:00:10.56,-0.00367456139065327
2641,00:00:10.564,-0.0133255475666374
2642,00:00:10.568,-0.003003552235895773
2643,00:00:10.572,-0.003190221963450311
2644,00:00:10.576,0.009812291711568834
2645,00:00:10.58,0.006697753327898681
2646,00:00:10.584,-0.01268048235215247
2647,00:00:10.588,-0.0032277035061270003
2648,00:00:10.592,0.006161161931231621
2649,00:00:10.596,0.0015342088881880097
2650,00:00:10.6,-0.011136365123093132
2651,00:00:10.604,0.004517769091762599
2652,00:00:10.608,0.013547854032367492
2653,00:00:10.612,0.00013613037299363938
2654,00:00:10.616,-0.011368948500603441
2655,00:00:10.62,-0.0010786590282805195
2656,00:00:10.624,0.00667326990514993
2657,00:00:10.628,-0.0015604147338308437
2658,00:00:10.632,0.001772246148902921
2659,00:00:10.636,0.0035645624157041203
2660,00:00:10.64,-0.01051681814715266
2661,00:00:10.644,-0.01613670599181205
2662,00:00:10.648,0.005477302358485757
2663,00:00:10.652,0.04469655361026526
2664,00:00:10.656,0.0017262974288314605
2665,00:00:10.66,-0.03916230425238616
2666,00:00:10.664,-0.01593574183061719
2667,00:00:10.668,-0.004488889768254014
2668,00:00:10.672,0.01627086685039102
2669,00:00:10.676,0.013527094881283112
2670,00:00:10.68,0.023312666453421112
2671,00:00:10.684,0.009176477789878842
2672,00:00:10.688,-0.02607720321975647
2673,00:00:10.692,-0.033100216649472686
2674,00:00:10.696,0.0009427592158317603
2675,00:00:10.7,0.02675197651842609
2676,00:00:10.704,0.005687826371286073
2677,00:00:10.708,-0.02214528340846298
2678,00:00:10.712,0.010636789607815441
2679,00:00:10.716,0.03236617939546706
2680,00:00:10.72,-0.02118702000007036
2681,00:00:10.724,-0.027423019811976666
2682,00:00:10.728,0.0005453692283481303
2683,00:00:10.732,0.02248176501598211
2684,00:00:10.736,0.01184967637527734
2685,00:00:10.74,-0.013095976086333401
2686,00:00:10.744,-0.008297898515593266
2687,00:00:10.748,-0.011475505889393379
2688,00:00:10.752,0.01733343256637454
2689,00:00:10.756,0.022812100825831332
2690,00:00:10.76,-0.005537177479709506
2691,00:00:10.764,-0.02167761535383766
2692,00:00:10.768,-0.02694252389483158
2693,00:00:10.772,0.012688428862020379
2694,00:00:10.776,0.030320057179778828
2695,00:00:10.78,0.00182968087028712
2696,00:00:10.784,-0.013710034312680358
2697,00:00:10.788,0.0009782587876543498
2698,00:00:10.792,0.008087616390184847
2699,00:00:10.796,-0.0003548841923475209
2700,00:00:10.8,-0.02135494397953153
2701,00:00:10.804,0.0004735554102808315
2702,00:00:10.808,0.014049243181943886
2703,00:00:10.812,-0.0032864804670680336
2704,00:00:10.816,-0.0065915634913835735
2705,00:00:10.82,0.0242389997001737
2706,00:00:10.824,0.005475308047607543
2707,00:00:10.828,-0.04022797057405118
2708,00:00:10.832,-0.00830439364654012
2709,00:00:10.836,0.02288465644232924
2710,00:00:10.84,0.02167164394631978
2711,00:00:10.844,-0.005184328940231351
2712,00:00:10.848,-0.01492843919550069
2713,00:00:10.852,-0.0008602832676842802
2714,00:00:10.856,0.01467106351628899
2715,00:00:10.86,-0.010498041985556482
2716,00:00:10.864,-0.0140199464512989
2717,00:00:10.868,-0.0102454141015187
2718,00:00:10.872,0.021674237912520797
2719,00:00:10.876,0.026694742729887345
2720,00:00:10.88,-0.012165990250650797
2721,00:00:10.884,-0.01633901731111105
2722,00:00:10.888,-0.007559116347692911
2723,00:00:10.892,-0.012955889105796809
2724,00:00:10.896,0.01979259890504179
2725,00:00:10.9,0.04195999354124068
2726,00:00:10.904,-0.009463620954193177
2727,00:00:10.908,-0.03588261129334561
2728,00:00:10.912,-0.02792270667850976
2729,00:00:10.916,0.012567552737891669
2730,00:00:10.92,0.01712865987792614
2731,00:00:10.924,0.01765030599199235
2732,00:00:10.928,0.01189037715084848
2733,00:00:10.932,-0.01093510795908514
2734,00:00:10.936,-0.009910575114190601
2735,00:00:10.94,-0.01601492613553997
2736,00:00:10.944,-0.014294639520812768
2737,00:00:10.948,0.01673408737406137
2738,00:00:10.952,0.04107687668874862
2739,00:00:10.956,-0.0034977125469595203
2740,00:00:10.96,-0.02840393851511181
2741,00:00:10.964,-0.015576471108943179
2742,00:00:10.968,-0.004344820976257322
2743,00:00:10.972,0.006327935960143799
2744,00:00:10.976,0.016668497584760182
2745,00:00:10.98,0.012837405083701011
2746,00:00:10.984,0.0052711960161104885
2747,00:00:10.988,-0.019319446408189802
2748,00:00:10.992,0.004234468884533271
2749,00:00:10.996,0.007250283379107712
2750,00:00:11,-0.02121264580637212
2751,00:00:11.004,-0.02603876974899317
2752,00:00:11.008,0.017831915291026193
2753,00:00:11.012,0.025416697433684028
2754,00:00:11.016,0.014095069607719779
2755,00:00:11.02,-0.006785972043871868
2756,00:00:11.024,-0.0077910674735903705
2757,00:00:11.028,0.0021450015483424102
2758,00:00:11.032,-0.025786419617361434
2759,00:00:11.036,-0.0017762475181370995
2760,00:00:11.04,0.01127061061561108
2761,00:00:11.044,0.005899348820094017
2762,00:00:11.048,0.00786237337160855
2763,00:00:11.052,0.005989265278913077
2764,00:00:11.056,-0.00945956155192107
2765,00:00:11.06,-0.0229570779483765
2766,00:00:11.064,0.007260719197802258
2767,00:00:11.068,0.019903710577637
2768,00:00:11.072,0.012756858777720504
2769,00:00:11.076,-0.0018232036381959898
2770,00:00:11.08,-0.029218918643891825
2771,00:00:11.084,-0.00969357648864389
2772,00:00:11.088,0.014246096397982912
2773,00:00:11.092,0.009882691956590858
2774,00:00:11.096,0.00895034568384291
2775,00:00:11.1,-0.01858148421160877
2776,00:00:11.104,-0.003023002369445741
2777,00:00:11.108,0.006747420411556971
2778,00:00:11.112,0.0057473992346786
2779,00:00:11.116,0.005654486827552329
2780,00:00:11.12,-0.00578001281246543
2781,00:00:11.124,-0.01241827284684405
2782,00:00:11.128,-0.002821387490257621
2783,00:00:11.132,0.011825380759546523
2784,00:00:11.136,0.01631244644522667
2785,00:00:11.14,-0.0013924833619967103
2786,00:00:11.144,-0.02327221445739265
2787,00:00:11.148,-0.004838776541873809
2788,00:00:11.152,0.008955339435487979
2789,00:00:11.156,0.007154531893320381
2790,00:00:11.16,-0.010863179340958588
2791,00:00:11.164,-0.013254548888653489
2792,00:00:11.168,0.0263367639854551
2793,00:00:11.172,0.02947841794230043
2794,00:00:11.176,-0.01782145211473105
2795,00:00:11.18,-0.020703056507045434
2796,00:00:11.184,-0.0065939319320023
2797,00:00:11.188,-0.0035812392598018024
2798,00:00:11.192,-0.0007402227784041222
2799,00:00:11.196,0.008873783750459552
2800,00:00:11.2,0.007227635810522761
2801,00:00:11.204,0.004581184592097999
2802,00:00:11.208,0.009340336779132484
2803,00:00:11.212,0.0006513651460409199
2804,00:00:11.216,-0.01531166560016574
2805,00:00:11.22,-0.011328554013743993
2806,00:00:11.224,-0.004027955641504376
2807,00:00:11.228,-0.0036038674297742537
2808,00:00:11.232,0.01602240407373761
2809,00:00:11.236,0.014964303700253371
2810,00:00:11.24,0.01961136423051361
2811,00:00:11.244,-0.013817909173667427
2812,00:00:11.248,-0.03821940114721659
2813,00:00:11.252,-0.00625211664009839
2814,00:00:11.256,-0.0014761403435841203
2815,00:00:11.26,0.015694763133069504
2816,00:00:11.264,0.04123600168168198
2817,00:00:11.268,0.00541080324910581
2818,00:00:11.272,-0.02332890802063048
2819,00:00:11.276,-0.01925123971886935
2820,00:00:11.28,-0.010118330246768892
2821,00:00:11.284,0.001991691737202923
2822,00:00:11.288,0.0003456931153777991
2823,00:00:11.292,0.012415676843375002
2824,00:00:11.296,0.02145894803106781
2825,00:00:11.3,0.004491362953558567
2826,00:00:11.304,-0.02065369894262406
2827,00:00:11.308,-0.01881738705560565
2828,00:00:11.312,0.01263741892762482
2829,00:00:11.316,0.016807174310088165
2830,00:00:11.32,-0.01538192760199307
2831,00:00:11.324,-0.02103665249160257
2832,00:00:11.328,0.0071042450144887396
2833,00:00:11.332,0.043200251180678606
2834,00:00:11.336,0.0070019869308453
2835,00:00:11.34,-0.04236354571185071
2836,00:00:11.344,-0.025291723839473028
2837,00:00:11.348,0.023931349802296623
2838,00:00:11.352,0.030397135065868525
2839,00:00:11.356,-0.0022492152056656813
2840,00:00:11.36,-0.01985499355942015
2841,00:00:11.364,-0.01797143940348176
2842,00:00:11.368,-0.0018549957312643578
2843,00:00:11.372,0.02236373384948816
2844,00:00:11.376,0.023248753976076803
2845,00:00:11.38,-0.0009546272922307314
2846,00:00:11.384,-0.02703212946653366
2847,00:00:11.388,-0.005155896011274306
2848,00:00:11.392,-0.00402209395542741
2849,00:00:11.396,0.0009897049749270099
2850,00:00:11.4,0.0193394725502003
2851,00:00:11.404,0.002111459994921456
2852,00:00:11.408,-0.0175353642553091
2853,00:00:11.412,0.004254362429492174
2854,00:00:11.416,0.011055535462219275
2855,00:00:11.42,-0.0012637101754080539
2856,00:00:11.424,0.0013693671207874996
2857,00:00:11.428,-0.007535235199611636
2858,00:00:11.432,-0.01832601823844016
2859,00:00:11.436,0.006638137070694936
2860,00:00:11.44,0.01428879937157035
2861,00:00:11.444,-0.00460680760443211
2862,00:00:11.448,0.011293479241430801
2863,00:00:11.452,0.02324225462507456
2864,00:00:11.456,-0.0056620993418619505
2865,00:00:11.46,-0.04496237484272567
2866,00:00:11.464,-0.02553397405426946
2867,00:00:11.468,0.01263768563512712
2868,00:00:11.472,0.0322529708500951
2869,00:00:11.476,0.01212654767732601
2870,00:00:11.48,0.011899943052412716
2871,00:00:11.484,-0.00137198099400847
2872,00:00:11.488,-0.011183182767126707
2873,00:00:11.492,-0.027196981915039897
2874,00:00:11.496,-0.014920044224709307
2875,00:00:11.5,0.027565604017581777
2876,00:00:11.504,0.028849115711636775
2877,00:00:11.508,-0.02882919600233434
2878,00:00:11.512,-0.024305179831571853
2879,00:00:11.516,0.009798760351259254
2880,00:00:11.52,0.032253336859866984
2881,00:00:11.524,-0.00041321902244817227
2882,00:00:11.528,-0.01201866660267119
2883,00:00:11.532,-0.0019877020968124296
2884,00:00:11.536,0.007266409957082949
2885,00:00:11.54,-0.00948609400074925
2886,00:00:11.544,-0.009953491040505429
2887,00:00:11.548,-0.011500516207888719
2888,00:00:11.552,0.009229031042195841
2889,00:00:11.556,0.02109263627789909
2890,00:00:11.56,0.0081414703745395
2891,00:00:11.564,0.009397971967700869
2892,00:00:11.568,-0.01781968749128282
2893,00:00:11.572,-0.027384512592107033
2894,00:00:11.576,-0.006614078534767029
2895,00:00:11.58,0.030010911170393235
2896,00:00:11.584,0.01721164964328642
2897,00:00:11.588,-0.004980281810276212
2898,00:00:11.592,-0.0237764086341485
2899,00:00:11.596,-0.017560962121933737
2900,00:00:11.6,0.0120349507778883
2901,00:00:11.604,0.02451759576797484
2902,00:00:11.608,0.00499173614662141
2903,00:00:11.612,-0.0232020451221615
2904,00:00:11.616,0.010696835350245239
2905,00:00:11.62,0.009275722579332069
2906,00:00:11.624,-0.0029062211833661396
2907,00:00:11.628,-0.01576364808715882
2908,00:00:11.632,-0.014861073694191875
2909,00:00:11.636,0.0013238762039691192
2910,00:00:11.64,0.020207099238177748
2911,00:00:11.644,0.002416554838418959
2912,00:00:11.648,0.0060139417182654194
2913,00:00:11.652,0.00482264766469599
2914,00:00:11.656,-0.01234668027609585
2915,00:00:11.66,-0.0214827093295753
2916,00:00:11.664,0.008701518003363166
2917,00:00:11.668,0.03048886940814557
2918,00:00:11.672,0.012561783776618545
2919,00:00:11.676,-0.01870941481320186
2920,00:00:11.68,-0.030447378288954483
2921,00:00:11.684,-0.017943918857781647
2922,00:00:11.688,0.00717973336577416
2923,00:00:11.692,0.02432042593136428
2924,00:00:11.696,0.02033626160118725
2925,00:00:11.7,0.004844261973630636
2926,00:00:11.704,-0.007372450936600215
2927,00:00:11.708,-0.01546597154811024
2928,00:00:11.712,-0.002459031529724593
2929,00:00:11.716,0.012889980571344495
2930,00:00:11.72,-0.007182744680903849
2931,00:00:11.724,-0.023810696380678554
2932,00:00:11.728,-0.004377392819151279
2933,00:00:11.732,0.023418585769832148
2934,00:00:11.736,0.015514539432842835
2935,00:00:11.74,-0.0012628489057533432
2936,00:00:11.744,-0.0018823136924766047
2937,00:00:11.748,-0.0070048636989668
2938,00:00:11.752,0.00269326090347022
2939,00:00:11.756,-0.0036459837574511706
2940,00:00:11.76,-0.013510286982636902
2941,00:00:11.764,-0.007550664129666979
2942,00:00:11.768,0.006208897131728012
2943,00:00:11.772,0.03314033802598712
2944,00:00:11.776,0.00250142719596625
2945,00:00:11.78,-0.018924425035947982
2946,00:00:11.784,-0.007880156044848256
2947,00:00:11.788,-0.01483036275021731
2948,00:00:11.792,0.002210979466326539
2949,00:00:11.796,0.02194220316596325
2950,00:00:11.8,0.01370170502923428
2951,00:00:11.804,-0.016966622322797782
2952,00:00:11.808,0.0025545265525579487
2953,00:00:11.812,-0.0034299802500754595
2954,00:00:11.816,-0.012280000373721121
2955,00:00:11.82,0.004077957244589921
2956,00:00:11.824,0.01134402235038579
2957,00:00:11.828,-0.0017335067386738973
2958,00:00:11.832,-0.00510590930934996
2959,00:00:11.836,0.01145175844430923
2960,00:00:11.84,0.0009506423084530982
2961,00:00:11.844,-0.0187596339965239
2962,00:00:11.848,-0.016014897264540202
2963,00:00:11.852,0.021740036492701648
2964,00:00:11.856,0.023936463519930878
2965,00:00:11.86,0.003081988077610732
2966,00:00:11.864,-0.018653580802492797
2967,00:00:11.868,-0.021792819723486907
2968,00:00:11.872,-0.004797565110493451
2969,00:00:11.876,-0.0012969907838851205
2970,00:00:11.88,0.024796560115646564
2971,00:00:11.884,0.027388457674533146
2972,00:00:11.888,0.0038220199639909043
2973,00:00:11.892,-0.03549673547968268
2974,00:00:11.896,-0.020070482802111624
2975,00:00:11.9,0.015345955616794532
2976,00:00:11.904,0.008986055501736657
2977,00:00:11.908,-0.0001288867497351025
2978,00:00:11.912,-0.0125431134365499
2979,00:00:11.916,0.00861533323768527
2980,00:00:11.92,0.012480058707296852
2981,00:00:11.924,-0.006328111165203151
2982,00:00:11.928,-0.017176498193293813
2983,00:00:11.932,0.010010555852204558
2984,00:00:11.936,0.016485333209857338
2985,00:00:11.94,0.00480066548334435
2986,00:00:11.944,-0.014585879252990708
2987,00:00:11.948,-0.020911513594910544
2988,00:00:11.952,0.000144916659337468
2989,00:00:11.956,0.00808462419081479
2990,00:00:11.96,0.00600383069831878
2991,00:00:11.964,0.01688134437426924
2992,00:00:11.968,0.01114652375690639
2993,00:00:11.972,-0.01708096754737202
2994,00:00:11.976,-0.016114887315779893
2995,00:00:11.98,0.000796806765720249
2996,00:00:11.984,0.006100829807110131
2997,00:00:11.988,-0.007633457353222187
2998,00:00:11.992,-0.0054452654439956
2999,00:00:11.996,0.005497969119460325
3000,00:00:12,0.031121180625632433
3001,00:00:12.004,-0.003603302247938703
3002,00:00:12.008,-0.01608928851783277
3003,00:00:12.012,-0.0026942245312966424
3004,00:00:12.016,-0.003561041892680807
3005,00:00:12.02,-0.00821931473910808
3006,00:00:12.024,0.00011175184044987007
3007,00:00:12.028,0.0004809251695405744
3008,00:00:12.032,0.01972646126523615
3009,00:00:12.036,0.00747910910286009
3010,00:00:12.04,-0.0061197057366371085
3011,00:00:12.044,-0.00886326702311635
3012,00:00:12.048,-0.007781485619489108
3013,00:00:12.052,0.00291464535985142
3014,00:00:12.056,-0.01073631364852188
3015,00:00:12.06,0.01338537107221785
3016,00:00:12.064,0.021436804905533843
3017,00:00:12.068,-0.004056724341353405
3018,00:00:12.072,-0.0234500826336443
3019,00:00:12.076,-0.00479519460350275
3020,00:00:12.08,0.004537036817055194
3021,00:00:12.084,0.00238705379888415
3022,00:00:12.088,0.006248250836506481
3023,00:00:12.092,-0.00194662204012275
3024,00:00:12.096,0.012760036624968048
3025,00:00:12.1,0.005236489989329133
3026,00:00:12.104,-0.0005902833981963366
3027,00:00:12.108,-0.02344691008329388
3028,00:00:12.112,-0.01131189102306963
3029,00:00:12.116,-0.01227514306083325
3030,00:00:12.12,0.0023310249962378254
3031,00:00:12.124,0.042377474717795904
3032,00:00:12.128,0.034957735799252945
3033,00:00:12.132,-0.0216847100527957
3034,00:00:12.136,-0.021982350852340442
3035,00:00:12.14,-0.014454611577093612
3036,00:00:12.144,-0.03352580033242703
3037,00:00:12.148,-0.0003501407336443593
3038,00:00:12.152,0.03808444226160647
3039,00:00:12.156,0.04187365155667071
3040,00:00:12.16,0.0031648953445255774
3041,00:00:12.164,-0.02418820047751067
3042,00:00:12.168,-0.01724851317703724
3043,00:00:12.172,-0.014577697613276567
3044,00:00:12.176,-0.021586951799690782
3045,00:00:12.18,0.02213830337859686
3046,00:00:12.184,0.036531833698973
3047,00:00:12.188,-0.0016710767522454296
3048,00:00:12.192,-0.011102538439445201
3049,00:00:12.196,-0.004374736279714862
3050,00:00:12.2,-0.025767446844838587
3051,00:00:12.204,0.004930234514176849
3052,00:00:12.208,0.02238372585270557
3053,00:00:12.212,0.010957524063997017
3054,00:00:12.216,-0.017757341891410764
3055,00:00:12.22,-0.016857175156474138
3056,00:00:12.224,0.0038011641008779407
3057,00:00:12.228,0.038027104921639014
3058,00:00:12.232,0.022678132751025287
3059,00:00:12.236,-0.030844738706946317
3060,00:00:12.24,-0.046636162325739874
3061,00:00:12.244,-0.005225241475272922
3062,00:00:12.248,0.008630209602415558
3063,00:00:12.252,0.01563131064176564
3064,00:00:12.256,0.034782987786456984
3065,00:00:12.26,0.01876375963911415
3066,00:00:12.264,-0.022836206364445426
3067,00:00:12.268,-0.033345560543239144
3068,00:00:12.272,-0.0099168699234724
3069,00:00:12.276,0.024914482608437493
3070,00:00:12.28,0.01923049916513265
3071,00:00:12.284,-0.0098638697527349
3072,00:00:12.288,-0.024444712093099945
3073,00:00:12.292,-0.0076846573501825385
3074,00:00:12.296,0.016954757389612454
3075,00:00:12.3,0.01652543328236786
3076,00:00:12.304,-0.00224608194548636
3077,00:00:12.308,-0.00830448855413124
3078,00:00:12.312,-0.01255542587023228
3079,00:00:12.316,0.006400912650860851
3080,00:00:12.32,0.03210978326387706
3081,00:00:12.324,0.00996582536026837
3082,00:00:12.328,-0.04866999853402375
3083,00:00:12.332,-0.02942001633346079
3084,00:00:12.336,0.022566416999325153
3085,00:00:12.34,0.02157682273536919
3086,00:00:12.344,0.015085769904544556
3087,00:00:12.348,-0.010140930011402816
3088,00:00:12.352,-0.011812798795290291
3089,00:00:12.356,0.005518381280126054
3090,00:00:12.36,0.012760395504301435
3091,00:00:12.364,0.0101429927162826
3092,00:00:12.368,-0.03006421891041097
3093,00:00:12.372,-0.03156721784034742
3094,00:00:12.376,0.007344602840021249
3095,00:00:12.38,0.040022497531026636
3096,00:00:12.384,0.01657742215320471
3097,00:00:12.388,-0.011170231271535151
3098,00:00:12.392,-0.012686144560575482
3099,00:00:12.396,-0.01431865361519153
3100,00:00:12.4,-0.00028182379901408824
3101,00:00:12.404,0.01526358444243672
3102,00:00:12.408,-0.0026574191288091247
3103,00:00:12.412,-0.004905576468445357
3104,00:00:12.416,0.02343203034251925
3105,00:00:12.42,0.0031251645414158598
3106,00:00:12.424,-0.02571313735097655
3107,00:00:12.428,-0.026991739403456498
3108,00:00:12.432,0.0018069525249302292
3109,00:00:12.436,0.028732281993143236
