,Elapsed Time,EMG
0,00:00:00,2.7026657462120096
1,00:00:00.004,-2.567718267440797
2,00:00:00.008,-2.146042048931126
3,00:00:00.012,-0.22983750700950523
4,00:00:00.016,1.087716341018677
5,00:00:00.02,1.3477181196212853
6,00:00:00.024,0.8476219624280922
7,00:00:00.028,0.10218242742121178
8,00:00:00.032,-0.4218688979744909
9,00:00:00.036,-0.533394798636437
10,00:00:00.04,-0.3763359487056728
11,00:00:00.044,-0.1652408540248873
12,00:00:00.048,0.0655065169557929
13,00:00:00.052,0.1686317883431906
14,00:00:00.056,0.1450407058000563
15,00:00:00.06,0.0719856265932325
16,00:00:00.064,0.00571524014230814
17,00:00:00.068,-0.0503527494147419
18,00:00:00.072,-0.0453064916655421
19,00:00:00.076,-0.029983259271830313
20,00:00:00.08,-0.03680533356964587
21,00:00:00.084,0.004982035199645908
22,00:00:00.088,0.066725941374898
23,00:00:00.092,0.046609440818429
24,00:00:00.096,-0.024902988225221634
25,00:00:00.1,-0.05209027091041205
26,00:00:00.104,-0.02277400949969887
27,00:00:00.108,0.0132873896509409
28,00:00:00.112,0.03376017976552241
29,00:00:00.116,0.02334274828899647
30,00:00:00.12,-0.007195706013590172
31,00:00:00.124,-0.022687466174829713
32,00:00:00.128,-0.01732542784884574
33,00:00:00.132,-0.008635207545012243
34,00:00:00.136,0.009872043272480369
35,00:00:00.14,0.02348166028968992
36,00:00:00.144,0.00883618190709967
37,00:00:00.148,-0.012135265860706559
38,00:00:00.152,-0.00330133771058172
39,00:00:00.156,0.00695513747632504
40,00:00:00.16,-0.011089247884228819
41,00:00:00.164,-0.017828132666181815
42,00:00:00.168,0.01261524145957083
43,00:00:00.172,0.02417471073567866
44,00:00:00.176,-0.0028106599347665897
45,00:00:00.18,-0.004851208184845739
46,00:00:00.184,-0.02071896055713296
47,00:00:00.188,-0.02435778593644499
48,00:00:00.192,0.03881012788042424
49,00:00:00.196,0.01952922623604536
50,00:00:00.2,-0.006290992663707583
51,00:00:00.204,-0.00490213988814503
52,00:00:00.208,-0.02980055473744869
53,00:00:00.212,-0.0159171859268099
54,00:00:00.216,0.02135010575875641
55,00:00:00.22,0.037923187017440775
56,00:00:00.224,0.009071463835425677
57,00:00:00.228,-0.017932821647264098
58,00:00:00.232,-0.02657997177448125
59,00:00:00.236,0.00559561583213509
60,00:00:00.24,0.001599372131749988
61,00:00:00.244,-0.03376873070374131
62,00:00:00.248,0.012564764358103268
63,00:00:00.252,0.059386025182902875
64,00:00:00.256,0.0012953071855008602
65,00:00:00.26,-0.034323336323723204
66,00:00:00.264,-0.011275718803517538
67,00:00:00.268,0.00010013056453317013
68,00:00:00.272,0.0001733845128910679
69,00:00:00.276,0.01039834890980276
70,00:00:00.28,0.00801327056251466
71,00:00:00.284,-0.006766270453226756
72,00:00:00.288,-0.00805078865960241
73,00:00:00.292,0.0050230273045599886
74,00:00:00.296,0.002161336771678183
75,00:00:00.3,-0.01023234007880095
76,00:00:00.304,0.00288333697244525
77,00:00:00.308,0.01747855264693499
78,00:00:00.312,-0.00478344736620784
79,00:00:00.316,-0.0155531195923686
80,00:00:00.32,0.00892941164784134
81,00:00:00.324,0.03466479002963744
82,00:00:00.328,-0.029630675911903367
83,00:00:00.332,-0.040777594665996786
84,00:00:00.336,-0.01131109520792959
85,00:00:00.34,0.061549128498882034
86,00:00:00.344,0.04417723673395807
87,00:00:00.348,-0.024272733833640817
88,00:00:00.352,-0.05030049476772547
89,00:00:00.356,-0.01526266336441042
90,00:00:00.36,-0.0007945194374769492
91,00:00:00.364,0.013155777473002641
92,00:00:00.368,0.014789928216487171
93,00:00:00.372,0.005377847352065099
94,00:00:00.376,0.04399302904494108
95,00:00:00.38,-0.00751152960583568
96,00:00:00.384,-0.02980283973738554
97,00:00:00.388,-0.00934805430006236
98,00:00:00.392,-0.02574713574722413
99,00:00:00.396,-0.02879208792001003
100,00:00:00.4,0.043175148777663694
101,00:00:00.404,0.037447005975991474
102,00:00:00.408,-0.00949611433316022
103,00:00:00.412,0.0031224535778164907
104,00:00:00.416,0.010136489756405362
105,00:00:00.42,-0.018106343690306
106,00:00:00.424,-0.03545836184639485
107,00:00:00.428,-0.01308267656713725
108,00:00:00.432,0.008475844515487581
109,00:00:00.436,0.03062804182991381
110,00:00:00.44,0.014575271401554341
111,00:00:00.444,0.006709559122100479
112,00:00:00.448,0.007672023028135281
113,00:00:00.452,-0.005877323177628574
114,00:00:00.456,-0.03321765828877686
115,00:00:00.46,-0.035492497379891595
116,00:00:00.464,0.02645962173119187
117,00:00:00.468,0.03830638088402334
118,00:00:00.472,-0.01442078058607876
119,00:00:00.476,-0.0062141190428519595
120,00:00:00.48,-0.01780259679071601
121,00:00:00.484,0.00846943736542017
122,00:00:00.488,0.05962876876583326
123,00:00:00.492,-0.010355801554396749
124,00:00:00.496,-0.07017060730140658
125,00:00:00.5,-0.023077219258993843
126,00:00:00.504,0.02242182940244674
127,00:00:00.508,0.04319454671349379
128,00:00:00.512,0.027987963054329185
129,00:00:00.516,-0.02655149379279461
130,00:00:00.52,-0.006590418517589522
131,00:00:00.524,-0.0023568832548335195
132,00:00:00.528,0.003607683815062039
133,00:00:00.532,-0.014838812407106144
134,00:00:00.536,-0.027637721077553606
135,00:00:00.54,0.011214134865440439
136,00:00:00.544,0.04933351930230857
137,00:00:00.548,-0.0015437741531059207
138,00:00:00.552,-0.03386734891682868
139,00:00:00.556,-0.014876114670187216
140,00:00:00.56,0.03873052215203647
141,00:00:00.564,0.00571005837991835
142,00:00:00.568,-0.0045434592757374
143,00:00:00.572,-0.024924335535615693
144,00:00:00.576,-0.03501597269496408
145,00:00:00.58,0.03629681374877692
146,00:00:00.584,0.032755862921476364
147,00:00:00.588,0.00934262550435961
148,00:00:00.592,-0.04762070486322048
149,00:00:00.596,-0.02540248248260471
150,00:00:00.6,0.03866954531986261
151,00:00:00.604,0.025232448708266037
152,00:00:00.608,7.229251787066633e-05
153,00:00:00.612,-0.014798844669712706
154,00:00:00.616,-0.036553982179611935
155,00:00:00.62,-0.01352271775249396
156,00:00:00.624,0.05917270947247748
157,00:00:00.628,0.02812813874334101
158,00:00:00.632,-0.06128474138677125
159,00:00:00.636,-0.01716946298256517
160,00:00:00.64,0.01926789805293079
161,00:00:00.644,0.00698048900812869
162,00:00:00.648,0.02949346322566271
163,00:00:00.652,-0.001530398491013331
164,00:00:00.656,-0.02339419908821585
165,00:00:00.66,-0.020868444116786133
166,00:00:00.664,0.009789579664357
167,00:00:00.668,0.00924839614890514
168,00:00:00.672,0.01672723796218637
169,00:00:00.676,-0.00765010062605143
170,00:00:00.68,-0.007318722084164609
171,00:00:00.684,0.021347340487409362
172,00:00:00.688,-0.038163857068866484
173,00:00:00.692,-0.0038915153127163605
174,00:00:00.696,0.0011053978232666902
175,00:00:00.7,0.02035104599781336
176,00:00:00.704,0.04785898281261328
177,00:00:00.708,-0.01695045689120887
178,00:00:00.712,-0.06142215570434935
179,00:00:00.716,-0.005860502365976579
180,00:00:00.72,0.042117187287658474
181,00:00:00.724,-0.00895830010995269
182,00:00:00.728,0.0009917478309944307
183,00:00:00.732,0.01074105117004367
184,00:00:00.736,-0.0006831444916315329
185,00:00:00.74,-0.01092332741245627
186,00:00:00.744,0.01621747156605125
187,00:00:00.748,-0.01503565139137209
188,00:00:00.752,-0.01723045622929931
189,00:00:00.756,0.031434620264917654
190,00:00:00.76,0.00749722635373472
191,00:00:00.764,-0.05611623334698381
192,00:00:00.768,0.02057914913166318
193,00:00:00.772,0.04967344435863195
194,00:00:00.776,-0.01633463567122817
195,00:00:00.78,-0.028803955297917114
196,00:00:00.784,-0.00729082303587347
197,00:00:00.788,-0.00611504015978426
198,00:00:00.792,0.0261828652583063
199,00:00:00.796,0.02146814018487926
200,00:00:00.8,-0.024678829417098317
201,00:00:00.804,0.0017765676602721214
202,00:00:00.808,0.016774826799519367
203,00:00:00.812,-0.015956591814756393
204,00:00:00.816,-0.01742565864697098
205,00:00:00.82,0.008661129570100455
206,00:00:00.824,0.02268706681206828
207,00:00:00.828,-0.020453048404306208
208,00:00:00.832,-0.01856314303586255
209,00:00:00.836,0.03286249097436672
210,00:00:00.84,0.028543685504701023
211,00:00:00.844,-0.03672178252600139
212,00:00:00.848,-0.016603533178567907
213,00:00:00.852,-0.006492412649095059
214,00:00:00.856,0.01385080022737381
215,00:00:00.86,0.0031129027483984793
216,00:00:00.864,0.00703361071646213
217,00:00:00.868,0.01621510041877633
218,00:00:00.872,0.004266063857357948
219,00:00:00.876,-0.009805347697692935
220,00:00:00.88,-0.022408588178222957
221,00:00:00.884,-0.012109109666198502
222,00:00:00.888,0.010309504577890045
223,00:00:00.892,0.00019298127153888692
224,00:00:00.896,0.00809600995853543
225,00:00:00.9,0.03004106367006901
226,00:00:00.904,-0.008551997132599312
227,00:00:00.908,-0.02709802135359495
228,00:00:00.912,0.020046775927767144
229,00:00:00.916,0.005597136449068783
230,00:00:00.92,-0.02892692852765327
231,00:00:00.924,-0.029551016632467522
232,00:00:00.928,0.013166720164008449
233,00:00:00.932,0.04557198612019422
234,00:00:00.936,0.012422329746186688
235,00:00:00.94,-0.015233605634421079
236,00:00:00.944,-0.009781269647646671
237,00:00:00.948,0.0075883509125560505
238,00:00:00.952,-0.01943604089319705
239,00:00:00.956,-0.015844713620026575
240,00:00:00.96,-0.012267355166841298
241,00:00:00.964,0.0252114431932569
242,00:00:00.968,0.043640849529765574
243,00:00:00.972,0.00431089615449309
244,00:00:00.976,-0.02321972055506191
245,00:00:00.98,-0.024676419619936482
246,00:00:00.984,-0.018458067439496514
247,00:00:00.988,-0.0007175353821367095
248,00:00:00.992,0.04118513897992673
249,00:00:00.996,0.016370221244869736
250,00:00:01,-0.02799770119599994
251,00:00:01.004,-0.0032869060523807963
252,00:00:01.008,0.01277849648613483
253,00:00:01.012,-0.00843922107014805
254,00:00:01.016,-0.012722022132948041
255,00:00:01.02,0.004066300578415401
256,00:00:01.024,0.00894430279731751
257,00:00:01.028,-0.010465406347066159
258,00:00:01.032,-0.016447654459625448
259,00:00:01.036,0.039789609494619106
260,00:00:01.04,0.015248792013153378
261,00:00:01.044,-0.007872438989579681
262,00:00:01.048,-0.019215170235838748
263,00:00:01.052,0.000512848448124719
264,00:00:01.056,-0.01739410136360678
265,00:00:01.06,-0.02773904032073916
266,00:00:01.064,0.017587057780474417
267,00:00:01.068,0.02154273696942252
268,00:00:01.072,0.037989936594385654
269,00:00:01.076,0.02441810676828034
270,00:00:01.08,-0.04485118994489308
271,00:00:01.084,-0.04145705560222274
272,00:00:01.088,-0.015196120366454149
273,00:00:01.092,0.02352483524009584
274,00:00:01.096,0.01643205129948911
275,00:00:01.1,0.02126470673829322
276,00:00:01.104,0.002565311733633279
277,00:00:01.108,-0.009620473785616923
278,00:00:01.112,-0.0161840517539531
279,00:00:01.116,-0.0037707497831434094
280,00:00:01.12,0.003839425742626192
281,00:00:01.124,0.007564913947135208
282,00:00:01.128,-0.0048494056100025695
283,00:00:01.132,-0.02036579418927431
284,00:00:01.136,0.016219267388805792
285,00:00:01.14,0.01612365571781988
286,00:00:01.144,-0.0038381196791306004
287,00:00:01.148,-0.0014281181574915475
288,00:00:01.152,0.012547893973533071
289,00:00:01.156,-0.01208120165392757
290,00:00:01.16,-0.0111055769957602
291,00:00:01.164,-0.007097834022715691
292,00:00:01.168,-0.005190206225961452
293,00:00:01.172,0.0015698499919380993
294,00:00:01.176,0.025289922021329386
295,00:00:01.18,0.006346226669847969
296,00:00:01.184,-0.01713681546971202
297,00:00:01.188,-0.00022509018890559977
298,00:00:01.192,0.01613037846982474
299,00:00:01.196,0.0171359688974917
300,00:00:01.2,-0.03196682129055263
301,00:00:01.204,-0.038723606965504566
302,00:00:01.208,0.01782373827882108
303,00:00:01.212,0.022440210683271327
304,00:00:01.216,-0.01087480143178255
305,00:00:01.22,0.03016729233786461
306,00:00:01.224,0.009851902490481736
307,00:00:01.228,-0.021935563068836973
308,00:00:01.232,-0.01728389493655419
309,00:00:01.236,-0.01202536461642012
310,00:00:01.24,-0.00295691401697695
311,00:00:01.244,0.030365454964339678
312,00:00:01.248,0.018997682433109765
313,00:00:01.252,-0.013590447138994929
314,00:00:01.256,-0.024149287492036813
315,00:00:01.26,-0.00319168716669083
316,00:00:01.264,0.014425740664592047
317,00:00:01.268,0.012094909441657368
318,00:00:01.272,0.0030402804259210803
319,00:00:01.276,-0.004340976243838669
320,00:00:01.28,-0.038064330350607675
321,00:00:01.284,-0.0027645070804282997
322,00:00:01.288,0.05649508140049867
323,00:00:01.292,0.014800580684095609
324,00:00:01.296,-0.033521083882078494
325,00:00:01.3,-0.04720431542955347
326,00:00:01.304,0.01692976267077029
327,00:00:01.308,0.05607785249594602
328,00:00:01.312,-0.00902948924340307
329,00:00:01.316,-0.05249821254983546
330,00:00:01.32,0.010939164742012503
331,00:00:01.324,0.029920705128461157
332,00:00:01.328,-0.009124769647314682
333,00:00:01.332,-0.002280357759445901
334,00:00:01.336,0.013347678661375576
335,00:00:01.34,0.018385904841124963
336,00:00:01.344,-0.029020255431532898
337,00:00:01.348,-0.04519977030577133
338,00:00:01.352,0.004627044429071246
339,00:00:01.356,0.04061349108815196
340,00:00:01.36,0.009913265937939283
341,00:00:01.364,-0.007558702607639139
342,00:00:01.368,0.01818481087684634
343,00:00:01.372,-0.0045421305258059935
344,00:00:01.376,-0.02303108188789341
345,00:00:01.38,-0.013208363205194473
346,00:00:01.384,0.009413839783519501
347,00:00:01.388,0.013733227737247989
348,00:00:01.392,-0.00896388373803347
349,00:00:01.396,-0.01171660691034048
350,00:00:01.4,0.026924481033347485
351,00:00:01.404,0.011863291729241618
352,00:00:01.408,-0.03119981219060715
353,00:00:01.412,-0.00917925802059472
354,00:00:01.416,-0.011648557760054242
355,00:00:01.42,0.023117289529182
356,00:00:01.424,0.03874854510650033
357,00:00:01.428,0.006056086684111508
358,00:00:01.432,-0.04971838113851852
359,00:00:01.436,-0.037979643326252734
360,00:00:01.44,0.03831873787567018
361,00:00:01.444,0.042318202555179624
362,00:00:01.448,-0.01121191633865237
363,00:00:01.452,-0.05346951406681914
364,00:00:01.456,0.003538056829711425
365,00:00:01.46,0.04571442748419935
366,00:00:01.464,0.023930987168569156
367,00:00:01.468,-0.027442624326795333
368,00:00:01.472,-0.040076825032883796
369,00:00:01.476,-0.016769099700468356
370,00:00:01.48,0.02314284676685934
371,00:00:01.484,0.03186471434310082
372,00:00:01.488,0.05631948982409089
373,00:00:01.492,-0.01849323813803493
374,00:00:01.496,-0.07820953289046886
375,00:00:01.5,-0.040605618152767364
376,00:00:01.504,0.026528132846578942
377,00:00:01.508,0.055837421532487524
378,00:00:01.512,0.029514723457395992
379,00:00:01.516,-0.030809563118964472
380,00:00:01.52,-0.023303484427742636
381,00:00:01.524,0.01852332614362242
382,00:00:01.528,0.0009754579077707554
383,00:00:01.532,-0.021385070169344524
384,00:00:01.536,0.00517283519729972
385,00:00:01.54,0.01094276085495949
386,00:00:01.544,-0.0018973613623529699
387,00:00:01.548,-0.00264687254093588
388,00:00:01.552,0.0018020241986960207
389,00:00:01.556,-0.0005866313586011535
390,00:00:01.56,0.006112910807132721
391,00:00:01.564,0.007057504029944541
392,00:00:01.568,-0.0037257517687976304
393,00:00:01.572,-0.032376227434724576
394,00:00:01.576,-0.004921428655507047
395,00:00:01.58,0.01664361311122775
396,00:00:01.584,0.026618183124810447
397,00:00:01.588,0.011828508693724867
398,00:00:01.592,-0.01942796690855175
399,00:00:01.596,-0.00973376026377079
400,00:00:01.6,0.029896685853600433
401,00:00:01.604,-0.02477384218946102
402,00:00:01.608,-0.031988063070457456
403,00:00:01.612,-0.00975242891581729
404,00:00:01.616,0.02392059192061426
405,00:00:01.62,0.018209060886874788
406,00:00:01.624,-0.00809995562303812
407,00:00:01.628,0.0362965004751459
408,00:00:01.632,0.02978905220516026
409,00:00:01.636,-0.05608174204826352
410,00:00:01.64,-0.03025983320549132
411,00:00:01.644,-0.0024383405543631003
412,00:00:01.648,0.015388881554827101
413,00:00:01.652,-0.0031117934267967896
414,00:00:01.656,0.00679939636029303
415,00:00:01.66,0.00918748625554144
416,00:00:01.664,0.020517381373792852
417,00:00:01.668,-0.010679397732019431
418,00:00:01.672,0.0026751233963295804
419,00:00:01.676,0.008855978230712934
420,00:00:01.68,-0.03313245438039306
421,00:00:01.684,-0.02048215933609749
422,00:00:01.688,0.02564434288069609
423,00:00:01.692,0.01957179233431812
424,00:00:01.696,-0.0042733200825750784
425,00:00:01.7,-0.011659329058602456
426,00:00:01.704,-0.022757505066692822
427,00:00:01.708,0.010452382557559758
428,00:00:01.712,0.02570412657223639
429,00:00:01.716,-0.0015519400039920577
430,00:00:01.72,0.00839754799380899
431,00:00:01.724,0.005582918063737453
432,00:00:01.728,-0.037690420402213966
433,00:00:01.732,-0.01221173413796351
434,00:00:01.736,0.02068059088196605
435,00:00:01.74,0.00971839972771704
436,00:00:01.744,0.006286975636612626
437,00:00:01.748,-0.00591364759020507
438,00:00:01.752,-0.016736139397835317
439,00:00:01.756,-0.005220637249294675
440,00:00:01.76,0.027130188886076212
441,00:00:01.764,0.02381140762008728
442,00:00:01.768,-0.02590741572203111
443,00:00:01.772,-0.025190210435539498
444,00:00:01.776,0.007023323094472287
445,00:00:01.78,0.0041625295998528634
446,00:00:01.784,-0.006176815368235189
447,00:00:01.788,0.023781609255820502
448,00:00:01.792,0.014679655432701097
449,00:00:01.796,-0.03571824822574848
450,00:00:01.8,-0.024734755075769513
451,00:00:01.804,0.0400794260203838
452,00:00:01.808,0.0271976813673973
453,00:00:01.812,-0.01822571945376694
454,00:00:01.816,-0.02789957774803043
455,00:00:01.82,-0.009654399473220112
456,00:00:01.824,0.01584285963326688
457,00:00:01.828,0.014197758631780775
458,00:00:01.832,0.0022506531167891773
459,00:00:01.836,-0.009947397746145732
460,00:00:01.84,0.011486416216939688
461,00:00:01.844,-0.00600181665504348
462,00:00:01.848,-0.0062409599777311
463,00:00:01.852,-0.020493498304858762
464,00:00:01.856,0.0006711683236062527
465,00:00:01.86,0.016344578471034783
466,00:00:01.864,0.02325822715647515
467,00:00:01.868,0.00623211218044162
468,00:00:01.872,0.003387229167856289
469,00:00:01.876,-0.01132750790566206
470,00:00:01.88,-0.029703949927352397
471,00:00:01.884,-0.01739512570202343
472,00:00:01.888,-0.021369608351960803
473,00:00:01.892,0.03086393047124147
474,00:00:01.896,0.04721339774550865
475,00:00:01.9,0.02751289098523555
476,00:00:01.904,-0.03269747784361247
477,00:00:01.908,-0.047408692771568874
478,00:00:01.912,0.015784153016284098
479,00:00:01.916,0.015714021559688252
480,00:00:01.92,-0.00891353667248043
481,00:00:01.924,-0.0036979829310439275
482,00:00:01.928,0.014907147560734309
483,00:00:01.932,-0.01321252249181271
484,00:00:01.936,-0.01057278760708868
485,00:00:01.94,0.012752512935549028
486,00:00:01.944,0.02083932422101499
487,00:00:01.948,0.00021235400345177
488,00:00:01.952,0.008711982984095808
489,00:00:01.956,-0.028116885572671925
490,00:00:01.96,-0.036778260720893685
491,00:00:01.964,0.01022265502251685
492,00:00:01.968,0.038545596413314336
493,00:00:01.972,0.012220755219459539
494,00:00:01.976,-0.008208833925891666
495,00:00:01.98,-0.01673679496161642
496,00:00:01.984,-0.012602579314261682
497,00:00:01.988,-0.00509740831330418
498,00:00:01.992,0.013209832250140602
499,00:00:01.996,0.03501778026111425
500,00:00:02,0.011859187157824668
501,00:00:02.004,-0.022968477569520498
502,00:00:02.008,-0.047382326330989606
503,00:00:02.012,-0.01687428867444397
504,00:00:02.016,0.02694246033206583
505,00:00:02.02,0.03146050311625007
506,00:00:02.024,0.01200907840393487
507,00:00:02.028,0.012792290013749154
508,00:00:02.032,-0.022589271538890898
509,00:00:02.036,-0.03344206837937243
510,00:00:02.04,-0.016394352931456527
511,00:00:02.044,0.027333786245435473
512,00:00:02.048,0.036008296534419046
513,00:00:02.052,-0.011992825428023931
514,00:00:02.056,-0.005066342884674669
515,00:00:02.06,-0.007306034909561281
516,00:00:02.064,-0.028062914032489034
517,00:00:02.068,-0.006972849980229505
518,00:00:02.072,0.0198986511677504
519,00:00:02.076,0.036758870352059644
520,00:00:02.08,0.028584025218151524
521,00:00:02.084,-0.044557400047779125
522,00:00:02.088,-0.013986461795866531
523,00:00:02.092,0.012818396091461182
524,00:00:02.096,-0.02605007356032733
525,00:00:02.1,-0.02184818088426254
526,00:00:02.104,0.01094476319849491
527,00:00:02.108,0.0343609714182094
528,00:00:02.112,0.0344865573570132
529,00:00:02.116,-0.006112210161518299
530,00:00:02.12,-0.025683526415377883
531,00:00:02.124,-0.023045199457556034
532,00:00:02.128,0.0032289078226312995
533,00:00:02.132,0.004858079482801255
534,00:00:02.136,-0.006493593333289029
535,00:00:02.14,0.03520654927706353
536,00:00:02.144,-0.014260517898947
537,00:00:02.148,0.004014339298009868
538,00:00:02.152,-0.00353509141132236
539,00:00:02.156,-0.01797416200861335
540,00:00:02.16,-0.00868224899750206
541,00:00:02.164,0.012025272764731207
542,00:00:02.168,0.014570471168553917
543,00:00:02.172,0.01780207557021641
544,00:00:02.176,-0.01925748237408698
545,00:00:02.18,-0.03128082004877791
546,00:00:02.184,0.0166155700571835
547,00:00:02.188,0.01818974362686277
548,00:00:02.192,-0.015282067184671169
549,00:00:02.196,0.01873940648511048
550,00:00:02.2,0.018378817476332233
551,00:00:02.204,-0.017446775455027874
552,00:00:02.208,-0.038382457336410866
553,00:00:02.212,-0.01381870926707053
554,00:00:02.216,0.0055570958647876995
555,00:00:02.22,0.0485394829302095
556,00:00:02.224,0.0211615760345012
557,00:00:02.228,0.009934409405104799
558,00:00:02.232,-0.03949986165389414
559,00:00:02.236,-0.03299636254087094
560,00:00:02.24,0.01014720264356583
561,00:00:02.244,-0.0025512310676276996
562,00:00:02.248,0.0011359490454196913
563,00:00:02.252,0.021386038511991428
564,00:00:02.256,0.01554892305284739
565,00:00:02.26,-0.00631340267136693
566,00:00:02.264,-0.00630439841188491
567,00:00:02.268,-0.008542231516912569
568,00:00:02.272,-0.00664652604609727
569,00:00:02.276,9.256816701963891e-05
570,00:00:02.28,-0.007952983200084418
571,00:00:02.284,0.02097859745845196
572,00:00:02.288,0.010824854951351881
573,00:00:02.292,0.00013415561988947
574,00:00:02.296,-0.01257941173389553
575,00:00:02.3,-0.0057769066188484396
576,00:00:02.304,0.00586317921988662
577,00:00:02.308,0.00656228954903782
578,00:00:02.312,-0.035508436383679495
579,00:00:02.316,-0.0005937044043094002
580,00:00:02.32,0.029105503112077668
581,00:00:02.324,0.01130789681337769
582,00:00:02.328,-0.01170136651489881
583,00:00:02.332,0.005040889067458918
584,00:00:02.336,0.011982899828581122
585,00:00:02.34,-0.02859565516700971
586,00:00:02.344,-0.017038256512023564
587,00:00:02.348,0.02440232457593083
588,00:00:02.352,0.013822737382724859
589,00:00:02.356,-0.011664886958897098
590,00:00:02.36,0.005196629324927891
591,00:00:02.364,0.012745980639010676
592,00:00:02.368,-0.004788436694070701
593,00:00:02.372,-0.03806078527122735
594,00:00:02.376,-0.010036860592663288
595,00:00:02.38,0.03373639324854587
596,00:00:02.384,0.02938055200502279
597,00:00:02.388,-0.006869383621960879
598,00:00:02.392,-0.038389747263863655
599,00:00:02.396,-0.003847968706395477
600,00:00:02.4,0.02659466041950511
601,00:00:02.404,0.017899932980071726
602,00:00:02.408,0.004259312059730291
603,00:00:02.412,-0.05067059909924864
604,00:00:02.416,-0.007724423803665552
605,00:00:02.42,0.00582499755546451
606,00:00:02.424,0.023315093945711848
607,00:00:02.428,0.01897654868662357
608,00:00:02.432,0.0077322693541646
609,00:00:02.436,-0.014091051649302239
610,00:00:02.44,-0.012645340291783219
611,00:00:02.444,0.0015254574391292408
612,00:00:02.448,-0.014689767267554998
613,00:00:02.452,-0.001498893834650513
614,00:00:02.456,0.016464904532767874
615,00:00:02.46,0.0019589548755902793
616,00:00:02.464,0.00766193098388613
617,00:00:02.468,-0.012197177158668629
618,00:00:02.472,-0.010670699535694435
619,00:00:02.476,0.02502584643661978
620,00:00:02.48,0.025075214798562267
621,00:00:02.484,-0.03053227346390478
622,00:00:02.488,-0.03999604354612528
623,00:00:02.492,-0.00729357777163387
624,00:00:02.496,0.027380858606193232
625,00:00:02.5,0.027715568430721732
626,00:00:02.504,0.007978458306752147
627,00:00:02.508,0.0125905596651137
628,00:00:02.512,-0.0164910902967676
629,00:00:02.516,-0.041921646450646166
630,00:00:02.52,0.00104465638287365
631,00:00:02.524,-0.007862967089749871
632,00:00:02.528,0.00946172792464495
633,00:00:02.532,0.01944311114493754
634,00:00:02.536,0.0534748770296573
635,00:00:02.54,0.0012108460068702706
636,00:00:02.544,-0.0633598184213042
637,00:00:02.548,-0.03668939322233199
638,00:00:02.552,0.020916183246299607
639,00:00:02.556,0.02954720635898408
640,00:00:02.56,-0.00459010509075597
641,00:00:02.564,0.017572594399098317
642,00:00:02.568,0.01291976636275649
643,00:00:02.572,-0.017534008482471122
644,00:00:02.576,-0.0308276291470975
645,00:00:02.58,-0.02098252624273295
646,00:00:02.584,0.025361933279782582
647,00:00:02.588,0.01689019467448814
648,00:00:02.592,0.01081663882359863
649,00:00:02.596,0.005352697335183628
650,00:00:02.6,-0.01568784704431901
651,00:00:02.604,-0.00046590993588324376
652,00:00:02.608,0.0057937472593039205
653,00:00:02.612,-0.0023294370621442803
654,00:00:02.616,-0.01789276918862015
655,00:00:02.62,-0.01738762552849946
656,00:00:02.624,0.005131252430146557
657,00:00:02.628,0.03922073589637874
658,00:00:02.632,0.028503555513452766
659,00:00:02.636,-0.028302942868322137
660,00:00:02.64,-0.049324162304401384
661,00:00:02.644,0.009745895746164029
662,00:00:02.648,0.05377256023348313
663,00:00:02.652,-0.004942050494719295
664,00:00:02.656,-0.04522147425450383
665,00:00:02.66,0.01123149576596916
666,00:00:02.664,-0.00013873921125196197
667,00:00:02.668,-0.0017322429921478
668,00:00:02.672,0.009374198329169312
669,00:00:02.676,0.012501836405135703
670,00:00:02.68,-0.01790303352754563
671,00:00:02.684,0.01221384294331074
672,00:00:02.688,0.01049380423501134
673,00:00:02.692,0.004103673505596822
674,00:00:02.696,-0.01976511091925209
675,00:00:02.7,-0.024836158845573608
676,00:00:02.704,0.014343022368848359
677,00:00:02.708,0.01345051173120735
678,00:00:02.712,-0.0156949358060956
679,00:00:02.716,0.005313548725098379
680,00:00:02.72,0.04219913808628914
681,00:00:02.724,0.0024049477651715196
682,00:00:02.728,-0.045813434757292215
683,00:00:02.732,-0.036893892523949055
684,00:00:02.736,0.00720596383325754
685,00:00:02.74,0.050699915038421695
686,00:00:02.744,0.02207994018681344
687,00:00:02.748,-0.00651679211296141
688,00:00:02.752,-0.015294727170839899
689,00:00:02.756,-0.021181759133469286
690,00:00:02.76,-0.021149723077542183
691,00:00:02.764,-0.007116677472367869
692,00:00:02.768,0.02849807753227649
693,00:00:02.772,0.014132173499092479
694,00:00:02.776,0.015193160390481353
695,00:00:02.78,0.015873643569648252
696,00:00:02.784,-0.01099570002406832
697,00:00:02.788,-0.033429468516260344
698,00:00:02.792,-0.017047704197466422
699,00:00:02.796,-0.0027262647636234786
700,00:00:02.8,0.011484018468763724
701,00:00:02.804,0.01960821403190496
702,00:00:02.808,0.014974419493228199
703,00:00:02.812,-0.018929627723991902
704,00:00:02.816,0.0014452780596911925
705,00:00:02.82,0.0054437832150142675
706,00:00:02.824,0.002084883279167119
707,00:00:02.828,-0.00628366600722075
708,00:00:02.832,-0.01056644227355719
709,00:00:02.836,-0.000853504869155591
710,00:00:02.84,-0.00616034440463409
711,00:00:02.844,0.027180145494639922
712,00:00:02.848,0.00547188997734338
713,00:00:02.852,-0.03525600422290158
714,00:00:02.856,0.01450984086841341
715,00:00:02.86,0.03516059927642344
716,00:00:02.864,-0.024523075087927247
717,00:00:02.868,-0.03879800112918015
718,00:00:02.872,0.0037476919824257597
719,00:00:02.876,0.03248297283425929
720,00:00:02.88,0.013825599802657943
721,00:00:02.884,-0.004783073556609419
722,00:00:02.888,-0.02071783714927731
723,00:00:02.892,-0.010482356621650977
724,00:00:02.896,0.03395635797642167
725,00:00:02.9,0.00270514434669167
726,00:00:02.904,-0.03133610973600303
727,00:00:02.908,-0.018388310912996482
728,00:00:02.912,0.011465752599178813
729,00:00:02.916,0.05116090085357425
730,00:00:02.92,0.0028423626790754523
731,00:00:02.924,-0.01889064349234099
732,00:00:02.928,-0.03239514818415047
733,00:00:02.932,-0.02569956751540306
734,00:00:02.936,0.006397434743121291
735,00:00:02.94,0.031350504606962204
736,00:00:02.944,0.0448960801586509
737,00:00:02.948,0.009401262446772302
738,00:00:02.952,-0.023137750336900322
739,00:00:02.956,-0.06277105305343858
740,00:00:02.96,-0.01186885649804025
741,00:00:02.964,0.02628969540819526
742,00:00:02.968,0.0213406637776643
743,00:00:02.972,0.01710677193477748
744,00:00:02.976,0.005414825689513237
745,00:00:02.98,-0.00302780058700591
746,00:00:02.984,-0.018054892076179403
747,00:00:02.988,-0.01696816790718006
748,00:00:02.992,-0.008737928350456059
749,00:00:02.996,0.0017006128036882759
750,00:00:03,0.037738746963441275
751,00:00:03.004,0.02182623418048022
752,00:00:03.008,0.004668447363656011
753,00:00:03.012,-0.04077187413349749
754,00:00:03.016,-0.04264289187267418
755,00:00:03.02,0.003052714688237753
756,00:00:03.024,0.019063465500948902
757,00:00:03.028,0.013733544619753957
758,00:00:03.032,0.03423719946295025
759,00:00:03.036,0.021987057756632587
760,00:00:03.04,-0.036769159894902224
761,00:00:03.044,-0.03271126444451508
762,00:00:03.048,-0.013574641081504529
763,00:00:03.052,0.00907909870147705
764,00:00:03.056,0.033225247869268
765,00:00:03.06,0.0035071780439466294
766,00:00:03.064,0.002624607295729219
767,00:00:03.068,-0.017797616310417652
768,00:00:03.072,0.006897239363752311
769,00:00:03.076,-0.013773962622508431
770,00:00:03.08,-0.00744599319295958
771,00:00:03.084,0.03446287335827948
772,00:00:03.088,0.006197010283358389
773,00:00:03.092,-0.036109564553953484
774,00:00:03.096,-0.0013885311782360103
775,00:00:03.1,0.005850674118846651
776,00:00:03.104,2.733082510529214e-06
777,00:00:03.108,0.0032773001585155704
778,00:00:03.112,0.01562037778785455
779,00:00:03.116,-0.00802014395594597
780,00:00:03.12,0.00095749925822023
781,00:00:03.124,-0.00468930474016816
782,00:00:03.128,-0.015549682080745692
783,00:00:03.132,-0.0006521129980683309
784,00:00:03.136,0.03388711484149091
785,00:00:03.14,0.01962622907012698
786,00:00:03.144,-0.02274896251037721
787,00:00:03.148,-0.043690986931324026
788,00:00:03.152,-0.00556691701058298
789,00:00:03.156,0.01962117804214359
790,00:00:03.16,0.025482352823019052
791,00:00:03.164,0.04029098313185385
792,00:00:03.168,-0.01889225305058065
793,00:00:03.172,-0.05403587641194463
794,00:00:03.176,-0.014509115135297212
795,00:00:03.18,0.016502029029652518
796,00:00:03.184,0.02280904713552448
797,00:00:03.188,0.010015927487984303
798,00:00:03.192,-0.00874616380315274
799,00:00:03.196,0.0021445028251036932
800,00:00:03.2,-0.01618089992552995
801,00:00:03.204,0.012864995747804638
802,00:00:03.208,0.019544173264875963
803,00:00:03.212,-0.013209594180807471
804,00:00:03.216,-0.025948488095309565
805,00:00:03.22,-0.006922318672877742
806,00:00:03.224,0.04768774588592359
807,00:00:03.228,0.0005347654223442095
808,00:00:03.232,-0.028536968224216256
809,00:00:03.236,-0.029518689028918733
810,00:00:03.24,0.011141271446831528
811,00:00:03.244,0.027804801706224735
812,00:00:03.248,-0.0015854737721383598
813,00:00:03.252,0.007964974967762835
814,00:00:03.256,0.008387318812310711
815,00:00:03.26,-0.0044669087510556
816,00:00:03.264,-0.0015505071496590929
817,00:00:03.268,-0.024723481794353606
818,00:00:03.272,-0.02332637365907433
819,00:00:03.276,0.00750765576958656
820,00:00:03.28,0.01636677701026201
821,00:00:03.284,0.03168738959357138
822,00:00:03.288,0.02087654080241919
823,00:00:03.292,-0.020386814139783393
824,00:00:03.296,-0.03266271040774884
825,00:00:03.3,-0.013044406572589649
826,00:00:03.304,0.01058555865165545
827,00:00:03.308,-0.008300354471430182
828,00:00:03.312,0.01986924605444069
829,00:00:03.316,0.026547984452918148
830,00:00:03.32,-0.01708772010169928
831,00:00:03.324,-0.01121255056932568
832,00:00:03.328,0.01628109789453444
833,00:00:03.332,-0.008531898201908916
834,00:00:03.336,-0.00624307896941901
835,00:00:03.34,-0.007768263283651329
836,00:00:03.344,-0.011157884262502209
837,00:00:03.348,0.03750909445807341
838,00:00:03.352,-0.0033581110183149594
839,00:00:03.356,-0.02347228094004093
840,00:00:03.36,-0.006926126778125761
841,00:00:03.364,0.015249384508933869
842,00:00:03.368,-0.002991168177686631
843,00:00:03.372,0.00912553328089416
844,00:00:03.376,0.016287756152451
845,00:00:03.38,-0.006473998073488469
846,00:00:03.384,-0.021195342065766495
847,00:00:03.388,0.0008076202357187844
848,00:00:03.392,0.008571946178562944
849,00:00:03.396,-0.01003921602386981
850,00:00:03.4,-0.012171237729489831
851,00:00:03.404,0.012613949016667911
852,00:00:03.408,0.02889241976663473
853,00:00:03.412,0.0007644647266715808
854,00:00:03.416,-0.021493326559720995
855,00:00:03.42,-0.0037314301589503893
856,00:00:03.424,0.01212999341078103
857,00:00:03.428,-0.04124445398338136
858,00:00:03.432,-0.011429267935454852
859,00:00:03.436,0.03139744233340032
860,00:00:03.44,0.07017805241048332
861,00:00:03.444,0.026367336977273198
862,00:00:03.448,-0.07200416922569268
863,00:00:03.452,-0.08093110844492911
864,00:00:03.456,-0.0010150650050491
865,00:00:03.46,0.04357611434534198
866,00:00:03.464,0.0518189129652456
867,00:00:03.468,0.01291699125431478
868,00:00:03.472,-0.020220409438479654
869,00:00:03.476,-0.00964485923759639
870,00:00:03.48,-0.008292519371025264
871,00:00:03.484,-0.006365868728607898
872,00:00:03.488,-0.00887799635529513
873,00:00:03.492,0.01945726556004955
874,00:00:03.496,-0.0037274723872542373
875,00:00:03.5,-0.01429142826236781
876,00:00:03.504,-0.00809186161495748
877,00:00:03.508,0.020873990608379203
878,00:00:03.512,0.022060944873373907
879,00:00:03.516,-0.00600849813781678
880,00:00:03.52,-0.01685910564265214
881,00:00:03.524,0.01180272432975471
882,00:00:03.528,0.0019540517823770608
883,00:00:03.532,-0.03221123619005086
884,00:00:03.536,-0.01038240001071245
885,00:00:03.54,0.01520009821979331
886,00:00:03.544,0.016494169831275957
887,00:00:03.548,0.024742825422435992
888,00:00:03.552,-0.01002669916488233
889,00:00:03.556,-0.028220345964655218
890,00:00:03.56,0.0006820091512054209
891,00:00:03.564,0.01528427214361724
892,00:00:03.568,0.01551904599182308
893,00:00:03.572,-0.0066419704817235505
894,00:00:03.576,-0.03447047941153873
895,00:00:03.58,0.020254746254067882
896,00:00:03.584,0.01055369933601469
897,00:00:03.588,-0.01479808380827305
898,00:00:03.592,-0.018983853675308637
899,00:00:03.596,0.00433784676715732
900,00:00:03.6,0.03918460290879015
901,00:00:03.604,0.003324999550386565
902,00:00:03.608,-0.02625234099104997
903,00:00:03.612,0.0034017693251371297
904,00:00:03.616,0.0070939539000391995
905,00:00:03.62,-0.0064854930387809855
906,00:00:03.624,-0.00777710787951947
907,00:00:03.628,-0.00511039467528463
908,00:00:03.632,0.014453253708779772
909,00:00:03.636,0.0026504197157919407
910,00:00:03.64,0.01112308655865491
911,00:00:03.644,-0.01785822527017445
912,00:00:03.648,-0.009153522085398439
913,00:00:03.652,0.0017373338341713004
914,00:00:03.656,-0.017853694036602967
915,00:00:03.66,0.03637370793148869
916,00:00:03.664,0.07051528361625972
917,00:00:03.668,-0.048839753028005334
918,00:00:03.672,-0.09116537129739297
919,00:00:03.676,0.01379155926406388
920,00:00:03.68,0.06977832352276887
921,00:00:03.684,-0.00964111159555614
922,00:00:03.688,-0.025832298677414666
923,00:00:03.692,0.0010171423200517889
924,00:00:03.696,-0.00443502189591527
925,00:00:03.7,0.0033117680263785618
926,00:00:03.704,0.03990743926260619
927,00:00:03.708,0.02637539850547911
928,00:00:03.712,-0.04120781226083633
929,00:00:03.716,-0.03784945188090207
930,00:00:03.72,-0.01116189756430686
931,00:00:03.724,0.036040191538631916
932,00:00:03.728,0.01829922103024728
933,00:00:03.732,-0.00981017074082047
934,00:00:03.736,-0.01790191512554884
935,00:00:03.74,0.00965230539441109
936,00:00:03.744,-0.00508523848839104
937,00:00:03.748,0.006833518622443091
938,00:00:03.752,0.006288213422521951
939,00:00:03.756,-0.0070308292051777296
940,00:00:03.76,-0.01581545078988714
941,00:00:03.764,0.017785776406526572
942,00:00:03.768,0.003185671579558406
943,00:00:03.772,-0.010695755248889329
944,00:00:03.776,0.00482867809478193
945,00:00:03.78,0.0027557432185858497
946,00:00:03.784,0.00041786083602346306
947,00:00:03.788,0.005118592351209367
948,00:00:03.792,0.0008567487820983002
949,00:00:03.796,0.0026705825002864003
950,00:00:03.8,-0.03574895346537229
951,00:00:03.804,-0.013801105786114919
952,00:00:03.808,0.039548550732433754
953,00:00:03.812,0.028287940949667256
954,00:00:03.816,-0.00853149220347405
955,00:00:03.82,-0.03266292344778776
956,00:00:03.824,0.0093238274566829
957,00:00:03.828,0.014886352742905725
958,00:00:03.832,-0.017340049846097823
959,00:00:03.836,-0.02020363183692096
960,00:00:03.84,0.007198888051789256
961,00:00:03.844,0.011519773397594689
962,00:00:03.848,0.01964703761041165
963,00:00:03.852,0.00033592595718800935
964,00:00:03.856,-0.01912882714532315
965,00:00:03.86,0.011417638757848176
966,00:00:03.864,0.01893070351798089
967,00:00:03.868,-0.007641581119969522
968,00:00:03.872,-0.03699098341166971
969,00:00:03.876,0.0014293856220319904
970,00:00:03.88,0.010691027389839323
971,00:00:03.884,-0.00451859505847097
972,00:00:03.888,-0.0021992421243339794
973,00:00:03.892,0.00784267485141755
974,00:00:03.896,0.02347521577030416
975,00:00:03.9,0.007606868297443728
976,00:00:03.904,-0.0274557685479522
977,00:00:03.908,0.007282358812517481
978,00:00:03.912,0.014375198632478721
979,00:00:03.916,-0.02098109247162935
980,00:00:03.92,-0.02900349863921297
981,00:00:03.924,0.008202860539313404
982,00:00:03.928,0.01662328555539716
983,00:00:03.932,0.009391351370140931
984,00:00:03.936,0.0071612341562286
985,00:00:03.94,0.005147186748217791
986,00:00:03.944,-0.007865684339776642
987,00:00:03.948,0.02859325287863609
988,00:00:03.952,-0.04010212840512396
989,00:00:03.956,-0.03785086143761876
990,00:00:03.96,0.00727959757205098
991,00:00:03.964,0.024572619295213385
992,00:00:03.968,0.027122078230604568
993,00:00:03.972,0.00022150937002152432
994,00:00:03.976,0.008208519779145723
995,00:00:03.98,-0.0008962801657617092
996,00:00:03.984,-0.041110209422186045
997,00:00:03.988,-0.01389228785410528
998,00:00:03.992,-0.0022658242378383897
999,00:00:03.996,0.030412662774324428
1000,00:00:04,0.0319529321277514
1001,00:00:04.004,-0.0029595870582852482
1002,00:00:04.008,-0.02628794871270661
1003,00:00:04.012,-0.019097567070275573
1004,00:00:04.016,-0.005528995243366803
1005,00:00:04.02,0.00989637617021798
1006,00:00:04.024,0.01689804787747562
1007,00:00:04.028,0.03325756778940558
1008,00:00:04.032,-0.010572623737971295
1009,00:00:04.036,-0.03155185794457796
1010,00:00:04.04,-0.010982356732711192
1011,00:00:04.044,-0.0019456259324215426
1012,00:00:04.048,0.00747697008773684
1013,00:00:04.052,0.00823361054062845
1014,00:00:04.056,0.0009427582845091802
1015,00:00:04.06,0.024009778862819103
1016,00:00:04.064,0.011387287406250831
1017,00:00:04.068,-0.027469101944006997
1018,00:00:04.072,-0.05027532880194484
1019,00:00:04.076,0.02393323183059688
1020,00:00:04.08,0.05012794985668736
1021,00:00:04.084,-0.014482363825663922
1022,00:00:04.088,-0.03852209844626489
1023,00:00:04.092,0.006669088987109725
1024,00:00:04.096,0.01685919566079976
1025,00:00:04.1,0.008547534642275428
1026,00:00:04.104,0.011278941528871662
1027,00:00:04.108,-0.009386800229549429
1028,00:00:04.112,-0.01892712700646372
1029,00:00:04.116,-0.007554868469014759
1030,00:00:04.12,-0.003975929459556949
1031,00:00:04.124,0.03371249418705699
1032,00:00:04.128,0.00861124251969159
1033,00:00:04.132,-0.03203760340693404
1034,00:00:04.136,-0.0006138912867754698
1035,00:00:04.14,0.028910706983879216
1036,00:00:04.144,-0.017744735348969698
1037,00:00:04.148,-0.0235837565269321
1038,00:00:04.152,0.01952956570312382
1039,00:00:04.156,0.01593059883452952
1040,00:00:04.16,0.007531786803156139
1041,00:00:04.164,-0.022511575210955943
1042,00:00:04.168,-0.01687898644013326
1043,00:00:04.172,0.002378966193646219
1044,00:00:04.176,-0.0013272301293909602
1045,00:00:04.18,0.028324468759819782
1046,00:00:04.184,0.03133573062950749
1047,00:00:04.188,-0.018392309080809396
1048,00:00:04.192,-0.04606631083879617
1049,00:00:04.196,-0.006486284080892789
1050,00:00:04.2,0.015676572045776993
1051,00:00:04.204,0.018739064456895018
1052,00:00:04.208,0.000124135462101545
1053,00:00:04.212,-0.00868428731337189
1054,00:00:04.216,0.01948977145366369
1055,00:00:04.22,-0.012878057488705973
1056,00:00:04.224,0.007717247528489675
1057,00:00:04.228,-0.010505234997253865
1058,00:00:04.232,-0.00893530342727899
1059,00:00:04.236,0.00877943634986876
1060,00:00:04.24,0.00237115984782577
1061,00:00:04.244,-0.010693432355765259
1062,00:00:04.248,0.012911148282000835
1063,00:00:04.252,-0.007128928671590983
1064,00:00:04.256,-0.028379618655890247
1065,00:00:04.26,0.024629449006170062
1066,00:00:04.264,0.018638051114976368
1067,00:00:04.268,0.004761794465593987
1068,00:00:04.272,-0.0057167045306414374
1069,00:00:04.276,-0.01329190051183106
1070,00:00:04.28,-0.0029718910809606296
1071,00:00:04.284,0.0070658703334629605
1072,00:00:04.288,-0.0042305142851546415
1073,00:00:04.292,-0.0077241645194590005
1074,00:00:04.296,0.010344201698899269
1075,00:00:04.3,0.00211378524545581
1076,00:00:04.304,-0.016056995373219213
1077,00:00:04.308,0.0013875518925488
1078,00:00:04.312,0.018177118618041322
1079,00:00:04.316,0.019760586554184566
1080,00:00:04.32,-0.006407038192264739
1081,00:00:04.324,-0.012645541923120573
1082,00:00:04.328,-0.048777713906019884
1083,00:00:04.332,0.01124501647427677
1084,00:00:04.336,0.06230604578740893
1085,00:00:04.34,-0.00016050133854150946
1086,00:00:04.344,-0.045891244430094964
1087,00:00:04.348,-0.013225313450675458
1088,00:00:04.352,0.01381282741203907
1089,00:00:04.356,0.010538966860622168
1090,00:00:04.36,0.01467625726945698
1091,00:00:04.364,-0.0037836588453501506
1092,00:00:04.368,0.0007071974978316623
1093,00:00:04.372,0.00813392220879905
1094,00:00:04.376,0.00631435355171561
1095,00:00:04.38,-0.03213177854195238
1096,00:00:04.384,-0.029661480337381342
1097,00:00:04.388,0.01474562473595143
1098,00:00:04.392,0.019422468729317202
1099,00:00:04.396,-0.00012324866838754004
1100,00:00:04.4,0.03338920488022269
1101,00:00:04.404,0.01960308593697849
1102,00:00:04.408,-0.023994900286197704
1103,00:00:04.412,-0.05081132007762791
1104,00:00:04.416,-0.01365840469952677
1105,00:00:04.42,-0.0034931034315377404
1106,00:00:04.424,0.027070613810792576
1107,00:00:04.428,0.04128260770812632
1108,00:00:04.432,0.0213155448436738
1109,00:00:04.436,-0.01072995644062758
1110,00:00:04.44,-0.028349810047075142
1111,00:00:04.444,-0.03329465538263321
1112,00:00:04.448,-0.00850670784711838
1113,00:00:04.452,0.01067274715751409
1114,00:00:04.456,0.021438926458358768
1115,00:00:04.46,0.0282140937633812
1116,00:00:04.464,0.0049450744409113906
1117,00:00:04.468,-0.0243897908367217
1118,00:00:04.472,-0.012829810380935669
1119,00:00:04.476,-0.01649403921328485
1120,00:00:04.48,-0.00705768691841513
1121,00:00:04.484,0.0340040237642825
1122,00:00:04.488,0.02784488559700554
1123,00:00:04.492,-0.015168413985520589
1124,00:00:04.496,-0.01122836535796523
1125,00:00:04.5,-0.0026632394874468437
1126,00:00:04.504,-0.01484059286303813
1127,00:00:04.508,-0.015676176291890487
1128,00:00:04.512,0.01952628465369347
1129,00:00:04.516,0.024396047578193213
1130,00:00:04.52,-0.010832398431375581
1131,00:00:04.524,-0.014490669127553679
1132,00:00:04.528,0.013012893963605159
1133,00:00:04.532,-0.004011096083559099
1134,00:00:04.536,-0.0026551145128906302
1135,00:00:04.54,0.02856926806271077
1136,00:00:04.544,-0.007865649360610426
1137,00:00:04.548,-0.020460994157474533
1138,00:00:04.552,-0.02755557175260034
1139,00:00:04.556,-0.009994329710025339
1140,00:00:04.56,0.04644207726232709
1141,00:00:04.564,0.0344752538949251
1142,00:00:04.568,-0.023260406567715074
1143,00:00:04.572,-0.0444274125620723
1144,00:00:04.576,0.016286468366161003
1145,00:00:04.58,0.03432545973919328
1146,00:00:04.584,-0.01214072620496154
1147,00:00:04.588,-0.02590434812009332
1148,00:00:04.592,-0.0122160620521754
1149,00:00:04.596,0.03150112944422291
1150,00:00:04.6,0.0060828259447589595
1151,00:00:04.604,0.0022647455771220857
1152,00:00:04.608,0.0072375173913315
1153,00:00:04.612,-0.03025012579746546
1154,00:00:04.616,-0.02242863178253172
1155,00:00:04.62,0.01513625751249493
1156,00:00:04.624,0.01863089553080502
1157,00:00:04.628,0.02162935049273073
1158,00:00:04.632,0.008181728888303041
1159,00:00:04.636,-0.027099051512777812
1160,00:00:04.64,-0.031198854674585212
1161,00:00:04.644,0.01861753151752051
1162,00:00:04.648,0.013119287323206708
1163,00:00:04.652,-0.017879932653158893
1164,00:00:04.656,0.0014786858810111854
1165,00:00:04.66,0.023015626822598195
1166,00:00:04.664,0.01417368138208985
1167,00:00:04.668,0.0005337695474736345
1168,00:00:04.672,-0.04248614143580195
1169,00:00:04.676,-0.03220920916646721
1170,00:00:04.68,0.03780956985428924
1171,00:00:04.684,0.0598668741586153
1172,00:00:04.688,-0.010204670019447842
1173,00:00:04.692,-0.06205183919519189
1174,00:00:04.696,-0.020781257015187328
1175,00:00:04.7,0.028864977648481668
1176,00:00:04.704,0.025284052710048886
1177,00:00:04.708,0.00922158872708673
1178,00:00:04.712,0.00179481144732562
1179,00:00:04.716,-0.024310551816597532
1180,00:00:04.72,-0.020156435493845444
1181,00:00:04.724,0.001600732910446819
1182,00:00:04.728,0.04190267855301498
1183,00:00:04.732,0.014269001781940488
1184,00:00:04.736,-0.02743427501991395
1185,00:00:04.74,-0.027067548595368886
1186,00:00:04.744,-0.003421671688556619
1187,00:00:04.748,0.01327172153105493
1188,00:00:04.752,0.01176998729351908
1189,00:00:04.756,0.01093183597549795
1190,00:00:04.76,0.021928720641881227
1191,00:00:04.764,-0.01757245801854882
1192,00:00:04.768,-0.04239457752555614
1193,00:00:04.772,-0.017999942079768523
1194,00:00:04.776,0.01834641303867103
1195,00:00:04.78,0.05233015911653641
1196,00:00:04.784,0.0254615279845893
1197,00:00:04.788,-0.027500458774738935
1198,00:00:04.792,-0.06054558283358347
1199,00:00:04.796,-0.016748693073168383
1200,00:00:04.8,0.02950022229924794
1201,00:00:04.804,0.04129626497160639
1202,00:00:04.808,0.037580494303256246
1203,00:00:04.812,-0.019458701368421302
1204,00:00:04.816,-0.0391314844600856
1205,00:00:04.82,-0.030730318510904894
1206,00:00:04.824,-0.02350459701847283
1207,00:00:04.828,0.05512434151023629
1208,00:00:04.832,0.016919847454119025
1209,00:00:04.836,-0.0002576215192675608
1210,00:00:04.84,-0.01244899129960686
1211,00:00:04.844,0.00793912704102696
1212,00:00:04.848,0.00977611250709743
1213,00:00:04.852,-0.00015193649596767232
1214,00:00:04.856,-0.03952646988909691
1215,00:00:04.86,-0.03256659791804854
1216,00:00:04.864,0.03997208341024816
1217,00:00:04.868,0.025845250580459823
1218,00:00:04.872,0.0026361120399087624
1219,00:00:04.876,-0.01078902464359998
1220,00:00:04.88,0.004609709256328642
1221,00:00:04.884,0.0030634971335530207
1222,00:00:04.888,-0.04006465623388063
1223,00:00:04.892,-0.0017276033759117209
1224,00:00:04.896,0.042980776634067214
1225,00:00:04.9,0.02210784843191504
1226,00:00:04.904,-0.03202755865640941
1227,00:00:04.908,-0.01641958113759752
1228,00:00:04.912,-0.0065989397699013404
1229,00:00:04.916,-0.0008678068406879798
1230,00:00:04.92,0.022504094988107664
1231,00:00:04.924,0.01563354092650116
1232,00:00:04.928,0.0011447910219430802
1233,00:00:04.932,-0.010802049422636618
1234,00:00:04.936,-0.01704215281642969
1235,00:00:04.94,-0.02240424556657678
1236,00:00:04.944,-0.004425434977747499
1237,00:00:04.948,0.06180234183557329
1238,00:00:04.952,0.01982301840325821
1239,00:00:04.956,-0.044672812335193206
1240,00:00:04.96,-0.033410789968911545
1241,00:00:04.964,0.017059841804439202
1242,00:00:04.968,0.009097985399421308
1243,00:00:04.972,-0.0019069983973167821
1244,00:00:04.976,0.00953971454873681
1245,00:00:04.98,0.021698222961276725
1246,00:00:04.984,-0.00279885763302446
1247,00:00:04.988,-0.023450816050171873
1248,00:00:04.992,-0.02093293867073957
1249,00:00:04.996,0.0035683969035744598
1250,00:00:05,0.013352712150663141
1251,00:00:05.004,0.030322238337248508
1252,00:00:05.008,0.0015520093729719468
1253,00:00:05.012,-0.040614353958517334
1254,00:00:05.016,-0.01011538878083229
1255,00:00:05.02,0.0035611850908025574
1256,00:00:05.024,0.035458028316497796
1257,00:00:05.028,0.01783939090091739
1258,00:00:05.032,-0.008039316162467
1259,00:00:05.036,-0.030352311208844223
1260,00:00:05.04,-0.03807770926505328
1261,00:00:05.044,0.01908359536901116
1262,00:00:05.048,0.04501588502898814
1263,00:00:05.052,0.006356352474540471
1264,00:00:05.056,-0.03126140800304707
1265,00:00:05.06,0.010936817852780232
1266,00:00:05.064,0.0022216215729713397
1267,00:00:05.068,-0.00352566433139145
1268,00:00:05.072,-0.01732179627288129
1269,00:00:05.076,-0.02661446621641517
1270,00:00:05.08,0.02207787148654456
1271,00:00:05.084,0.023031503194943046
1272,00:00:05.088,0.014956770464777941
1273,00:00:05.092,0.004845942719839511
1274,00:00:05.096,0.01202324021141975
1275,00:00:05.1,-0.02336981147527691
1276,00:00:05.104,-0.037055999506264946
1277,00:00:05.108,-0.011639112082775682
1278,00:00:05.112,0.007932767446618527
1279,00:00:05.116,0.024224127409979732
1280,00:00:05.12,0.01417653867974873
1281,00:00:05.124,-0.0036853809142485218
1282,00:00:05.128,-0.00744680676143616
1283,00:00:05.132,0.001511900918558239
1284,00:00:05.136,0.01621358725242317
1285,00:00:05.14,-0.02058131201192737
1286,00:00:05.144,-0.02003832126501943
1287,00:00:05.148,0.01765016297576949
1288,00:00:05.152,0.03406434107455429
1289,00:00:05.156,-0.0006085716886445943
1290,00:00:05.16,-0.05376430496107791
1291,00:00:05.164,-0.01825559465214609
1292,00:00:05.168,0.010998711222782731
1293,00:00:05.172,0.06398411397822205
1294,00:00:05.176,0.020572088600602015
1295,00:00:05.18,-0.054316626861691475
1296,00:00:05.184,-0.02580779627896848
1297,00:00:05.188,0.03616396570578213
1298,00:00:05.192,-0.00040179525967690925
1299,00:00:05.196,-0.03480275347828869
1300,00:00:05.2,0.013039256329648224
1301,00:00:05.204,0.033837788272649105
1302,00:00:05.208,-0.0026383179356344
1303,00:00:05.212,-0.015576947771478444
1304,00:00:05.216,-0.01681996369734406
1305,00:00:05.22,-0.008133079973049458
1306,00:00:05.224,0.02531197771895678
1307,00:00:05.228,0.0142032909207046
1308,00:00:05.232,-0.01544673228636384
1309,00:00:05.236,0.004591245669871569
1310,00:00:05.24,0.0020430022850632715
1311,00:00:05.244,-0.0057729780673981
1312,00:00:05.248,0.002492979983799161
1313,00:00:05.252,-0.00610043574124578
1314,00:00:05.256,-0.01772211142815653
1315,00:00:05.26,-0.0036733725064550214
1316,00:00:05.264,0.026241653016768403
1317,00:00:05.268,0.01839473727159199
1318,00:00:05.272,0.005413892984506679
1319,00:00:05.276,-0.04121296200901269
1320,00:00:05.28,-0.00457475986331701
1321,00:00:05.284,0.022681187663692943
1322,00:00:05.288,0.0011683825869113203
1323,00:00:05.292,-0.008472183806588873
1324,00:00:05.296,0.005070128259831108
1325,00:00:05.3,0.0010835075663635436
1326,00:00:05.304,-0.005598347634077065
1327,00:00:05.308,-0.014607863500714309
1328,00:00:05.312,0.020008244318887564
1329,00:00:05.316,0.01354757719673216
1330,00:00:05.32,-0.0073380150133743795
1331,00:00:05.324,-0.02032828191295266
1332,00:00:05.328,0.006825306452810758
1333,00:00:05.332,0.021062173531390747
1334,00:00:05.336,0.003178832819685341
1335,00:00:05.34,-0.036717951239552314
1336,00:00:05.344,0.0030142678297124803
1337,00:00:05.348,0.013317156670382246
1338,00:00:05.352,-0.00742102507501841
1339,00:00:05.356,0.00898058863822371
1340,00:00:05.36,-0.01188359211664651
1341,00:00:05.364,-0.0006997915916144891
1342,00:00:05.368,0.01600287909968757
1343,00:00:05.372,0.03396721766330307
1344,00:00:05.376,0.014136561469058541
1345,00:00:05.38,-0.058353677624836627
1346,00:00:05.384,-0.03806665865704413
1347,00:00:05.388,0.013254021527245637
1348,00:00:05.392,0.016527852974832037
1349,00:00:05.396,0.001874141569714988
1350,00:00:05.4,0.02822115970775487
1351,00:00:05.404,0.02195169334299861
1352,00:00:05.408,-0.005645806435495621
1353,00:00:05.412,-0.021857460960745853
1354,00:00:05.416,-0.04167244862765077
1355,00:00:05.42,-0.010897397529333818
1356,00:00:05.424,0.038070840062573524
1357,00:00:05.428,0.030962764751166088
1358,00:00:05.432,-0.003506119130179292
1359,00:00:05.436,-0.02883401047438386
1360,00:00:05.44,-0.018862152006477093
1361,00:00:05.444,0.011799964355304839
1362,00:00:05.448,0.026432936734636286
1363,00:00:05.452,-0.007610451750224459
1364,00:00:05.456,-0.00481353071518243
1365,00:00:05.46,0.025360950152389726
1366,00:00:05.464,-0.015045652166008963
1367,00:00:05.468,-0.04292898962739853
1368,00:00:05.472,-0.0023833477753214486
1369,00:00:05.476,0.02170805516652761
1370,00:00:05.48,0.027627049828879483
1371,00:00:05.484,0.01209450094029304
1372,00:00:05.488,-0.023340161424130226
1373,00:00:05.492,0.013021809776546385
1374,00:00:05.496,0.01736481999978419
1375,00:00:05.5,-0.04770808271132414
1376,00:00:05.504,-0.043792746495455455
1377,00:00:05.508,0.02041433099657298
1378,00:00:05.512,0.04341832967475056
1379,00:00:05.516,0.01297719916328784
1380,00:00:05.52,-0.0067358183441683745
1381,00:00:05.524,-0.0043389918282628
1382,00:00:05.528,-0.00034863033215515435
1383,00:00:05.532,0.00444969977252186
1384,00:00:05.536,0.001021481584757556
1385,00:00:05.54,-0.028637998970225377
1386,00:00:05.544,-0.01965171191841363
1387,00:00:05.548,0.014779674573219388
1388,00:00:05.552,0.03769949264824388
1389,00:00:05.556,-0.015573037089779971
1390,00:00:05.56,-0.006226739613339298
1391,00:00:05.564,-0.0001126091228797995
1392,00:00:05.568,0.04183132998878138
1393,00:00:05.572,-0.01241277082590386
1394,00:00:05.576,-0.05399583850521589
1395,00:00:05.58,-0.0010275247041136013
1396,00:00:05.584,0.024001521873287857
1397,00:00:05.588,0.012518873903900381
1398,00:00:05.592,0.01265353313647211
1399,00:00:05.596,-0.02804131247103218
1400,00:00:05.6,-0.01806399365887045
1401,00:00:05.604,0.03119915514253077
1402,00:00:05.608,0.032055728603154386
1403,00:00:05.612,-0.022998657310381525
1404,00:00:05.616,-0.037844371283426916
1405,00:00:05.62,-0.010036707535618913
1406,00:00:05.624,0.03522901399992407
1407,00:00:05.628,0.02462611068040132
1408,00:00:05.632,-0.02976472303271296
1409,00:00:05.636,0.003515720891300579
1410,00:00:05.64,0.008150563808158
1411,00:00:05.644,-0.003856845898553731
1412,00:00:05.648,0.0045161438174545696
1413,00:00:05.652,-0.0171711144503206
1414,00:00:05.656,-0.003990638419054458
1415,00:00:05.66,0.0025832342216745006
1416,00:00:05.664,0.017293349083047384
1417,00:00:05.668,-0.0013321844162419404
1418,00:00:05.672,-0.000896067591384055
1419,00:00:05.676,-0.01110041583888233
1420,00:00:05.68,-0.007800987863447521
1421,00:00:05.684,0.008090947696473446
1422,00:00:05.688,0.01614645030349497
1423,00:00:05.692,0.0031515225127804985
1424,00:00:05.696,-0.009697478570160463
1425,00:00:05.7,0.010808871742483468
1426,00:00:05.704,-0.003250160487368721
1427,00:00:05.708,-0.04702261392958462
1428,00:00:05.712,0.004506459226831791
1429,00:00:05.716,0.046203051693737444
1430,00:00:05.72,0.02299263945315029
1431,00:00:05.724,-0.0407347908476367
1432,00:00:05.728,-0.021730015054345103
1433,00:00:05.732,0.01335849310271442
1434,00:00:05.736,0.01795482682064179
1435,00:00:05.74,0.004688206361606719
1436,00:00:05.744,-0.018455121957231296
1437,00:00:05.748,0.005291288403896029
1438,00:00:05.752,0.0025415855343453586
1439,00:00:05.756,0.007388518890365961
1440,00:00:05.76,0.01702384994132443
1441,00:00:05.764,-0.012732881121337362
1442,00:00:05.768,-0.039535182528197675
1443,00:00:05.772,-0.0140485162846744
1444,00:00:05.776,0.019379318226128792
1445,00:00:05.78,0.03631361993029711
1446,00:00:05.784,0.03705754922702918
1447,00:00:05.788,-0.025854835490463322
1448,00:00:05.792,-0.04345713835209608
1449,00:00:05.796,-0.008881688350811599
1450,00:00:05.8,0.005599206440820091
1451,00:00:05.804,0.015911552123725407
1452,00:00:05.808,0.02312946575693789
1453,00:00:05.812,0.0028654018533416066
1454,00:00:05.816,-0.03954797796905041
1455,00:00:05.82,0.01482181821484119
1456,00:00:05.824,0.017289163311943412
1457,00:00:05.828,0.00378032220760361
1458,00:00:05.832,-0.015597572200931609
1459,00:00:05.836,-0.02110920799896122
1460,00:00:05.84,-0.005528263485757639
1461,00:00:05.844,0.006549489306053154
1462,00:00:05.848,0.023665489396080413
1463,00:00:05.852,0.03279187588486815
1464,00:00:05.856,-0.007927535101771351
1465,00:00:05.86,-0.034070590627379736
1466,00:00:05.864,-0.032647819723933956
1467,00:00:05.868,0.004036237602122132
1468,00:00:05.872,0.04901114911262992
1469,00:00:05.876,0.02415884821675722
1470,00:00:05.88,-0.04370286936318735
1471,00:00:05.884,-0.023547075688838903
1472,00:00:05.888,0.007342599361436482
1473,00:00:05.892,0.03971510380506511
1474,00:00:05.896,0.0074164373800158015
1475,00:00:05.9,-0.02835128130391237
1476,00:00:05.904,-0.02086850441992279
1477,00:00:05.908,0.0038159107789397196
1478,00:00:05.912,0.010637346997100406
1479,00:00:05.916,0.012545262230560177
1480,00:00:05.92,0.013915419927798222
1481,00:00:05.924,-0.003387042903341354
1482,00:00:05.928,0.006984658073633909
1483,00:00:05.932,-0.03456762153655288
1484,00:00:05.936,-0.04041200224310162
1485,00:00:05.94,0.01585841551423069
1486,00:00:05.944,0.05196257214993236
1487,00:00:05.948,0.02733041462488475
1488,00:00:05.952,-0.01368758000899106
1489,00:00:05.956,-0.03980499063618484
1490,00:00:05.96,-0.018951233883853964
1491,00:00:05.964,0.028487173898611155
1492,00:00:05.968,0.012019970206893051
1493,00:00:05.972,-0.01875026104971767
1494,00:00:05.976,-0.004624433131539267
1495,00:00:05.98,0.03071499429643149
1496,00:00:05.984,-0.0029419369529932703
1497,00:00:05.988,-0.02845772285945716
1498,00:00:05.992,0.0008282691123895358
1499,00:00:05.996,0.0041718101128935805
1500,00:00:06,-0.0003285852144472275
1501,00:00:06.004,0.014720771578140565
1502,00:00:06.008,-0.00552555656759068
1503,00:00:06.012,0.008505464997142548
1504,00:00:06.016,0.018403033609501997
1505,00:00:06.02,-0.03197335926233786
1506,00:00:06.024,-0.02973249391652643
1507,00:00:06.028,0.02786969253793356
1508,00:00:06.032,0.00968038174323737
1509,00:00:06.036,0.0013401238247752307
1510,00:00:06.04,-0.001817206852138045
1511,00:00:06.044,-0.01266506081447005
1512,00:00:06.048,0.01869330508634448
1513,00:00:06.052,-0.0001783411717042301
1514,00:00:06.056,-0.03201005794107911
1515,00:00:06.06,0.007099417758581742
1516,00:00:06.064,0.054290754254907404
1517,00:00:06.068,-0.007844583131372922
1518,00:00:06.072,-0.04609314817935227
1519,00:00:06.076,-0.003136270752293057
1520,00:00:06.08,-0.0033183187479153197
1521,00:00:06.084,0.013765686693659518
1522,00:00:06.088,-0.00981811049859971
1523,00:00:06.092,0.00424628728069365
1524,00:00:06.096,0.06497385742841287
1525,00:00:06.1,0.01198761491104959
1526,00:00:06.104,-0.051057411008514464
1527,00:00:06.108,-0.061854917323216775
1528,00:00:06.112,-0.017312245792709284
1529,00:00:06.116,0.04523640731349583
1530,00:00:06.12,0.04550895211286842
1531,00:00:06.124,0.004503846459556372
1532,00:00:06.128,-0.0140840366948396
1533,00:00:06.132,-0.00749352714046834
1534,00:00:06.136,0.00604563381057233
1535,00:00:06.14,-0.014488586690276861
1536,00:00:06.144,-0.028215513564646272
1537,00:00:06.148,0.01404527528211479
1538,00:00:06.152,0.0208617188036442
1539,00:00:06.156,0.009150253841653484
1540,00:00:06.16,-0.009126016870141033
1541,00:00:06.164,-0.02107294439338152
1542,00:00:06.168,0.03410095407161859
1543,00:00:06.172,0.002756942529231308
1544,00:00:06.176,-0.03300612313614691
1545,00:00:06.18,-0.014169502595905215
1546,00:00:06.184,0.004522812552750119
1547,00:00:06.188,0.02162802591919898
1548,00:00:06.192,0.010550154838711027
1549,00:00:06.196,-0.00036394759081303943
1550,00:00:06.2,0.0003019952855538569
1551,00:00:06.204,0.00877156865317374
1552,00:00:06.208,-0.011247732210904363
1553,00:00:06.212,-0.02438047167379405
1554,00:00:06.216,0.004583674715831921
1555,00:00:06.22,-0.0034058797173202107
1556,00:00:06.224,0.01265327725559473
1557,00:00:06.228,-0.00252690049819649
1558,00:00:06.232,0.00353906633972656
1559,00:00:06.236,0.0284796759951859
1560,00:00:06.24,0.002508924324502002
1561,00:00:06.244,-0.04213656438514588
1562,00:00:06.248,-0.019296897575259177
1563,00:00:06.252,0.034215933177620166
1564,00:00:06.256,0.01005538960453127
1565,00:00:06.26,-0.020834405906498397
1566,00:00:06.264,-0.0007473188452422497
1567,00:00:06.268,0.002839828899595884
1568,00:00:06.272,0.029007538454607105
1569,00:00:06.276,-0.01630500098690391
1570,00:00:06.28,-0.016003611613996317
1571,00:00:06.284,0.01126818847842515
1572,00:00:06.288,-0.013839212595485177
1573,00:00:06.292,-0.02003675862215456
1574,00:00:06.296,0.047264217631891425
1575,00:00:06.3,0.04667897429317239
1576,00:00:06.304,-0.05303173360880459
1577,00:00:06.308,-0.03043594025075431
1578,00:00:06.312,-0.0028727620374411297
1579,00:00:06.316,0.017061515827663264
1580,00:00:06.32,0.0026508950904826586
1581,00:00:06.324,0.002751624502707272
1582,00:00:06.328,0.010330375225748848
1583,00:00:06.332,0.00969294097740204
1584,00:00:06.336,-0.022276817122474354
1585,00:00:06.34,0.00028258066413400614
1586,00:00:06.344,0.00424041645601392
1587,00:00:06.348,-0.008465273247566067
1588,00:00:06.352,-0.005389393190853296
1589,00:00:06.356,0.011983835138380493
1590,00:00:06.36,0.021064447239041308
1591,00:00:06.364,0.0034440291638021103
1592,00:00:06.368,-0.011276256234850734
1593,00:00:06.372,-0.01868932414799924
1594,00:00:06.376,-0.019669486850034446
1595,00:00:06.38,0.0035363654606044197
1596,00:00:06.384,0.0261808837822173
1597,00:00:06.388,0.009277034492697553
1598,00:00:06.392,0.005201459629461172
1599,00:00:06.396,-0.0009428253397345517
1600,00:00:06.4,-0.011851606890559172
1601,00:00:06.404,-0.023843628820031892
1602,00:00:06.408,-0.011829445371404294
1603,00:00:06.412,0.02506491914391521
1604,00:00:06.416,0.03112521860748533
1605,00:00:06.42,-0.000978233700152485
1606,00:00:06.424,-0.021554046776145707
1607,00:00:06.428,-0.02544801542535423
1608,00:00:06.432,-0.0027631929988274355
1609,00:00:06.436,0.02239796752110116
1610,00:00:06.44,0.023516901768744002
1611,00:00:06.444,-0.00019449298270046494
1612,00:00:06.448,-0.011292106704786378
1613,00:00:06.452,-0.00524551654234529
1614,00:00:06.456,-0.0035750491661019654
1615,00:00:06.46,-0.025153802707791315
1616,00:00:06.464,-0.0018906398909166503
1617,00:00:06.468,0.03619705163873727
1618,00:00:06.472,0.002371376496739685
1619,00:00:06.476,0.004372440118459048
1620,00:00:06.48,-0.0042041385313496
1621,00:00:06.484,-0.01334848860278728
1622,00:00:06.488,-0.0019604880362749
1623,00:00:06.492,-0.018584310309961438
1624,00:00:06.496,0.00339494075160474
1625,00:00:06.5,0.022724253591150028
1626,00:00:06.504,0.03016410442069177
1627,00:00:06.508,-0.014401490218006078
1628,00:00:06.512,-0.03450996382161979
1629,00:00:06.516,-0.00695008155889809
1630,00:00:06.52,0.0029464139370247756
1631,00:00:06.524,0.02486710250377655
1632,00:00:06.528,0.02385946083813909
1633,00:00:06.532,-0.02691817050799724
1634,00:00:06.536,-0.030195311876013892
1635,00:00:06.54,0.04671103777945979
1636,00:00:06.544,0.01292436802759768
1637,00:00:06.548,-0.04227489233016962
1638,00:00:06.552,-0.00552568852435795
1639,00:00:06.556,-0.01045131962746381
1640,00:00:06.56,-0.00241937581449747
1641,00:00:06.564,0.03006698202807461
1642,00:00:06.568,0.025382647290825833
1643,00:00:06.572,0.004403089405968779
1644,00:00:06.576,-0.01596171548590063
1645,00:00:06.58,-0.02490428974851975
1646,00:00:06.584,-0.00698255375027656
1647,00:00:06.588,0.010193329770118033
1648,00:00:06.592,-0.00025017005100380803
1649,00:00:06.596,-0.027697732439264627
1650,00:00:06.6,0.01904495863709596
1651,00:00:06.604,0.08225954463705426
1652,00:00:06.608,-0.00861080316826701
1653,00:00:06.612,-0.06548701337987944
1654,00:00:06.616,-0.05642870772862808
1655,00:00:06.62,0.008213126217015091
1656,00:00:06.624,0.04988973634317516
1657,00:00:06.628,0.03908368467818942
1658,00:00:06.632,-0.008349428389919929
1659,00:00:06.636,0.015292476804461306
1660,00:00:06.64,-0.043453883146867114
1661,00:00:06.644,-0.02921824296936389
1662,00:00:06.648,0.012489345623180268
1663,00:00:06.652,0.02885261565097608
1664,00:00:06.656,-0.0017984299920499303
1665,00:00:06.66,-0.02244678931310773
1666,00:00:06.664,-0.011357833165675403
1667,00:00:06.668,0.044007052900269586
1668,00:00:06.672,0.03146267670672391
1669,00:00:06.676,-0.030837707221508033
1670,00:00:06.68,-0.03329232963733377
1671,00:00:06.684,-0.03201643639476973
1672,00:00:06.688,0.00897894555237143
1673,00:00:06.692,0.05952288210392
1674,00:00:06.696,0.009994022315368032
1675,00:00:06.7,-0.011490300428704359
1676,00:00:06.704,-0.033916829153895406
1677,00:00:06.708,-0.01096664508804679
1678,00:00:06.712,0.027621240122243793
1679,00:00:06.716,0.012312769878917575
1680,00:00:06.72,-0.0027804030105471594
1681,00:00:06.724,-0.019847246818244478
1682,00:00:06.728,0.0015994245186448115
1683,00:00:06.732,0.0028212969191372802
1684,00:00:06.736,-0.010254042688757181
1685,00:00:06.74,-0.0036535817198455316
1686,00:00:06.744,0.01339865406043828
1687,00:00:06.748,0.02993172931019217
1688,00:00:06.752,0.02889876696281135
1689,00:00:06.756,-0.04516461351886389
1690,00:00:06.76,-0.06596302893012758
1691,00:00:06.764,0.03938762005418535
1692,00:00:06.768,0.030177244450896992
1693,00:00:06.772,-0.014877850422635699
1694,00:00:06.776,-0.015414524226798666
1695,00:00:06.78,0.010100514395162458
1696,00:00:06.784,0.01270750758703798
1697,00:00:06.788,0.00977987714577465
1698,00:00:06.792,0.006561388057889435
1699,00:00:06.796,-0.01671710400842135
1700,00:00:06.8,-0.021667050430551168
1701,00:00:06.804,-0.013898844365030485
1702,00:00:06.808,-0.00043261877726762966
1703,00:00:06.812,0.06185517157427968
1704,00:00:06.816,0.01568974333349617
1705,00:00:06.82,-0.02839897712692618
1706,00:00:06.824,-0.03653875435702502
1707,00:00:06.828,-0.026712944381870368
1708,00:00:06.832,-0.0013297400146257106
1709,00:00:06.836,0.02992902137339117
1710,00:00:06.84,0.0829539904370905
1711,00:00:06.844,-0.0010426242370158404
1712,00:00:06.848,-0.06905302075028881
1713,00:00:06.852,-0.04119808791438116
1714,00:00:06.856,0.010293882340192798
1715,00:00:06.86,0.02854097401723259
1716,00:00:06.864,0.01221041847020387
1717,00:00:06.868,-0.00784791796468198
1718,00:00:06.872,0.021851304918527627
1719,00:00:06.876,-0.0034908264060504743
1720,00:00:06.88,-0.03231083741411572
1721,00:00:06.884,-0.008412769529968497
1722,00:00:06.888,0.0221377484267577
1723,00:00:06.892,0.029792414978146633
1724,00:00:06.896,-0.02358972921501847
1725,00:00:06.9,-0.0162623308133334
1726,00:00:06.904,0.003546075429767374
1727,00:00:06.908,0.002380176447331902
1728,00:00:06.912,-0.0029704363550990794
1729,00:00:06.916,0.00690230471082032
1730,00:00:06.92,0.018929170211777112
1731,00:00:06.924,-0.00771245907526464
1732,00:00:06.928,-0.015808931086212438
1733,00:00:06.932,0.00817848136648536
1734,00:00:06.936,-0.0020975376828573644
1735,00:00:06.94,-0.014107316033914678
1736,00:00:06.944,0.004204560886137194
1737,00:00:06.948,0.02564977109432217
1738,00:00:06.952,-0.01993524003773927
1739,00:00:06.956,-0.02273153420537704
1740,00:00:06.96,0.02627526992000634
1741,00:00:06.964,0.04557634051889182
1742,00:00:06.968,-0.011711645638570191
1743,00:00:06.972,-0.04493998480029405
1744,00:00:06.976,-0.03413213277235627
1745,00:00:06.98,0.0039158866275102
1746,00:00:06.984,0.051795172505080644
1747,00:00:06.988,0.026201635599136318
1748,00:00:06.992,-0.017559583327965804
1749,00:00:06.996,-0.019306431757286163
1750,00:00:07,-0.005980104382615533
1751,00:00:07.004,-0.010487116873264299
1752,00:00:07.008,0.005799365229904651
1753,00:00:07.012,0.022830286325188385
1754,00:00:07.016,0.0037568211555480922
1755,00:00:07.02,-0.020131317229243016
1756,00:00:07.024,-0.01860180404037235
1757,00:00:07.028,0.03211938962340357
1758,00:00:07.032,0.019458308815956143
1759,00:00:07.036,-0.0208237241022289
1760,00:00:07.04,-0.02185133332386617
1761,00:00:07.044,-0.007866549305617811
1762,00:00:07.048,-0.0009512652177363602
1763,00:00:07.052,0.014790896326303472
1764,00:00:07.056,0.04537816031370316
1765,00:00:07.06,-0.00872577453992562
1766,00:00:07.064,-0.0274790334515274
1767,00:00:07.068,-0.01288623455911872
1768,00:00:07.072,0.005184231384191704
1769,00:00:07.076,0.0015466752229258494
1770,00:00:07.08,-0.0024653883883729655
1771,00:00:07.084,0.00408182479441166
1772,00:00:07.088,0.01342942507471891
1773,00:00:07.092,-0.0049753452185541495
1774,00:00:07.096,-0.0314071699976921
1775,00:00:07.1,0.02745175181189552
1776,00:00:07.104,0.02330902684479955
1777,00:00:07.108,-0.008051202166825488
1778,00:00:07.112,-0.006822067854955092
1779,00:00:07.116,-0.01150779030285776
1780,00:00:07.12,-0.01622508675791327
1781,00:00:07.124,-0.010090834050060948
1782,00:00:07.128,0.011486196890473413
1783,00:00:07.132,0.02678206283599136
1784,00:00:07.136,0.02171884709969166
1785,00:00:07.14,-0.006976692005991979
1786,00:00:07.144,-0.01616761845070872
1787,00:00:07.148,-0.017179982096422478
1788,00:00:07.152,-0.04071803973056368
1789,00:00:07.156,0.027838040492497388
1790,00:00:07.16,0.056354690110310954
1791,00:00:07.164,-0.02562981448136268
1792,00:00:07.168,-0.014981972286477647
1793,00:00:07.172,0.042413607472553815
1794,00:00:07.176,-0.006411315291188658
1795,00:00:07.18,-0.047702730109449545
1796,00:00:07.184,-0.02791324257850645
1797,00:00:07.188,0.007624654230312445
1798,00:00:07.192,0.028472459409385874
1799,00:00:07.196,0.041175635764375315
1800,00:00:07.2,0.004181229014648123
1801,00:00:07.204,-0.02524011745117605
1802,00:00:07.208,-0.022631348110735444
1803,00:00:07.212,-0.010324648988898835
1804,00:00:07.216,0.02721880946774035
1805,00:00:07.22,0.008492131251841829
1806,00:00:07.224,-0.006697586271911861
1807,00:00:07.228,-0.01085490360856052
1808,00:00:07.232,-0.015142340678721701
1809,00:00:07.236,0.0012982208281755504
1810,00:00:07.24,0.04369465121999386
1811,00:00:07.244,0.01026930822990834
1812,00:00:07.248,-0.033597272355109425
1813,00:00:07.252,-0.03295905841514466
1814,00:00:07.256,-0.007504378678277138
1815,00:00:07.26,0.02599459118209775
1816,00:00:07.264,0.027022256050258882
1817,00:00:07.268,0.0246261532884091
1818,00:00:07.272,-0.00705864321207628
1819,00:00:07.276,-0.04417046159505841
1820,00:00:07.28,-0.016100707929581425
1821,00:00:07.284,0.020924144773744033
1822,00:00:07.288,0.003595454851165421
1823,00:00:07.292,-0.0088933992665261
1824,00:00:07.296,0.014410588424652811
1825,00:00:07.3,0.012743756989948448
1826,00:00:07.304,0.0045857084332965314
1827,00:00:07.308,-0.00370719726197422
1828,00:00:07.312,-0.01626918825786565
1829,00:00:07.316,-0.03289104765281083
1830,00:00:07.32,-0.009777308936463667
1831,00:00:07.324,0.0469909943640232
1832,00:00:07.328,0.042927956674247966
1833,00:00:07.332,-0.01438765379134563
1834,00:00:07.336,-0.031040759175084507
1835,00:00:07.34,-0.03251759771956132
1836,00:00:07.344,0.0130911028245464
1837,00:00:07.348,-0.0021117189899086983
1838,00:00:07.352,0.03323895670473581
1839,00:00:07.356,0.01800005498807874
1840,00:00:07.36,-0.03602707618847492
1841,00:00:07.364,-0.008012065314687785
1842,00:00:07.368,0.0077548164408653905
1843,00:00:07.372,0.020839948534558044
1844,00:00:07.376,0.006123046681750564
1845,00:00:07.38,-0.02494492824189362
1846,00:00:07.384,-0.02425597957335415
1847,00:00:07.388,0.00868298509158194
1848,00:00:07.392,0.023454283131286488
1849,00:00:07.396,0.005978455301374199
1850,00:00:07.4,-0.0002057666424661892
1851,00:00:07.404,-0.012906356016173988
1852,00:00:07.408,0.00044032814912497997
1853,00:00:07.412,0.01126978173851965
1854,00:00:07.416,0.01842996152117844
1855,00:00:07.42,-0.037006694823503467
1856,00:00:07.424,-0.028336125425994407
1857,00:00:07.428,0.0209753713570535
1858,00:00:07.432,0.020181150175630998
1859,00:00:07.436,0.018621055642142916
1860,00:00:07.44,0.0024351960746571396
1861,00:00:07.444,-0.024582384154200547
1862,00:00:07.448,-0.01594201184343547
1863,00:00:07.452,0.007921747572254391
1864,00:00:07.456,0.01357904961332676
1865,00:00:07.46,-0.00016310671344399973
1866,00:00:07.464,-0.014970480697229498
1867,00:00:07.468,-0.01248027966357768
1868,00:00:07.472,0.02292573603335766
1869,00:00:07.476,0.020890900283120625
1870,00:00:07.48,-0.017604125081561547
1871,00:00:07.484,-0.00928818050306288
1872,00:00:07.488,0.02672416763380167
1873,00:00:07.492,-0.0007226722373161443
1874,00:00:07.496,-0.03281624987721442
1875,00:00:07.5,-0.0063924654386937705
1876,00:00:07.504,-0.006557015876751394
1877,00:00:07.508,-0.0023300347384065303
1878,00:00:07.512,0.037760033737868105
1879,00:00:07.516,0.025455685332417488
1880,00:00:07.52,-0.030816953862086
1881,00:00:07.524,-0.0012777913361787362
1882,00:00:07.528,0.008888466167263652
1883,00:00:07.532,-0.01520705455914144
1884,00:00:07.536,-0.011250023264437962
1885,00:00:07.54,-0.00451964302919804
1886,00:00:07.544,0.00877197075169533
1887,00:00:07.548,0.01741690200287848
1888,00:00:07.552,0.005010987690184263
1889,00:00:07.556,-0.008127689441607798
1890,00:00:07.56,-0.0030264020897448098
1891,00:00:07.564,-0.008284496725536886
1892,00:00:07.568,0.006494141183793541
1893,00:00:07.572,0.0002779772039502512
1894,00:00:07.576,-0.007096113315128603
1895,00:00:07.58,0.01395814714487641
1896,00:00:07.584,-0.004643493099138134
1897,00:00:07.588,-0.02005071379244332
1898,00:00:07.592,0.012548853643238541
1899,00:00:07.596,0.02395037468522788
1900,00:00:07.6,0.010870505589991811
1901,00:00:07.604,-0.02391581004485487
1902,00:00:07.608,-0.020786182140000116
1903,00:00:07.612,-0.01393659575842321
1904,00:00:07.616,0.010349716525524862
1905,00:00:07.62,0.02545072112116033
1906,00:00:07.624,-0.004157160059548919
1907,00:00:07.628,0.006437430856749421
1908,00:00:07.632,0.01033288706094029
1909,00:00:07.636,-0.018052432962576873
1910,00:00:07.64,-0.013061116565950218
1911,00:00:07.644,0.0033526661463838528
1912,00:00:07.648,0.023740896023809962
1913,00:00:07.652,0.0014009772567078603
1914,00:00:07.656,-0.0282096130540594
1915,00:00:07.66,-0.02769992570392786
1916,00:00:07.664,0.02847389568341895
1917,00:00:07.668,0.0372675851685926
1918,00:00:07.672,0.010088611859828237
1919,00:00:07.676,-0.04072880418971184
1920,00:00:07.68,-0.0330081754364074
1921,00:00:07.684,0.01868938200641428
1922,00:00:07.688,0.04097154410555954
1923,00:00:07.692,-2.0573614165189484e-05
1924,00:00:07.696,-0.01086592627689239
1925,00:00:07.7,-0.025835551205091217
1926,00:00:07.704,-0.003031709450624474
1927,00:00:07.708,0.007964827585965398
1928,00:00:07.712,0.017645394662395068
1929,00:00:07.716,-0.008631554141175
1930,00:00:07.72,0.004194288514554499
1931,00:00:07.724,-0.014647817239165322
1932,00:00:07.728,0.01339089032262563
1933,00:00:07.732,0.01108342502266173
1934,00:00:07.736,-0.013973265420645479
1935,00:00:07.74,0.01318906201049687
1936,00:00:07.744,-0.012991335242986641
1937,00:00:07.748,-0.028007269836962192
1938,00:00:07.752,0.00985366152599454
1939,00:00:07.756,0.0245776386000216
1940,00:00:07.76,0.014068858432438033
1941,00:00:07.764,-0.019580708933062803
1942,00:00:07.768,0.01626132125966251
1943,00:00:07.772,-0.01211381983011959
1944,00:00:07.776,-0.02834571013227107
1945,00:00:07.78,-0.0017682198667898692
1946,00:00:07.784,0.01413149246945976
1947,00:00:07.788,0.036529260920360664
1948,00:00:07.792,-0.00282204849645496
1949,00:00:07.796,-0.02855737693607807
1950,00:00:07.8,-0.012047609256114807
1951,00:00:07.804,0.022975805157329894
1952,00:00:07.808,0.007839994854293769
1953,00:00:07.812,-0.0007864804938435607
1954,00:00:07.816,-0.029699466889724163
1955,00:00:07.82,-0.01891481829807163
1956,00:00:07.824,0.02676196786342191
1957,00:00:07.828,0.043688058620318784
1958,00:00:07.832,0.0002508055185899104
1959,00:00:07.836,-0.0461410423740745
1960,00:00:07.84,0.006258757101022641
1961,00:00:07.844,0.02374495100229979
1962,00:00:07.848,-0.03638791991397741
1963,00:00:07.852,-0.01388685801066459
1964,00:00:07.856,0.014812222681939567
1965,00:00:07.86,0.009789324831217529
1966,00:00:07.864,0.013682556804269549
1967,00:00:07.868,0.025491531006991797
1968,00:00:07.872,0.01611922541633248
1969,00:00:07.876,-0.04810606350656593
1970,00:00:07.88,-0.02082597929984326
1971,00:00:07.884,-0.01122814323753118
1972,00:00:07.888,0.02541333739645781
1973,00:00:07.892,0.01710878824815153
1974,00:00:07.896,-0.0011970940977334959
1975,00:00:07.9,-0.012599901994690299
1976,00:00:07.904,0.005117388718645097
1977,00:00:07.908,-0.01516795718634969
1978,00:00:07.912,0.00792570319026705
1979,00:00:07.916,0.020773394498974092
1980,00:00:07.92,-0.02195124950958418
1981,00:00:07.924,0.012156502110883588
1982,00:00:07.928,0.02034347422886644
1983,00:00:07.932,-0.00478075467981398
1984,00:00:07.936,-0.03278312599286429
1985,00:00:07.94,-0.023273095488548314
1986,00:00:07.944,0.008363284054212272
1987,00:00:07.948,0.014216268202289939
1988,00:00:07.952,0.028885180829092912
1989,00:00:07.956,0.01560818613506852
1990,00:00:07.96,-0.009130707243457421
1991,00:00:07.964,-0.03087287745438522
1992,00:00:07.968,-0.02555951615795492
1993,00:00:07.972,0.011911953290109564
1994,00:00:07.976,0.044370142510160734
1995,00:00:07.98,0.00527194701135159
1996,00:00:07.984,-0.01464380184188485
1997,00:00:07.988,-0.014860806055367028
1998,00:00:07.992,-0.02179400622844697
1999,00:00:07.996,0.00171227566897869
2000,00:00:08,0.01526590390130874
2001,00:00:08.004,0.01924867567140611
2002,00:00:08.008,0.000991511507891122
2003,00:00:08.012,-0.01547440979629754
2004,00:00:08.016,-0.0080184661783278
2005,00:00:08.02,0.01446824113372708
2006,00:00:08.024,0.00518146890681237
2007,00:00:08.028,-0.014042653143405913
2008,00:00:08.032,0.0031292714411392812
2009,00:00:08.036,0.01574052451178429
2010,00:00:08.04,-0.012175608717370768
2011,00:00:08.044,-0.02679994003847243
2012,00:00:08.048,-0.006037587590981268
2013,00:00:08.052,0.037847657105885384
2014,00:00:08.056,0.007007441658060997
2015,00:00:08.06,-0.006729561777319763
2016,00:00:08.064,0.007869109744206071
2017,00:00:08.068,-0.0041999269160441985
2018,00:00:08.072,-0.014754087344044844
2019,00:00:08.076,-0.011292015202343419
2020,00:00:08.08,0.00802407972514629
2021,00:00:08.084,0.01378813898190855
2022,00:00:08.088,-0.020412717945873817
2023,00:00:08.092,-0.024154546670615694
2024,00:00:08.096,0.028986276593059357
2025,00:00:08.1,0.05909034609794619
2026,00:00:08.104,-0.01498262141831219
2027,00:00:08.108,-0.036857516504824134
2028,00:00:08.112,-0.02001671539619564
2029,00:00:08.116,-0.0009256730554625396
2030,00:00:08.12,0.01018026145175099
2031,00:00:08.124,0.01382541400380433
2032,00:00:08.128,0.0073300198419019545
2033,00:00:08.132,-0.01066445629112422
2034,00:00:08.136,0.009419929236173642
2035,00:00:08.14,0.009639659663662314
2036,00:00:08.144,-0.01936786016449337
2037,00:00:08.148,-0.01959146372973918
2038,00:00:08.152,0.0018424234003759973
2039,00:00:08.156,0.010979063808917998
2040,00:00:08.16,0.016696240287274167
2041,00:00:08.164,0.02007659524679183
2042,00:00:08.168,0.01457018998917189
2043,00:00:08.172,-0.043256147531792535
2044,00:00:08.176,-0.043808848597109346
2045,00:00:08.18,0.00906622764887289
2046,00:00:08.184,0.024053955683484698
2047,00:00:08.188,0.0372046364936978
2048,00:00:08.192,0.01778498210478573
2049,00:00:08.196,-0.03729895129799843
2050,00:00:08.2,-0.03339743893593555
2051,00:00:08.204,-0.0010768213542178304
2052,00:00:08.208,0.01324857934378092
2053,00:00:08.212,0.01205321750603615
2054,00:00:08.216,0.02875331748145985
2055,00:00:08.22,0.011918464675545701
2056,00:00:08.224,-0.03538784920237962
2057,00:00:08.228,-0.032013383461162455
2058,00:00:08.232,0.0030642268247902792
2059,00:00:08.236,0.013146659126505207
2060,00:00:08.24,0.034109727479517425
2061,00:00:08.244,0.01698172488249838
2062,00:00:08.248,-0.0326850161654875
2063,00:00:08.252,-0.021376367891207348
2064,00:00:08.256,0.004449337415280752
2065,00:00:08.26,-8.333893492817879e-05
2066,00:00:08.264,-0.014559838920831708
2067,00:00:08.268,0.028519885614514323
2068,00:00:08.272,0.026463158894330253
2069,00:00:08.276,0.0006771578337065867
2070,00:00:08.28,-0.033498932723887265
2071,00:00:08.284,-0.015551872784271822
2072,00:00:08.288,0.010280388232786205
2073,00:00:08.292,-0.005659482674673159
2074,00:00:08.296,0.0053070064168423406
2075,00:00:08.3,0.02308295015245675
2076,00:00:08.304,0.0151204578578472
2077,00:00:08.308,-0.00871929829008877
2078,00:00:08.312,-0.02627123892307278
2079,00:00:08.316,-0.01858462346717715
2080,00:00:08.32,0.011882842518389218
2081,00:00:08.324,0.018404344096779823
2082,00:00:08.328,-0.01602602074854081
2083,00:00:08.332,0.007293767119335819
2084,00:00:08.336,0.009549629583489152
2085,00:00:08.34,-0.008835041197016839
2086,00:00:08.344,0.028177287545986498
2087,00:00:08.348,-0.0046049446100369104
2088,00:00:08.352,-0.04874186916276814
2089,00:00:08.356,-0.02040789765305815
2090,00:00:08.36,0.0593371680006385
2091,00:00:08.364,0.05932832718826825
2092,00:00:08.368,-0.03467212896794083
2093,00:00:08.372,-0.05437332950532432
2094,00:00:08.376,-0.04212460131384435
2095,00:00:08.38,0.02250631665810946
2096,00:00:08.384,0.02758626081049442
2097,00:00:08.388,-0.00244119184208103
2098,00:00:08.392,0.03792485524900252
2099,00:00:08.396,0.042680346639826824
2100,00:00:08.4,-0.02948150958400221
2101,00:00:08.404,-0.04672905371990057
2102,00:00:08.408,-0.02132321754470471
2103,00:00:08.412,0.00331994146108628
2104,00:00:08.416,0.0050896918401122085
2105,00:00:08.42,0.008310714270919568
2106,00:00:08.424,0.031737036071717795
2107,00:00:08.428,-0.01110053993761545
2108,00:00:08.432,-0.004782172036357229
2109,00:00:08.436,0.00117452722042799
2110,00:00:08.44,0.01287942961789668
2111,00:00:08.444,-0.0071220227982848865
2112,00:00:08.448,-0.01392757194116707
2113,00:00:08.452,-0.009640768665121867
2114,00:00:08.456,0.0048623122274876005
2115,00:00:08.46,-0.005077071546111255
2116,00:00:08.464,0.02060264488682148
2117,00:00:08.468,0.010960045154206458
2118,00:00:08.472,-0.003501692553982139
2119,00:00:08.476,-0.02717625955119726
2120,00:00:08.48,-0.020522159175016028
2121,00:00:08.484,0.02459006523713477
2122,00:00:08.488,0.04245554469525814
2123,00:00:08.492,0.0001364028139505551
2124,00:00:08.496,-0.03728996776044372
2125,00:00:08.5,-0.01344244717620313
2126,00:00:08.504,0.019054600270465013
2127,00:00:08.508,-0.01107283052988355
2128,00:00:08.512,0.0030413975646297314
2129,00:00:08.516,-0.0023642010055482396
2130,00:00:08.52,0.0032919905761445933
2131,00:00:08.524,0.029465899686329088
2132,00:00:08.528,-0.012304858217248655
2133,00:00:08.532,-0.030920821242034408
2134,00:00:08.536,0.011007584631443018
2135,00:00:08.54,0.01409500616136939
2136,00:00:08.544,-0.0015201683854684667
2137,00:00:08.548,-0.003934757085517049
2138,00:00:08.552,0.010546239558607354
2139,00:00:08.556,-0.0011807773262262388
2140,00:00:08.56,-0.020569586253259307
2141,00:00:08.564,-5.3270021453499794e-05
2142,00:00:08.568,-0.012279909104108781
2143,00:00:08.572,-0.003630937862908466
2144,00:00:08.576,0.05521034845151005
2145,00:00:08.58,0.04375377576798204
2146,00:00:08.584,-0.04026972013525659
2147,00:00:08.588,-0.06335040833801037
2148,00:00:08.592,-0.043164355214685195
2149,00:00:08.596,0.01589941652491688
2150,00:00:08.6,0.07402997394092387
2151,00:00:08.604,0.040881757158785996
2152,00:00:08.608,-0.011647526931483302
2153,00:00:08.612,-0.01841444522142406
2154,00:00:08.616,-0.05007466580718761
2155,00:00:08.62,-0.020880666095763455
2156,00:00:08.624,0.030353169655427337
2157,00:00:08.628,0.02236179937608542
2158,00:00:08.632,0.005067121470347038
2159,00:00:08.636,-0.02091330179246147
2160,00:00:08.64,-0.00753471441566944
2161,00:00:08.644,0.0033460504491813533
2162,00:00:08.648,0.04106475727166981
2163,00:00:08.652,0.024993834784254442
2164,00:00:08.656,-0.022900759009644337
2165,00:00:08.66,-0.06748033256735653
2166,00:00:08.664,-0.02585328463464968
2167,00:00:08.668,0.039737998507917
2168,00:00:08.672,0.048094903817400336
2169,00:00:08.676,-0.008847883189446296
2170,00:00:08.68,-0.01200986909680064
2171,00:00:08.684,-0.00911887979600579
2172,00:00:08.688,-0.011891351779922841
2173,00:00:08.692,0.00496272975578904
2174,00:00:08.696,0.03896812489256263
2175,00:00:08.7,-0.00592239759862423
2176,00:00:08.704,-0.009952711163350612
2177,00:00:08.708,-0.025309728924185048
2178,00:00:08.712,-0.0038390145637095
2179,00:00:08.716,0.013061726232990619
2180,00:00:08.72,-0.005424348404631009
2181,00:00:08.724,0.0004491547588259103
2182,00:00:08.728,0.015408736246172384
2183,00:00:08.732,0.0206201681867242
2184,00:00:08.736,-0.001681861001998168
2185,00:00:08.74,-0.0335773429833353
2186,00:00:08.744,-0.01836454309523103
2187,00:00:08.748,0.0035869593266397697
2188,00:00:08.752,0.00266559346346184
2189,00:00:08.756,0.02419437421485783
2190,00:00:08.76,0.03534455908993548
2191,00:00:08.764,0.004542744252830752
2192,00:00:08.768,-0.028909015003591727
2193,00:00:08.772,-0.04934211820363994
2194,00:00:08.776,-0.01156367117073388
2195,00:00:08.78,0.029442420694977
2196,00:00:08.784,0.0302007868885994
2197,00:00:08.788,0.015464934986084701
2198,00:00:08.792,-0.013915901072323319
2199,00:00:08.796,-0.02685615373775364
2200,00:00:08.8,-0.004652140429243438
2201,00:00:08.804,0.014554388355463712
2202,00:00:08.808,0.02542784973047669
2203,00:00:08.812,-0.003884288482368
2204,00:00:08.816,-0.036561335436999784
2205,00:00:08.82,-0.010318976594135151
2206,00:00:08.824,0.041889008745783995
2207,00:00:08.828,0.01651739492081106
2208,00:00:08.832,-0.038272870355285725
2209,00:00:08.836,-0.04354831250384452
2210,00:00:08.84,0.030209777876734737
2211,00:00:08.844,0.05184513446874911
2212,00:00:08.848,0.01114633074030278
2213,00:00:08.852,-0.0370563864707947
2214,00:00:08.856,-0.02248357154894619
2215,00:00:08.86,-0.01327501633204516
2216,00:00:08.864,0.016967763251159337
2217,00:00:08.868,0.036115086171776105
2218,00:00:08.872,0.0124671459197998
2219,00:00:08.876,-0.042560530593618744
2220,00:00:08.88,-0.0010878299362957508
2221,00:00:08.884,0.00020278901502024035
2222,00:00:08.888,0.0006886741612106492
2223,00:00:08.892,0.00371464272029697
2224,00:00:08.896,-0.0016605388373136494
2225,00:00:08.9,0.01310270873364061
2226,00:00:08.904,0.01403166027739644
2227,00:00:08.908,-0.011708877485943951
2228,00:00:08.912,-0.016523394486284856
2229,00:00:08.916,-0.00925497699063271
2230,00:00:08.92,-0.0036860499531030586
2231,00:00:08.924,0.010563145275227726
2232,00:00:08.928,0.0275123188039288
2233,00:00:08.932,0.004098934819921849
2234,00:00:08.936,-0.014843129320070089
2235,00:00:08.94,-0.02196973492391411
2236,00:00:08.944,0.004753076107590457
2237,00:00:08.948,0.0027578542940318567
2238,00:00:08.952,0.0024173792917281424
2239,00:00:08.956,0.01686325907940047
2240,00:00:08.96,-0.00989331066375598
2241,00:00:08.964,0.002098878845572468
2242,00:00:08.968,0.00010859849862754692
2243,00:00:08.972,-0.0073773802723735606
2244,00:00:08.976,-0.0019879002938978313
2245,00:00:08.98,-0.009357881310279486
2246,00:00:08.984,0.01814581151120365
2247,00:00:08.988,0.010229668579995632
2248,00:00:08.992,-0.015374948037788272
2249,00:00:08.996,-0.003767862915992749
2250,00:00:09,-0.009074323112145071
2251,00:00:09.004,0.00818725321732927
2252,00:00:09.008,0.009726565098389983
2253,00:00:09.012,0.01899852347560231
2254,00:00:09.016,0.0016180404927581497
2255,00:00:09.02,-0.03137181454803796
2256,00:00:09.024,-0.01006616838276383
2257,00:00:09.028,-0.00351486806175671
2258,00:00:09.032,-0.0071924026124179
2259,00:00:09.036,0.019132342189550358
2260,00:00:09.04,0.03233078937046229
2261,00:00:09.044,0.0175206474377774
2262,00:00:09.048,-0.024346405640244522
2263,00:00:09.052,-0.028226095717400375
2264,00:00:09.056,-0.01805627428984738
2265,00:00:09.06,0.004022202687337999
2266,00:00:09.064,0.037146034184843295
2267,00:00:09.068,-0.0019270228222012607
2268,00:00:09.072,-0.02117038657888768
2269,00:00:09.076,0.01362810755381361
2270,00:00:09.08,0.029371169628575448
2271,00:00:09.084,-0.0020049021113663903
2272,00:00:09.088,-0.04890288671595047
2273,00:00:09.092,-0.023398711695335854
2274,00:00:09.096,0.00971736386418343
2275,00:00:09.1,0.04575864522485066
2276,00:00:09.104,0.014147237176075592
2277,00:00:09.108,-0.01555315701989455
2278,00:00:09.112,-0.01923982286825776
2279,00:00:09.116,0.004657559795305138
2280,00:00:09.12,0.014337583212181908
2281,00:00:09.124,-0.008821390569210065
2282,00:00:09.128,-0.0030104146571829898
2283,00:00:09.132,0.0040793420048430605
2284,00:00:09.136,-0.015647350111976252
2285,00:00:09.14,-0.01169817149639129
2286,00:00:09.144,0.0042932845899485966
2287,00:00:09.148,0.03209004574455317
2288,00:00:09.152,0.011293297084193956
2289,00:00:09.156,-0.014463954896200448
2290,00:00:09.16,0.005252167349681251
2291,00:00:09.164,-0.009885791689157488
2292,00:00:09.168,-0.01989408221561466
2293,00:00:09.172,-0.004074619522725699
2294,00:00:09.176,-0.0029660215950570966
2295,00:00:09.18,0.01622575428336859
2296,00:00:09.184,0.02567637199535968
2297,00:00:09.188,0.018851027358323294
2298,00:00:09.192,-0.028802258893847483
2299,00:00:09.196,-0.030097196926362813
2300,00:00:09.2,0.0069169180933386105
2301,00:00:09.204,-0.00316012836992742
2302,00:00:09.208,0.0025463765487074783
2303,00:00:09.212,0.02871467825025329
2304,00:00:09.216,-0.00737614859826863
2305,00:00:09.22,-0.0033136389683932005
2306,00:00:09.224,0.004020490916445861
2307,00:00:09.228,-0.00974445731844753
2308,00:00:09.232,-0.004077448509633531
2309,00:00:09.236,0.004873993108049039
2310,00:00:09.24,-0.00103912479244173
2311,00:00:09.244,-0.008861032314598552
2312,00:00:09.248,0.006795500637963411
2313,00:00:09.252,0.02670934982597832
2314,00:00:09.256,-0.01234389096498489
2315,00:00:09.26,-0.030630127876065692
2316,00:00:09.264,-0.0033979297149926493
2317,00:00:09.268,0.04665727028623224
2318,00:00:09.272,0.0006103551713749714
2319,00:00:09.276,-0.03348901052959269
2320,00:00:09.28,-0.02031422639265654
2321,00:00:09.284,0.03931108629330988
2322,00:00:09.288,0.012775933195371186
2323,00:00:09.292,-0.0245047695934772
2324,00:00:09.296,-0.00500416103750467
2325,00:00:09.3,0.0002621083986014106
2326,00:00:09.304,0.011731216916814438
2327,00:00:09.308,-0.016581052819674348
2328,00:00:09.312,0.007566502084955571
2329,00:00:09.316,0.011591011250857264
2330,00:00:09.32,-0.00886291998904199
2331,00:00:09.324,0.0121921980753541
2332,00:00:09.328,-0.002523552771890533
2333,00:00:09.332,-0.02155520627275109
2334,00:00:09.336,0.0127166046295315
2335,00:00:09.34,-0.006332042918074882
2336,00:00:09.344,0.009348259307444099
2337,00:00:09.348,0.031144900363869923
2338,00:00:09.352,-0.01609546528197827
2339,00:00:09.356,-0.04481980795389967
2340,00:00:09.36,-0.014116882521193471
2341,00:00:09.364,0.02240615431219338
2342,00:00:09.368,0.04309913888573647
2343,00:00:09.372,0.006584756076335899
2344,00:00:09.376,-0.017439884461055023
2345,00:00:09.38,-0.002548989286879121
2346,00:00:09.384,-0.002684873063117269
2347,00:00:09.388,-0.033999760635197135
2348,00:00:09.392,-0.012503415928222239
2349,00:00:09.396,0.02694012247957286
2350,00:00:09.4,0.027054037200287012
2351,00:00:09.404,0.00879648281261326
2352,00:00:09.408,-0.019462479744106514
2353,00:00:09.412,0.0009924035111907896
2354,00:00:09.416,0.0017589591443538635
2355,00:00:09.42,-0.027065983624197577
2356,00:00:09.424,0.009007056476548321
2357,00:00:09.428,0.021802414674311852
2358,00:00:09.432,0.006661758292466409
2359,00:00:09.436,-0.0158979145344347
2360,00:00:09.44,-0.02481015538796776
2361,00:00:09.444,-0.0046685170382261285
2362,00:00:09.448,0.018664073199033737
2363,00:00:09.452,0.0315865750890225
2364,00:00:09.456,0.021637623314745762
2365,00:00:09.46,-0.02354439161717891
2366,00:00:09.464,-0.03261070046573875
2367,00:00:09.468,-0.02104397024959325
2368,00:00:09.472,0.003987344243796542
2369,00:00:09.476,0.02866212720982729
2370,00:00:09.48,0.03504452155902982
2371,00:00:09.484,-0.01662913159816531
2372,00:00:09.488,-0.037266372091835365
2373,00:00:09.492,-0.00338094681501389
2374,00:00:09.496,0.00464535364881158
2375,00:00:09.5,0.01368289242964235
2376,00:00:09.504,0.052870798856020015
2377,00:00:09.508,-0.012458197074010968
2378,00:00:09.512,-0.04430091800168154
2379,00:00:09.516,-0.01577931013889609
2380,00:00:09.52,0.003499759768601505
2381,00:00:09.524,0.011511812452226869
2382,00:00:09.528,0.006470582811743949
2383,00:00:09.532,0.013474441249854863
2384,00:00:09.536,-0.00898247526492923
2385,00:00:09.54,-0.010608813958242544
2386,00:00:09.544,0.01488254591822624
2387,00:00:09.548,0.01631256402470171
2388,00:00:09.552,-0.02187162928748876
2389,00:00:09.556,-0.01821292890235782
2390,00:00:09.56,0.015855220728553807
2391,00:00:09.564,0.005245181149803102
2392,00:00:09.568,-0.01322193094529214
2393,00:00:09.572,0.011272293399088109
2394,00:00:09.576,0.01832158863544463
2395,00:00:09.58,-0.01917671656701716
2396,00:00:09.584,-0.0188735860865563
2397,00:00:09.588,0.01573738525621589
2398,00:00:09.592,-0.00646580662578344
2399,00:00:09.596,-0.000501385540701448
2400,00:00:09.6,0.023604664485901608
2401,00:00:09.604,0.017234346596524158
2402,00:00:09.608,-0.02639488782733681
2403,00:00:09.612,-0.036137175280600814
2404,00:00:09.616,0.01817956240847711
2405,00:00:09.62,0.03728263359516864
2406,00:00:09.624,-0.01097369333729149
2407,00:00:09.628,-0.02649493841454383
2408,00:00:09.632,-0.0072833790909498895
2409,00:00:09.636,0.010004201903939249
2410,00:00:09.64,0.016697083716280717
2411,00:00:09.644,0.0177182536572218
2412,00:00:09.648,-0.023035740479826892
2413,00:00:09.652,-0.005799017817480491
2414,00:00:09.656,-0.0034541526983957738
2415,00:00:09.66,-0.00844903965480626
2416,00:00:09.664,0.01868751784786582
2417,00:00:09.668,0.03114389197435229
2418,00:00:09.672,-0.02867393242195252
2419,00:00:09.676,-0.033936521969735595
2420,00:00:09.68,0.02596108196303252
2421,00:00:09.684,0.01234181167092175
2422,00:00:09.688,0.00035582378040999
2423,00:00:09.692,-0.013826569775119391
2424,00:00:09.696,9.410618804394982e-05
2425,00:00:09.7,-0.002673561946721744
2426,00:00:09.704,0.01877310860436411
2427,00:00:09.708,0.0037575968308374208
2428,00:00:09.712,-0.020680176559835672
2429,00:00:09.716,-0.007255831255406523
2430,00:00:09.72,-0.0012156759621575492
2431,00:00:09.724,0.00250082090497017
2432,00:00:09.728,0.02101385104469955
2433,00:00:09.732,0.011457812855951491
2434,00:00:09.736,-0.00688872183673085
2435,00:00:09.74,-0.017025111243128728
2436,00:00:09.744,-0.0180644525680691
2437,00:00:09.748,-0.006317971798125648
2438,00:00:09.752,0.03697605244815352
2439,00:00:09.756,0.02774250227957965
2440,00:00:09.76,-0.02421795763075351
2441,00:00:09.764,-0.03150037210434681
2442,00:00:09.768,-0.011386224534362558
2443,00:00:09.772,0.02662165899528187
2444,00:00:09.776,0.01252894676690634
2445,00:00:09.78,-0.032279769424349083
2446,00:00:09.784,0.02031460450962186
2447,00:00:09.788,0.0637709693983197
2448,00:00:09.792,-0.02502813981845975
2449,00:00:09.796,-0.07177054043859243
2450,00:00:09.8,-0.0018015256500802932
2451,00:00:09.804,0.011256755096837882
2452,00:00:09.808,0.01918304424907546
2453,00:00:09.812,0.03283047163859017
2454,00:00:09.816,0.005675422493368382
2455,00:00:09.82,-0.03323812503367659
2456,00:00:09.824,-0.02008762583136555
2457,00:00:09.828,0.018111872865119977
2458,00:00:09.832,0.00997914932668209
2459,00:00:09.836,0.008954986929893499
2460,00:00:09.84,-0.010204636026173832
2461,00:00:09.844,-0.013291172683238971
2462,00:00:09.848,-0.00688969925977289
2463,00:00:09.852,-0.009175949264317751
2464,00:00:09.856,0.011822728440165516
2465,00:00:09.86,0.02294670790433884
2466,00:00:09.864,0.014805039507336921
2467,00:00:09.868,-0.024311059620231407
2468,00:00:09.872,0.03066555550321942
2469,00:00:09.876,-0.002166107326047495
2470,00:00:09.88,-0.05075121391564601
2471,00:00:09.884,-0.027106616063974753
2472,00:00:09.888,0.017684436810668537
2473,00:00:09.892,0.032194283092394436
2474,00:00:09.896,0.0022430818062275804
2475,00:00:09.9,0.01667645410634576
2476,00:00:09.904,-0.005231750663369922
2477,00:00:09.908,-0.0148545186966658
2478,00:00:09.912,0.00441547739319503
2479,00:00:09.916,0.01143196551129219
2480,00:00:09.92,-0.012255274225026369
2481,00:00:09.924,-0.019990172702819085
2482,00:00:09.928,-0.01831590902293101
2483,00:00:09.932,0.0006596916355192687
2484,00:00:09.936,0.04804310249164702
2485,00:00:09.94,0.0252998424693942
2486,00:00:09.944,-0.004672088049119338
2487,00:00:09.948,-0.02696631336584682
2488,00:00:09.952,-0.03316341910976908
2489,00:00:09.956,-0.008646501693874594
2490,00:00:09.96,0.002126362342096401
2491,00:00:09.964,0.03524723090231422
2492,00:00:09.968,0.0326730821980164
2493,00:00:09.972,-0.011794378049671652
2494,00:00:09.976,-0.025900820735842038
2495,00:00:09.98,-0.0062574865005444805
2496,00:00:09.984,0.0026731289690360427
2497,00:00:09.988,-0.0037879530573263704
2498,00:00:09.992,-0.005864906357601291
2499,00:00:09.996,0.0061816270463168795
2500,00:00:10,0.02845159068237989
2501,00:00:10.004,-0.00701399240642786
2502,00:00:10.008,-0.01756873576960065
2503,00:00:10.012,-0.005773336411948555
2504,00:00:10.016,0.005069879654911344
2505,00:00:10.02,0.01234705036040395
2506,00:00:10.024,-0.01115918252617121
2507,00:00:10.028,0.0027194590074941594
2508,00:00:10.032,0.00813143141567707
2509,00:00:10.036,0.0012904635004815685
2510,00:00:10.04,-0.0066599339479580435
2511,00:00:10.044,-0.0058631142601370785
2512,00:00:10.048,-0.00810796755831685
2513,00:00:10.052,0.00333981355652213
2514,00:00:10.056,-0.0006181750213727355
2515,00:00:10.06,0.01399571352521889
2516,00:00:10.064,0.02726082410663364
2517,00:00:10.068,-0.010299462999682867
2518,00:00:10.072,-0.037440178915858206
2519,00:00:10.076,-0.007099178561475129
2520,00:00:10.08,0.0261601915117353
2521,00:00:10.084,-0.004868264622928108
2522,00:00:10.088,-0.011035189148969952
2523,00:00:10.092,0.009841261198744148
2524,00:00:10.096,0.018698866711929482
2525,00:00:10.1,0.005956514738500111
2526,00:00:10.104,-0.01723625394515691
2527,00:00:10.108,-0.012184642662759891
2528,00:00:10.112,-0.003469819446763731
2529,00:00:10.116,-0.013467213837429878
2530,00:00:10.12,0.0068286792957223934
2531,00:00:10.124,0.03975689434446398
2532,00:00:10.128,0.021416443189082156
2533,00:00:10.132,-0.03054106282070277
2534,00:00:10.136,-0.026129321893677088
2535,00:00:10.14,-0.008584791212342681
2536,00:00:10.144,0.00382288545370102
2537,00:00:10.148,0.00929494644515217
2538,00:00:10.152,0.00457086972892284
2539,00:00:10.156,0.02127463789656761
2540,00:00:10.16,0.010792938795930232
2541,00:00:10.164,-0.02094999700784685
2542,00:00:10.168,-0.01768699739477593
2543,00:00:10.172,0.014226155122742022
2544,00:00:10.176,-0.001764050910423977
2545,00:00:10.18,-0.01806173077784481
2546,00:00:10.184,0.00046939565800130974
2547,00:00:10.188,0.01021597115322951
2548,00:00:10.192,0.010313449311070116
2549,00:00:10.196,0.0029802639037370664
2550,00:00:10.2,0.019950528512708864
2551,00:00:10.204,-0.01601987343747165
2552,00:00:10.208,-0.02499445434659712
2553,00:00:10.212,-0.004399914294481281
2554,00:00:10.216,-0.005125160678289829
2555,00:00:10.22,0.00921911021578126
2556,00:00:10.224,0.030248227485571905
2557,00:00:10.228,0.018716367660090324
2558,00:00:10.232,-0.02193863573484125
2559,00:00:10.236,-0.015441485433257157
2560,00:00:10.24,-0.009623589110560708
2561,00:00:10.244,0.009854544652625915
2562,00:00:10.248,-0.002419252065010368
2563,00:00:10.252,-0.001616940338863056
2564,00:00:10.256,0.010121443774551138
2565,00:00:10.26,-0.00023760029580443707
2566,00:00:10.264,-0.007620140328072019
2567,00:00:10.268,-0.03194846760015936
2568,00:00:10.272,0.01764939742861316
2569,00:00:10.276,0.06830635920050546
2570,00:00:10.28,0.0066138012334704295
2571,00:00:10.284,-0.046498468844220035
2572,00:00:10.288,-0.06045845639891918
2573,00:00:10.292,-0.0005067087477073059
2574,00:00:10.296,0.03984792879782617
2575,00:00:10.3,0.02892070269444961
2576,00:00:10.304,0.0037933217827230705
2577,00:00:10.308,-0.0017954993527382703
2578,00:00:10.312,-0.01611644471995535
2579,00:00:10.316,-0.007712592137977479
2580,00:00:10.32,0.005752884462708614
2581,00:00:10.324,-0.01544551644474268
2582,00:00:10.328,0.009899542201310401
2583,00:00:10.332,0.00027211429551244086
2584,00:00:10.336,-0.0118361550848931
2585,00:00:10.34,0.009942738513927908
2586,00:00:10.344,0.032772534643299905
2587,00:00:10.348,0.0021577477455139195
2588,00:00:10.352,-0.01546517573297026
2589,00:00:10.356,-0.046607884345576174
2590,00:00:10.36,0.0030372776091098764
2591,00:00:10.364,0.019480958115309442
2592,00:00:10.368,0.01648551295511427
2593,00:00:10.372,-0.01020330298342742
2594,00:00:10.376,0.0009435950778424688
2595,00:00:10.38,0.014452572213485828
2596,00:00:10.384,0.011485041584819559
2597,00:00:10.388,-0.007238095393404368
2598,00:00:10.392,-0.01649232616182417
2599,00:00:10.396,-0.0029896481428295396
2600,00:00:10.4,-0.01613686257041986
2601,00:00:10.404,0.008243422111263499
2602,00:00:10.408,-0.0033797898795455694
2603,00:00:10.412,0.005101607879623771
2604,00:00:10.416,0.02317407680675385
2605,00:00:10.42,0.030192052479833358
2606,00:00:10.424,-0.019991058390587575
2607,00:00:10.428,-0.03965651476755741
2608,00:00:10.432,-0.02591685246443379
2609,00:00:10.436,0.016939577180892278
2610,00:00:10.44,0.01874756936740596
2611,00:00:10.444,0.02328366832807663
2612,00:00:10.448,-0.007531940034823499
2613,00:00:10.452,0.00394503585994244
2614,00:00:10.456,0.0086416738340631
2615,00:00:10.46,-0.01720567094162104
2616,00:00:10.464,-0.01802063826471571
2617,00:00:10.468,-0.0031336806714534794
2618,00:00:10.472,0.012170791858807189
2619,00:00:10.476,-0.006041616084985431
2620,00:00:10.48,-0.018264316022396063
2621,00:00:10.484,0.0500753503292799
2622,00:00:10.488,0.011563737643882648
2623,00:00:10.492,-0.01561117498204112
2624,00:00:10.496,-0.01999288133811205
2625,00:00:10.5,-0.026353148627094973
2626,00:00:10.504,-0.0059872232377529205
2627,00:00:10.508,0.0372155756922439
2628,00:00:10.512,0.038135602138936575
2629,00:00:10.516,-0.016550141386687752
2630,00:00:10.52,-0.024412759114056878
2631,00:00:10.524,-0.0257236100733281
2632,00:00:10.528,-0.009094021632336082
2633,00:00:10.532,0.020130163989961147
2634,00:00:10.536,0.02031347504816948
2635,00:00:10.54,0.025715710668009657
2636,00:00:10.544,0.0031500977929681613
2637,00:00:10.548,-0.03181842190679162
2638,00:00:10.552,-0.01824413542635736
2639,00:00:10.556,0.0016279993578791696
2640,00:00:10.56,0.0033226406158064483
2641,00:00:10.564,-5.0077214837069076e-05
2642,00:00:10.568,0.016136065067257715
2643,00:00:10.572,0.0023181771975941965
2644,00:00:10.576,-0.0026137623135582596
2645,00:00:10.58,-0.00737040548119694
2646,00:00:10.584,-0.00021558534353972045
2647,00:00:10.588,0.014934292994439588
2648,00:00:10.592,0.00688365474343299
2649,00:00:10.596,-0.018830805784091333
2650,00:00:10.6,-0.02500711195170883
2651,00:00:10.604,0.0076351575553417214
2652,00:00:10.608,0.00661731883883477
2653,00:00:10.612,0.01146656624041497
2654,00:00:10.616,0.01226426311768591
2655,00:00:10.62,-0.0063551114872098
2656,00:00:10.624,-0.0025960359489545295
2657,00:00:10.628,0.008245831821113828
2658,00:00:10.632,-0.0077489772811532
2659,00:00:10.636,-0.005269280169159169
2660,00:00:10.64,-0.016713034419808568
2661,00:00:10.644,0.009836660814471541
2662,00:00:10.648,0.014616211745305882
2663,00:00:10.652,-0.008863451192155501
2664,00:00:10.656,-0.0019659190438687797
2665,00:00:10.66,-0.0024707493139430863
2666,00:00:10.664,7.883831858634081e-05
2667,00:00:10.668,0.0001894552260637292
2668,00:00:10.672,0.01725055591668935
2669,00:00:10.676,0.00423735519871116
2670,00:00:10.68,-0.008423736275290136
2671,00:00:10.684,-0.003283741767518221
2672,00:00:10.688,0.007756449107546354
2673,00:00:10.692,-0.02465264778584243
2674,00:00:10.696,-0.02680434612557288
2675,00:00:10.7,0.015682385652326054
2676,00:00:10.704,0.03212007461115717
2677,00:00:10.708,0.03163916873745615
2678,00:00:10.712,0.0006935660494491484
2679,00:00:10.716,-0.035860692150890876
2680,00:00:10.72,-0.04382920591160648
2681,00:00:10.724,-0.00452182930894196
2682,00:00:10.728,0.04331134282983836
2683,00:00:10.732,0.00935357715934515
2684,00:00:10.736,0.01635108725167809
2685,00:00:10.74,0.0009314485068898657
2686,00:00:10.744,-0.026591880712658143
2687,00:00:10.748,-0.023866345640271854
2688,00:00:10.752,-0.024169059557607384
2689,00:00:10.756,0.03786888904869559
2690,00:00:10.76,0.06954828929156073
2691,00:00:10.764,-0.00117395026609302
2692,00:00:10.768,-0.05201787222176796
2693,00:00:10.772,-0.038353982847184
2694,00:00:10.776,-0.01566862501204014
2695,00:00:10.78,0.012528464227216311
2696,00:00:10.784,0.03343733400106431
2697,00:00:10.788,0.02990572131238875
2698,00:00:10.792,0.005313017405569548
2699,00:00:10.796,-0.005153362988494338
2700,00:00:10.8,-0.0407850007759408
2701,00:00:10.804,-0.0260903532616794
2702,00:00:10.808,0.03354830394528106
2703,00:00:10.812,0.02119062351994219
2704,00:00:10.816,0.0018626984674483607
2705,00:00:10.82,-0.015906813088804518
2706,00:00:10.824,-0.015548280905932186
2707,00:00:10.828,-0.012188146822154522
2708,00:00:10.832,0.015888413414359058
2709,00:00:10.836,0.03246804745867845
2710,00:00:10.84,0.03183102887123828
2711,00:00:10.844,-0.04490917176008224
2712,00:00:10.848,-0.042198579758405685
2713,00:00:10.852,0.00444948917720467
2714,00:00:10.856,0.01014074636623264
2715,00:00:10.86,0.004155082337092615
2716,00:00:10.864,0.02170594444032761
2717,00:00:10.868,0.027551954844966548
2718,00:00:10.872,-0.006534010171890259
2719,00:00:10.876,-0.03523789695464079
2720,00:00:10.88,-0.014462248669587965
2721,00:00:10.884,0.02861150773242113
2722,00:00:10.888,-0.0037405055481940504
2723,00:00:10.892,-0.02966995304450397
2724,00:00:10.896,0.0077686541480943595
2725,00:00:10.9,0.030652185436338276
2726,00:00:10.904,0.013302502862643447
2727,00:00:10.908,-0.01714473403990263
2728,00:00:10.912,-0.02212857105769213
2729,00:00:10.916,0.009227219736203569
2730,00:00:10.92,0.00712663005106156
2731,00:00:10.924,0.015759421337861575
2732,00:00:10.928,-0.018453492200933373
2733,00:00:10.932,-0.043782387860119384
2734,00:00:10.936,0.02212107554078105
2735,00:00:10.94,0.05131467990577222
2736,00:00:10.944,-0.006896491628140209
2737,00:00:10.948,-0.010835594497621009
2738,00:00:10.952,-0.005468456773087379
2739,00:00:10.956,-0.005473740166053181
2740,00:00:10.96,-0.03154430631548161
2741,00:00:10.964,0.0007361944299191284
2742,00:00:10.968,0.0249063898809254
2743,00:00:10.972,0.01117100985720754
2744,00:00:10.976,0.014952691271901101
2745,00:00:10.98,0.0003843091544695242
2746,00:00:10.984,-0.012988364906050261
2747,00:00:10.988,0.00990060181356966
2748,00:00:10.992,-0.017663773323874928
2749,00:00:10.996,-0.03349369915667927
2750,00:00:11,-0.007936474401503801
2751,00:00:11.004,0.03860974032431839
2752,00:00:11.008,0.015854173514526327
2753,00:00:11.012,-0.011373680317774441
2754,00:00:11.016,0.00574224581941962
2755,00:00:11.02,0.023424815575708656
2756,00:00:11.024,-0.029625685885548547
2757,00:00:11.028,-0.02726142108440395
2758,00:00:11.032,0.0162943759933114
2759,00:00:11.036,-0.007027081679552789
2760,00:00:11.04,0.019121133256703587
2761,00:00:11.044,0.0248578112223186
2762,00:00:11.048,-0.041761061642318964
2763,00:00:11.052,0.031940941189532134
2764,00:00:11.056,0.0201971959322691
2765,00:00:11.06,-0.06170847825706009
2766,00:00:11.064,-0.01894335076212886
2767,00:00:11.068,0.01794668007642026
2768,00:00:11.072,0.024860278004780367
2769,00:00:11.076,0.007021951954811817
2770,00:00:11.08,0.0038151196204125894
2771,00:00:11.084,0.011970388237386938
2772,00:00:11.088,-0.005195270874537501
2773,00:00:11.092,-0.01402217277791351
2774,00:00:11.096,-0.00613908004015677
2775,00:00:11.1,-0.015224259579554197
2776,00:00:11.104,-0.017711142660118633
2777,00:00:11.108,0.02409165631979708
2778,00:00:11.112,0.00651650805957622
2779,00:00:11.116,0.029775847680866732
2780,00:00:11.12,0.009975561551982554
2781,00:00:11.124,-0.026253132615238428
2782,00:00:11.128,-0.0040427566273137545
2783,00:00:11.132,-0.03492378233931952
2784,00:00:11.136,-0.00706726592034106
2785,00:00:11.14,0.041836271528154625
2786,00:00:11.144,0.02832881035283208
2787,00:00:11.148,-0.017879999708384324
2788,00:00:11.152,-0.042681226972490494
2789,00:00:11.156,0.02235730201937258
2790,00:00:11.16,0.00289687886834147
2791,00:00:11.164,-0.0019352812669239943
2792,00:00:11.168,0.0013592131435871107
2793,00:00:11.172,0.007746968301944399
2794,00:00:11.176,-0.02797005465254183
2795,00:00:11.18,0.03354536648839712
2796,00:00:11.184,0.024398348992690482
2797,00:00:11.188,-0.016028920188546222
2798,00:00:11.192,-0.02085459907539184
2799,00:00:11.196,-0.0026752101257443376
2800,00:00:11.2,-0.0160371270030737
2801,00:00:11.204,-0.006841721944510921
2802,00:00:11.208,0.016175359487533604
2803,00:00:11.212,0.012780897784978137
2804,00:00:11.216,0.0035262217279523494
2805,00:00:11.22,0.009695273591205478
2806,00:00:11.224,0.01708394894376397
2807,00:00:11.228,-0.00877102045342326
2808,00:00:11.232,-0.05268875556066631
2809,00:00:11.236,-0.02363650221377611
2810,00:00:11.24,0.03951208363287151
2811,00:00:11.244,0.030428633559495242
2812,00:00:11.248,0.027819734066724812
2813,00:00:11.252,-0.02315074903890496
2814,00:00:11.256,-0.038538667373359224
2815,00:00:11.26,0.0001387324882671701
2816,00:00:11.264,0.01627427386119963
2817,00:00:11.268,0.0038991570472717207
2818,00:00:11.272,-0.01887914491817353
2819,00:00:11.276,0.0063018370419740625
2820,00:00:11.28,0.02367848251014949
2821,00:00:11.284,0.0008532085921615406
2822,00:00:11.288,-0.03652193490415816
2823,00:00:11.292,0.0015120035968720887
2824,00:00:11.296,0.03262408741284158
2825,00:00:11.3,0.02912631817162036
2826,00:00:11.304,-0.03594768978655337
2827,00:00:11.308,-0.03967881761491301
2828,00:00:11.312,0.011726805474609144
2829,00:00:11.316,0.02362312586046758
2830,00:00:11.32,0.00878167105838655
2831,00:00:11.324,0.015865193214267534
2832,00:00:11.328,-0.02900968940230088
2833,00:00:11.332,-0.0018519687291700378
2834,00:00:11.336,-0.00553170614875856
2835,00:00:11.34,0.004656368633732209
2836,00:00:11.344,0.01379414112307131
2837,00:00:11.348,0.01767123863101005
2838,00:00:11.352,-0.05333716934546828
2839,00:00:11.356,-0.013302834457135764
2840,00:00:11.36,0.03317772224545479
2841,00:00:11.364,0.029719936195761007
2842,00:00:11.368,0.01714451797306537
2843,00:00:11.372,-0.010589722311124209
2844,00:00:11.376,-0.0613684058189392
2845,00:00:11.38,0.01539040054194632
2846,00:00:11.384,0.0073870681226253215
2847,00:00:11.388,-0.0162454429082573
2848,00:00:11.392,0.02928667934611438
2849,00:00:11.396,0.047997476533055305
2850,00:00:11.4,-0.00666985614225268
2851,00:00:11.404,-0.06870616925880306
2852,00:00:11.408,-0.013798853266052933
2853,00:00:11.412,0.014085137518122789
2854,00:00:11.416,0.009689409285783771
2855,00:00:11.42,0.019141575030516788
2856,00:00:11.424,0.04250463051721451
2857,00:00:11.428,-0.04625076428055763
2858,00:00:11.432,-0.016094214981421797
2859,00:00:11.436,0.00199801847338673
2860,00:00:11.44,0.035540719516575336
2861,00:00:11.444,-0.020412117242813117
2862,00:00:11.448,-0.02055664081126454
2863,00:00:11.452,0.00642576487734914
2864,00:00:11.456,0.005462789675220767
2865,00:00:11.46,0.019171092833858025
2866,00:00:11.464,-0.00249644881114364
2867,00:00:11.468,-0.0120852421969175
2868,00:00:11.472,0.0024265792453661535
2869,00:00:11.476,-0.01046124356798828
2870,00:00:11.48,0.00026301620528104957
2871,00:00:11.484,0.021220398833975203
2872,00:00:11.488,-0.002885530237108469
2873,00:00:11.492,-0.02057721698656674
2874,00:00:11.496,0.019173136213794358
2875,00:00:11.5,0.02230219217017288
2876,00:00:11.504,-0.021955820295261243
2877,00:00:11.508,-0.030974563036579625
2878,00:00:11.512,0.0002182922326028399
2879,00:00:11.516,-0.0062116039916873
2880,00:00:11.52,0.025727173546329102
2881,00:00:11.524,0.01441913202870637
2882,00:00:11.528,0.01462722476571798
2883,00:00:11.532,-0.00885917747655185
2884,00:00:11.536,-0.012283616262720946
2885,00:00:11.54,-0.00552612636238337
2886,00:00:11.544,-0.01000848028343171
2887,00:00:11.548,0.01236870884895329
2888,00:00:11.552,-0.002528247132431713
2889,00:00:11.556,-0.02468381542712451
2890,00:00:11.56,0.00452980189584195
2891,00:00:11.564,0.0386795229278505
2892,00:00:11.568,0.006240174872800711
2893,00:00:11.572,-0.024677231907844554
2894,00:00:11.576,0.009141736940364353
2895,00:00:11.58,0.001691878424026112
2896,00:00:11.584,0.0038623884320258487
2897,00:00:11.588,-0.026317602023482406
2898,00:00:11.592,-0.021462718970724354
2899,00:00:11.596,0.01768546112725747
2900,00:00:11.6,0.008988830260932449
2901,00:00:11.604,0.028558136793435596
2902,00:00:11.608,-0.0036665134248323717
2903,00:00:11.612,-0.015964233083650428
2904,00:00:11.616,-0.013089868472889059
2905,00:00:11.62,0.03539991285651921
2906,00:00:11.624,-0.006720824661897501
2907,00:00:11.628,-0.03313553822226814
2908,00:00:11.632,-0.0032407818362116796
2909,00:00:11.636,-0.013651804474648041
2910,00:00:11.64,0.01731214579194782
2911,00:00:11.644,0.06658497080206872
2912,00:00:11.648,0.01329666946548968
2913,00:00:11.652,-0.09043392445892096
2914,00:00:11.656,-0.04574705113191161
2915,00:00:11.66,0.05580575647763905
2916,00:00:11.664,0.053406163118779645
2917,00:00:11.668,-0.011043909238651381
2918,00:00:11.672,-0.01940183853730556
2919,00:00:11.676,-0.026479135092813477
2920,00:00:11.68,0.01771504338830706
2921,00:00:11.684,0.004904834684566597
2922,00:00:11.688,-0.01168284448795024
2923,00:00:11.692,0.0009892559610307195
2924,00:00:11.696,0.01882135367486621
2925,00:00:11.7,0.00618677260354161
2926,00:00:11.704,-0.019679507589898993
2927,00:00:11.708,-0.00597310299053789
2928,00:00:11.712,0.0014631742960773352
2929,00:00:11.716,0.01024029986001554
2930,00:00:11.72,-0.025316458195447884
2931,00:00:11.724,0.010092483833432201
2932,00:00:11.728,0.02530191499681682
2933,00:00:11.732,0.01000728458166122
2934,00:00:11.736,0.0017348583787679586
2935,00:00:11.74,-0.019242933893110624
2936,00:00:11.744,-0.02981092268601065
2937,00:00:11.748,-0.008977287681773305
2938,00:00:11.752,0.01500407047569747
2939,00:00:11.756,0.030628729611635166
2940,00:00:11.76,0.02370366873219606
2941,00:00:11.764,-0.005314058310432303
2942,00:00:11.768,-0.03878031438216563
2943,00:00:11.772,-0.02399985911324618
2944,00:00:11.776,0.008757248811889481
2945,00:00:11.78,0.015891153365373608
2946,00:00:11.784,0.01935679139569402
2947,00:00:11.788,-0.0003632031148299592
2948,00:00:11.792,-0.012659652536967807
2949,00:00:11.796,-0.01221005676779896
2950,00:00:11.8,0.022457388229668168
2951,00:00:11.804,0.0212682790588587
2952,00:00:11.808,-0.028516045742435374
2953,00:00:11.812,-0.009903612779453431
2954,00:00:11.816,-0.012203955673612661
2955,00:00:11.82,0.013796252605970968
2956,00:00:11.824,-0.00099966337438673
2957,00:00:11.828,-0.006641276064328849
2958,00:00:11.832,0.02554833516478535
2959,00:00:11.836,-0.0003073847910854983
2960,00:00:11.84,-0.013309151399880603
2961,00:00:11.844,0.01700188778340816
2962,00:00:11.848,0.01006729528307914
2963,00:00:11.852,-0.02729251561686403
2964,00:00:11.856,-0.03033121721819041
2965,00:00:11.86,0.002078003482893131
2966,00:00:11.864,0.020833511836826808
2967,00:00:11.868,0.01455800363328312
2968,00:00:11.872,0.011600087935221428
2969,00:00:11.876,-0.001554281101562085
2970,00:00:11.88,0.0048565361066721414
2971,00:00:11.884,0.00128810305614025
2972,00:00:11.888,-0.0422622766345739
2973,00:00:11.892,-0.014361112214828595
2974,00:00:11.896,0.030107161791875104
2975,00:00:11.9,0.015444315969943999
2976,00:00:11.904,0.0016502363141626102
2977,00:00:11.908,-0.0016924347874010019
2978,00:00:11.912,-0.025371578871272484
2979,00:00:11.916,0.004373859163024462
2980,00:00:11.92,-0.0018991895485669392
2981,00:00:11.924,0.01616805954836308
2982,00:00:11.928,0.012243004632182398
2983,00:00:11.932,-0.01091310661286115
2984,00:00:11.936,0.01781599875539543
2985,00:00:11.94,-0.01483543662470766
2986,00:00:11.944,-0.04221640853211279
2987,00:00:11.948,0.003967750759329646
2988,00:00:11.952,0.051169438753277015
2989,00:00:11.956,-0.0020715286955237406
2990,00:00:11.96,-0.017170541483210403
2991,00:00:11.964,-0.00014531635679305033
2992,00:00:11.968,0.0001343385083600922
2993,00:00:11.972,-0.0250740004703403
2994,00:00:11.976,0.010736066382378288
2995,00:00:11.98,0.01225083100143821
2996,00:00:11.984,0.0396546965930611
2997,00:00:11.988,-0.027194493624847375
2998,00:00:11.992,-0.02923439349979167
2999,00:00:11.996,0.011313950177282098
3000,00:00:12,0.009003508377645632
3001,00:00:12.004,-0.02376407943665983
3002,00:00:12.008,0.009714734478620809
3003,00:00:12.012,0.029783017584122676
3004,00:00:12.016,-0.007801331346854571
3005,00:00:12.02,-0.012360738764982669
3006,00:00:12.024,-0.0013817913131788304
3007,00:00:12.028,0.011985234916210199
3008,00:00:12.032,-0.025140174198895648
3009,00:00:12.036,-0.00037244032137096145
3010,00:00:12.04,0.03226601332426074
3011,00:00:12.044,-0.0001365658245049417
3012,00:00:12.048,-0.00686904147733002
3013,00:00:12.052,-0.017584641464054588
3014,00:00:12.056,-0.0028152959421277003
3015,00:00:12.06,0.0129605541005731
3016,00:00:12.064,-0.010181820747675383
3017,00:00:12.068,0.01765920245088637
3018,00:00:12.072,-0.007214967103209348
3019,00:00:12.076,-0.00508239073678851
3020,00:00:12.08,0.0014294565189629758
3021,00:00:12.084,-0.003985008690506219
3022,00:00:12.088,-0.0034433194960001856
3023,00:00:12.092,0.006225531047675755
3024,00:00:12.096,0.01786372251808645
3025,00:00:12.1,0.00842596346046776
3026,00:00:12.104,-0.006165363593026994
3027,00:00:12.108,-0.03159665130078797
3028,00:00:12.112,-0.003459482220932851
3029,00:00:12.116,-0.004644407657906429
3030,00:00:12.12,0.0020083362469449596
3031,00:00:12.124,0.024500603787600998
3032,00:00:12.128,0.03085488802753386
3033,00:00:12.132,-0.0025724624283612286
3034,00:00:12.136,-0.012055017752572901
3035,00:00:12.14,-0.03640371141955259
3036,00:00:12.144,-0.023153956048190552
3037,00:00:12.148,0.02090470632538195
3038,00:00:12.152,0.008750693406909659
3039,00:00:12.156,0.0076155708520673285
3040,00:00:12.16,0.00850950450694654
3041,00:00:12.164,0.03863542573526497
3042,00:00:12.168,-0.01683262083679438
3043,00:00:12.172,-0.046012402046471806
3044,00:00:12.176,0.003223912382964044
3045,00:00:12.18,0.010817376780323682
3046,00:00:12.184,-0.007186010945588399
3047,00:00:12.188,-0.017758497735485438
3048,00:00:12.192,0.0201863578986377
3049,00:00:12.196,0.0213427618145943
3050,00:00:12.2,0.03095480008050799
3051,00:00:12.204,-0.03249614819651472
3052,00:00:12.208,-0.03688348457217215
3053,00:00:12.212,0.0264666437869891
3054,00:00:12.216,0.02621822175569826
3055,00:00:12.22,-0.0320752944098786
3056,00:00:12.224,-0.026152415666729198
3057,00:00:12.228,-0.00029919948428869074
3058,00:00:12.232,0.037686860887333765
3059,00:00:12.236,0.015842482083826315
3060,00:00:12.24,-0.0026131004560738806
3061,00:00:12.244,-0.007079791044816368
3062,00:00:12.248,-0.004332057200372222
3063,00:00:12.252,-0.02279863180592651
3064,00:00:12.256,-0.031462620478123426
3065,00:00:12.26,0.03528263629414136
3066,00:00:12.264,0.01954197161830959
3067,00:00:12.268,0.04476546589285132
3068,00:00:12.272,-0.008031076518818769
3069,00:00:12.276,-0.06542126095155254
3070,00:00:12.28,-0.03279378986917433
3071,00:00:12.284,0.03491138480603688
3072,00:00:12.288,0.01328002684749663
3073,00:00:12.292,0.012283952906727812
3074,00:00:12.296,0.013655779883265502
3075,00:00:12.3,-0.0096161081455648
3076,00:00:12.304,-0.014152297750115402
3077,00:00:12.308,-0.002211413840996098
3078,00:00:12.312,-0.00024126190692184968
3079,00:00:12.316,0.00622636370826513
3080,00:00:12.32,0.0008770104905124745
3081,00:00:12.324,-0.009568737179506568
3082,00:00:12.328,0.008597067557275299
3083,00:00:12.332,0.006039150641299781
3084,00:00:12.336,-0.013141619390808042
3085,00:00:12.34,0.0010813580593094195
3086,00:00:12.344,0.02378496364690367
3087,00:00:12.348,-0.018318679707590532
3088,00:00:12.352,0.002201316412538291
3089,00:00:12.356,0.006897444138303401
3090,00:00:12.36,-0.026072973385453262
3091,00:00:12.364,0.008599770022556179
3092,00:00:12.368,-0.01643923670053482
3093,00:00:12.372,0.003906295634806131
3094,00:00:12.376,0.03183506242930895
3095,00:00:12.38,0.03779374528676272
3096,00:00:12.384,-0.029965953435748833
3097,00:00:12.388,-0.0277158087119461
3098,00:00:12.392,-0.017718382645398403
3099,00:00:12.396,0.00293530477210879
3100,00:00:12.4,0.0167545480653643
3101,00:00:12.404,0.0332302576280199
3102,00:00:12.408,0.00862779538147151
3103,00:00:12.412,-0.0453374357894063
3104,00:00:12.416,-0.01231279724743215
3105,00:00:12.42,0.012912381906062372
3106,00:00:12.424,0.01044147193897514
3107,00:00:12.428,0.01262447994668037
3108,00:00:12.432,-0.01693477109074592
3109,00:00:12.436,-0.028637594077736164
3110,00:00:12.44,0.02254767296835775
3111,00:00:12.444,0.03419929184019568
3112,00:00:12.448,0.008348460367415121
3113,00:00:12.452,-0.0182462634984404
3114,00:00:12.456,-0.02481027005705979
3115,00:00:12.46,-0.0006562834605574582
3116,00:00:12.464,-0.004237544140778459
