,Elapsed Time,EMG
0,00:00:00,1.6357148215174648
1,00:00:00.004,-1.5793876722455014
2,00:00:00.008,-1.255595009773965
3,00:00:00.012,-0.11856438871473046
4,00:00:00.016,0.6351084429770734
5,00:00:00.02,0.7884616125375056
6,00:00:00.024,0.47432388644665474
7,00:00:00.028,0.08594258828088613
8,00:00:00.032,-0.22653958946466451
9,00:00:00.036,-0.32181310013402314
10,00:00:00.04,-0.20396492537110983
11,00:00:00.044,-0.08423706633038829
12,00:00:00.048,0.016428564675152302
13,00:00:00.052,0.07158508826978538
14,00:00:00.056,0.07317286799661761
15,00:00:00.06,0.039913535947562244
16,00:00:00.064,0.03612591279670599
17,00:00:00.068,-0.0720802675932645
18,00:00:00.072,-0.02652816474437719
19,00:00:00.076,0.07236584648489951
20,00:00:00.08,-0.007291347719728898
21,00:00:00.084,-0.0017237938664038679
22,00:00:00.088,-0.025472601875662797
23,00:00:00.092,-0.1036771424114705
24,00:00:00.096,0.06041470984928312
25,00:00:00.1,0.06458891369402404
26,00:00:00.104,0.022145393770188065
27,00:00:00.108,-0.014749033784028216
28,00:00:00.112,-0.061629901640117196
29,00:00:00.116,-0.00307273468934
30,00:00:00.12,0.030485145747661525
31,00:00:00.124,0.0342800801154226
32,00:00:00.128,-0.02380810165777801
33,00:00:00.132,-0.0689655262976885
34,00:00:00.136,-0.01026223762892187
35,00:00:00.14,0.0953108565881848
36,00:00:00.144,0.06989870592951769
37,00:00:00.148,-0.05206797388382259
38,00:00:00.152,-0.0722850915044546
39,00:00:00.156,-0.0058778617531061225
40,00:00:00.16,0.029633486643433515
41,00:00:00.164,0.0010666472371667597
42,00:00:00.168,-0.0267163440585137
43,00:00:00.172,0.00048274919390675977
44,00:00:00.176,0.015990369953215115
45,00:00:00.18,0.0398819986730814
46,00:00:00.184,0.04576011002063751
47,00:00:00.188,-0.052378363907337196
48,00:00:00.192,-0.08359261509031057
49,00:00:00.196,0.030519968364387813
50,00:00:00.2,0.08436099905520669
51,00:00:00.204,-0.018719432875514058
52,00:00:00.208,-0.06542200781404969
53,00:00:00.212,-0.012635037070140239
54,00:00:00.216,0.07715935073792929
55,00:00:00.22,0.0018259079079143998
56,00:00:00.224,-0.12926325947046252
57,00:00:00.228,0.07204573089256887
58,00:00:00.232,0.09669131040573109
59,00:00:00.236,0.0013520640786736718
60,00:00:00.24,-0.0873917294666171
61,00:00:00.244,-0.03437945246696459
62,00:00:00.248,0.03319251444190739
63,00:00:00.252,0.050299454480409594
64,00:00:00.256,-0.04199314024299389
65,00:00:00.26,-0.03814476076513536
66,00:00:00.264,0.013434524880722169
67,00:00:00.268,0.018853290006518357
68,00:00:00.272,0.047681006602942916
69,00:00:00.276,0.014131279429420829
70,00:00:00.28,-0.004373656585812541
71,00:00:00.284,-0.06866159290075298
72,00:00:00.288,-0.026099296286702198
73,00:00:00.292,0.022048170911148243
74,00:00:00.296,0.0504639223217964
75,00:00:00.3,-0.0025879608001560007
76,00:00:00.304,-0.09001144394278529
77,00:00:00.308,0.0915322974324226
78,00:00:00.312,0.02493593189865355
79,00:00:00.316,-0.04228742298437281
80,00:00:00.32,-0.0345462216064334
81,00:00:00.324,0.01872945483773944
82,00:00:00.328,0.02410551195498557
83,00:00:00.332,-0.004504165844991838
84,00:00:00.336,0.01332319015637046
85,00:00:00.34,-0.0206706267781556
86,00:00:00.344,-0.025835601612925564
87,00:00:00.348,0.00031861546449363926
88,00:00:00.352,0.0157779017463326
89,00:00:00.356,0.026694348081946397
90,00:00:00.36,-0.01639475708361714
91,00:00:00.364,0.008434738032519772
92,00:00:00.368,-0.043733952566981295
93,00:00:00.372,0.0176148209720851
94,00:00:00.376,0.0817978568375111
95,00:00:00.38,-0.02476508985273539
96,00:00:00.384,-0.0884312614798546
97,00:00:00.388,-0.0115743791684509
98,00:00:00.392,0.07787744188681245
99,00:00:00.396,-0.0137881453847513
100,00:00:00.4,0.0032010408031056155
101,00:00:00.404,0.005151819437742259
102,00:00:00.408,-0.006007122690789436
103,00:00:00.412,-0.03407949651591485
104,00:00:00.416,0.025820457376539693
105,00:00:00.42,0.0085658016614616
106,00:00:00.424,-0.016443928470835
107,00:00:00.428,0.02297347993589938
108,00:00:00.432,0.0079948285128921
109,00:00:00.436,-0.01086908276192843
110,00:00:00.44,-0.0708184996619821
111,00:00:00.444,0.0048071484779939055
112,00:00:00.448,0.07052465621382001
113,00:00:00.452,0.060870837303809884
114,00:00:00.456,-0.02532953093759717
115,00:00:00.46,-0.10322028212249285
116,00:00:00.464,-0.001896500587463332
117,00:00:00.468,0.04837416764348745
118,00:00:00.472,-0.022588857449591222
119,00:00:00.476,0.046956424135714714
120,00:00:00.48,0.028508381918072697
121,00:00:00.484,-0.023070692259352654
122,00:00:00.488,-0.014381963759660703
123,00:00:00.492,-0.02066454710438843
124,00:00:00.496,-0.002357836347073315
125,00:00:00.5,0.00218124873936175
126,00:00:00.504,0.02567244577221574
127,00:00:00.508,-0.06679750559851536
128,00:00:00.512,-0.016031250066589522
129,00:00:00.516,0.08300315123051402
130,00:00:00.52,0.09823659993708139
131,00:00:00.524,-0.0799410045146941
132,00:00:00.528,-0.0741990953683854
133,00:00:00.532,-0.05298842163756489
134,00:00:00.536,0.06472482922254136
135,00:00:00.54,0.09131136815994981
136,00:00:00.544,0.0008545517921447789
137,00:00:00.548,-0.005015667062252761
138,00:00:00.552,-0.06724476814270011
139,00:00:00.556,-0.08381532598286874
140,00:00:00.56,0.02493044058792297
141,00:00:00.564,0.03931482648476951
142,00:00:00.568,0.08583070011809472
143,00:00:00.572,0.0010992102324963206
144,00:00:00.576,-0.030789846554398488
145,00:00:00.58,-0.0653873085975647
146,00:00:00.584,0.02649498102255161
147,00:00:00.588,0.015539949759841042
148,00:00:00.592,0.02726097544655202
149,00:00:00.596,-0.009863986866548609
150,00:00:00.6,-0.0658955834805966
151,00:00:00.604,-0.06639236956834801
152,00:00:00.608,0.1276677455753088
153,00:00:00.612,0.040849078446626705
154,00:00:00.616,-0.016215384006500258
155,00:00:00.62,-0.022649390622973484
156,00:00:00.624,-0.007606398314237529
157,00:00:00.628,-0.06458448898047209
158,00:00:00.632,0.028039111173711787
159,00:00:00.636,0.0322638684883713
160,00:00:00.64,-0.00809962395578626
161,00:00:00.644,0.008399372454732608
162,00:00:00.648,0.012159737758338441
163,00:00:00.652,-0.021905696950852843
164,00:00:00.656,0.03585729759652165
165,00:00:00.66,-0.09367738245055074
166,00:00:00.664,0.01601413753814994
167,00:00:00.668,0.06606373516842717
168,00:00:00.672,0.02158402753411789
169,00:00:00.676,-0.013157207518815899
170,00:00:00.68,-0.008819030132144651
171,00:00:00.684,-0.04376505687832839
172,00:00:00.688,-0.07823916710913179
173,00:00:00.692,0.0916146244853735
174,00:00:00.696,0.05166266672313209
175,00:00:00.7,0.02694120793603363
176,00:00:00.704,-0.06592035852372641
177,00:00:00.708,-0.042123905586777206
178,00:00:00.712,-0.01702327653765677
179,00:00:00.716,0.06646608328446738
180,00:00:00.72,0.041509821079671425
181,00:00:00.724,-0.05138790747150778
182,00:00:00.728,0.0406706109642983
183,00:00:00.732,-0.05986663652583965
184,00:00:00.736,-0.1560283228755
185,00:00:00.74,0.1509888870641588
186,00:00:00.744,0.13345361128449448
187,00:00:00.748,0.018078490538755414
188,00:00:00.752,-0.09706055000424389
189,00:00:00.756,-0.1122896671295166
190,00:00:00.76,-0.009009629487991298
191,00:00:00.764,0.09757890040054913
192,00:00:00.768,0.008545092307031196
193,00:00:00.772,0.0178109230473638
194,00:00:00.776,-0.009658947121351957
195,00:00:00.78,-0.048373581841588104
196,00:00:00.784,-0.006214338121935772
197,00:00:00.788,0.00626383163034912
198,00:00:00.792,-0.003998129410319964
199,00:00:00.796,0.0648123370483518
200,00:00:00.8,0.02960067195817824
201,00:00:00.804,-0.019098312535788902
202,00:00:00.808,-0.14203818142414049
203,00:00:00.812,0.007944500772282481
204,00:00:00.816,0.11373166367411659
205,00:00:00.82,0.0536677716299891
206,00:00:00.824,-0.031025409698486394
207,00:00:00.828,-0.057848513126373305
208,00:00:00.832,-0.02396000735461712
209,00:00:00.836,-0.04237826634198433
210,00:00:00.84,0.0739035038277508
211,00:00:00.844,0.02525798557326198
212,00:00:00.848,0.012243108591064809
213,00:00:00.852,-0.016157453646883372
214,00:00:00.856,-0.024857037700712722
215,00:00:00.86,-0.027359636034816552
216,00:00:00.864,-0.0390468910336495
217,00:00:00.868,0.038192599080503035
218,00:00:00.872,0.1133334375917912
219,00:00:00.876,0.012388934846967459
220,00:00:00.88,-0.10889352532103654
221,00:00:00.884,-0.07712034881114961
222,00:00:00.888,0.06849207775667304
223,00:00:00.892,0.0501993531361222
224,00:00:00.896,0.00955714238807559
225,00:00:00.9,-0.01328500709496439
226,00:00:00.904,-0.01870780903846028
227,00:00:00.908,-0.029591486323624842
228,00:00:00.912,0.024460912449285378
229,00:00:00.916,0.012838790193200101
230,00:00:00.92,-0.14945929497480412
231,00:00:00.924,0.1478336593136191
232,00:00:00.928,0.09295844659209249
233,00:00:00.932,-0.021978793898597367
234,00:00:00.936,-0.087106253951788
235,00:00:00.94,-0.0473161824047565
236,00:00:00.944,0.011237323749810423
237,00:00:00.948,0.07188865356147289
238,00:00:00.952,-0.00900858663953841
239,00:00:00.956,-0.09846944228047508
240,00:00:00.96,0.05440080864354971
241,00:00:00.964,0.006427540443837549
242,00:00:00.968,0.06129557150416068
243,00:00:00.972,0.02602246927563099
244,00:00:00.976,-0.04096558736637233
245,00:00:00.98,-0.0307575101032853
246,00:00:00.984,-0.010552381165325711
247,00:00:00.988,-0.02328005423623839
248,00:00:00.992,0.027805026329588114
249,00:00:00.996,0.022973817773163294
250,00:00:01,-0.06249275011941784
251,00:00:01.004,-0.023030377924442298
252,00:00:01.008,0.07393408799543985
253,00:00:01.012,0.0485310982912778
254,00:00:01.016,0.0094953700900078
255,00:00:01.02,-0.021506646648049396
256,00:00:01.024,-0.035381345078349204
257,00:00:01.028,-0.03390116989612582
258,00:00:01.032,-0.01197724987287074
259,00:00:01.036,0.004749659914523358
260,00:00:01.04,0.018225237028673288
261,00:00:01.044,0.1004811432212592
262,00:00:01.048,-0.04663265030831097
263,00:00:01.052,-0.16108733881264917
264,00:00:01.056,0.08745834417641159
265,00:00:01.06,0.07116055302321908
266,00:00:01.064,0.016316761262714884
267,00:00:01.068,0.002382587175816301
268,00:00:01.072,-0.037055267486721305
269,00:00:01.076,-0.035380029119551196
270,00:00:01.08,0.007945897988975041
271,00:00:01.084,-0.00806611543521285
272,00:00:01.088,-0.014520701137371321
273,00:00:01.092,0.052034039050340604
274,00:00:01.096,-0.058771702460944694
275,00:00:01.1,0.0412529753521085
276,00:00:01.104,0.02779489057138554
277,00:00:01.108,0.015301320061553231
278,00:00:01.112,-0.03587806667201224
279,00:00:01.116,-0.014782072510570229
280,00:00:01.12,-0.00155465956777329
281,00:00:01.124,0.0001808716915546963
282,00:00:01.128,0.04621093114838005
283,00:00:01.132,-0.012885360047221198
284,00:00:01.136,-0.14021963183768124
285,00:00:01.14,0.061173770576715504
286,00:00:01.144,0.0975440577603876
287,00:00:01.148,0.037244922481477274
288,00:00:01.152,-0.02665501041337848
289,00:00:01.156,-0.077763767912984
290,00:00:01.16,-0.02955167554318902
291,00:00:01.164,0.0216420528595336
292,00:00:01.168,0.0518026947975158
293,00:00:01.172,0.018081669695675328
294,00:00:01.176,-0.00848514575045556
295,00:00:01.18,-0.07527423347346479
296,00:00:01.184,-0.010841900482773822
297,00:00:01.188,0.06797057297080757
298,00:00:01.192,0.01631182152777902
299,00:00:01.196,0.003064943710342055
300,00:00:01.2,0.010088106617331541
301,00:00:01.204,-0.04759289539651948
302,00:00:01.208,-0.03486358083318915
303,00:00:01.212,0.007125034695491261
304,00:00:01.216,0.01117821712978187
305,00:00:01.22,0.0323544023558497
306,00:00:01.224,0.051700931042432806
307,00:00:01.228,-0.010227070190012448
308,00:00:01.232,-0.100630821660161
309,00:00:01.236,-0.005798568483442109
310,00:00:01.24,0.050712007097899955
311,00:00:01.244,0.04962175106629728
312,00:00:01.248,-0.0494665605947375
313,00:00:01.252,0.00548225245438516
314,00:00:01.256,0.03692322364076976
315,00:00:01.26,-0.010839335925993539
316,00:00:01.264,-0.04826788499485703
317,00:00:01.268,-0.032057641074061345
318,00:00:01.272,-0.01294439658522609
319,00:00:01.276,0.0999776797834784
320,00:00:01.28,0.018935590051114545
321,00:00:01.284,-0.045391953550279154
322,00:00:01.288,0.00812117103487253
323,00:00:01.292,0.00847835652530193
324,00:00:01.296,-0.037676152656786116
325,00:00:01.3,-0.0036555239930748454
326,00:00:01.304,-0.04047271423041819
327,00:00:01.308,0.0717498995363712
328,00:00:01.312,0.034719224553555236
329,00:00:01.316,-0.011259948601946231
330,00:00:01.32,-0.06498054601252079
331,00:00:01.324,-0.03030060324817898
332,00:00:01.328,0.04630633280612536
333,00:00:01.332,0.04317838232964281
334,00:00:01.336,-0.0161432456225157
335,00:00:01.34,-0.010097736958414259
336,00:00:01.344,-0.0213867510319687
337,00:00:01.348,0.02912477252539243
338,00:00:01.352,0.037227675318718005
339,00:00:01.356,-0.01977392088156197
340,00:00:01.36,-0.04402577504515651
341,00:00:01.364,-0.03677271922060757
342,00:00:01.368,-0.04159822629299019
343,00:00:01.372,0.07729676179587844
344,00:00:01.376,0.06459384970366959
345,00:00:01.38,-0.002467957790941001
346,00:00:01.384,0.0042077836114913295
347,00:00:01.388,-0.006670643924735529
348,00:00:01.392,-0.10035148775205016
349,00:00:01.396,-0.0339727737009525
350,00:00:01.4,0.09078079834580421
351,00:00:01.404,0.046338085085153594
352,00:00:01.408,-0.03790444741025564
353,00:00:01.412,-0.012755933683365622
354,00:00:01.416,0.0077877548756078
355,00:00:01.42,0.01198942540213466
356,00:00:01.424,0.00730201497208332
357,00:00:01.428,-0.040866981260478503
358,00:00:01.432,-0.03898624284192918
359,00:00:01.436,0.026528754271566903
360,00:00:01.44,0.03301055741030722
361,00:00:01.444,0.07459079939872025
362,00:00:01.448,-0.05233001708984371
363,00:00:01.452,-0.0707054249942303
364,00:00:01.456,0.03047337499447168
365,00:00:01.46,0.031862146686762606
366,00:00:01.464,0.02090655080974102
367,00:00:01.468,-0.0304471827112138
368,00:00:01.472,-0.10694092512130732
369,00:00:01.476,0.05883619841188191
370,00:00:01.48,0.12484357319772249
371,00:00:01.484,0.0095778871327639
372,00:00:01.488,-0.11906127072870723
373,00:00:01.492,-0.07610402815043919
374,00:00:01.496,0.06067620264366271
375,00:00:01.5,0.07039918750524521
376,00:00:01.504,0.061236314009875066
377,00:00:01.508,-0.08788017742335791
378,00:00:01.512,-0.04642935690935703
379,00:00:01.516,0.045196710154414205
380,00:00:01.52,-0.00044418778270487007
381,00:00:01.524,-0.015498495660722252
382,00:00:01.528,0.03960954630747444
383,00:00:01.532,0.02035062341019516
384,00:00:01.536,-0.08484993799356745
385,00:00:01.54,-0.06616261706221846
386,00:00:01.544,0.1144867669790984
387,00:00:01.548,0.0776479393243789
388,00:00:01.552,-0.0716438274830579
389,00:00:01.556,-0.02541195787489412
390,00:00:01.56,-0.03218126925639813
391,00:00:01.564,0.03914849460124961
392,00:00:01.568,0.0376790445297956
393,00:00:01.572,0.010229917243122992
394,00:00:01.576,-0.06546731432899833
395,00:00:01.58,-0.004070946015417604
396,00:00:01.584,0.015643115621060133
397,00:00:01.588,0.01187911909073595
398,00:00:01.592,-0.07169493287801743
399,00:00:01.596,0.0744491163641214
400,00:00:01.6,0.0530680045485497
401,00:00:01.604,-0.009272457100450989
402,00:00:01.608,-0.03035872359760101
403,00:00:01.612,-0.07151160121429714
404,00:00:01.616,0.06540104374289511
405,00:00:01.62,-0.0433142986148596
406,00:00:01.624,-0.026572247501462632
407,00:00:01.628,0.0921616330742836
408,00:00:01.632,-0.022735975464456767
409,00:00:01.636,0.046752740629017395
410,00:00:01.64,-0.06697741290554404
411,00:00:01.644,-0.0830162279307842
412,00:00:01.648,0.0987479081377387
413,00:00:01.652,0.05789589136838911
414,00:00:01.656,-0.00109496782533825
415,00:00:01.66,-0.10993734188377831
416,00:00:01.664,-0.001985559239983571
417,00:00:01.668,-0.0197204817086458
418,00:00:01.672,0.0683582099154591
419,00:00:01.676,0.037736624479293775
420,00:00:01.68,0.015109344385564301
421,00:00:01.684,0.02583325980231168
422,00:00:01.688,-0.0893119685351848
423,00:00:01.692,-0.0493070352822542
424,00:00:01.696,-0.017920848913490793
425,00:00:01.7,0.05347331636585295
426,00:00:01.704,0.057599867694079855
427,00:00:01.708,-0.031619696877896786
428,00:00:01.712,0.022799409460276338
429,00:00:01.716,0.02672226587310433
430,00:00:01.72,-0.12336818501353258
431,00:00:01.724,0.07711357332300386
432,00:00:01.728,0.02321541268611331
433,00:00:01.732,-0.03883585805306208
434,00:00:01.736,0.0186221383628435
435,00:00:01.74,-0.03384881094098096
436,00:00:01.744,0.03728803899139173
437,00:00:01.748,0.021406052634120022
438,00:00:01.752,-0.018477105302736156
439,00:00:01.756,-0.027034650091081837
440,00:00:01.76,-0.1029180344194175
441,00:00:01.764,0.07909596711397168
442,00:00:01.768,0.09621393121778966
443,00:00:01.772,0.03048512199893594
444,00:00:01.776,-0.0476228231564164
445,00:00:01.78,-0.11996790207922449
446,00:00:01.784,0.0524275228381157
447,00:00:01.788,0.056659573689103106
448,00:00:01.792,-0.01204970944672821
449,00:00:01.796,-0.09920364292338492
450,00:00:01.8,0.08890111371874808
451,00:00:01.804,-0.0174099653959274
452,00:00:01.808,-0.036718784132972346
453,00:00:01.812,0.08721679076552388
454,00:00:01.816,0.032057783100754016
455,00:00:01.82,-0.02591945091262461
456,00:00:01.824,-0.08265116205438963
457,00:00:01.828,-0.033237548545002965
458,00:00:01.832,0.0471856128424406
459,00:00:01.836,0.03434133493283302
460,00:00:01.84,-0.02545665681827815
461,00:00:01.844,0.00893318466842175
462,00:00:01.848,0.00903714308515191
463,00:00:01.852,0.025361168663948823
464,00:00:01.856,-0.01662635896354909
465,00:00:01.86,-0.0271295551210642
466,00:00:01.864,-0.03950876183807846
467,00:00:01.868,0.023265091935172632
468,00:00:01.872,0.0411872770637274
469,00:00:01.876,-0.06470194575376803
470,00:00:01.88,0.1014704443514346
471,00:00:01.884,0.0323600098490715
472,00:00:01.888,0.008094718650681895
473,00:00:01.892,-0.1066364254802465
474,00:00:01.896,-0.17156548798084248
475,00:00:01.9,0.11273984517902133
476,00:00:01.904,0.1323710661381483
477,00:00:01.908,0.007657029666006499
478,00:00:01.912,-0.013521494576707482
479,00:00:01.916,-0.04648330388590685
480,00:00:01.92,-0.02985752793028946
481,00:00:01.924,0.010788457468152032
482,00:00:01.928,0.02381829125806688
483,00:00:01.932,-0.0422918107360602
484,00:00:01.936,-0.04132168367505075
485,00:00:01.94,0.0872689373791218
486,00:00:01.944,0.04012265498749913
487,00:00:01.948,-0.0056689246557653
488,00:00:01.952,-0.03669491270557051
489,00:00:01.956,0.03820840781554578
490,00:00:01.96,-0.10673515871167191
491,00:00:01.964,-0.16751639917492822
492,00:00:01.968,0.19953834172338286
493,00:00:01.972,0.1741216741502285
494,00:00:01.976,0.06726985797286031
495,00:00:01.98,-0.23927727108821228
496,00:00:01.984,-0.1304262187331916
497,00:00:01.988,0.130586925894022
498,00:00:01.992,0.041781092062592604
499,00:00:01.996,-0.0926215350627899
500,00:00:02,0.10799468448385599
501,00:00:02.004,0.033659834414720494
502,00:00:02.008,-0.04186461027711628
503,00:00:02.012,-0.034447383601218504
504,00:00:02.016,0.0601753843948245
505,00:00:02.02,-0.16392403235658998
506,00:00:02.024,-0.025910448282957105
507,00:00:02.028,0.18213834962807607
508,00:00:02.032,0.031382953748107
509,00:00:02.036,0.02904945705085986
510,00:00:02.04,-0.08070746785961087
511,00:00:02.044,-0.18504002317786178
512,00:00:02.048,0.19298485852777958
513,00:00:02.052,0.0754662081599235
514,00:00:02.056,-0.15441441442817497
515,00:00:02.06,-0.10763928666710859
516,00:00:02.064,0.15981929469853595
517,00:00:02.068,0.0897244401276111
518,00:00:02.072,-0.0021599614992737996
519,00:00:02.076,-0.0595155330374837
520,00:00:02.08,-0.09991095401346678
521,00:00:02.084,0.0076964027248322886
522,00:00:02.088,0.04763217270374296
523,00:00:02.092,-0.0035491550806909795
524,00:00:02.096,-0.02600128669291732
525,00:00:02.1,0.02689576847478744
526,00:00:02.104,0.08355382503941658
527,00:00:02.108,-0.008278439287096241
528,00:00:02.112,-0.0280581023544074
529,00:00:02.116,-0.00737790181301534
530,00:00:02.12,-0.14905383996665514
531,00:00:02.124,0.04858941677957774
532,00:00:02.128,0.12911125109530985
533,00:00:02.132,-0.02993316063657404
534,00:00:02.136,-0.033886380493641004
535,00:00:02.14,-0.05873596109449869
536,00:00:02.144,0.138313563540578
537,00:00:02.148,0.011893272399902309
538,00:00:02.152,-0.07052636286243799
539,00:00:02.156,-0.0857025031000376
540,00:00:02.16,0.0596023071557283
541,00:00:02.164,0.0031532810535281905
542,00:00:02.168,0.01950723025947807
543,00:00:02.172,0.002812908031046328
544,00:00:02.176,-0.04385053669102493
545,00:00:02.18,0.025708799250424002
546,00:00:02.184,0.03134405752643952
547,00:00:02.188,-0.017825910821557003
548,00:00:02.192,-0.00608028331771493
549,00:00:02.196,-0.010378320002928411
550,00:00:02.2,-0.0281354337930679
551,00:00:02.204,0.06286103010643279
552,00:00:02.208,0.07777802937198428
553,00:00:02.212,-0.17430318519473048
554,00:00:02.216,-0.017715919530019157
555,00:00:02.22,0.09237695399497171
556,00:00:02.224,0.05447196774184713
557,00:00:02.228,0.014881447423249478
558,00:00:02.232,-0.05542795639485128
559,00:00:02.236,-0.07312596635892991
560,00:00:02.24,0.004509428050368951
561,00:00:02.244,0.03424162161536513
562,00:00:02.248,0.022295974195003503
563,00:00:02.252,0.03727847151458259
564,00:00:02.256,-0.01323324162513014
565,00:00:02.26,-0.0807537855580449
566,00:00:02.264,0.06785800727084279
567,00:00:02.268,-0.001534859649837069
568,00:00:02.272,-0.04218596592545512
569,00:00:02.276,0.036187961697578395
570,00:00:02.28,-0.005692156031727789
571,00:00:02.284,-0.05922163464128981
572,00:00:02.288,0.04551543481647967
573,00:00:02.292,0.06231399811804301
574,00:00:02.296,0.027287082746624898
575,00:00:02.3,0.0073707292904146675
576,00:00:02.304,-0.2020491240546107
577,00:00:02.308,-0.0780304223299027
578,00:00:02.312,0.19578603282570822
579,00:00:02.316,0.13037961744703347
580,00:00:02.32,-0.03248925000661979
581,00:00:02.324,-0.0892459256574511
582,00:00:02.328,-0.05919435992836953
583,00:00:02.332,0.023362645413726593
584,00:00:02.336,0.0498122815042734
585,00:00:02.34,-0.12293821084313089
586,00:00:02.344,0.04784232284873721
587,00:00:02.348,0.0593364527449012
588,00:00:02.352,0.055224884301424
589,00:00:02.356,0.01801987038925284
590,00:00:02.36,-0.04543108819052581
591,00:00:02.364,-0.047261481173336506
592,00:00:02.368,-0.0748091852292418
593,00:00:02.372,0.018357815220952027
594,00:00:02.376,0.10287406900897628
595,00:00:02.38,5.849392618975657e-05
596,00:00:02.384,-0.11116708442568779
597,00:00:02.388,0.07651360705494889
598,00:00:02.392,0.0822754539549351
599,00:00:02.396,-0.024090073187835504
600,00:00:02.4,-0.04334266716614364
601,00:00:02.404,-0.01294749183580281
602,00:00:02.408,-0.08016579970717419
603,00:00:02.412,-0.0590134467929601
604,00:00:02.416,0.13651003642007714
605,00:00:02.42,0.0823545753955841
606,00:00:02.424,-0.00625360896810892
607,00:00:02.428,-0.04990750178694729
608,00:00:02.432,-0.058781146071851316
609,00:00:02.436,0.013896173331886467
610,00:00:02.44,-0.01981848292052746
611,00:00:02.444,-0.00804906059056519
612,00:00:02.448,0.03239966707769786
613,00:00:02.452,0.0700826793909072
614,00:00:02.456,0.0075432620942593
615,00:00:02.46,-3.222702071075008e-05
616,00:00:02.464,-0.1336039695888755
617,00:00:02.468,-0.056908064987510484
618,00:00:02.472,0.1181022785604
619,00:00:02.476,0.0408490728586912
620,00:00:02.48,0.04264830052852629
621,00:00:02.484,-0.024974504543934014
622,00:00:02.488,-0.0468715662136674
623,00:00:02.492,-0.028250436589587508
624,00:00:02.496,-0.0008492395281792381
625,00:00:02.5,-0.0204579010605813
626,00:00:02.504,0.0080752446083352
627,00:00:02.508,0.07595794415101412
628,00:00:02.512,0.010655848309397802
629,00:00:02.516,-0.044709382113069254
630,00:00:02.52,-0.12133982963860039
631,00:00:02.524,0.1351924482733012
632,00:00:02.528,0.07170151546597489
633,00:00:02.532,-0.03341699903830879
634,00:00:02.536,-0.06629726663231846
635,00:00:02.54,-0.015198339708149499
636,00:00:02.544,-0.0670863706618548
637,00:00:02.548,0.083889914676547
638,00:00:02.552,0.07427979633212091
639,00:00:02.556,-0.0030239033512771407
640,00:00:02.56,-0.159863140434027
641,00:00:02.564,0.051076795905828504
642,00:00:02.568,0.1025300044566392
643,00:00:02.572,0.0140978917479515
644,00:00:02.576,-0.042898776009678855
645,00:00:02.58,-0.05694742128252991
646,00:00:02.584,-0.021428911015391298
647,00:00:02.588,0.008961694198660547
648,00:00:02.592,0.03344601020216936
649,00:00:02.596,0.013676241040229803
650,00:00:02.6,0.03229378163814547
651,00:00:02.604,-0.010852725710719791
652,00:00:02.608,0.00761894695460796
653,00:00:02.612,-0.01566602045204492
654,00:00:02.616,-0.1107612466439604
655,00:00:02.62,0.03146958956494926
656,00:00:02.624,0.0580005492083729
657,00:00:02.628,0.05512631661258635
658,00:00:02.632,0.030773613601923107
659,00:00:02.636,0.00897101219743486
660,00:00:02.64,-0.22906677611172163
661,00:00:02.644,0.014734252355992801
662,00:00:02.648,0.1478250424843286
663,00:00:02.652,0.0724208429455757
664,00:00:02.656,-0.03240449889563028
665,00:00:02.66,-0.07150641561020171
666,00:00:02.664,-0.02260684408247463
667,00:00:02.668,-0.01384843233972793
668,00:00:02.672,0.030088204424828322
669,00:00:02.676,-0.03322623111307626
670,00:00:02.68,0.02642412343993779
671,00:00:02.684,0.05558145605027671
672,00:00:02.688,0.028998292516917053
673,00:00:02.692,-0.01791862765094268
674,00:00:02.696,-0.10822530789300802
675,00:00:02.7,-0.02593510597944261
676,00:00:02.704,0.0993027966469526
677,00:00:02.708,0.04223541542887692
678,00:00:02.712,0.0055194133892656
679,00:00:02.716,-0.03933928720653054
680,00:00:02.72,-0.07492912188172349
681,00:00:02.724,0.011137215769849704
682,00:00:02.728,0.019293035264126932
683,00:00:02.732,0.004999889992177491
684,00:00:02.736,0.04103197809308762
685,00:00:02.74,0.03449978143908086
686,00:00:02.744,-0.03051647590473302
687,00:00:02.748,-0.06139185559004542
688,00:00:02.752,0.003935431130230408
689,00:00:02.756,0.03043829370290035
690,00:00:02.76,0.00693285508896224
691,00:00:02.764,-0.014089991105720361
692,00:00:02.768,0.04601640222972496
693,00:00:02.772,-0.0236776787787676
694,00:00:02.776,-0.06838723365217454
695,00:00:02.78,0.07838708348572261
696,00:00:02.784,-0.0743398582562804
697,00:00:02.788,0.0286755538545549
698,00:00:02.792,0.07502367463894186
699,00:00:02.796,-0.017443377990275653
700,00:00:02.8,-0.039969217032194096
701,00:00:02.804,-0.003123389557003981
702,00:00:02.808,-0.0019779303111136003
703,00:00:02.812,-0.0376544296741485
704,00:00:02.816,0.020665406715124863
705,00:00:02.82,0.08356085148989227
706,00:00:02.824,0.0312502048909665
707,00:00:02.828,-0.13933714665472516
708,00:00:02.832,-0.0768871419131756
709,00:00:02.836,0.1105062169954181
710,00:00:02.84,0.07631493918597701
711,00:00:02.844,0.02515069872606545
712,00:00:02.848,-0.04641843598801651
713,00:00:02.852,-0.0485022296197713
714,00:00:02.856,-0.07688149996101859
715,00:00:02.86,0.027141219004988622
716,00:00:02.864,0.07194742467254402
717,00:00:02.868,0.05399897927418351
718,00:00:02.872,-0.01337389298714699
719,00:00:02.876,-0.1114930408075452
720,00:00:02.88,-0.0028348858468234123
721,00:00:02.884,0.0636449721641839
722,00:00:02.888,0.05011576507240539
723,00:00:02.892,-0.022857964271679562
724,00:00:02.896,-0.045361590571701596
725,00:00:02.9,-0.001305197365581972
726,00:00:02.904,0.0169486866798252
727,00:00:02.908,0.00463872728869319
728,00:00:02.912,-0.002231436781585199
729,00:00:02.916,0.0210765954107046
730,00:00:02.92,0.021695595700293738
731,00:00:02.924,-0.15449350699782372
732,00:00:02.928,0.0277756960131228
733,00:00:02.932,0.10654607228934761
734,00:00:02.936,0.057883219793438995
735,00:00:02.94,-0.01275712368078525
736,00:00:02.944,-0.055107507854700095
737,00:00:02.948,-0.04982285376172518
738,00:00:02.952,0.012972251279279628
739,00:00:02.956,-0.05387728102505206
740,00:00:02.96,0.029142455663532008
741,00:00:02.964,0.090529415756464
742,00:00:02.968,0.023552724858745967
743,00:00:02.972,0.0027406443259678824
744,00:00:02.976,-0.0828609354794025
745,00:00:02.98,-0.09769547544419768
746,00:00:02.984,0.0719313584268092
747,00:00:02.988,0.0773389488458634
748,00:00:02.992,0.004000282846391198
749,00:00:02.996,-0.0049034105613827705
750,00:00:03,-0.0431745275855065
751,00:00:03.004,-0.028339682379737538
752,00:00:03.008,-0.02026006323285394
753,00:00:03.012,0.06474197935312985
754,00:00:03.016,0.0226688557304442
755,00:00:03.02,-0.0205774016212672
756,00:00:03.024,0.002635236280184485
757,00:00:03.028,-0.04297696053981777
758,00:00:03.032,0.02710429101716731
759,00:00:03.036,0.012823633849620819
760,00:00:03.04,-0.057626338675618144
761,00:00:03.044,0.013905187137424987
762,00:00:03.048,0.058052101172506795
763,00:00:03.052,0.036146583966910825
764,00:00:03.056,-0.03724238276481632
765,00:00:03.06,-0.0847396682947873
766,00:00:03.064,0.038121380810480346
767,00:00:03.068,0.0362736107781529
768,00:00:03.072,-0.024095866276184062
769,00:00:03.076,0.00992718548513945
770,00:00:03.08,0.02995445765554902
771,00:00:03.084,-0.0013130919542163402
772,00:00:03.088,-0.09051042073406287
773,00:00:03.092,0.040498349815607106
774,00:00:03.096,-0.000256461091339609
775,00:00:03.1,0.04936263756826511
776,00:00:03.104,0.022721516201272562
777,00:00:03.108,-0.039527379907667574
778,00:00:03.112,-0.0405674008652567
779,00:00:03.116,0.005132583435624751
780,00:00:03.12,0.022249303758144396
781,00:00:03.124,-0.0547634977847338
782,00:00:03.128,0.040946571156382575
783,00:00:03.132,0.06654457282274956
784,00:00:03.136,-0.00356621574610475
785,00:00:03.14,0.0007179868407547491
786,00:00:03.144,-0.024165447801351582
787,00:00:03.148,-0.08313354849815369
788,00:00:03.152,-0.025113955140113848
789,00:00:03.156,0.03700117068365215
790,00:00:03.16,0.07471310539403933
791,00:00:03.164,0.0242961486801506
792,00:00:03.168,-0.016139384824782582
793,00:00:03.172,-0.02629772800719364
794,00:00:03.176,-0.06894112750887871
795,00:00:03.18,0.0678299870342017
796,00:00:03.184,0.004599984735250501
797,00:00:03.188,-0.02898363536223767
798,00:00:03.192,0.015066794454469342
799,00:00:03.196,-0.008271055005025122
800,00:00:03.2,-0.0015509207732975917
801,00:00:03.204,0.03388940123841159
802,00:00:03.208,-0.00675678346306088
803,00:00:03.212,-0.012032765196636342
804,00:00:03.216,0.006214224849827588
805,00:00:03.22,0.01683848351240157
806,00:00:03.224,-0.08511602412909273
807,00:00:03.228,-0.034930765395984026
808,00:00:03.232,0.08096404746174812
809,00:00:03.236,0.0783346593379975
810,00:00:03.24,0.009749258984811639
811,00:00:03.244,-0.06258344184607265
812,00:00:03.248,-0.04362638760358093
813,00:00:03.252,-0.0058466594200581295
814,00:00:03.256,-0.006786748941522093
815,00:00:03.26,0.05400355253368615
816,00:00:03.264,0.02257721789646893
817,00:00:03.268,-0.0037859615404158787
818,00:00:03.272,-0.0539322588592768
819,00:00:03.276,-0.0182194719673135
820,00:00:03.28,0.031166362576186706
821,00:00:03.284,0.06607606541365384
822,00:00:03.288,-0.04129780456423765
823,00:00:03.292,-0.0632635336369277
824,00:00:03.296,-0.01008201099466532
825,00:00:03.3,0.08391285780817273
826,00:00:03.304,0.04260479332879181
827,00:00:03.308,-0.0481540281325579
828,00:00:03.312,-0.041622247197665246
829,00:00:03.316,0.004958793520927391
830,00:00:03.32,0.010316478903405379
831,00:00:03.324,-0.001772088464349529
832,00:00:03.328,0.019942605867981897
833,00:00:03.332,-0.01489176927134394
834,00:00:03.336,-0.011857429519295698
835,00:00:03.34,0.02520333527354525
836,00:00:03.344,0.003141196852084258
837,00:00:03.348,-0.04314994177548222
838,00:00:03.352,0.0392000768333674
839,00:00:03.356,-0.005077424808405343
840,00:00:03.36,0.018151108641177388
841,00:00:03.364,-0.02713044546544549
842,00:00:03.368,-0.01095624023582784
843,00:00:03.372,-0.017801105976104754
844,00:00:03.376,0.03067377186380325
845,00:00:03.38,0.03872328205034138
846,00:00:03.384,-0.01872042915783826
847,00:00:03.388,-0.05633723642677065
848,00:00:03.392,0.07196018891409041
849,00:00:03.396,0.011384612887923161
850,00:00:03.4,-0.013828978873789297
851,00:00:03.404,-0.1101189700420945
852,00:00:03.408,0.0006855272222310357
853,00:00:03.412,0.06942928768694409
854,00:00:03.416,0.06907021044753488
855,00:00:03.42,-0.03155148657970135
856,00:00:03.424,-0.008910097181797009
857,00:00:03.428,-0.04808943904936311
858,00:00:03.432,0.010744541883468604
859,00:00:03.436,0.024731415323913056
860,00:00:03.44,0.040083909407258
861,00:00:03.444,-0.015127835446037376
862,00:00:03.448,-0.03498325683176516
863,00:00:03.452,-0.053054733434692046
864,00:00:03.456,-0.011541574262082598
865,00:00:03.46,0.0632239570841193
866,00:00:03.464,0.03497957857325675
867,00:00:03.468,-0.0053216945379972284
868,00:00:03.472,-0.01810972171369936
869,00:00:03.476,0.016658965498209
870,00:00:03.48,0.02549584745429457
871,00:00:03.484,-0.07703266572207215
872,00:00:03.488,-0.05025462433695784
873,00:00:03.492,0.07122212229296568
874,00:00:03.496,0.03781705163419251
875,00:00:03.5,0.0022178422659635995
876,00:00:03.504,-0.011066407896578308
877,00:00:03.508,-0.07089135050773629
878,00:00:03.512,0.021380174672231078
879,00:00:03.516,0.03463673964142791
880,00:00:03.52,0.04398598056286569
881,00:00:03.524,-0.005750893149524962
882,00:00:03.528,-0.06435548700392249
883,00:00:03.532,-0.0581656619906426
884,00:00:03.536,0.0741979107260704
885,00:00:03.54,-0.01259016711264852
886,00:00:03.544,0.014322279952466498
887,00:00:03.548,0.0497400540625677
888,00:00:03.552,0.014371624682098579
889,00:00:03.556,-0.05761067068669948
890,00:00:03.56,-0.04724861029535532
891,00:00:03.564,-0.0171188712120056
892,00:00:03.568,0.0381987197324634
893,00:00:03.572,0.005664294068992616
894,00:00:03.576,0.048243992961943205
895,00:00:03.58,0.058259378653019604
896,00:00:03.584,-0.03031256329268223
897,00:00:03.588,-0.12408813158981502
898,00:00:03.592,-0.03872535191476342
899,00:00:03.596,0.09707172773778441
900,00:00:03.6,0.03798785433173174
901,00:00:03.604,-0.0007635550573468195
902,00:00:03.608,-0.0423718579113484
903,00:00:03.612,-0.02900743682403116
904,00:00:03.616,0.07114333286881451
905,00:00:03.62,0.010418744990602108
906,00:00:03.624,-0.0354717811569572
907,00:00:03.628,-0.0406673215329647
908,00:00:03.632,-0.002581243170425327
909,00:00:03.636,0.028031919151544547
910,00:00:03.64,0.0454046530649066
911,00:00:03.644,-0.011332751950249081
912,00:00:03.648,-0.030596119817346314
913,00:00:03.652,0.00871673692017795
914,00:00:03.656,0.009541982959490276
915,00:00:03.66,-0.10198713908903302
916,00:00:03.664,0.060443744994700004
917,00:00:03.668,0.056421054527163506
918,00:00:03.672,0.016602961346507093
919,00:00:03.676,-0.00710694305598736
920,00:00:03.68,-0.015177449211478199
921,00:00:03.684,-0.04357538913609457
922,00:00:03.688,-0.02753744716756043
923,00:00:03.692,0.05234918277710678
924,00:00:03.696,-0.03605750761926177
925,00:00:03.7,0.02979675633832808
926,00:00:03.704,0.024651602841913756
927,00:00:03.708,0.0061779236420988915
928,00:00:03.712,0.01607191236689684
929,00:00:03.716,-0.0481990249827504
930,00:00:03.72,-0.06862211041152481
931,00:00:03.724,0.04300008062273262
932,00:00:03.728,0.0459408126771451
933,00:00:03.732,0.023608251474797698
934,00:00:03.736,0.02718488592654461
935,00:00:03.74,-0.1069684699177742
936,00:00:03.744,-0.04503033496439451
937,00:00:03.748,0.05443413928151132
938,00:00:03.752,0.07395023666322229
939,00:00:03.756,0.021772300824522903
940,00:00:03.76,-0.01609600218944248
941,00:00:03.764,-0.07012012694031002
942,00:00:03.768,-0.05272035021334891
943,00:00:03.772,0.03267813287675386
944,00:00:03.776,0.05732178222388032
945,00:00:03.78,0.029366042930632892
946,00:00:03.784,-0.048198508098721504
947,00:00:03.788,-0.008478770323563393
948,00:00:03.792,0.014180153608322199
949,00:00:03.796,0.02176526980474586
950,00:00:03.8,-0.039942093193531106
951,00:00:03.804,-0.02250977692892776
952,00:00:03.808,0.03016394563019279
953,00:00:03.812,0.027611909375991634
954,00:00:03.816,-0.0009694780455902204
955,00:00:03.82,0.023543208837509103
956,00:00:03.824,-0.06935746362432839
957,00:00:03.828,-0.0362198306247592
958,00:00:03.832,0.07209788158070296
959,00:00:03.836,0.04493375308811659
960,00:00:03.84,-0.043347346596419804
961,00:00:03.844,-0.0605503953993321
962,00:00:03.848,0.006378827383741742
963,00:00:03.852,0.05154112540185451
964,00:00:03.856,0.03762864740565426
965,00:00:03.86,-0.011112344451248701
966,00:00:03.864,-0.02974492870271206
967,00:00:03.868,-0.015731836669147042
968,00:00:03.872,-0.03260654327459638
969,00:00:03.876,0.031707570888102124
970,00:00:03.88,0.02735297265462576
971,00:00:03.884,-0.02788572595454757
972,00:00:03.888,0.01086216804105788
973,00:00:03.892,0.02441137284040449
974,00:00:03.896,-0.02655912213958796
975,00:00:03.9,-0.00623766286298634
976,00:00:03.904,-0.008464290760457453
977,00:00:03.908,0.022049301769584438
978,00:00:03.912,0.0137046594172716
979,00:00:03.916,0.00034306384623050863
980,00:00:03.92,5.586631596089971e-05
981,00:00:03.924,-0.01760716829448939
982,00:00:03.928,-0.008644623303553131
983,00:00:03.932,-0.043402275303378694
984,00:00:03.936,0.04400676861405368
985,00:00:03.94,-0.004578393884003114
986,00:00:03.944,0.03243274986743925
987,00:00:03.948,0.009150629048235735
988,00:00:03.952,-0.01092741615138948
989,00:00:03.956,-0.03401539707556366
990,00:00:03.96,-0.005146357230842068
991,00:00:03.964,0.02367026964202521
992,00:00:03.968,-0.012878687819465969
993,00:00:03.972,0.01143166888505217
994,00:00:03.976,-0.01462081819772718
995,00:00:03.98,-0.001924217678606538
996,00:00:03.984,0.050233572721481295
997,00:00:03.988,-0.00406470987945794
998,00:00:03.992,-0.02154627302661547
999,00:00:03.996,-0.017848615534603603
1000,00:00:04,-0.00874835997819892
1001,00:00:04.004,-0.017976435570744784
1002,00:00:04.008,0.02420758130028839
1003,00:00:04.012,-0.02143675857223576
1004,00:00:04.016,0.0667285602539778
1005,00:00:04.02,0.018959424458444077
1006,00:00:04.024,-0.0375990159809589
1007,00:00:04.028,-0.03199356840923425
1008,00:00:04.032,-0.010996187571436172
1009,00:00:04.036,0.010712535586208143
1010,00:00:04.04,0.0013563435059040785
1011,00:00:04.044,0.02432436915114522
1012,00:00:04.048,-0.0030398925882764195
1013,00:00:04.052,-0.02439141576178374
1014,00:00:04.056,0.0450658537447452
1015,00:00:04.06,0.015411170083098152
1016,00:00:04.064,-0.049360209144651834
1017,00:00:04.068,-0.030822456814348743
1018,00:00:04.072,0.02767103957012296
1019,00:00:04.076,-0.0019292598590254992
1020,00:00:04.08,-0.01025954820215702
1021,00:00:04.084,0.029005127958953353
1022,00:00:04.088,0.033716758829541546
1023,00:00:04.092,0.005794797092676161
1024,00:00:04.096,-0.0510926172137261
1025,00:00:04.1,-0.013889072462916402
1026,00:00:04.104,-0.027664517983794254
1027,00:00:04.108,0.023658740552491495
1028,00:00:04.112,0.010168128428631466
1029,00:00:04.116,0.038392530754208495
1030,00:00:04.12,0.021872363053262203
1031,00:00:04.124,-0.01899124123156063
1032,00:00:04.128,-0.046333307633176425
1033,00:00:04.132,-0.006357263191603128
1034,00:00:04.136,0.006831224076449879
1035,00:00:04.14,0.01893464848399163
1036,00:00:04.144,-0.03909394983202226
1037,00:00:04.148,0.026154435705393518
1038,00:00:04.152,0.046082884306088166
1039,00:00:04.156,0.0027641868218779607
1040,00:00:04.16,-0.016236418916378167
1041,00:00:04.164,-0.0347974998876453
1042,00:00:04.168,-0.0099921785295009
1043,00:00:04.172,0.024326256476342668
1044,00:00:04.176,-0.07932672230526808
1045,00:00:04.18,0.07177374185994265
1046,00:00:04.184,0.0768345049582422
1047,00:00:04.188,0.0035152393393218778
1048,00:00:04.192,-0.07393499300815162
1049,00:00:04.196,-0.06366383284330371
1050,00:00:04.2,0.01915437681600448
1051,00:00:04.204,0.040056444704532665
1052,00:00:04.208,0.050287226215005004
1053,00:00:04.212,-0.03457959694787861
1054,00:00:04.216,-0.022539346246048808
1055,00:00:04.22,0.005923641845583909
1056,00:00:04.224,-0.00494107254780825
1057,00:00:04.228,-0.000901089981198297
1058,00:00:04.232,-0.005900301155634178
1059,00:00:04.236,0.06380699155852197
1060,00:00:04.24,-0.028699356131255686
1061,00:00:04.244,-0.027196681126952203
1062,00:00:04.248,-0.010271218139678248
1063,00:00:04.252,0.025178410112857805
1064,00:00:04.256,-0.03003910696133972
1065,00:00:04.26,0.012186269217636433
1066,00:00:04.264,0.0452949544414878
1067,00:00:04.268,-0.014603689458454049
1068,00:00:04.272,-0.01889171218499541
1069,00:00:04.276,-0.023632092867046574
1070,00:00:04.28,0.012587022560183004
1071,00:00:04.284,0.02116157801356166
1072,00:00:04.288,-0.01244458951987326
1073,00:00:04.292,0.01907047396525742
1074,00:00:04.296,-0.01860155072063208
1075,00:00:04.3,-0.017250028438866104
1076,00:00:04.304,0.044546334160259014
1077,00:00:04.308,-0.0933213476091623
1078,00:00:04.312,0.01881244103424251
1079,00:00:04.316,0.1146896556019783
1080,00:00:04.32,0.04044157080352311
1081,00:00:04.324,-0.0515665211714804
1082,00:00:04.328,-0.10115589201450349
1083,00:00:04.332,-0.04379755444824702
1084,00:00:04.336,0.040540801361203194
1085,00:00:04.34,0.03945668367668987
1086,00:00:04.344,0.0391770051792264
1087,00:00:04.348,-0.004751454573124591
1088,00:00:04.352,0.00799472210928797
1089,00:00:04.356,-0.0137636945582926
1090,00:00:04.36,-0.00612747529521585
1091,00:00:04.364,-0.01353312516584989
1092,00:00:04.368,-0.0116514707915485
1093,00:00:04.372,-0.033060364890843616
1094,00:00:04.376,0.024912253953516497
1095,00:00:04.38,0.02570608479436488
1096,00:00:04.384,0.0011217202991247108
1097,00:00:04.388,0.0037077432498335977
1098,00:00:04.392,0.0036799434456042976
1099,00:00:04.396,0.00650491239503023
1100,00:00:04.4,0.00930034040356983
1101,00:00:04.404,-0.007145025680074489
1102,00:00:04.408,-0.06452398747205738
1103,00:00:04.412,-0.006725841434672499
1104,00:00:04.416,0.06503447517752645
1105,00:00:04.42,-0.02848823857493702
1106,00:00:04.424,0.0409803837537765
1107,00:00:04.428,-0.015241952612996112
1108,00:00:04.432,-0.02338485280051822
1109,00:00:04.436,-0.0026949795428663397
1110,00:00:04.44,0.018151487223804053
1111,00:00:04.444,-0.0011303257197141491
1112,00:00:04.448,0.0025882120244205414
1113,00:00:04.452,-0.021650553913787035
1114,00:00:04.456,0.00988296372815968
1115,00:00:04.46,0.04361184500157839
1116,00:00:04.464,-0.006346714217215827
1117,00:00:04.468,-0.04537642933428285
1118,00:00:04.472,-0.03805840574204927
1119,00:00:04.476,0.005285146646201583
1120,00:00:04.48,0.04210134717868646
1121,00:00:04.484,0.050627081654965794
1122,00:00:04.488,0.00624855235219
1123,00:00:04.492,-0.01706220954656609
1124,00:00:04.496,-0.0746633158996702
1125,00:00:04.5,0.01786051096860318
1126,00:00:04.504,0.022924768039956696
1127,00:00:04.508,0.009785440735868173
1128,00:00:04.512,-0.07309964811429383
1129,00:00:04.516,0.04294904880225657
1130,00:00:04.52,0.04665542696602643
1131,00:00:04.524,-0.004654810414649612
1132,00:00:04.528,-0.012793502042768523
1133,00:00:04.532,0.0132165316026658
1134,00:00:04.536,-0.02142356126569207
1135,00:00:04.54,0.007483842317014929
1136,00:00:04.544,-0.024521043247659663
1137,00:00:04.548,-0.02854515425860881
1138,00:00:04.552,0.04726198501884939
1139,00:00:04.556,0.00674253143370152
1140,00:00:04.56,0.005220652557909471
1141,00:00:04.564,-0.01910766313085335
1142,00:00:04.568,-0.004036071011796591
1143,00:00:04.572,-0.017621200764551804
1144,00:00:04.576,0.04495887889061124
1145,00:00:04.58,-0.0068679908290505305
1146,00:00:04.584,0.008190417895093591
1147,00:00:04.588,-0.011955062393099018
1148,00:00:04.592,-0.07785283261910088
1149,00:00:04.596,0.044223714619874996
1150,00:00:04.6,0.0740870861336589
1151,00:00:04.604,-0.01601705537177622
1152,00:00:04.608,-0.03099757595919077
1153,00:00:04.612,-0.0171382622793317
1154,00:00:04.616,-0.039743086323142045
1155,00:00:04.62,0.0629365621134639
1156,00:00:04.624,0.03710581455379727
1157,00:00:04.628,-0.027232505264692022
1158,00:00:04.632,-0.03020658390596507
1159,00:00:04.636,-0.005503491498529929
1160,00:00:04.64,-0.01089411415159703
1161,00:00:04.644,0.02381802047602835
1162,00:00:04.648,0.0290849919547327
1163,00:00:04.652,0.007910574320703771
1164,00:00:04.656,-0.08164280652999878
1165,00:00:04.66,0.0370894651859998
1166,00:00:04.664,0.01904827635735276
1167,00:00:04.668,0.028256291057914513
1168,00:00:04.672,-0.0599027499556542
1169,00:00:04.676,0.0241696140728891
1170,00:00:04.68,0.03205713722854848
1171,00:00:04.684,-0.006607111543416984
1172,00:00:04.688,-0.06653484422713522
1173,00:00:04.692,-0.004658986348658798
1174,00:00:04.696,0.06209291331470017
1175,00:00:04.7,-0.006752150307875123
1176,00:00:04.704,0.013924544444307648
1177,00:00:04.708,-0.007405195261526387
1178,00:00:04.712,-0.029365026683080893
1179,00:00:04.716,0.00471167685464025
1180,00:00:04.72,-0.0103172110393643
1181,00:00:04.724,0.008384743239730581
1182,00:00:04.728,0.00844251317903395
1183,00:00:04.732,0.028445924632251266
1184,00:00:04.736,-0.03031709138304
1185,00:00:04.74,0.01347999088466168
1186,00:00:04.744,0.03401893191039563
1187,00:00:04.748,-0.03865619318094103
1188,00:00:04.752,-0.06295009767927699
1189,00:00:04.756,0.01483541482593866
1190,00:00:04.76,0.036875517631415305
1191,00:00:04.764,0.0185780273750425
1192,00:00:04.768,0.0481573138386011
1193,00:00:04.772,-0.02284009754657748
1194,00:00:04.776,-0.08220922481268639
1195,00:00:04.78,0.03345024396548983
1196,00:00:04.784,-0.020162425003945852
1197,00:00:04.788,0.03712567780166862
1198,00:00:04.792,0.0360132018104196
1199,00:00:04.796,-0.01478892075829212
1200,00:00:04.8,-0.037933396641165046
1201,00:00:04.804,-0.029250902589410502
1202,00:00:04.808,0.02061923872679475
1203,00:00:04.812,0.006103648338466881
1204,00:00:04.816,0.03758990368805826
1205,00:00:04.82,0.01724171731621025
1206,00:00:04.824,-0.025626777089200914
1207,00:00:04.828,-0.05148964282125236
1208,00:00:04.832,0.006314710713922981
1209,00:00:04.836,0.04185471509117631
1210,00:00:04.84,-0.06037002289667728
1211,00:00:04.844,0.0766718424856663
1212,00:00:04.848,0.0406876588240266
1213,00:00:04.852,-0.0462669199332595
1214,00:00:04.856,-0.03534523025155071
1215,00:00:04.86,-0.0173422894440591
1216,00:00:04.864,-0.0119843897409737
1217,00:00:04.868,0.012814093148335821
1218,00:00:04.872,0.045633329544216464
1219,00:00:04.876,0.0005074485670775201
1220,00:00:04.88,-0.0008264672942459687
1221,00:00:04.884,0.02101153461262584
1222,00:00:04.888,-0.02955062501132492
1223,00:00:04.892,-0.05427641980350018
1224,00:00:04.896,0.019993082387372872
1225,00:00:04.9,0.01746920670848336
1226,00:00:04.904,0.04133948299568146
1227,00:00:04.908,-0.009811376803554591
1228,00:00:04.912,-0.043684545438736636
1229,00:00:04.916,-0.0019276244565844952
1230,00:00:04.92,0.02394879655912516
1231,00:00:04.924,0.03424875414930283
1232,00:00:04.928,0.007457011844962832
1233,00:00:04.932,-0.047493658028542995
1234,00:00:04.936,-0.04586038924753661
1235,00:00:04.94,0.023918633349239903
1236,00:00:04.944,0.02266463870182633
1237,00:00:04.948,0.010108166956342719
1238,00:00:04.952,0.016170617658644935
1239,00:00:04.956,-0.016576326248468807
1240,00:00:04.96,-0.02975222188979388
1241,00:00:04.964,0.05148375127464531
1242,00:00:04.968,0.018534357717726345
1243,00:00:04.972,-0.11116538383066649
1244,00:00:04.976,0.0750387869775295
1245,00:00:04.98,0.02574658894445748
1246,00:00:04.984,-0.07732539530843499
1247,00:00:04.988,-0.02452040580101308
1248,00:00:04.992,0.07754397392272949
1249,00:00:04.996,0.03632021672092377
1250,00:00:05,0.00560647726524621
1251,00:00:05.004,0.00018947944045068915
1252,00:00:05.008,-0.041549175046384335
1253,00:00:05.012,-0.04226266662590205
1254,00:00:05.016,-0.05630313046276571
1255,00:00:05.02,-0.02228402439504861
1256,00:00:05.024,0.0719706397503615
1257,00:00:05.028,0.11053823912516234
1258,00:00:05.032,0.025727768894284905
1259,00:00:05.036,-0.0003057165595237259
1260,00:00:05.04,-0.09139410499483343
1261,00:00:05.044,-0.09389072947669774
1262,00:00:05.048,0.0554072018712759
1263,00:00:05.052,0.015677417162805782
1264,00:00:05.056,-0.013044224120676521
1265,00:00:05.06,0.00634958711452778
1266,00:00:05.064,0.05238060886040336
1267,00:00:05.068,0.010678568622097404
1268,00:00:05.072,0.008889767341315781
1269,00:00:05.076,-0.06302253063768146
1270,00:00:05.08,-0.03606970561668284
1271,00:00:05.084,0.0290565229952336
1272,00:00:05.088,0.02357544610276821
1273,00:00:05.092,0.01636800589039927
1274,00:00:05.096,-0.028075268957763914
1275,00:00:05.1,0.009995789965614668
1276,00:00:05.104,0.019613107666373197
1277,00:00:05.108,0.014248967170715303
1278,00:00:05.112,-0.055615172954276176
1279,00:00:05.116,-0.076316848397255
1280,00:00:05.12,0.06053526140749456
1281,00:00:05.124,0.10707544162869449
1282,00:00:05.128,0.0243132114410401
1283,00:00:05.132,-0.054704034584574415
1284,00:00:05.136,-0.09763265424408024
1285,00:00:05.14,-0.061100797727704007
1286,00:00:05.144,0.0937626389786601
1287,00:00:05.148,0.0901046693325043
1288,00:00:05.152,-0.014768985100090488
1289,00:00:05.156,-0.01515933591872454
1290,00:00:05.16,-0.04118211148306725
1291,00:00:05.164,-0.07155475392937659
1292,00:00:05.168,0.0459823159035295
1293,00:00:05.172,0.05667488201288512
1294,00:00:05.176,0.030657273484394
1295,00:00:05.18,-0.0605331771075725
1296,00:00:05.184,-0.036305497807916226
1297,00:00:05.188,0.03496361337602143
1298,00:00:05.192,-0.022930652601644393
1299,00:00:05.196,0.0550178559496999
1300,00:00:05.2,0.006476459209807261
1301,00:00:05.204,-0.01720055192708973
1302,00:00:05.208,0.011360604781657438
1303,00:00:05.212,-0.03440937260165808
1304,00:00:05.216,-0.10364323970861736
1305,00:00:05.22,0.0760317090898752
1306,00:00:05.224,0.07119456306099893
1307,00:00:05.228,0.0247227735817433
1308,00:00:05.232,-0.0073450515046716205
1309,00:00:05.236,-0.0418711919337511
1310,00:00:05.24,-0.037362234666943606
1311,00:00:05.244,-0.0644634906202555
1312,00:00:05.248,0.05442820582538847
1313,00:00:05.252,0.0653452826663851
1314,00:00:05.256,0.02337719447677951
1315,00:00:05.26,-0.03176978137344125
1316,00:00:05.264,-0.006049382267519821
1317,00:00:05.268,-0.01684415293857457
1318,00:00:05.272,-0.022237172117456818
1319,00:00:05.276,-0.03998636174947022
1320,00:00:05.28,0.02969648595899335
1321,00:00:05.284,0.08608276769518852
1322,00:00:05.288,-0.008434996474534289
1323,00:00:05.292,-0.026927828032057764
1324,00:00:05.296,-0.04260418436024334
1325,00:00:05.3,0.012890513055026514
1326,00:00:05.304,0.008110097172902914
1327,00:00:05.308,0.03988563828170295
1328,00:00:05.312,-0.08567750547081229
1329,00:00:05.316,0.02968902513384815
1330,00:00:05.32,0.0494797565042972
1331,00:00:05.324,0.00967184267938137
1332,00:00:05.328,-0.0222769379615783
1333,00:00:05.332,-0.045246203429997
1334,00:00:05.336,-0.01531238202005623
1335,00:00:05.34,0.01665779924951497
1336,00:00:05.344,0.05268846545368433
1337,00:00:05.348,0.0110261049121618
1338,00:00:05.352,0.00701998872682452
1339,00:00:05.356,-0.0374724781140685
1340,00:00:05.36,-0.0630891853943467
1341,00:00:05.364,0.06214496027678249
1342,00:00:05.368,-0.03584377467632298
1343,00:00:05.372,0.03131504263728855
1344,00:00:05.376,0.01272894907742746
1345,00:00:05.38,0.002745939418673511
1346,00:00:05.384,0.01140284887515009
1347,00:00:05.388,0.00960570201277728
1348,00:00:05.392,-0.11709664529189467
1349,00:00:05.396,0.02293581049889327
1350,00:00:05.4,0.07976690493524069
1351,00:00:05.404,0.046947317197918906
1352,00:00:05.408,-0.02360897537437272
1353,00:00:05.412,-0.060904330573976
1354,00:00:05.416,0.011381202144548228
1355,00:00:05.42,-0.02617021370679136
1356,00:00:05.424,-0.007021698169410241
1357,00:00:05.428,0.02583239134401079
1358,00:00:05.432,0.01688696024939422
1359,00:00:05.436,0.005723287351429506
1360,00:00:05.44,0.03289501229301089
1361,00:00:05.444,-0.0682733841240406
1362,00:00:05.448,-0.0009828838519751995
1363,00:00:05.452,0.024169542826712142
1364,00:00:05.456,0.0267800427973271
1365,00:00:05.46,0.016486448013893096
1366,00:00:05.464,-0.035951516125351204
1367,00:00:05.468,-0.038493363186717006
1368,00:00:05.472,-0.03439807705581191
1369,00:00:05.476,0.04278712067753069
1370,00:00:05.48,0.08617437002249065
1371,00:00:05.484,-0.0071623544208705495
1372,00:00:05.488,-0.0959383230656385
1373,00:00:05.492,0.029995916411280594
1374,00:00:05.496,0.009460152126848725
1375,00:00:05.5,0.01663181325420738
1376,00:00:05.504,0.009156802763754926
1377,00:00:05.508,-0.027105387765914202
1378,00:00:05.512,-0.052316619083285415
1379,00:00:05.516,0.02453563804738228
1380,00:00:05.52,0.049472489394247504
1381,00:00:05.524,0.02293601061683147
1382,00:00:05.528,-0.003518498153425779
1383,00:00:05.532,-0.04095724737271672
1384,00:00:05.536,-0.02446922264061864
1385,00:00:05.54,-0.009522324427962279
1386,00:00:05.544,0.03756969491951167
1387,00:00:05.548,-0.010591087397187931
1388,00:00:05.552,-0.02869362115961851
1389,00:00:05.556,0.05157820414751765
1390,00:00:05.56,0.02902226557489486
1391,00:00:05.564,-0.00886039066244848
1392,00:00:05.568,-0.01916401018388567
1393,00:00:05.572,-0.02570221270434561
1394,00:00:05.576,0.013408918282948431
1395,00:00:05.58,-0.005448175594210642
1396,00:00:05.584,-0.03268548287451266
1397,00:00:05.588,0.017155372886918468
1398,00:00:05.592,0.035341789945959996
1399,00:00:05.596,0.030470877769403194
1400,00:00:05.6,-0.06175237521529191
1401,00:00:05.604,-0.02644614636665215
1402,00:00:05.608,0.02478000940755014
1403,00:00:05.612,0.03260697238147262
1404,00:00:05.616,-0.0370756015181541
1405,00:00:05.62,-0.021794896805658912
1406,00:00:05.624,0.10401255637407311
1407,00:00:05.628,-0.00221127364784478
1408,00:00:05.632,-0.031828164006583316
1409,00:00:05.636,-0.008007105672732
1410,00:00:05.64,-0.06869357079267505
1411,00:00:05.644,-0.05093921348452567
1412,00:00:05.648,0.04085908713750537
1413,00:00:05.652,0.12689623469486827
1414,00:00:05.656,0.0500796698033809
1415,00:00:05.66,-0.09660679288208479
1416,00:00:05.664,-0.07166976109147069
1417,00:00:05.668,-0.01282936963252723
1418,00:00:05.672,0.046370752621442024
1419,00:00:05.676,0.05242495518177751
1420,00:00:05.68,-0.0014522432466037545
1421,00:00:05.684,-0.022118769236840294
1422,00:00:05.688,-0.0180989045184106
1423,00:00:05.692,-0.03966358397156
1424,00:00:05.696,0.01592765911482279
1425,00:00:05.7,0.04045898956246673
1426,00:00:05.704,0.05187470093369488
1427,00:00:05.708,-0.027375404024496643
1428,00:00:05.712,-0.07016386464238175
1429,00:00:05.716,0.0021551172249018886
1430,00:00:05.72,-0.06482313643209633
1431,00:00:05.724,0.0880318805575371
1432,00:00:05.728,0.10513765970245004
1433,00:00:05.732,0.0001478129997849395
1434,00:00:05.736,-0.0723312627524137
1435,00:00:05.74,-0.04455094391596512
1436,00:00:05.744,-0.025738472584634978
1437,00:00:05.748,-0.0023742467164993286
1438,00:00:05.752,0.02758644567802545
1439,00:00:05.756,0.02792646177113058
1440,00:00:05.76,0.01830655941739681
1441,00:00:05.764,-0.01072013331577179
1442,00:00:05.768,-0.01669984799809756
1443,00:00:05.772,0.023167853709310293
1444,00:00:05.776,-0.0010847649537026906
1445,00:00:05.78,-0.0690019261091947
1446,00:00:05.784,0.013831123011186712
1447,00:00:05.788,0.051881411811336875
1448,00:00:05.792,0.012422169791534519
1449,00:00:05.796,-0.002457745373249061
1450,00:00:05.8,-0.02027730690315368
1451,00:00:05.804,-0.0445003742352128
1452,00:00:05.808,0.0401949728257023
1453,00:00:05.812,0.051191538572311304
1454,00:00:05.816,-0.01169767673127349
1455,00:00:05.82,-0.04772283509373662
1456,00:00:05.824,-0.07673746161162855
1457,00:00:05.828,0.03728395653888587
1458,00:00:05.832,0.015843936707824476
1459,00:00:05.836,0.055331893614493304
1460,00:00:05.84,0.01549718785099687
1461,00:00:05.844,0.020353421685285877
1462,00:00:05.848,-0.03697742335498329
1463,00:00:05.852,-0.029511896427720827
1464,00:00:05.856,-0.01167535991407927
1465,00:00:05.86,-0.0509926509112119
1466,00:00:05.864,0.04413294233381743
1467,00:00:05.868,0.0399928577244282
1468,00:00:05.872,0.0453076772391796
1469,00:00:05.876,-0.02678688487503682
1470,00:00:05.88,-0.050563202239572995
1471,00:00:05.884,-0.0012198779731988976
1472,00:00:05.888,-0.01725290203467008
1473,00:00:05.892,0.00559871131554247
1474,00:00:05.896,0.04064512457262033
1475,00:00:05.9,0.02847021527122702
1476,00:00:05.904,-0.00781305087730288
1477,00:00:05.908,-0.02076888177543878
1478,00:00:05.912,-0.01745619159191847
1479,00:00:05.916,-0.015670687891542908
1480,00:00:05.92,0.02426904859021301
1481,00:00:05.924,-0.029910572950029718
1482,00:00:05.928,-0.053656393662094994
1483,00:00:05.932,0.10323346592485905
1484,00:00:05.936,0.0325181279331446
1485,00:00:05.94,0.0460097772302106
1486,00:00:05.944,-0.08953527361154559
1487,00:00:05.948,-0.094383300282061
1488,00:00:05.952,0.011591511778533441
1489,00:00:05.956,0.0820234133861959
1490,00:00:05.96,0.028562001883983543
1491,00:00:05.964,0.005738696476328188
1492,00:00:05.968,-0.04669868899509311
1493,00:00:05.972,-0.042785161174833726
1494,00:00:05.976,0.03230967069976031
1495,00:00:05.98,0.0516434127930552
1496,00:00:05.984,-0.008034029044211001
1497,00:00:05.988,-0.051597688230685945
1498,00:00:05.992,-0.01945391576737164
1499,00:00:05.996,0.02548975683748724
1500,00:00:06,0.061183549812994925
1501,00:00:06.004,-0.03591047832742327
1502,00:00:06.008,-0.02673844527453185
1503,00:00:06.012,0.008141523227095621
1504,00:00:06.016,0.002783911069855101
1505,00:00:06.02,0.00980335645726886
1506,00:00:06.024,0.0684363525360822
1507,00:00:06.028,-0.1279342211782932
1508,00:00:06.032,-0.04037305340170863
1509,00:00:06.036,0.1138495802879334
1510,00:00:06.04,0.0365439844317734
1511,00:00:06.044,0.001958894776180389
1512,00:00:06.048,-0.03532173484563832
1513,00:00:06.052,-0.051980150863528196
1514,00:00:06.056,-0.04262445308268066
1515,00:00:06.06,0.07186381338397041
1516,00:00:06.064,0.031931148841977196
1517,00:00:06.068,0.01448412763420492
1518,00:00:06.072,-0.0835428657010197
1519,00:00:06.076,-0.0058430121280253
1520,00:00:06.08,0.07014786358922726
1521,00:00:06.084,0.018676814623177104
1522,00:00:06.088,-0.026388829573988908
1523,00:00:06.092,-0.0660100094974041
1524,00:00:06.096,0.02670492255128916
1525,00:00:06.1,0.018245772924274237
1526,00:00:06.104,0.004365009721368591
1527,00:00:06.108,0.027757286559790387
1528,00:00:06.112,0.003532115835696459
1529,00:00:06.116,0.00694365659728646
1530,00:00:06.12,-0.1455039475113154
1531,00:00:06.124,0.05360755417495963
1532,00:00:06.128,0.0900794584304094
1533,00:00:06.132,0.008386261528357909
1534,00:00:06.136,-0.03780520847067237
1535,00:00:06.14,0.009976819972507659
1536,00:00:06.144,0.01834062219131731
1537,00:00:06.148,-0.04885498352814459
1538,00:00:06.152,-0.06087170727550986
1539,00:00:06.156,0.0343738533556461
1540,00:00:06.16,0.0360178956761956
1541,00:00:06.164,0.035699362211744266
1542,00:00:06.168,-0.010194242233410568
1543,00:00:06.172,0.003448020142968746
1544,00:00:06.176,-0.03192715253680946
1545,00:00:06.18,0.02143753995187576
1546,00:00:06.184,-0.00741211650893093
1547,00:00:06.188,-0.05104050273075699
1548,00:00:06.192,0.015185176162049181
1549,00:00:06.196,-0.01843723189085722
1550,00:00:06.2,0.06551927991677081
1551,00:00:06.204,0.037313183769583765
1552,00:00:06.208,0.00160744035383686
1553,00:00:06.212,-0.06363198324106627
1554,00:00:06.216,-0.06499335542321208
1555,00:00:06.22,0.005318067269399762
1556,00:00:06.224,0.11380994878709311
1557,00:00:06.228,0.021023631095886303
1558,00:00:06.232,-0.06457086559385064
1559,00:00:06.236,-0.0390471061691641
1560,00:00:06.24,0.005116697400808355
1561,00:00:06.244,0.022878841613419333
1562,00:00:06.248,0.007088645594194519
1563,00:00:06.252,-0.01432076143100859
1564,00:00:06.256,0.0537168532609939
1565,00:00:06.26,-0.016740654595196303
1566,00:00:06.264,-0.03742442280054089
1567,00:00:06.268,-0.0226691206917167
1568,00:00:06.272,-0.014285816811025136
1569,00:00:06.276,0.07259348314255475
1570,00:00:06.28,0.0355798145756125
1571,00:00:06.284,-0.02334568044170745
1572,00:00:06.288,-0.03391255345195537
1573,00:00:06.292,-0.10367454215884217
1574,00:00:06.296,0.0762350736185908
1575,00:00:06.3,0.09323390014469624
1576,00:00:06.304,0.005054403096437449
1577,00:00:06.308,-0.05484966514632103
1578,00:00:06.312,-0.060827446402981836
1579,00:00:06.316,-0.0900214845314622
1580,00:00:06.32,0.11861256044358011
1581,00:00:06.324,0.10892198735382405
1582,00:00:06.328,-0.02040624246001245
1583,00:00:06.332,-0.07547630206681782
1584,00:00:06.336,-0.02458183444105085
1585,00:00:06.34,0.014756902179215079
1586,00:00:06.344,0.025361206848174337
1587,00:00:06.348,-0.03434304334223275
1588,00:00:06.352,-0.01716770604252817
1589,00:00:06.356,0.016925791394896778
1590,00:00:06.36,0.048533668741583796
1591,00:00:06.364,0.00536178326001386
1592,00:00:06.368,-0.011006998829543561
1593,00:00:06.372,-0.03196431137621394
1594,00:00:06.376,-0.045322902034968096
1595,00:00:06.38,0.08956377208232881
1596,00:00:06.384,-0.0057172870438079535
1597,00:00:06.388,-0.037707956507802065
1598,00:00:06.392,0.0031083230860531794
1599,00:00:06.396,-0.011026724801922683
1600,00:00:06.4,0.011437426554039098
1601,00:00:06.404,0.02207380020990969
1602,00:00:06.408,0.023416638476192055
1603,00:00:06.412,-0.05078832153230903
1604,00:00:06.416,-0.05044221878051758
1605,00:00:06.42,0.057525536045432105
1606,00:00:06.424,0.06412745453417301
1607,00:00:06.428,-0.0052957481238991
1608,00:00:06.432,-0.11259252647869285
1609,00:00:06.436,-0.03089907986577599
1610,00:00:06.44,0.0733680035918951
1611,00:00:06.444,0.06790208257734781
1612,00:00:06.448,0.02367265708744522
1613,00:00:06.452,-0.052459301892668043
1614,00:00:06.456,-0.0494673391804099
1615,00:00:06.46,-0.007583497252198911
1616,00:00:06.464,0.0002740516792982886
1617,00:00:06.468,0.005564773571677508
1618,00:00:06.472,0.07374777365475892
1619,00:00:06.476,-0.0136550152674318
1620,00:00:06.48,-0.0390852149575948
1621,00:00:06.484,0.0082854367792606
1622,00:00:06.488,-0.020695497514680028
1623,00:00:06.492,-0.017935547046363277
1624,00:00:06.496,0.04829547693952921
1625,00:00:06.5,0.04825266893021758
1626,00:00:06.504,-0.03670594189316037
1627,00:00:06.508,-0.04295385256409647
1628,00:00:06.512,-0.013896096730604802
1629,00:00:06.516,0.00726983114145692
1630,00:00:06.52,-0.02565427077934141
1631,00:00:06.524,0.06376947928220039
1632,00:00:06.528,0.05669445265084504
1633,00:00:06.532,-0.011968405218794949
1634,00:00:06.536,-0.038297056686133105
1635,00:00:06.54,-0.053653937997296404
1636,00:00:06.544,-0.0458207204937935
1637,00:00:06.548,0.1011177860200405
1638,00:00:06.552,-0.02357140579260887
1639,00:00:06.556,-0.0162898115813732
1640,00:00:06.56,0.030848647700622702
1641,00:00:06.564,0.04275206453166907
1642,00:00:06.568,-0.01832520356401801
1643,00:00:06.572,-0.054706871975213366
1644,00:00:06.576,-0.0053300478029996105
1645,00:00:06.58,0.020053576445206948
1646,00:00:06.584,0.020881583550362827
1647,00:00:06.588,-0.02018818608485164
1648,00:00:06.592,-0.030207716801669497
1649,00:00:06.596,0.0284427152946592
1650,00:00:06.6,0.01232111279387027
1651,00:00:06.604,0.02037652593571692
1652,00:00:06.608,-0.01699458248913286
1653,00:00:06.612,-0.00624801777303214
1654,00:00:06.616,-0.02529891394078729
1655,00:00:06.62,0.003902524011209581
1656,00:00:06.624,0.03533200989477335
1657,00:00:06.628,-0.018135018995963093
1658,00:00:06.632,-0.0024267068693006907
1659,00:00:06.636,0.03687924053519967
1660,00:00:06.64,-0.023936363169923428
1661,00:00:06.644,-0.01682806853204967
1662,00:00:06.648,-0.00895247515290981
1663,00:00:06.652,-0.05659672478213903
1664,00:00:06.656,0.0628308355808258
1665,00:00:06.66,0.06209017266519368
1666,00:00:06.664,0.01817831024527551
1667,00:00:06.668,-0.020506379660218947
1668,00:00:06.672,-0.0497079496853985
1669,00:00:06.676,-0.11820342275314036
1670,00:00:06.68,0.009502418106421849
1671,00:00:06.684,0.1387034989893437
1672,00:00:06.688,0.0478267064318061
1673,00:00:06.692,0.00665908562950787
1674,00:00:06.696,-0.07926234509795901
1675,00:00:06.7,-0.06413392955437301
1676,00:00:06.704,0.03635869768913837
1677,00:00:06.708,0.032141366973519284
1678,00:00:06.712,0.013099933043122292
1679,00:00:06.716,-0.03490979410707952
1680,00:00:06.72,-0.0379113256931304
1681,00:00:06.724,0.07361192861571901
1682,00:00:06.728,-0.00977964419871572
1683,00:00:06.732,0.006143834441900201
1684,00:00:06.736,-0.023057562764734012
1685,00:00:06.74,-0.01984581991564481
1686,00:00:06.744,-0.008696255274117022
1687,00:00:06.748,0.0351764559745789
1688,00:00:06.752,0.0797315561212599
1689,00:00:06.756,-0.0592644845601171
1690,00:00:06.76,-0.14201527088880528
1691,00:00:06.764,0.1333989426493644
1692,00:00:06.768,0.054486295208335
1693,00:00:06.772,-0.073410639539361
1694,00:00:06.776,-0.01140505168586971
1695,00:00:06.78,-0.002166442805901201
1696,00:00:06.784,-0.004454910289496181
1697,00:00:06.788,0.005986602045595681
1698,00:00:06.792,0.051411335356533555
1699,00:00:06.796,0.0039014993235468934
1700,00:00:06.8,-0.05651670461520561
1701,00:00:06.804,-0.048228042200207696
1702,00:00:06.808,0.06800934765487901
1703,00:00:06.812,0.0422480162233115
1704,00:00:06.816,-0.027495822403579992
1705,00:00:06.82,-0.04343345807865258
1706,00:00:06.824,0.018986034207046087
1707,00:00:06.828,-0.018207397311925902
1708,00:00:06.832,0.06758640427142379
1709,00:00:06.836,0.02649016212672
1710,00:00:06.84,-0.0994183328002691
1711,00:00:06.844,-0.043549635447561755
1712,00:00:06.848,0.043454154394566985
1713,00:00:06.852,0.04227608488872652
1714,00:00:06.856,0.03747587837278839
1715,00:00:06.86,-0.021560791414231045
1716,00:00:06.864,-0.040163969155400964
1717,00:00:06.868,0.014406847829377461
1718,00:00:06.872,0.0027998246951028948
1719,00:00:06.876,-0.01824923983076584
1720,00:00:06.88,-0.003143434412777396
1721,00:00:06.884,-0.024428715929389024
1722,00:00:06.888,-0.019457926042377997
1723,00:00:06.892,0.1358526116237044
1724,00:00:06.896,-0.01594993378967052
1725,00:00:06.9,-0.025039636064320817
1726,00:00:06.904,0.0018370705656707903
1727,00:00:06.908,-0.0863531269133091
1728,00:00:06.912,-0.06698638712987302
1729,00:00:06.916,0.08883741777390243
1730,00:00:06.92,0.0943118249997496
1731,00:00:06.924,-0.0592163447290659
1732,00:00:06.928,0.03242372570093716
1733,00:00:06.932,-0.017745347693562417
1734,00:00:06.936,-0.03649986430536954
1735,00:00:06.94,0.013917838339693851
1736,00:00:06.944,-0.03036065070773472
1737,00:00:06.948,0.02503074286505575
1738,00:00:06.952,0.02117364597506825
1739,00:00:06.956,0.0111224465072155
1740,00:00:06.96,-0.01754054729826745
1741,00:00:06.964,-0.02653785212896766
1742,00:00:06.968,-0.038973169401288095
1743,00:00:06.972,0.04726565256714829
1744,00:00:06.976,0.021446075290441513
1745,00:00:06.98,-0.005773643031716298
1746,00:00:06.984,0.03853172343224292
1747,00:00:06.988,0.035769117996096604
1748,00:00:06.992,-0.1150558032095432
1749,00:00:06.996,-0.031935049919411485
1750,00:00:07,0.05523795075714585
1751,00:00:07.004,-0.022405148949474124
1752,00:00:07.008,0.029352501034736647
1753,00:00:07.012,0.028421378694474607
1754,00:00:07.016,0.01671677595004443
1755,00:00:07.02,0.01611648872494702
1756,00:00:07.024,-0.03337319730781022
1757,00:00:07.028,-0.0430401256307959
1758,00:00:07.032,-0.04327313369140029
1759,00:00:07.036,0.0018352817278355403
1760,00:00:07.04,0.06663219211623068
1761,00:00:07.044,0.04472016217187051
1762,00:00:07.048,-0.02190765412524346
1763,00:00:07.052,-0.02137617906555537
1764,00:00:07.056,-0.04364594770595434
1765,00:00:07.06,0.039028116501867736
1766,00:00:07.064,0.036474378313869266
1767,00:00:07.068,-0.06586703751236204
1768,00:00:07.072,0.004398740828037257
1769,00:00:07.076,-0.0393244419246912
1770,00:00:07.08,0.0605087094008922
1771,00:00:07.084,0.1026233322918416
1772,00:00:07.088,-0.079959586262703
1773,00:00:07.092,-0.04703114647418259
1774,00:00:07.096,0.03400030150078234
1775,00:00:07.1,0.009613725356757669
1776,00:00:07.104,0.011756939580664021
1777,00:00:07.108,-0.048010034486651504
1778,00:00:07.112,-0.0775124840438366
1779,00:00:07.116,0.04967328719794748
1780,00:00:07.12,0.1036855559796095
1781,00:00:07.124,-0.006077752448618409
1782,00:00:07.128,-0.06508441246114668
1783,00:00:07.132,0.00850810809060931
1784,00:00:07.136,0.0337836691178381
1785,00:00:07.14,-0.054713983088731835
1786,00:00:07.144,0.017370613291859592
1787,00:00:07.148,0.0018315939232707093
1788,00:00:07.152,-0.006999445613473669
1789,00:00:07.156,0.042525022756308345
1790,00:00:07.16,0.0015836069360375396
1791,00:00:07.164,0.002235237334389235
1792,00:00:07.168,-0.022264882456511283
1793,00:00:07.172,-0.0956003554165363
1794,00:00:07.176,-0.04326340276747945
1795,00:00:07.18,0.167301220819354
1796,00:00:07.184,0.07858405169099565
1797,00:00:07.188,-0.043877331539988504
1798,00:00:07.192,-0.06272470066323874
1799,00:00:07.196,-0.062185640446841724
1800,00:00:07.2,-0.0004886186216026597
1801,00:00:07.204,0.05777654098346824
1802,00:00:07.208,0.01035146950744089
1803,00:00:07.212,-0.013052597641944849
1804,00:00:07.216,-0.0545013258233666
1805,00:00:07.22,0.02705909195356073
1806,00:00:07.224,0.04459407448666752
1807,00:00:07.228,0.027569126337766595
1808,00:00:07.232,-0.020144960843026652
1809,00:00:07.236,-0.012969290371984292
1810,00:00:07.24,-0.00490122009068728
1811,00:00:07.244,-0.04498534835875031
1812,00:00:07.248,0.01109746191650629
1813,00:00:07.252,-0.08128616586327556
1814,00:00:07.256,0.08156560687348244
1815,00:00:07.26,0.14457690482959157
1816,00:00:07.264,-0.016700299922376868
1817,00:00:07.268,-0.0827356595546008
1818,00:00:07.272,-0.07992617227137092
1819,00:00:07.276,-0.016458859667182
1820,00:00:07.28,0.059259183704853
1821,00:00:07.284,0.054389998316764776
1822,00:00:07.288,-0.016690091506461606
1823,00:00:07.292,-0.0152520313858986
1824,00:00:07.296,-0.03217395395040513
1825,00:00:07.3,-0.004064820881467309
1826,00:00:07.304,0.03081623325124389
1827,00:00:07.308,-0.016904623247683
1828,00:00:07.312,0.04252188472310084
1829,00:00:07.316,0.0038061691448091593
1830,00:00:07.32,-0.01930368505418297
1831,00:00:07.324,0.0034755794331430816
1832,00:00:07.328,0.0006115794531069711
1833,00:00:07.332,0.02491346828173847
1834,00:00:07.336,-0.13372839987277937
1835,00:00:07.34,-0.054093176266178475
1836,00:00:07.344,0.17566544562578162
1837,00:00:07.348,0.044329747557640097
1838,00:00:07.352,-0.00212755636312067
1839,00:00:07.356,-0.020312906242907
1840,00:00:07.36,-0.0261367317289114
1841,00:00:07.364,-0.0257041715085506
1842,00:00:07.368,-0.04503687284886841
1843,00:00:07.372,-0.02739907731302084
1844,00:00:07.376,0.02883588522672655
1845,00:00:07.38,0.05276724696159358
1846,00:00:07.384,0.04777412116527554
1847,00:00:07.388,0.03099614847451444
1848,00:00:07.392,-0.0949478205293417
1849,00:00:07.396,-0.08829703927040103
1850,00:00:07.4,0.04725628660526128
1851,00:00:07.404,0.10632312670350069
1852,00:00:07.408,0.0035949422745034307
1853,00:00:07.412,-0.06513025215826929
1854,00:00:07.416,-0.03815550729632371
1855,00:00:07.42,0.0762777049094438
1856,00:00:07.424,-0.04702122462913388
1857,00:00:07.428,-0.006913852557772777
1858,00:00:07.432,0.062419716268777896
1859,00:00:07.436,-0.037015656009316424
1860,00:00:07.44,-0.0301692616194486
1861,00:00:07.444,0.02706552902236583
1862,00:00:07.448,0.019853932783007705
1863,00:00:07.452,-0.01960848551243544
1864,00:00:07.456,-0.0183702688664199
1865,00:00:07.46,7.666507735855019e-05
1866,00:00:07.464,-0.01095084450207655
1867,00:00:07.468,0.0362120885401963
1868,00:00:07.472,0.028324030339717896
1869,00:00:07.476,-0.0255577014759183
1870,00:00:07.48,-0.029076102189719705
1871,00:00:07.484,0.031891030259430436
1872,00:00:07.488,0.00174018228426576
1873,00:00:07.492,-0.03926845872774719
1874,00:00:07.496,0.013639964163303429
1875,00:00:07.5,0.0019403974292799804
1876,00:00:07.504,0.018474965530913323
1877,00:00:07.508,0.010673764161765503
1878,00:00:07.512,-0.033198517747223356
1879,00:00:07.516,-0.0340226087719203
1880,00:00:07.52,0.0513418810442089
1881,00:00:07.524,0.015902630984783204
1882,00:00:07.528,-0.0032794997096062123
1883,00:00:07.532,0.0003419918939471297
1884,00:00:07.536,-0.0187139082700015
1885,00:00:07.54,0.0435593300499022
1886,00:00:07.544,-0.04789658490335563
1887,00:00:07.548,-0.03319056774489576
1888,00:00:07.552,-0.02833229908719656
1889,00:00:07.556,0.042913241311907754
1890,00:00:07.56,0.039467306807637215
1891,00:00:07.564,0.019298130180686678
1892,00:00:07.568,-0.00830695312470197
1893,00:00:07.572,0.016262394376099075
1894,00:00:07.576,-0.02451721834950148
1895,00:00:07.58,-0.06015276275866195
1896,00:00:07.584,-0.02065156144089997
1897,00:00:07.588,0.07829794939607383
1898,00:00:07.592,-0.04884304525330661
1899,00:00:07.596,0.00490116933360691
1900,00:00:07.6,0.07057072198949753
1901,00:00:07.604,0.012274652719497701
1902,00:00:07.608,-0.007383496966212998
1903,00:00:07.612,-0.05581193184480076
1904,00:00:07.616,-0.031913945451378906
1905,00:00:07.62,0.011345750419422948
1906,00:00:07.624,0.02686732541769747
1907,00:00:07.628,0.006138160824775741
1908,00:00:07.632,0.007306040497496699
1909,00:00:07.636,-0.016251284629106487
1910,00:00:07.64,0.03132348367944362
1911,00:00:07.644,-0.01724116632249205
1912,00:00:07.648,-0.1212160512804985
1913,00:00:07.652,0.0778805259615182
1914,00:00:07.656,0.1036209324374795
1915,00:00:07.66,-0.005074590444564859
1916,00:00:07.664,-0.0413124638143927
1917,00:00:07.668,-0.0023803515359759816
1918,00:00:07.672,-0.04188851453363891
1919,00:00:07.676,-0.06740927230566734
1920,00:00:07.68,0.04435964301228519
1921,00:00:07.684,0.08084448892623186
1922,00:00:07.688,0.028369566425681097
1923,00:00:07.692,-0.013988404767587781
1924,00:00:07.696,-0.0380202494561672
1925,00:00:07.7,-0.0467923581600189
1926,00:00:07.704,-0.07371737901121378
1927,00:00:07.708,0.05257722176611421
1928,00:00:07.712,0.08731806516880176
1929,00:00:07.716,0.03465969255194074
1930,00:00:07.72,0.004612635821104041
1931,00:00:07.724,-0.03865664172917611
1932,00:00:07.728,-0.09074055589735501
1933,00:00:07.732,0.019295542617328493
1934,00:00:07.736,0.009733259677886956
1935,00:00:07.74,0.007749133772449568
1936,00:00:07.744,0.047826673835516004
1937,00:00:07.748,0.01611822284758093
1938,00:00:07.752,-0.0689704717369751
1939,00:00:07.756,-0.0017140745185315505
1940,00:00:07.76,0.03434554836712774
1941,00:00:07.764,0.021574049722403288
1942,00:00:07.768,0.0198126551695168
1943,00:00:07.772,-0.03847654955461624
1944,00:00:07.776,-0.05105358827859166
1945,00:00:07.78,0.051601273939013495
1946,00:00:07.784,-0.028108291095122733
1947,00:00:07.788,-0.0733272358775139
1948,00:00:07.792,0.0794381285086274
1949,00:00:07.796,0.053104660473764005
1950,00:00:07.8,0.008435902185738097
1951,00:00:07.804,0.01204181392677128
1952,00:00:07.808,-0.0158260501921177
1953,00:00:07.812,-0.0674433982931077
1954,00:00:07.816,-0.08408514130860567
1955,00:00:07.82,0.0646306758280844
1956,00:00:07.824,0.020688423421233892
1957,00:00:07.828,-0.009021586272865489
1958,00:00:07.832,0.08601403050124654
1959,00:00:07.836,0.0510272204410284
1960,00:00:07.84,-0.09273954667150969
1961,00:00:07.844,-0.02448788890615102
1962,00:00:07.848,-0.014741759427124601
1963,00:00:07.852,0.00619858014397325
1964,00:00:07.856,0.00591486805933528
1965,00:00:07.86,-0.01591355167329304
1966,00:00:07.864,-0.026321039535105183
1967,00:00:07.868,0.0518575655296445
1968,00:00:07.872,0.054289462044834993
1969,00:00:07.876,0.02003019675612441
1970,00:00:07.88,-0.029448859626427317
1971,00:00:07.884,-0.09685287624597551
1972,00:00:07.888,-0.006932556629180901
1973,00:00:07.892,0.022258401382714503
1974,00:00:07.896,0.03835305990651257
1975,00:00:07.9,0.0428205756470561
1976,00:00:07.904,0.02294940839055927
1977,00:00:07.908,-0.048370286356657695
1978,00:00:07.912,-0.048545992933213725
1979,00:00:07.916,0.01857046256191094
1980,00:00:07.92,-0.010979539249092302
1981,00:00:07.924,-0.00942850555293262
1982,00:00:07.928,0.04258930217474703
1983,00:00:07.932,-0.010220201336778695
1984,00:00:07.936,0.0379219937603921
1985,00:00:07.94,0.0002936366363428481
1986,00:00:07.944,-0.024725751951336798
1987,00:00:07.948,-0.04092923435382547
1988,00:00:07.952,0.008830957114696497
1989,00:00:07.956,-0.027626138878986236
1990,00:00:07.96,0.03745451755821704
1991,00:00:07.964,0.0547953834757209
1992,00:00:07.968,-0.02933798823505639
1993,00:00:07.972,-0.020132845165790038
1994,00:00:07.976,0.042433217400684994
1995,00:00:07.98,-0.020338232629001113
1996,00:00:07.984,-0.03829303290694951
1997,00:00:07.988,-0.0777803361415864
1998,00:00:07.992,0.061991367489099516
1999,00:00:07.996,0.0748154949396848
2000,00:00:08,0.031003816053271332
2001,00:00:08.004,-0.003084668598603453
2002,00:00:08.008,-0.04418213642202316
2003,00:00:08.012,-0.0704143010079861
2004,00:00:08.016,-0.009160833666101048
2005,00:00:08.02,0.02486487448913974
2006,00:00:08.024,0.03721036257047677
2007,00:00:08.028,0.028378593269735623
2008,00:00:08.032,-0.02295384710305367
2009,00:00:08.036,-0.03608114365488291
2010,00:00:08.04,0.00643009576015172
2011,00:00:08.044,0.0683070905506611
2012,00:00:08.048,-0.025830064900219447
2013,00:00:08.052,-0.02155447076074776
2014,00:00:08.056,-0.027010342106223103
2015,00:00:08.06,0.01951484475284817
2016,00:00:08.064,0.020211553201079382
2017,00:00:08.068,-0.073034206405282
2018,00:00:08.072,0.056181925465352875
2019,00:00:08.076,0.07809631619602436
2020,00:00:08.08,-0.02821867866441603
2021,00:00:08.084,-0.06088074482977391
2022,00:00:08.088,-0.029406345915049273
2023,00:00:08.092,-0.0199095485731959
2024,00:00:08.096,0.015125052072107799
2025,00:00:08.1,0.1356905261054635
2026,00:00:08.104,-0.00032978451054077595
2027,00:00:08.108,-0.12611591909080744
2028,00:00:08.112,-0.020699892193078988
2029,00:00:08.116,0.036825392860919196
2030,00:00:08.12,0.05021125799976291
2031,00:00:08.124,0.04166595777496693
2032,00:00:08.128,-0.07522804196923978
2033,00:00:08.132,-0.10713987611234221
2034,00:00:08.136,0.0945345722138882
2035,00:00:08.14,0.06715231155976654
2036,00:00:08.144,0.011988605372607743
2037,00:00:08.148,-0.011046881903894221
2038,00:00:08.152,-0.027448120061308107
2039,00:00:08.156,-0.0623260438442231
2040,00:00:08.16,-0.0499729597941041
2041,00:00:08.164,0.05467841215431689
2042,00:00:08.168,0.06548037473112349
2043,00:00:08.172,0.019136284012347488
2044,00:00:08.176,-0.0424180002883077
2045,00:00:08.18,0.02361384406685827
2046,00:00:08.184,-0.043595459312200574
2047,00:00:08.188,-0.0315003099385649
2048,00:00:08.192,0.02737578749656678
2049,00:00:08.196,0.010447972454130669
2050,00:00:08.2,0.04340913356281819
2051,00:00:08.204,-0.002317635342478752
2052,00:00:08.208,0.0215855138376356
2053,00:00:08.212,-0.010260824114084221
2054,00:00:08.216,-0.23436607839539658
2055,00:00:08.22,0.0728877000510693
2056,00:00:08.224,0.17568584904074702
2057,00:00:08.228,0.043604238890111405
2058,00:00:08.232,-0.030121565097942983
2059,00:00:08.236,-0.0473572667688132
2060,00:00:08.24,-0.0222425358369946
2061,00:00:08.244,-0.035392656922340296
2062,00:00:08.248,-0.006498116068542071
2063,00:00:08.252,0.007495094090700202
2064,00:00:08.256,-0.005745789967477381
2065,00:00:08.26,0.03835132031235841
2066,00:00:08.264,0.03981524720438755
2067,00:00:08.268,-0.03815163671970359
2068,00:00:08.272,-0.016927557531744276
2069,00:00:08.276,0.0160285672172904
2070,00:00:08.28,0.03099128906615077
2071,00:00:08.284,-0.01577535260003061
2072,00:00:08.288,-0.04971368331462142
2073,00:00:08.292,0.03861826937645681
2074,00:00:08.296,-0.0035160728730261387
2075,00:00:08.3,0.00732146317022853
2076,00:00:08.304,-0.037249962799251114
2077,00:00:08.308,-0.02289552707225082
2078,00:00:08.312,0.07771769911050791
2079,00:00:08.316,0.00104128289967775
2080,00:00:08.32,0.005819394165882836
2081,00:00:08.324,0.00117463758215308
2082,00:00:08.328,-0.07377719879150399
2083,00:00:08.332,-0.03055260959081357
2084,00:00:08.336,0.046465621329844026
2085,00:00:08.34,0.0562063604593277
2086,00:00:08.344,0.002907879184931521
2087,00:00:08.348,-0.02604713849723342
2088,00:00:08.352,-0.00839635671582072
2089,00:00:08.356,-0.034549479372799397
2090,00:00:08.36,0.040173750370740856
2091,00:00:08.364,0.014086351729929399
2092,00:00:08.368,-0.04200336663052436
2093,00:00:08.372,-0.0552426856011153
2094,00:00:08.376,0.07787454687058927
2095,00:00:08.38,0.06048060720786452
2096,00:00:08.384,-0.00533861108124252
2097,00:00:08.388,-0.0416666641831398
2098,00:00:08.392,-0.036373558454215596
2099,00:00:08.396,-0.030665423721075027
2100,00:00:08.4,0.0013396479189395714
2101,00:00:08.404,0.06738653406500819
2102,00:00:08.408,0.008422182872891378
2103,00:00:08.412,-0.0478030880913139
2104,00:00:08.416,0.011770355049520771
2105,00:00:08.42,0.04967211117036644
2106,00:00:08.424,0.01457240805029869
2107,00:00:08.428,-0.0357521020341665
2108,00:00:08.432,-0.07313706167042261
2109,00:00:08.436,-0.029285988770425285
2110,00:00:08.44,0.061426986008882606
2111,00:00:08.444,0.05251966742798682
2112,00:00:08.448,0.016450149356387552
2113,00:00:08.452,0.01171934371814131
2114,00:00:08.456,-0.027257343754172318
2115,00:00:08.46,-0.061084002256393405
2116,00:00:08.464,-0.05131222354248158
2117,00:00:08.468,0.06132935080677265
2118,00:00:08.472,0.026471398770809198
2119,00:00:08.476,-0.0036540357396006515
2120,00:00:08.48,0.03794363548513502
2121,00:00:08.484,-0.023305342125240748
2122,00:00:08.488,-0.0326331135584041
2123,00:00:08.492,-0.01451007556170225
2124,00:00:08.496,0.02375560090877117
2125,00:00:08.5,0.0072535537183284395
2126,00:00:08.504,0.0574594046920538
2127,00:00:08.508,-0.026693840336520256
2128,00:00:08.512,-0.07700471114367248
2129,00:00:08.516,-0.010598067427054039
2130,00:00:08.52,0.05845204833894971
2131,00:00:08.524,0.0596821717917919
2132,00:00:08.528,-0.0790416840463877
2133,00:00:08.532,-0.02957626758143309
2134,00:00:08.536,0.034736146219074726
2135,00:00:08.54,0.0289369893725961
2136,00:00:08.544,0.013701154726732046
2137,00:00:08.548,-0.006611462216824323
2138,00:00:08.552,-0.026937438640743532
2139,00:00:08.556,-0.04439484979957345
2140,00:00:08.56,0.00359204469714314
2141,00:00:08.564,0.0564627265557647
2142,00:00:08.568,0.0467163249850273
2143,00:00:08.572,-0.02040005149319769
2144,00:00:08.576,-0.09035047516226771
2145,00:00:08.58,0.010315091116353889
2146,00:00:08.584,0.05748158774804323
2147,00:00:08.588,0.00790569256059826
2148,00:00:08.592,-0.00950881326571103
2149,00:00:08.596,-0.021557501051574925
2150,00:00:08.6,-0.0342559069395066
2151,00:00:08.604,0.02125118393450968
2152,00:00:08.608,0.055719282478094094
2153,00:00:08.612,-0.01331869908608495
2154,00:00:08.616,-0.06517493724822998
2155,00:00:08.62,0.035613801795989275
2156,00:00:08.624,0.034078126773238196
2157,00:00:08.628,0.011016869917511898
2158,00:00:08.632,-0.07432628422975547
2159,00:00:08.636,-0.08829246833920479
2160,00:00:08.64,0.15944273211061946
2161,00:00:08.644,0.05804632417857651
2162,00:00:08.648,-0.026475778955500594
2163,00:00:08.652,-0.0434429734305013
2164,00:00:08.656,-0.07807682082057
2165,00:00:08.66,-0.019020281266421038
2166,00:00:08.664,0.03074317844584578
2167,00:00:08.668,0.02810516580939296
2168,00:00:08.672,0.02540803793817761
2169,00:00:08.676,0.03099286230280991
2170,00:00:08.68,-0.006883810507133599
2171,00:00:08.684,-0.0010333387763239096
2172,00:00:08.688,-0.01004947116598485
2173,00:00:08.692,-0.084195495583117
2174,00:00:08.696,0.026734136044979116
2175,00:00:08.7,0.01320912502706052
2176,00:00:08.704,-0.009931799344485626
2177,00:00:08.708,0.07243914040736851
2178,00:00:08.712,0.013656143564730909
2179,00:00:08.716,-0.0423023281618953
2180,00:00:08.72,-0.068346919491887
2181,00:00:08.724,0.04699716949835416
2182,00:00:08.728,0.041947269812226316
2183,00:00:08.732,-0.038162207696586875
2184,00:00:08.736,-0.030777082778513473
2185,00:00:08.74,0.048406050074845525
2186,00:00:08.744,-0.010317918029613751
2187,00:00:08.748,-0.011025284009519996
2188,00:00:08.752,-0.0010929815471172506
2189,00:00:08.756,0.0015442795120179792
2190,00:00:08.76,0.07056067977100611
2191,00:00:08.764,-0.0569863431155681
2192,00:00:08.768,-0.0771977864205837
2193,00:00:08.772,0.041271037422120564
2194,00:00:08.776,0.03583982307463881
2195,00:00:08.78,0.0067764632403850555
2196,00:00:08.784,0.02561743371188642
2197,00:00:08.788,-0.0245810179039836
2198,00:00:08.792,0.02967188693583015
2199,00:00:08.796,-0.0429336922243237
2200,00:00:08.8,-0.0510330172255635
2201,00:00:08.804,-0.00315935839898885
2202,00:00:08.808,0.033413774799555505
2203,00:00:08.812,0.02753205547924146
2204,00:00:08.816,-0.015426892321556829
2205,00:00:08.82,0.0708743641152978
2206,00:00:08.824,-0.004389354027807751
2207,00:00:08.828,-0.0887976344674826
2208,00:00:08.832,-0.004229892976582061
2209,00:00:08.836,0.0009614895097911297
2210,00:00:08.84,0.0363451167941093
2211,00:00:08.844,0.010485077451448877
2212,00:00:08.848,-0.002637435216456636
2213,00:00:08.852,0.00982483010739087
2214,00:00:08.856,-0.0338726807385683
2215,00:00:08.86,-0.02034766521683199
2216,00:00:08.864,0.02043768716976048
2217,00:00:08.868,0.0411645164713264
2218,00:00:08.872,-0.047812303499085856
2219,00:00:08.876,0.03796349652111532
2220,00:00:08.88,0.05003717774525293
2221,00:00:08.884,-0.0040282122790814
2222,00:00:08.888,-0.1619706843048336
2223,00:00:08.892,-0.03281208802945918
2224,00:00:08.896,0.09266405878588557
2225,00:00:08.9,0.1178161799907684
2226,00:00:08.904,0.0393365267664194
2227,00:00:08.908,-0.07204531096795108
2228,00:00:08.912,-0.1089079864323139
2229,00:00:08.916,-0.004553677281364762
2230,00:00:08.92,0.06743305269628763
2231,00:00:08.924,0.0521074198186398
2232,00:00:08.928,-0.0606528418138623
2233,00:00:08.932,-0.09834899287670851
2234,00:00:08.936,0.07914473488926893
2235,00:00:08.94,0.10627006739377975
2236,00:00:08.944,0.0008742681238800114
2237,00:00:08.948,-0.06924045272171504
2238,00:00:08.952,-0.04580453666858371
2239,00:00:08.956,-0.004518719302723206
2240,00:00:08.96,-0.01032230956479913
2241,00:00:08.964,0.0414120946079492
2242,00:00:08.968,0.05859282240271568
2243,00:00:08.972,-0.01355124160181734
2244,00:00:08.976,-0.01265344955027103
2245,00:00:08.98,-0.04567556269466869
2246,00:00:08.984,-0.03460495918989182
2247,00:00:08.988,0.0321089960634708
2248,00:00:08.992,0.0622221678495407
2249,00:00:08.996,-0.0357752218842506
2250,00:00:09,-0.00044224387966096054
2251,00:00:09.004,0.02848596894182269
2252,00:00:09.008,-0.0455211317166686
2253,00:00:09.012,-0.0105712977237999
2254,00:00:09.016,0.02018360048532486
2255,00:00:09.02,0.0006876398110762301
2256,00:00:09.024,0.01177626056596641
2257,00:00:09.028,0.023434202652424598
2258,00:00:09.032,-0.027701100334525122
2259,00:00:09.036,-0.03058228734880685
2260,00:00:09.04,0.03214517637388786
2261,00:00:09.044,-0.0707264170050621
2262,00:00:09.048,0.06209635594859725
2263,00:00:09.052,0.0541521962732077
2264,00:00:09.056,-0.002817558000970166
2265,00:00:09.06,-0.03100199438631534
2266,00:00:09.064,-0.011666360311210199
2267,00:00:09.068,-0.02595237363129856
2268,00:00:09.072,0.02747124293819065
2269,00:00:09.076,-0.015143099240958701
2270,00:00:09.08,-0.09000623598694799
2271,00:00:09.084,0.061481585726141985
2272,00:00:09.088,0.0873488057404756
2273,00:00:09.092,0.015940536744892677
2274,00:00:09.096,0.004384774016216392
2275,00:00:09.1,-0.10543263796716927
2276,00:00:09.104,-0.02379827480763198
2277,00:00:09.108,0.04090305184945464
2278,00:00:09.112,0.0175596810877323
2279,00:00:09.116,-0.0025871740654111013
2280,00:00:09.12,0.02863393654115501
2281,00:00:09.124,0.007422710012178941
2282,00:00:09.128,-0.0003539142198860975
2283,00:00:09.132,-0.09336420218460262
2284,00:00:09.136,0.0190203543752432
2285,00:00:09.14,0.037373974919319174
2286,00:00:09.144,0.04117226181551813
2287,00:00:09.148,0.023996732663363208
2288,00:00:09.152,-0.08089283667504789
2289,00:00:09.156,-0.03729933302383874
2290,00:00:09.16,0.04649809806141998
2291,00:00:09.164,0.03314097598195076
2292,00:00:09.168,0.013532527664210696
2293,00:00:09.172,-0.0314648579806089
2294,00:00:09.176,-0.021825612289831032
2295,00:00:09.18,0.025695757241919647
2296,00:00:09.184,-0.018675154075026557
2297,00:00:09.188,-0.050771156325936304
2298,00:00:09.192,0.03640685242135075
2299,00:00:09.196,0.07536130759399376
2300,00:00:09.2,0.00023115862859412507
2301,00:00:09.204,-0.05333539936691529
2302,00:00:09.208,0.0005399711662903098
2303,00:00:09.212,-0.014193305978551491
2304,00:00:09.216,0.0319587960839271
2305,00:00:09.22,-0.0296473503112793
2306,00:00:09.224,0.008310000499477565
2307,00:00:09.228,-0.019818399567157
2308,00:00:09.232,0.00387597444932908
2309,00:00:09.236,0.04446793720126147
2310,00:00:09.24,0.0029990321490913716
2311,00:00:09.244,-0.01614451501518484
2312,00:00:09.248,-0.00015925220213836022
2313,00:00:09.252,-0.02391920331865549
2314,00:00:09.256,-0.005683638621121662
2315,00:00:09.26,0.007427887991070791
2316,00:00:09.264,0.027746720123104737
2317,00:00:09.268,0.010721559636294821
2318,00:00:09.272,-0.06824838602915408
2319,00:00:09.276,0.0189448446035385
2320,00:00:09.28,0.03016344411298636
2321,00:00:09.284,0.04473451117519288
2322,00:00:09.288,-0.01483852951787416
2323,00:00:09.292,-0.050164542160928305
2324,00:00:09.296,-0.031942597590386895
2325,00:00:09.3,0.017763468087650818
2326,00:00:09.304,0.030936083756387203
2327,00:00:09.308,-0.00018932786770157334
2328,00:00:09.312,0.012634117854759049
2329,00:00:09.316,0.012806628597900242
2330,00:00:09.32,-0.030319043667987013
2331,00:00:09.324,0.0321584837511182
2332,00:00:09.328,-0.04844586830586202
2333,00:00:09.332,-0.04479727894067765
2334,00:00:09.336,0.02454312844201921
2335,00:00:09.34,0.0615794537588954
2336,00:00:09.344,0.031506267376244
2337,00:00:09.348,-0.01547329779714348
2338,00:00:09.352,-0.0364697240293026
2339,00:00:09.356,-0.06287544872611762
2340,00:00:09.36,0.03421208812505941
2341,00:00:09.364,0.028611001092940617
2342,00:00:09.368,0.00932322395965458
2343,00:00:09.372,0.01182960555888717
2344,00:00:09.376,-0.02072551567107444
2345,00:00:09.38,0.020241125021129812
2346,00:00:09.384,-0.03896053135395043
2347,00:00:09.388,-0.010313783539459111
2348,00:00:09.392,-0.0242132302373649
2349,00:00:09.396,0.0794766936451197
2350,00:00:09.4,0.03424172080121927
2351,00:00:09.404,-0.05023436388000845
2352,00:00:09.408,-0.04869707813486454
2353,00:00:09.412,-0.01373694790527222
2354,00:00:09.416,0.042645895853638684
2355,00:00:09.42,0.060410711914300905
2356,00:00:09.424,-0.0172573132440448
2357,00:00:09.428,-0.1218155398964882
2358,00:00:09.432,0.033563820645213197
2359,00:00:09.436,0.0952110644429922
2360,00:00:09.44,0.044323158683255315
2361,00:00:09.444,-0.067173969000578
2362,00:00:09.448,-0.03706323029473421
2363,00:00:09.452,-0.06083145740558394
2364,00:00:09.456,0.02641259576193989
2365,00:00:09.46,0.08163853082805878
2366,00:00:09.464,0.032273782417178175
2367,00:00:09.468,-0.072180868126452
2368,00:00:09.472,-0.024426078889518973
2369,00:00:09.476,0.047590799629688305
2370,00:00:09.48,0.023623485118150704
2371,00:00:09.484,-0.02811114257201559
2372,00:00:09.488,-0.004592673387378459
2373,00:00:09.492,-0.0512805143371225
2374,00:00:09.496,-0.02412842051126063
2375,00:00:09.5,0.06588919553905732
2376,00:00:09.504,0.06723502278327946
2377,00:00:09.508,-0.014438305282965311
2378,00:00:09.512,-0.07999424729496239
2379,00:00:09.516,-0.004077977966517231
2380,00:00:09.52,0.0129635147750378
2381,00:00:09.524,0.03772488198592324
2382,00:00:09.528,0.08565173740498722
2383,00:00:09.532,-0.09300617687404161
2384,00:00:09.536,-0.0858919955790043
2385,00:00:09.54,0.04080019518733019
2386,00:00:09.544,0.02902076672762632
2387,00:00:09.548,0.022752660093828998
2388,00:00:09.552,0.023935746401548302
2389,00:00:09.556,-0.006677945377305171
2390,00:00:09.56,-0.027176233939826544
2391,00:00:09.564,-0.03386345645412804
2392,00:00:09.568,-0.01523522799834618
2393,00:00:09.572,0.023231733357533868
2394,00:00:09.576,0.04857869353145358
2395,00:00:09.58,0.00151605205610395
2396,00:00:09.584,-0.028818408958613827
2397,00:00:09.588,0.00011215452104805859
2398,00:00:09.592,0.002429256681352851
2399,00:00:09.596,-0.00552412099204957
2400,00:00:09.6,-0.0056798293953761484
2401,00:00:09.604,-0.020332109183073113
2402,00:00:09.608,0.0368229588493705
2403,00:00:09.612,0.0261274501681327
2404,00:00:09.616,-0.021158273331820958
2405,00:00:09.62,-0.02676008548587566
2406,00:00:09.624,0.00805119005963206
2407,00:00:09.628,-0.028945280238986
2408,00:00:09.632,0.019820158369839164
2409,00:00:09.636,0.04768782202154398
2410,00:00:09.64,0.018788859713822603
2411,00:00:09.644,-0.0466303639113903
2412,00:00:09.648,-0.024843013146892197
2413,00:00:09.652,-0.025084314635023516
2414,00:00:09.656,0.011459386907517913
2415,00:00:09.66,0.0273145167157054
2416,00:00:09.664,0.06000516097992659
2417,00:00:09.668,-0.02514015231281517
2418,00:00:09.672,-0.04043740266934033
2419,00:00:09.676,0.01512776664458214
2420,00:00:09.68,0.01354331104084845
2421,00:00:09.684,-0.0658134687691927
2422,00:00:09.688,0.0027101365849375517
2423,00:00:09.692,0.05856667598709468
2424,00:00:09.696,0.038864134345203666
2425,00:00:09.7,-0.007092389860190449
2426,00:00:09.704,-0.038563603535294595
2427,00:00:09.708,-0.047385638579726184
2428,00:00:09.712,0.011037299118470453
2429,00:00:09.716,0.03497600904665886
2430,00:00:09.72,-0.020121816778555443
2431,00:00:09.724,0.02755951415747405
2432,00:00:09.728,0.0052581804338842405
2433,00:00:09.732,-0.006367393070831857
2434,00:00:09.736,0.01809218851849437
2435,00:00:09.74,-0.00884936423972249
2436,00:00:09.744,-0.0716538978740573
2437,00:00:09.748,-0.001314437948167338
2438,00:00:09.752,0.061850312165916
2439,00:00:09.756,-0.021270684315823
2440,00:00:09.76,0.03566559834871442
2441,00:00:09.764,0.00926859164610505
2442,00:00:09.768,-0.019595687859691686
2443,00:00:09.772,0.004633363918401303
2444,00:00:09.776,-0.009984174859710041
2445,00:00:09.78,-0.04346236772835255
2446,00:00:09.784,0.010294397419784227
2447,00:00:09.788,0.02628826070576902
2448,00:00:09.792,0.020878714291029596
2449,00:00:09.796,0.00605263491161165
2450,00:00:09.8,-0.0400549946352839
2451,00:00:09.804,-0.0450331717729569
2452,00:00:09.808,0.039559556171297895
2453,00:00:09.812,0.05088199442252517
2454,00:00:09.816,0.02216270216740665
2455,00:00:09.82,-0.0674788402393461
2456,00:00:09.824,0.013319891411811106
2457,00:00:09.828,-0.001779848127625883
2458,00:00:09.832,-0.01539402420166877
2459,00:00:09.836,0.00973475212231281
2460,00:00:09.84,0.00985825806856155
2461,00:00:09.844,-0.0012431328650563886
2462,00:00:09.848,-0.015210829151328657
2463,00:00:09.852,0.019079014309681952
2464,00:00:09.856,-0.009902452693495404
2465,00:00:09.86,-0.004888057243079039
2466,00:00:09.864,0.0127020012587309
2467,00:00:09.868,0.0351399611681699
2468,00:00:09.872,-0.04111725627444688
2469,00:00:09.876,-0.024194548022933318
2470,00:00:09.88,0.014627452066633852
2471,00:00:09.884,0.01904291054233909
2472,00:00:09.888,0.0006261165253818096
2473,00:00:09.892,-0.010856248089112334
2474,00:00:09.896,0.014492085669189698
2475,00:00:09.9,-8.022447582333976e-05
2476,00:00:09.904,-0.01467466074973343
2477,00:00:09.908,-0.010915660066530119
2478,00:00:09.912,0.006848459626780823
2479,00:00:09.916,0.0226611790712923
2480,00:00:09.92,-0.02054576703812931
2481,00:00:09.924,-0.0168293770402669
2482,00:00:09.928,-0.0005609041545540702
2483,00:00:09.932,0.02324196184054022
2484,00:00:09.936,-0.0012605334632098605
2485,00:00:09.94,0.06017744820564991
2486,00:00:09.944,-0.0118353767320514
2487,00:00:09.948,-0.058168888092040974
2488,00:00:09.952,-0.035572941997088534
2489,00:00:09.956,0.010855172062292705
2490,00:00:09.96,0.0209646611474454
2491,00:00:09.964,0.02353483159095048
2492,00:00:09.968,-0.00628690840676427
2493,00:00:09.972,0.002341363928280761
2494,00:00:09.976,0.03410491195973006
2495,00:00:09.98,-0.0047435706655961415
2496,00:00:09.984,-0.051188789308071136
2497,00:00:09.988,-0.019922764317016128
2498,00:00:09.992,0.012054094113409523
2499,00:00:09.996,0.03648794675245881
2500,00:00:10,-0.014428962022066158
2501,00:00:10.004,0.00870595569722354
2502,00:00:10.008,-0.02203946793451903
2503,00:00:10.012,-0.010849640239030123
2504,00:00:10.016,0.051988899707794106
2505,00:00:10.02,0.01259966217912733
2506,00:00:10.024,-0.02156006451696154
2507,00:00:10.028,-0.021110966568812763
2508,00:00:10.032,-0.01090093143284325
2509,00:00:10.036,-0.006127689703134824
2510,00:00:10.04,0.022907150472747162
2511,00:00:10.044,0.004716427996754622
2512,00:00:10.048,-0.01097870431840416
2513,00:00:10.052,0.0041612377390265395
2514,00:00:10.056,0.01903927186504012
2515,00:00:10.06,-0.0339214568957686
2516,00:00:10.064,-0.016818006522953483
2517,00:00:10.068,0.056905732490122374
2518,00:00:10.072,0.00017251761164516037
2519,00:00:10.076,-0.028040088713169174
2520,00:00:10.08,-0.0027118679136036977
2521,00:00:10.084,-0.015239820349961571
2522,00:00:10.088,0.012012717197649219
2523,00:00:10.092,0.02726060454733669
2524,00:00:10.096,-0.004836653359234288
2525,00:00:10.1,-0.032103305682539995
2526,00:00:10.104,0.03762385062873359
2527,00:00:10.108,0.008426595479249899
2528,00:00:10.112,-0.014242694247513961
2529,00:00:10.116,-0.05254445690661667
2530,00:00:10.12,0.003270355518907281
2531,00:00:10.124,0.0538569036871195
2532,00:00:10.128,0.011089236475527401
2533,00:00:10.132,-0.01718106959015124
2534,00:00:10.136,-0.00768112298101184
2535,00:00:10.14,-0.0655365772545338
2536,00:00:10.144,0.0206822883337736
2537,00:00:10.148,0.04307854641228909
2538,00:00:10.152,0.043473934289067984
2539,00:00:10.156,0.019992432207800465
2540,00:00:10.16,-0.01851325249299404
2541,00:00:10.164,-0.077537801116705
2542,00:00:10.168,0.0014312779530883009
2543,00:00:10.172,-7.664458826179936e-05
2544,00:00:10.176,-0.01950835320167241
2545,00:00:10.18,0.06492057349532847
2546,00:00:10.184,-0.00985233252868058
2547,00:00:10.188,-0.04498894326388833
2548,00:00:10.192,0.068614627700299
2549,00:00:10.196,0.04731715936213733
2550,00:00:10.2,-0.023913182318210605
2551,00:00:10.204,-0.08067226968705649
2552,00:00:10.208,-0.0350962607190013
2553,00:00:10.212,0.020611942949471967
2554,00:00:10.216,0.03443420591065657
2555,00:00:10.22,0.01988589274697002
2556,00:00:10.224,0.031275328365154564
2557,00:00:10.228,-0.02098511904478074
2558,00:00:10.232,-0.03974435478448862
2559,00:00:10.236,-0.014682221226394182
2560,00:00:10.24,0.020511859795078635
2561,00:00:10.244,0.04279944114387041
2562,00:00:10.248,-0.02693920332239938
2563,00:00:10.252,0.00021681556245311748
2564,00:00:10.256,-0.049926796928048134
2565,00:00:10.26,0.0719673596322537
2566,00:00:10.264,0.0375868454575539
2567,00:00:10.268,-0.1278615100309253
2568,00:00:10.272,-0.0025534178130329002
2569,00:00:10.276,0.09036078117787848
2570,00:00:10.28,0.028757937718182813
2571,00:00:10.284,-0.0221020663157105
2572,00:00:10.288,-0.02305003209039567
2573,00:00:10.292,-0.051951773464679704
2574,00:00:10.296,-0.002013740944676102
2575,00:00:10.3,0.0660553481429815
2576,00:00:10.304,0.01837122393772007
2577,00:00:10.308,0.0125714614987373
2578,00:00:10.312,-0.1159700844436881
2579,00:00:10.316,-0.016315617598593235
2580,00:00:10.32,0.09210262144915758
2581,00:00:10.324,0.053665069863200306
2582,00:00:10.328,-0.0094580650911666
2583,00:00:10.332,-0.06060642004013059
2584,00:00:10.336,-0.020818545483052703
2585,00:00:10.34,0.015072597190737771
2586,00:00:10.344,0.00851202616468072
2587,00:00:10.348,-0.026936190202832194
2588,00:00:10.352,0.024636934511363527
2589,00:00:10.356,0.03209995292127133
2590,00:00:10.36,-0.02880453795660292
2591,00:00:10.364,-0.0683152675628662
2592,00:00:10.368,0.0844433661550283
2593,00:00:10.372,0.07483160309493539
2594,00:00:10.376,0.00414455495774745
2595,00:00:10.38,-0.18296478851698347
2596,00:00:10.384,0.0012904908508062016
2597,00:00:10.388,0.0797692094929516
2598,00:00:10.392,0.06713602691888801
2599,00:00:10.396,-0.01958227658178662
2600,00:00:10.4,-0.030941216275095905
2601,00:00:10.404,-0.0371821187436581
2602,00:00:10.408,-0.005975017324090011
2603,00:00:10.412,0.018005023943260246
2604,00:00:10.416,0.04570126649923619
2605,00:00:10.42,-0.014054154278710481
2606,00:00:10.424,-0.023357675410807112
2607,00:00:10.428,0.007275020703673347
2608,00:00:10.432,0.011846524197608198
2609,00:00:10.436,0.029730273658060517
2610,00:00:10.44,-0.09745600074529649
2611,00:00:10.444,0.005095419939607389
2612,00:00:10.448,0.0601007621735334
2613,00:00:10.452,0.0314812734723092
2614,00:00:10.456,0.043265591841191026
2615,00:00:10.46,-0.0703828409314156
2616,00:00:10.464,-0.059759341180324596
2617,00:00:10.468,0.0016383745241910289
2618,00:00:10.472,-0.07812180370092389
2619,00:00:10.476,0.1481991577893495
2620,00:00:10.48,0.10787409171462059
2621,00:00:10.484,-0.032368294079787946
2622,00:00:10.488,-0.09930011164397
2623,00:00:10.492,-0.0664456794038415
2624,00:00:10.496,-0.0031275465153156982
2625,00:00:10.5,0.030083460907917466
2626,00:00:10.504,0.04715125728398564
2627,00:00:10.508,0.0018124459311366012
2628,00:00:10.512,0.0051696170121431
2629,00:00:10.516,0.013197759719332637
2630,00:00:10.52,-0.020490361377596803
2631,00:00:10.524,0.014330311212688702
2632,00:00:10.528,-0.02082294970750811
2633,00:00:10.532,0.00866852048784494
2634,00:00:10.536,-0.10642254212871201
2635,00:00:10.54,0.06960519868880513
2636,00:00:10.544,0.05542607046663761
2637,00:00:10.548,0.004714885726571104
2638,00:00:10.552,0.005111614242196092
2639,00:00:10.556,-0.009678449481725804
2640,00:00:10.56,-0.028697654139250527
2641,00:00:10.564,-0.045882954960688956
2642,00:00:10.568,0.00874444888904688
2643,00:00:10.572,0.0501022320240736
2644,00:00:10.576,0.014962204732000878
2645,00:00:10.58,0.0010735581745393548
2646,00:00:10.584,-0.02467162604443725
2647,00:00:10.588,-0.03495029243640603
2648,00:00:10.592,-0.008600375032983762
2649,00:00:10.596,0.023156989831477473
2650,00:00:10.6,0.00596450222656137
2651,00:00:10.604,0.0027287005068501596
2652,00:00:10.608,0.0740532074123621
2653,00:00:10.612,-0.02815922233276066
2654,00:00:10.616,-0.0308108842000365
2655,00:00:10.62,0.00896923476830125
2656,00:00:10.624,-0.04177168186288331
2657,00:00:10.628,-0.05813478166237473
2658,00:00:10.632,0.029124199878424403
2659,00:00:10.636,0.07059136824682355
2660,00:00:10.64,0.061350918607786305
2661,00:00:10.644,0.0032663317397236893
2662,00:00:10.648,-0.042451413581147734
2663,00:00:10.652,-0.10615975689142941
2664,00:00:10.656,-0.04100473877042535
2665,00:00:10.66,0.0799596104770899
2666,00:00:10.664,0.07257866207510233
2667,00:00:10.668,-0.00840014044661075
2668,00:00:10.672,-0.02479617623612286
2669,00:00:10.676,0.0026350890402682126
2670,00:00:10.68,-0.03148782878997731
2671,00:00:10.684,0.003686151467263709
2672,00:00:10.688,0.05426526931114495
2673,00:00:10.692,-0.016102602472528815
2674,00:00:10.696,-0.0740044619888066
2675,00:00:10.7,0.015526976436376579
2676,00:00:10.704,0.04872329905629152
2677,00:00:10.708,0.046560245566070003
2678,00:00:10.712,-0.12192637659609319
2679,00:00:10.716,0.016089634969830513
2680,00:00:10.72,0.10279046185314651
2681,00:00:10.724,0.0025867808144539616
2682,00:00:10.728,-0.05366151174530391
2683,00:00:10.732,-0.05090605546138242
2684,00:00:10.736,0.00587936025112872
2685,00:00:10.74,0.0406401725485921
2686,00:00:10.744,0.012668717885389912
2687,00:00:10.748,-0.014762781909666962
2688,00:00:10.752,0.02726994920521978
2689,00:00:10.756,-0.00995116494596005
2690,00:00:10.76,-0.05061605852097271
2691,00:00:10.764,0.002276479732245198
2692,00:00:10.768,0.030463896458968482
2693,00:00:10.772,0.032370327971875744
2694,00:00:10.776,-0.0498551232740283
2695,00:00:10.78,0.01747770700603724
2696,00:00:10.784,0.026469019241630948
2697,00:00:10.788,-0.023318156017921893
2698,00:00:10.792,0.01505947578698396
2699,00:00:10.796,0.0008694297957845248
2700,00:00:10.8,-0.022776553407311398
2701,00:00:10.804,-0.07699437905102971
2702,00:00:10.808,0.0489942664280534
2703,00:00:10.812,0.0623201513662934
2704,00:00:10.816,0.036221149843186126
2705,00:00:10.82,-0.044005890376865905
2706,00:00:10.824,-0.07302726432681081
2707,00:00:10.828,0.026323329424485595
2708,00:00:10.832,0.04127900069579475
2709,00:00:10.836,0.00963839516043664
2710,00:00:10.84,-0.057207828387618107
2711,00:00:10.844,0.037124802358448436
2712,00:00:10.848,0.019530020654201397
2713,00:00:10.852,-0.04534070286899806
2714,00:00:10.856,0.0032211961224674797
2715,00:00:10.86,0.06105877459049217
2716,00:00:10.864,-0.047606729902327095
2717,00:00:10.868,-0.0541033102199436
2718,00:00:10.872,0.0449649114161729
2719,00:00:10.876,0.06965907791163771
2720,00:00:10.88,-0.01355417747981847
2721,00:00:10.884,-0.07223910000175246
2722,00:00:10.888,-0.0370632391422987
2723,00:00:10.892,0.047729598358273506
2724,00:00:10.896,0.05317184329032901
2725,00:00:10.9,0.009825096902204646
2726,00:00:10.904,-0.04388252180069686
2727,00:00:10.908,-0.024922810494899746
2728,00:00:10.912,0.009698483801912527
2729,00:00:10.916,-0.00930023333057764
2730,00:00:10.92,0.03654755512252449
2731,00:00:10.924,0.015680444659665175
2732,00:00:10.928,-0.01053452119231223
2733,00:00:10.932,-0.04347152821719648
2734,00:00:10.936,-0.0040662928950040925
2735,00:00:10.94,0.003306583734229181
2736,00:00:10.944,0.04390916082775222
2737,00:00:10.948,0.028274180367589
2738,00:00:10.952,-0.03228660183958713
2739,00:00:10.956,-0.030319544486701537
2740,00:00:10.96,-0.007058339935610995
2741,00:00:10.964,-0.0062836790457366995
2742,00:00:10.968,0.03670285223051905
2743,00:00:10.972,0.018799941055476603
2744,00:00:10.976,0.00636358314659442
2745,00:00:10.98,-0.01903025200590491
2746,00:00:10.984,-0.03874928178265687
2747,00:00:10.988,0.005922280717641109
2748,00:00:10.992,-0.002805464173434289
2749,00:00:10.996,-0.046543128788471194
2750,00:00:11,0.1022333558648825
2751,00:00:11.004,0.0389166604727507
2752,00:00:11.008,0.0027573462575674022
2753,00:00:11.012,-0.12106075161136688
2754,00:00:11.016,-0.053402252495288904
2755,00:00:11.02,0.06494478229433301
2756,00:00:11.024,0.07818037178367379
2757,00:00:11.028,0.016762996092438698
2758,00:00:11.032,-0.02897323248907928
2759,00:00:11.036,-0.05005767475813626
2760,00:00:11.04,-0.01729329489171503
2761,00:00:11.044,0.029819053481332975
2762,00:00:11.048,0.026443131966516355
2763,00:00:11.052,-0.08449752815067768
2764,00:00:11.056,0.0695217568427324
2765,00:00:11.06,0.04702231893315911
2766,00:00:11.064,-0.02036477602086959
2767,00:00:11.068,-0.05864528799429533
2768,00:00:11.072,0.00521393225062639
2769,00:00:11.076,0.03429270070046187
2770,00:00:11.08,-0.03860878385603435
2771,00:00:11.084,0.012785012833774114
2772,00:00:11.088,0.00927537493407723
2773,00:00:11.092,0.05206195358186963
2774,00:00:11.096,-0.05311155039817094
2775,00:00:11.1,-0.010210535780061068
2776,00:00:11.104,0.02093297708779573
2777,00:00:11.108,-0.007485334062948809
2778,00:00:11.112,-0.002987846091855321
2779,00:00:11.116,-0.0472628772258759
2780,00:00:11.12,0.07236637454479933
2781,00:00:11.124,0.04711068980395791
2782,00:00:11.128,-0.03600495308637619
2783,00:00:11.132,-0.07691639789845804
2784,00:00:11.136,-0.030697252601385137
2785,00:00:11.14,0.0859237499535084
2786,00:00:11.144,0.023494507186114805
2787,00:00:11.148,-0.02853157790377735
2788,00:00:11.152,-0.0034582330845296287
2789,00:00:11.156,-0.011815411038696776
2790,00:00:11.16,-0.0017357268370688395
2791,00:00:11.164,0.04831812117845406
2792,00:00:11.168,-0.01455859199631958
2793,00:00:11.172,-0.037660197354853125
2794,00:00:11.176,-0.008142998442053899
2795,00:00:11.18,-0.016966353170573698
2796,00:00:11.184,0.025346402078866903
2797,00:00:11.188,0.0485430713742972
2798,00:00:11.192,0.0031858221627772514
2799,00:00:11.196,-0.0255256723612547
2800,00:00:11.2,0.00555106857791547
2801,00:00:11.204,-0.072138451039791
2802,00:00:11.208,0.002209112048149109
2803,00:00:11.212,0.05375900829676537
2804,00:00:11.216,0.038497093133628396
2805,00:00:11.22,0.026360677089542144
2806,00:00:11.224,-0.041558968136087074
2807,00:00:11.228,-0.0504396492615342
2808,00:00:11.232,0.00953651778399945
2809,00:00:11.236,0.030777828651480425
2810,00:00:11.24,-0.03833127906546001
2811,00:00:11.244,-0.004856408690102389
2812,00:00:11.248,-0.0016307858750223975
2813,00:00:11.252,0.006847452372312539
2814,00:00:11.256,0.03488373084655908
2815,00:00:11.26,0.04990450688637798
2816,00:00:11.264,-0.00627047102898363
2817,00:00:11.268,-0.06383460387587542
2818,00:00:11.272,0.019033151678741006
2819,00:00:11.276,-0.045892412774264826
2820,00:00:11.28,-0.0038163121789693104
2821,00:00:11.284,0.0564133888110519
2822,00:00:11.288,-0.009238728787749992
2823,00:00:11.292,-0.022207172245543902
2824,00:00:11.296,0.043154470156878226
2825,00:00:11.3,-0.00783007079735398
2826,00:00:11.304,-0.0618608673103154
2827,00:00:11.308,0.028184860886540243
2828,00:00:11.312,0.0373880043625831
2829,00:00:11.316,-0.0123175251064822
2830,00:00:11.32,-0.0036953845992684243
2831,00:00:11.324,0.011598185956245295
2832,00:00:11.328,-0.040043292334303204
2833,00:00:11.332,-0.02162409317679704
2834,00:00:11.336,0.05562421865761276
2835,00:00:11.34,0.0088164675980806
2836,00:00:11.344,-0.04621619475074111
2837,00:00:11.348,0.02264578419271858
2838,00:00:11.352,0.00445898482576018
2839,00:00:11.356,-0.005548104178160469
2840,00:00:11.36,0.051970489090308575
2841,00:00:11.364,-0.017744311597198272
2842,00:00:11.368,-0.06641757348552345
2843,00:00:11.372,-0.014230895845685064
2844,00:00:11.376,0.02263035241048785
2845,00:00:11.38,0.03746544010937221
2846,00:00:11.384,0.030599071644246596
2847,00:00:11.388,-0.01995598012581464
2848,00:00:11.392,-0.006551003694767118
2849,00:00:11.396,-0.034459801390767195
2850,00:00:11.4,-0.009664667770266578
2851,00:00:11.404,0.012111644260585308
2852,00:00:11.408,0.05594941414892669
2853,00:00:11.412,-0.0207412242889404
2854,00:00:11.416,-0.08704083599150181
2855,00:00:11.42,0.04324211552739144
2856,00:00:11.424,0.05922888079658156
2857,00:00:11.428,0.0053693389054387565
2858,00:00:11.432,-0.027883062139153425
2859,00:00:11.436,-0.0014464404084719665
2860,00:00:11.44,-0.023707110609393567
2861,00:00:11.444,-0.026905760169029232
2862,00:00:11.448,0.030529524432495167
2863,00:00:11.452,0.023155726492404896
2864,00:00:11.456,0.02516735927201813
2865,00:00:11.46,-0.01555920159444216
2866,00:00:11.464,-0.047520218184217845
2867,00:00:11.468,-0.010525078512728258
2868,00:00:11.472,0.02141342801041906
2869,00:00:11.476,0.048873024061322205
2870,00:00:11.48,0.0005727263633161801
2871,00:00:11.484,-0.074851356446743
2872,00:00:11.488,0.01804196555167438
2873,00:00:11.492,0.01729778945446007
2874,00:00:11.496,0.032819694839417955
2875,00:00:11.5,-0.007082847412675619
2876,00:00:11.504,-0.016053672181442352
2877,00:00:11.508,-0.01511953421868387
2878,00:00:11.512,-0.029949001967906903
2879,00:00:11.516,0.046205514576286036
2880,00:00:11.52,-0.001062416005879599
2881,00:00:11.524,-0.007006034837104409
2882,00:00:11.528,0.01109612628351897
2883,00:00:11.532,0.01003519480582327
2884,00:00:11.536,-0.007298327691387416
2885,00:00:11.54,-0.03213104233145716
2886,00:00:11.544,-0.00031716376543044957
2887,00:00:11.548,0.005829717032611297
2888,00:00:11.552,0.015331285772845147
2889,00:00:11.556,0.0474838996306062
2890,00:00:11.56,-0.011474973522126671
2891,00:00:11.564,-0.1184143181890249
2892,00:00:11.568,0.04412118624895815
2893,00:00:11.572,0.06490444019436839
2894,00:00:11.576,0.008290024939924468
2895,00:00:11.58,-0.025458622956648448
2896,00:00:11.584,-0.01829228340648116
2897,00:00:11.588,0.0177381939720362
2898,00:00:11.592,0.0074982112273574
2899,00:00:11.596,-0.05525600188411766
2900,00:00:11.6,-0.013146745739504754
2901,00:00:11.604,0.0472344136796891
2902,00:00:11.608,0.05183699075132608
2903,00:00:11.612,0.005797674413770441
2904,00:00:11.616,-0.057362116407603025
2905,00:00:11.62,-0.04402015404775735
2906,00:00:11.624,0.036022047977894475
2907,00:00:11.628,0.036564916837960496
2908,00:00:11.632,-0.0702296514064073
2909,00:00:11.636,0.06564514897763726
2910,00:00:11.64,0.009527098387479761
2911,00:00:11.644,-0.046986530534923
2912,00:00:11.648,-0.005439624903374358
2913,00:00:11.652,0.07213102793321015
2914,00:00:11.656,-0.0421580551192164
2915,00:00:11.66,-0.069894839078188
2916,00:00:11.664,0.0725837917998432
2917,00:00:11.668,0.002439818345010201
2918,00:00:11.672,0.004845438059419338
2919,00:00:11.676,-0.017830520144343623
2920,00:00:11.68,0.0050247556064277905
2921,00:00:11.684,-0.013594948919489962
2922,00:00:11.688,-0.014327673241496083
2923,00:00:11.692,0.006121312500908969
2924,00:00:11.696,0.044234718196093946
2925,00:00:11.7,0.038778978923801326
2926,00:00:11.704,-0.09499740973114959
2927,00:00:11.708,-0.028783400543034094
2928,00:00:11.712,0.005596769857220353
2929,00:00:11.716,0.07429957436397679
2930,00:00:11.72,0.0363889876753092
2931,00:00:11.724,-0.01261991634964943
2932,00:00:11.728,-0.04585222154855727
2933,00:00:11.732,-0.014627860859036501
2934,00:00:11.736,-0.0037711015902459604
2935,00:00:11.74,-0.031604380230419366
2936,00:00:11.744,0.026058275252580698
2937,00:00:11.748,0.0545156290754677
2938,00:00:11.752,0.010382912354543798
2939,00:00:11.756,-0.029677718877792376
2940,00:00:11.76,0.0008246488869190702
2941,00:00:11.764,-0.023660865379497367
2942,00:00:11.768,-0.00814893166534602
2943,00:00:11.772,-0.008000584319233861
2944,00:00:11.776,0.0090593481436372
2945,00:00:11.78,0.027956337668001662
2946,00:00:11.784,0.03331754542887207
2947,00:00:11.788,-0.01453999057412146
2948,00:00:11.792,-0.06839042808860539
2949,00:00:11.796,-0.0016648597083986291
2950,00:00:11.8,0.046588663011789294
2951,00:00:11.804,0.03652262501418592
2952,00:00:11.808,0.0050125990528613286
2953,00:00:11.812,-0.06391838937997811
2954,00:00:11.816,-0.03468910255469385
2955,00:00:11.82,0.04993128179921766
2956,00:00:11.824,0.04284421858028509
2957,00:00:11.828,-0.018774603668134694
2958,00:00:11.832,-0.02391283819451928
2959,00:00:11.836,-0.0414263745769858
2960,00:00:11.84,0.009429502068087452
2961,00:00:11.844,0.023329686722718176
2962,00:00:11.848,0.030217415653169096
2963,00:00:11.852,0.04006511857733125
2964,00:00:11.856,-0.03960362332873043
2965,00:00:11.86,-0.0533885629847645
2966,00:00:11.864,0.020010945387184634
2967,00:00:11.868,-0.011110549268778459
2968,00:00:11.872,0.0200706941541284
2969,00:00:11.876,0.028217514511197833
2970,00:00:11.88,0.01573364273644988
2971,00:00:11.884,-0.015029420610517262
2972,00:00:11.888,-0.0735410787165164
2973,00:00:11.892,0.00395417469553649
2974,00:00:11.896,0.034229313954710947
2975,00:00:11.9,0.04670983157120648
2976,00:00:11.904,-0.0147826494649053
2977,00:00:11.908,-0.01532043171027913
2978,00:00:11.912,0.0092024621553719
2979,00:00:11.916,-0.034999270923435695
2980,00:00:11.92,-0.011499270563945178
2981,00:00:11.924,0.056351235136389705
2982,00:00:11.928,0.03535986662609506
2983,00:00:11.932,-0.06480561010539529
2984,00:00:11.936,-0.073387460783124
2985,00:00:11.94,0.05570311285555363
2986,00:00:11.944,0.013310380280017797
2987,00:00:11.948,0.0335433557629586
2988,00:00:11.952,0.020639378824853363
2989,00:00:11.956,0.010562614304944849
2990,00:00:11.96,-0.05415736138820651
2991,00:00:11.964,-0.039778043981641545
2992,00:00:11.968,-0.057143508456647396
2993,00:00:11.972,0.061900537461042404
2994,00:00:11.976,0.09803405962884426
2995,00:00:11.98,-0.010790251719299667
2996,00:00:11.984,-0.0283828200772405
2997,00:00:11.988,-0.054818205535411904
2998,00:00:11.992,0.036953273229301
2999,00:00:11.996,0.00018780282698575845
3000,00:00:12,-0.017571265343576687
3001,00:00:12.004,0.003944993019104032
3002,00:00:12.008,-0.022397518157959102
3003,00:00:12.012,0.0036585316993296103
3004,00:00:12.016,0.0167820248752832
3005,00:00:12.02,0.03865471156314018
3006,00:00:12.024,-0.00819027062971139
3007,00:00:12.028,-0.01097225910052656
3008,00:00:12.032,-0.029174389317631742
3009,00:00:12.036,0.02160169696435334
3010,00:00:12.04,0.015747073804959662
3011,00:00:12.044,0.01052797189913689
3012,00:00:12.048,-0.046891175443306544
3013,00:00:12.052,-0.0084036432672292
3014,00:00:12.056,-0.04508180427365007
3015,00:00:12.06,0.0614978000521659
3016,00:00:12.064,0.05914597585797321
3017,00:00:12.068,0.009009602013975389
3018,00:00:12.072,-0.042651592637412264
3019,00:00:12.076,-0.01803801720961929
3020,00:00:12.08,-0.03386088181287046
3021,00:00:12.084,-0.02087828656658528
3022,00:00:12.088,0.023554916551802297
3023,00:00:12.092,0.06466003553941842
3024,00:00:12.096,0.00038514658808701946
3025,00:00:12.1,-0.00371132511645553
3026,00:00:12.104,-0.01271524373441936
3027,00:00:12.108,-0.025347720831632562
3028,00:00:12.112,-0.010700198879931115
3029,00:00:12.116,0.0070035114185884595
3030,00:00:12.12,-0.0027873078361153117
3031,00:00:12.124,-0.015339814126491498
3032,00:00:12.128,0.03872230253182357
3033,00:00:12.132,0.03804313857108356
3034,00:00:12.136,-0.0029504797421395813
3035,00:00:12.14,-0.0292627632152289
3036,00:00:12.144,-0.042294730432331604
3037,00:00:12.148,-0.04421026306226851
3038,00:00:12.152,0.0499368961900473
3039,00:00:12.156,0.07352115632966161
3040,00:00:12.16,0.004695467185229028
3041,00:00:12.164,-0.06636732444167137
3042,00:00:12.168,-0.023067850153893267
3043,00:00:12.172,0.00670152762904761
3044,00:00:12.176,0.041030698164831785
3045,00:00:12.18,0.02503034751862291
3046,00:00:12.184,-0.02431969996541741
3047,00:00:12.188,-0.03978593461215499
3048,00:00:12.192,0.01276442292146382
3049,00:00:12.196,0.002370946633163794
3050,00:00:12.2,0.03229927062056957
3051,00:00:12.204,-0.012237214075867094
3052,00:00:12.208,-0.024183071334846363
3053,00:00:12.212,0.0021134382113814397
3054,00:00:12.216,0.014283316675573619
3055,00:00:12.22,-0.0085512641817331
3056,00:00:12.224,0.019136745715513763
3057,00:00:12.228,-0.03171490784734484
3058,00:00:12.232,0.03237090585753322
3059,00:00:12.236,0.02665196219459172
3060,00:00:12.24,0.007078340742737039
3061,00:00:12.244,-0.0735841747373343
3062,00:00:12.248,-0.0496136490255594
3063,00:00:12.252,0.035926761105656624
3064,00:00:12.256,0.0607954682782293
3065,00:00:12.26,0.010551627725362781
3066,00:00:12.264,0.006558772322023294
3067,00:00:12.268,-0.029585892334580456
3068,00:00:12.272,0.00644661689875648
3069,00:00:12.276,-0.03650206699967387
3070,00:00:12.28,0.015965785947628243
3071,00:00:12.284,-0.007370469509623943
3072,00:00:12.288,-0.019942489103414108
3073,00:00:12.292,0.023236099630594288
3074,00:00:12.296,0.04947202967014163
3075,00:00:12.3,0.008620830674772104
3076,00:00:12.304,-0.036044878885150046
3077,00:00:12.308,-0.0831236476078629
3078,00:00:12.312,0.03334913222352041
3079,00:00:12.316,0.04884117469191554
3080,00:00:12.32,0.042680385289713685
3081,00:00:12.324,-0.017383708967827295
3082,00:00:12.328,-0.04095315840095285
3083,00:00:12.332,-0.004149976419284941
3084,00:00:12.336,-0.062312082154676325
3085,00:00:12.34,0.099342918023467
3086,00:00:12.344,0.00488611916080114
3087,00:00:12.348,-0.03227268857881429
3088,00:00:12.352,-0.05559618165716532
3089,00:00:12.356,0.04631432145833969
3090,00:00:12.36,0.028142617433331907
3091,00:00:12.364,0.00574744679033756
3092,00:00:12.368,0.0014237168943509464
3093,00:00:12.372,0.004100417623703872
3094,00:00:12.376,-0.037023093434982036
3095,00:00:12.38,-0.014532131608575619
3096,00:00:12.384,-0.01875570247648285
3097,00:00:12.388,-0.005874054040759748
3098,00:00:12.392,0.022243648345465782
3099,00:00:12.396,0.05192404100671412
3100,00:00:12.4,0.02590253995731477
3101,00:00:12.404,-0.03269962128251788
3102,00:00:12.408,0.01641981862485406
3103,00:00:12.412,-0.03178749931976201
3104,00:00:12.416,-0.07453278359025711
3105,00:00:12.42,0.003982028458267431
3106,00:00:12.424,0.06442592648090793
3107,00:00:12.428,0.049746273085474996
3108,00:00:12.432,-0.00590429193107411
3109,00:00:12.436,-0.0309976451098918
3110,00:00:12.44,-0.05124208284541969
3111,00:00:12.444,-0.0029973239870742
3112,00:00:12.448,0.05645779799669972
3113,00:00:12.452,0.004200815979856995
3114,00:00:12.456,0.00451000949396985
3115,00:00:12.46,-0.024505708250217098
3116,00:00:12.464,-0.006605301750823861
3117,00:00:12.468,-0.000708614970790218
3118,00:00:12.472,-0.03188768448308112
3119,00:00:12.476,0.01500063959974798
3120,00:00:12.48,0.04618148272857067
3121,00:00:12.484,0.029658386018127272
3122,00:00:12.488,-0.0747931730002165
3123,00:00:12.492,-0.02421525493264201
3124,00:00:12.496,0.06375969736836853
3125,00:00:12.5,0.0442770086228847
3126,00:00:12.504,-0.015075266361236607
3127,00:00:12.508,-0.03859424125403168
3128,00:00:12.512,-0.04580046283081171
3129,00:00:12.516,-0.013375894923228776
3130,00:00:12.52,0.028742962516844307
3131,00:00:12.524,0.02577333757653837
3132,00:00:12.528,-0.01288232172373682
3133,00:00:12.532,0.0271978015080095
3134,00:00:12.536,0.012788321997504718
3135,00:00:12.54,-0.018688468262553097
3136,00:00:12.544,-0.009796792350243735
3137,00:00:12.548,0.02700446546077731
3138,00:00:12.552,-0.03220571670681238
3139,00:00:12.556,-0.015046183951199086
3140,00:00:12.56,0.02808134612860158
3141,00:00:12.564,-0.022401111200451858
3142,00:00:12.568,-0.03456149715930219
3143,00:00:12.572,0.02555241109803323
3144,00:00:12.576,0.0657100910320878
