,Elapsed Time,EMG
0,00:00:00,2.5822704136371577
1,00:00:00.004,-2.448997914791109
2,00:00:00.008,-2.050602689385416
3,00:00:00.012,-0.23510711640119536
4,00:00:00.016,1.057631343603134
5,00:00:00.02,1.2925665378570559
6,00:00:00.024,0.7837483733892443
7,00:00:00.028,0.09366675745695828
8,00:00:00.032,-0.385771218687296
9,00:00:00.036,-0.507241260260344
10,00:00:00.04,-0.3688173480331903
11,00:00:00.044,-0.1229762202128768
12,00:00:00.048,0.0709125194698572
13,00:00:00.052,0.11052930215373641
14,00:00:00.056,0.1270262622274458
15,00:00:00.06,0.07848834875039758
16,00:00:00.064,0.02057096548378468
17,00:00:00.068,-0.025888518430292627
18,00:00:00.072,-0.0649137264117599
19,00:00:00.076,-0.02763320726808154
20,00:00:00.08,-0.0036029401235282772
21,00:00:00.084,-0.012171000824309898
22,00:00:00.088,0.01222276408225301
23,00:00:00.092,0.01921218133065846
24,00:00:00.096,0.032703144708648414
25,00:00:00.1,0.005406464915722549
26,00:00:00.104,-0.02120427368208769
27,00:00:00.108,-0.024106562254019106
28,00:00:00.112,-0.0020990537013858496
29,00:00:00.116,0.008265973454399505
30,00:00:00.12,-0.0014991012867540503
31,00:00:00.124,0.003994882572442288
32,00:00:00.128,-0.0009938653092831685
33,00:00:00.132,0.02778484812006353
34,00:00:00.136,0.0018703711684793208
35,00:00:00.14,-0.050721950130537076
36,00:00:00.144,0.00378597865346819
37,00:00:00.148,0.024250789661891772
38,00:00:00.152,0.006920619052834814
39,00:00:00.156,-0.00631673401221633
40,00:00:00.16,0.005245464853942443
41,00:00:00.164,-0.018990915734320952
42,00:00:00.168,0.018236599862575555
43,00:00:00.172,0.0004651555791497092
44,00:00:00.176,0.0016336511762347007
45,00:00:00.18,-0.02225617133080964
46,00:00:00.184,-0.02572635840624572
47,00:00:00.188,0.0351774957962334
48,00:00:00.192,0.03538564986956771
49,00:00:00.196,-0.013655803850269883
50,00:00:00.2,-0.018641944508999583
51,00:00:00.204,-0.027344085508957505
52,00:00:00.208,0.00656989822164178
53,00:00:00.212,0.02612233976833526
54,00:00:00.216,0.01416508364491164
55,00:00:00.22,2.4073058739339888e-05
56,00:00:00.224,-0.004389921916299496
57,00:00:00.228,-0.02215091150719669
58,00:00:00.232,-0.00799825508147478
59,00:00:00.236,0.0022936066961847185
60,00:00:00.24,-0.011854867800138901
61,00:00:00.244,0.0158938477979973
62,00:00:00.248,0.021950572961941403
63,00:00:00.252,0.02271887613460421
64,00:00:00.256,-0.025561141315847587
65,00:00:00.26,-0.016847120936290594
66,00:00:00.264,-0.005758204031735661
67,00:00:00.268,0.0024693533778190595
68,00:00:00.272,0.030756997875869323
69,00:00:00.276,-0.04969733022153381
70,00:00:00.28,0.03106300253421072
71,00:00:00.284,0.01076329499483099
72,00:00:00.288,-0.00959845818579197
73,00:00:00.292,-0.00448444299399855
74,00:00:00.296,-0.00793417217209935
75,00:00:00.3,-0.0023900116793810896
76,00:00:00.304,0.009548261004965745
77,00:00:00.308,0.00173676083795726
78,00:00:00.312,0.010055816965177638
79,00:00:00.316,0.012730527145322412
80,00:00:00.32,-0.017251284327357994
81,00:00:00.324,-0.01793249323964119
82,00:00:00.328,-0.00877762376330794
83,00:00:00.332,0.031010009581223123
84,00:00:00.336,-0.006800266448408358
85,00:00:00.34,-0.03403442772105337
86,00:00:00.344,0.040880296379327774
87,00:00:00.348,0.010396323166787628
88,00:00:00.352,-0.0070791067555546795
89,00:00:00.356,-0.009635229391278668
90,00:00:00.36,-0.01847766444552687
91,00:00:00.364,-0.0021021411521360304
92,00:00:00.368,0.00028549652779475483
93,00:00:00.372,0.030707433819770757
94,00:00:00.376,0.01126898452639582
95,00:00:00.38,-0.02674564858898525
96,00:00:00.384,-0.012111756659578539
97,00:00:00.388,0.018844920676201582
98,00:00:00.392,0.009437408822123
99,00:00:00.396,-0.025483163772150902
100,00:00:00.4,-0.003422645851969691
101,00:00:00.404,0.015765371848829098
102,00:00:00.408,0.0319461785256862
103,00:00:00.412,-0.05217895982787016
104,00:00:00.416,-0.013857724377885437
105,00:00:00.42,0.015908263172605002
106,00:00:00.424,0.037985130446031676
107,00:00:00.428,0.01132457866333425
108,00:00:00.432,-0.009657620918005701
109,00:00:00.436,-0.03792315768077968
110,00:00:00.44,1.0617543011900727e-05
111,00:00:00.444,0.00477428035810586
112,00:00:00.448,0.00419276463799182
113,00:00:00.452,0.00894884951412673
114,00:00:00.456,-0.0022634433116763397
115,00:00:00.46,0.002291417127707978
116,00:00:00.464,0.004933436401188391
117,00:00:00.468,-0.0032914117909967396
118,00:00:00.472,-0.007510156079661099
119,00:00:00.476,-0.02859688876196744
120,00:00:00.48,0.026757481042295663
121,00:00:00.484,0.04183878703042861
122,00:00:00.488,-0.01817807450424876
123,00:00:00.492,-0.02109143603593107
124,00:00:00.496,-0.003344156313687568
125,00:00:00.5,-0.02094934205524623
126,00:00:00.504,-0.00727101089432837
127,00:00:00.508,0.03838148969225581
128,00:00:00.512,0.024166357372450875
129,00:00:00.516,-0.0033609417732805
130,00:00:00.52,-0.02870824281126259
131,00:00:00.524,0.002754536457359791
132,00:00:00.528,-0.01787168672308329
133,00:00:00.532,0.013102410826832049
134,00:00:00.536,0.00964425364509229
135,00:00:00.54,-4.081532824778619e-05
136,00:00:00.544,-0.015619947851519059
137,00:00:00.548,0.01126410532742739
138,00:00:00.552,0.004872877616435308
139,00:00:00.556,0.008155911229550828
140,00:00:00.56,-0.01668619504198432
141,00:00:00.564,-0.0032805128139443756
142,00:00:00.568,0.0048430993920192105
143,00:00:00.572,-0.0023189014755189397
144,00:00:00.576,0.0067182667553424905
145,00:00:00.58,-0.002655359348864286
146,00:00:00.584,0.008795942645519968
147,00:00:00.588,0.01601548376493153
148,00:00:00.592,-0.048629928380251
149,00:00:00.596,0.0026683571049943913
150,00:00:00.6,0.02337346691638234
151,00:00:00.604,0.00903195259161297
152,00:00:00.608,-0.018132237120880766
153,00:00:00.612,0.007751439581625139
154,00:00:00.616,0.02627769438549872
155,00:00:00.62,-0.011114375403849377
156,00:00:00.624,-0.03572667296975854
157,00:00:00.628,-0.0227931383997202
158,00:00:00.632,0.03601585049182178
159,00:00:00.636,0.03321827901527282
160,00:00:00.64,0.00518716275109909
161,00:00:00.644,-0.02352549147326503
162,00:00:00.648,-0.03857020474970341
163,00:00:00.652,0.02627973584458228
164,00:00:00.656,-0.004237341228872548
165,00:00:00.66,0.017550810007378397
166,00:00:00.664,-0.009483105823164813
167,00:00:00.668,0.0037474233613465904
168,00:00:00.672,0.00414422526955607
169,00:00:00.676,0.0001591148320585693
170,00:00:00.68,-0.0155806496040896
171,00:00:00.684,-0.00870143645443027
172,00:00:00.688,0.016678362851962447
173,00:00:00.692,0.01099304249510177
174,00:00:00.696,-0.004653441254049531
175,00:00:00.7,-0.0321895238012075
176,00:00:00.704,0.017539698630571372
177,00:00:00.708,0.02370086917653676
178,00:00:00.712,-0.0021018889383412963
179,00:00:00.716,-0.0030097807757556386
180,00:00:00.72,-0.002665360458195249
181,00:00:00.724,-0.0005303288344294284
182,00:00:00.728,-0.01901329727843403
183,00:00:00.732,-0.01682556688319891
184,00:00:00.736,0.025398401543498
185,00:00:00.74,0.010086274705827156
186,00:00:00.744,-0.036779050016775755
187,00:00:00.748,0.0174320880323649
188,00:00:00.752,0.06025141850113865
189,00:00:00.756,0.007236691308207813
190,00:00:00.76,-0.04860303271561865
191,00:00:00.764,-0.055584311718121227
192,00:00:00.768,-0.003780349157750603
193,00:00:00.772,0.0556488540023565
194,00:00:00.776,0.027816060930490504
195,00:00:00.78,-0.0183199197053909
196,00:00:00.784,0.003024972742423376
197,00:00:00.788,-0.0141265112906694
198,00:00:00.792,-0.01929263037163762
199,00:00:00.796,0.0037330025807022892
200,00:00:00.8,0.017197615467011908
201,00:00:00.804,0.0026623029261827287
202,00:00:00.808,-0.002077537355944587
203,00:00:00.812,-0.006573371123522521
204,00:00:00.816,0.010937817394733441
205,00:00:00.82,-0.0006768901366740491
206,00:00:00.824,-0.003567771986126931
207,00:00:00.828,-0.00909242825582623
208,00:00:00.832,0.00465828110463914
209,00:00:00.836,-0.02000550879165528
210,00:00:00.84,0.02060064370743927
211,00:00:00.844,0.0070823842834215655
212,00:00:00.848,0.005966189084574622
213,00:00:00.852,-0.01113093295134603
214,00:00:00.856,-0.01850547827780251
215,00:00:00.86,0.019542318885214596
216,00:00:00.864,0.00234519329387694
217,00:00:00.868,0.01807082071900369
218,00:00:00.872,-0.026379515416920223
219,00:00:00.876,-0.01748010609298941
220,00:00:00.88,-0.02113316845498046
221,00:00:00.884,0.04684098518919204
222,00:00:00.888,0.02918227063491939
223,00:00:00.892,-0.00751540507189927
224,00:00:00.896,-0.004799556685611599
225,00:00:00.9,-0.01876411819830537
226,00:00:00.904,-0.024789211340248606
227,00:00:00.908,-0.025211681728251258
228,00:00:00.912,0.025630303658545003
229,00:00:00.916,0.03219158254796642
230,00:00:00.92,0.01265208609402178
231,00:00:00.924,-0.007923684082925259
232,00:00:00.928,-0.00734139722771943
233,00:00:00.932,0.02804971672594549
234,00:00:00.936,-0.0552071260754019
235,00:00:00.94,-0.0365984598174692
236,00:00:00.944,0.04754976090043782
237,00:00:00.948,0.020355681248474866
238,00:00:00.952,0.02201215870445594
239,00:00:00.956,-0.025105138309299963
240,00:00:00.96,-0.01587624871172016
241,00:00:00.964,0.0033508415799587995
242,00:00:00.968,-0.0154982665553689
243,00:00:00.972,0.01108738407492638
244,00:00:00.976,0.01237687910906971
245,00:00:00.98,-0.00971133541315797
246,00:00:00.984,0.009543427033349879
247,00:00:00.988,0.010370817792136227
248,00:00:00.992,0.0027413722127676687
249,00:00:00.996,-0.02342148055322467
250,00:00:01,0.005726898089051281
251,00:00:01.004,-0.0045500027481466514
252,00:00:01.008,-0.03025169298052792
253,00:00:01.012,0.02247856557369224
254,00:00:01.016,0.04762917291373013
255,00:00:01.02,-0.041636406444013105
256,00:00:01.024,0.010471989167854221
257,00:00:01.028,0.026578314602374947
258,00:00:01.032,-0.030679249670356536
259,00:00:01.036,-0.02754185139201578
260,00:00:01.04,0.017429213970899568
261,00:00:01.044,0.009104859782382879
262,00:00:01.048,-0.01850583031773572
263,00:00:01.052,0.0227852119132876
264,00:00:01.056,0.017085068975575227
265,00:00:01.06,0.01264111406635488
266,00:00:01.064,-0.008141698315739632
267,00:00:01.068,-0.0461982106789946
268,00:00:01.072,-0.018025501165539002
269,00:00:01.076,0.042204657103866346
270,00:00:01.08,-0.0005312827415764401
271,00:00:01.084,-0.0224914969876409
272,00:00:01.088,0.015212624923151436
273,00:00:01.092,0.029248708859086005
274,00:00:01.096,0.006063107168301942
275,00:00:01.1,-0.02450977591797705
276,00:00:01.104,-0.032187374774366645
277,00:00:01.108,-0.01367083843797445
278,00:00:01.112,0.025833608116954586
279,00:00:01.116,0.049911624751985025
280,00:00:01.12,0.00253343977965414
281,00:00:01.124,-0.01698066061362626
282,00:00:01.128,-0.04323790920898318
283,00:00:01.132,0.004541247617453339
284,00:00:01.136,0.006816540379077201
285,00:00:01.14,0.009292174436268402
286,00:00:01.144,0.0011958314571529605
287,00:00:01.148,0.0025255591608583884
288,00:00:01.152,0.007268061977811132
289,00:00:01.156,-0.006657853606156971
290,00:00:01.16,-0.01482659345492723
291,00:00:01.164,0.010079451836645608
292,00:00:01.168,-0.0018037043046206097
293,00:00:01.172,0.010608278564177448
294,00:00:01.176,-0.014927792828530139
295,00:00:01.18,0.0177217647433281
296,00:00:01.184,-0.004471031017601509
297,00:00:01.188,-0.007132202852517372
298,00:00:01.192,-0.011300765560008589
299,00:00:01.196,0.023595449049025823
300,00:00:01.2,0.0060327777027850945
301,00:00:01.204,-0.0016392078250646383
302,00:00:01.208,-0.036034313059644746
303,00:00:01.212,-0.00483103888109326
304,00:00:01.216,0.019106366671621813
305,00:00:01.22,0.028359410818666265
306,00:00:01.224,-0.025952253723517078
307,00:00:01.228,0.0015276307240128031
308,00:00:01.232,-0.012429912952939017
309,00:00:01.236,0.009957984089851404
310,00:00:01.24,0.029221799224615094
311,00:00:01.244,0.01706002932041879
312,00:00:01.248,-0.03435566602274778
313,00:00:01.252,-0.0221200250089169
314,00:00:01.256,-0.011974091539741494
315,00:00:01.26,0.0161458728834987
316,00:00:01.264,0.01328230137005448
317,00:00:01.268,-0.035971206612885026
318,00:00:01.272,0.053065018248162205
319,00:00:01.276,0.0026230267249047826
320,00:00:01.28,0.008518399670720201
321,00:00:01.284,-0.0366109730675817
322,00:00:01.288,-0.01258688420057293
323,00:00:01.292,0.01267813378944989
324,00:00:01.296,0.01523301051929589
325,00:00:01.3,0.00697685219347477
326,00:00:01.304,-0.05200598016381265
327,00:00:01.308,0.03825116809457539
328,00:00:01.312,0.005300717428326499
329,00:00:01.316,-0.0015653383452445269
330,00:00:01.32,0.005126200674567377
331,00:00:01.324,0.012494049035012784
332,00:00:01.328,-0.041817458346486196
333,00:00:01.332,-0.019345990382134796
334,00:00:01.336,0.01950625516474242
335,00:00:01.34,0.0453743655234575
336,00:00:01.344,-0.004506743513047699
337,00:00:01.348,-0.04177899938076738
338,00:00:01.352,0.0366101004183292
339,00:00:01.356,-0.011168987024575519
340,00:00:01.36,-0.03521981555968529
341,00:00:01.364,0.03031642676796761
342,00:00:01.368,0.02622470562346279
343,00:00:01.372,-0.0178255604114384
344,00:00:01.376,-0.019091483554802825
345,00:00:01.38,0.014402695582248281
346,00:00:01.384,-0.01708506606519227
347,00:00:01.388,0.0006137725140433726
348,00:00:01.392,-0.007462770445272271
349,00:00:01.396,0.0285158820915967
350,00:00:01.4,0.01884057151619346
351,00:00:01.404,-0.019847203977405987
352,00:00:01.408,-0.045833203475922304
353,00:00:01.412,0.011778258718550209
354,00:00:01.416,0.0614703632891178
355,00:00:01.42,-0.007905322243459538
356,00:00:01.424,0.006237906403839599
357,00:00:01.428,-0.09425466624088591
358,00:00:01.432,0.040632911957800395
359,00:00:01.436,0.030263572931289624
360,00:00:01.44,-0.018914668820798352
361,00:00:01.444,0.0016151084564625905
362,00:00:01.448,0.017034189397236308
363,00:00:01.452,0.01936068432405592
364,00:00:01.456,-0.014945718459784981
365,00:00:01.46,-0.013717592111788713
366,00:00:01.464,-0.0271065582637675
367,00:00:01.468,-0.0009122511837631395
368,00:00:01.472,0.0143813295289874
369,00:00:01.476,0.022114805877208724
370,00:00:01.48,0.023743937257677285
371,00:00:01.484,-0.03261561598628756
372,00:00:01.488,-0.010024168528616508
373,00:00:01.492,0.024066937156021553
374,00:00:01.496,-0.010704136453568932
375,00:00:01.5,-0.02413374977186325
376,00:00:01.504,0.002884879708290099
377,00:00:01.508,0.01598049461608756
378,00:00:01.512,0.01617468986660244
379,00:00:01.516,-0.0012441958242561668
380,00:00:01.52,-0.03266970627009868
381,00:00:01.524,0.0123474439606071
382,00:00:01.528,0.01801045704632994
383,00:00:01.532,-0.01332284347154199
384,00:00:01.536,0.005395754240453177
385,00:00:01.54,0.016919943504035473
386,00:00:01.544,-0.037893773522227996
387,00:00:01.548,-0.003170672338455951
388,00:00:01.552,-0.0009781122207641723
389,00:00:01.556,0.0363076850771904
390,00:00:01.56,-0.029257589951157598
391,00:00:01.564,0.011927383602596852
392,00:00:01.568,0.030051735229790204
393,00:00:01.572,0.01606836682185532
394,00:00:01.576,-0.027931391960009953
395,00:00:01.58,-0.03788080113008613
396,00:00:01.584,-0.01338434545323249
397,00:00:01.588,0.008002459304407232
398,00:00:01.592,0.0337638850323856
399,00:00:01.596,0.0198777625337243
400,00:00:01.6,-0.009292867267504352
401,00:00:01.604,-0.021978477248921963
402,00:00:01.608,0.006035551428794899
403,00:00:01.612,0.005590172717347779
404,00:00:01.616,-0.028093145680031704
405,00:00:01.62,-0.029088457493344308
406,00:00:01.624,0.0289485873654484
407,00:00:01.628,0.027882136389962352
408,00:00:01.632,0.03663038159720597
409,00:00:01.636,0.0231763571500779
410,00:00:01.64,-0.03312355000525711
411,00:00:01.644,-0.06063710758462544
412,00:00:01.648,-0.01045184955000879
413,00:00:01.652,-0.0009714299812912976
414,00:00:01.656,0.02191996853798624
415,00:00:01.66,0.04442093125544492
416,00:00:01.664,0.02632659545633942
417,00:00:01.668,-0.07910833857022223
418,00:00:01.672,-0.000145713100209791
419,00:00:01.676,0.029377592727541913
420,00:00:01.68,-0.0028431657701731283
421,00:00:01.684,0.008493707515299268
422,00:00:01.688,0.0103521074634045
423,00:00:01.692,-0.008834575302898861
424,00:00:01.696,-0.023915516212582602
425,00:00:01.7,-0.01535668643191455
426,00:00:01.704,0.020921239629387828
427,00:00:01.708,0.01830131607130163
428,00:00:01.712,0.00461986986920237
429,00:00:01.716,-0.010003550909459587
430,00:00:01.72,-0.007056374553940257
431,00:00:01.724,0.003099216148257271
432,00:00:01.728,-0.03060637973248957
433,00:00:01.732,0.029107256792485752
434,00:00:01.736,0.00517979590222239
435,00:00:01.74,0.005297471303492798
436,00:00:01.744,-0.015475187217816738
437,00:00:01.748,0.0065068528056144714
438,00:00:01.752,0.030762999318540117
439,00:00:01.756,-0.02197305392473934
440,00:00:01.76,-0.030190166085958488
441,00:00:01.764,0.008068989031016802
442,00:00:01.768,0.009373203851282602
443,00:00:01.772,-0.003935213317163292
444,00:00:01.776,-0.029565801844000778
445,00:00:01.78,0.03598801561747679
446,00:00:01.784,0.0345996720716357
447,00:00:01.788,-0.0055690146982669796
448,00:00:01.792,-0.024398998008109678
449,00:00:01.796,-0.0007823694031685612
450,00:00:01.8,-0.02370024612173441
451,00:00:01.804,-0.007342093158513299
452,00:00:01.808,0.029136211145669222
453,00:00:01.812,0.00909687438979746
454,00:00:01.816,-0.021046310430392654
455,00:00:01.82,0.0033383201807736934
456,00:00:01.824,0.021896934136748255
457,00:00:01.828,-0.005945396143943111
458,00:00:01.832,-0.00976051343604923
459,00:00:01.836,0.011801763204857709
460,00:00:01.84,-0.011051031295210123
461,00:00:01.844,-0.02424218039959667
462,00:00:01.848,0.0185795528814197
463,00:00:01.852,0.016460275277495433
464,00:00:01.856,-0.009712138213217238
465,00:00:01.86,0.01941352104768155
466,00:00:01.864,-0.02947481488808989
467,00:00:01.868,-0.01041239721234888
468,00:00:01.872,0.00998658942990008
469,00:00:01.876,0.018166783265769502
470,00:00:01.88,0.0187053401023149
471,00:00:01.884,-0.03577710036188359
472,00:00:01.888,-0.03048830525949593
473,00:00:01.892,0.0551250744611025
474,00:00:01.896,0.0016128055285662395
475,00:00:01.9,-0.02811049111187458
476,00:00:01.904,-0.0009503662586211603
477,00:00:01.908,0.0189204346388579
478,00:00:01.912,0.00792084319982681
479,00:00:01.916,-0.019815924286376668
480,00:00:01.92,0.0012655113823711204
481,00:00:01.924,-0.0007962952367961402
482,00:00:01.928,0.00647541554644705
483,00:00:01.932,-0.00865476275794208
484,00:00:01.936,-0.003459259518422201
485,00:00:01.94,0.009874211042188111
486,00:00:01.944,0.008594079408794641
487,00:00:01.948,0.004078231519088121
488,00:00:01.952,-0.02212671004235748
489,00:00:01.956,-0.0017442017560824813
490,00:00:01.96,-0.00020067777950313025
491,00:00:01.964,0.011936668306589102
492,00:00:01.968,0.030521109700202904
493,00:00:01.972,-0.03204513993114241
494,00:00:01.976,-0.019078198354691267
495,00:00:01.98,0.03394658776232978
496,00:00:01.984,-0.0365105895325542
497,00:00:01.988,0.013892569579184028
498,00:00:01.992,0.014759215526282864
499,00:00:01.996,-0.0076340925879776495
500,00:00:02,0.0019178139045834507
501,00:00:02.004,0.01732872170396151
502,00:00:02.008,-0.011241117492318129
503,00:00:02.012,-0.03167840766400326
504,00:00:02.016,0.01478714309632775
505,00:00:02.02,0.03396601555868981
506,00:00:02.024,-0.01625340990722183
507,00:00:02.028,-0.01576086180284623
508,00:00:02.032,0.0015222197835101196
509,00:00:02.036,-0.005801552208140499
510,00:00:02.04,0.014560679439455288
511,00:00:02.044,0.004337866208516018
512,00:00:02.048,-0.014368682168424131
513,00:00:02.052,0.0141744746360928
514,00:00:02.056,0.005081217270344489
515,00:00:02.06,-0.01920873182825744
516,00:00:02.064,0.005792770301923121
517,00:00:02.068,-0.006692564347758849
518,00:00:02.072,-0.0006370209157465986
519,00:00:02.076,0.01808331627398735
520,00:00:02.08,0.011457907850854161
521,00:00:02.084,-0.02398288552649324
522,00:00:02.088,0.008352740318514438
523,00:00:02.092,-0.017242028901819098
524,00:00:02.096,-0.0190819017589092
525,00:00:02.1,0.029347592033445877
526,00:00:02.104,0.032926551066339
527,00:00:02.108,-0.011720075272023681
528,00:00:02.112,-0.02181150903925302
529,00:00:02.116,-0.01157307717949152
530,00:00:02.12,0.007111403858289119
531,00:00:02.124,-0.006625937530770898
532,00:00:02.128,0.02319275680929419
533,00:00:02.132,0.00867784395813944
534,00:00:02.136,7.543107494710054e-05
535,00:00:02.14,-0.0175665691494942
536,00:00:02.144,-0.06975038535892959
537,00:00:02.148,0.046153103932738304
538,00:00:02.152,0.0473395008593798
539,00:00:02.156,0.01574961398728189
540,00:00:02.16,-0.009630971646402023
541,00:00:02.164,-0.03645462286658585
542,00:00:02.168,-0.005178690887987673
543,00:00:02.172,0.01578732114285226
544,00:00:02.176,-0.016515334835275997
545,00:00:02.18,-0.001960817724466323
546,00:00:02.184,-0.0041556358337402404
547,00:00:02.188,0.02161347866058351
548,00:00:02.192,0.00897588301450015
549,00:00:02.196,0.0025705616135382947
550,00:00:02.2,-0.0104138976894319
551,00:00:02.204,-0.01151029020547862
552,00:00:02.208,-0.01187121262773874
553,00:00:02.212,0.011229390976950512
554,00:00:02.216,0.0019433982670306986
555,00:00:02.22,0.02742038480937478
556,00:00:02.224,-0.009714307263493573
557,00:00:02.228,-0.01638903515413406
558,00:00:02.232,0.0034435743000358395
559,00:00:02.236,0.028103073127567768
560,00:00:02.24,-0.04127580160275104
561,00:00:02.244,-0.03597059892490507
562,00:00:02.248,0.03425360517576333
563,00:00:02.252,0.044372521340847015
564,00:00:02.256,0.0009434802632313222
565,00:00:02.26,-0.029572012834250903
566,00:00:02.264,-0.01549831335432832
567,00:00:02.268,0.017613854375667846
568,00:00:02.272,0.022680122405290593
569,00:00:02.276,-0.014973335200920668
570,00:00:02.28,-0.033787038177251774
571,00:00:02.284,-0.022053537890315097
572,00:00:02.288,0.02310965908691289
573,00:00:02.292,0.05103629129007453
574,00:00:02.296,0.0076573767000809485
575,00:00:02.3,-0.01581103610806168
576,00:00:02.304,-0.019979652483016253
577,00:00:02.308,-0.0187620772048831
578,00:00:02.312,0.0036685962695628682
579,00:00:02.316,0.007761788554489613
580,00:00:02.32,0.001244735904037949
581,00:00:02.324,0.008125678868964311
582,00:00:02.328,0.009563215484377012
583,00:00:02.332,0.00249955733306706
584,00:00:02.336,-0.0062993643805384775
585,00:00:02.34,0.0013600904494523985
586,00:00:02.344,-0.016052154824137695
587,00:00:02.348,-0.030265267938375452
588,00:00:02.352,0.004751357249915631
589,00:00:02.356,0.027826490520965263
590,00:00:02.36,0.030833227909170056
591,00:00:02.364,0.0320658800192177
592,00:00:02.368,-0.034306890564039315
593,00:00:02.372,-0.04452242719708012
594,00:00:02.376,-0.00698409043252466
595,00:00:02.38,-0.006962325889617229
596,00:00:02.384,0.02017752802930771
597,00:00:02.388,0.019264515838585846
598,00:00:02.392,0.018528523083659796
599,00:00:02.396,0.00257089361548421
600,00:00:02.4,-0.01021568570286036
601,00:00:02.404,-0.03238212456926705
602,00:00:02.408,0.0018741637468338204
603,00:00:02.412,0.026087345555424697
604,00:00:02.416,-0.05288612539879976
605,00:00:02.42,-0.001192295923829096
606,00:00:02.424,0.08191513456404213
607,00:00:02.428,0.011007190216332712
608,00:00:02.432,-0.03510911727789785
609,00:00:02.436,-0.019636422395706128
610,00:00:02.44,-0.0005674331914633703
611,00:00:02.444,-0.014674260746687607
612,00:00:02.448,-0.004466462705750021
613,00:00:02.452,0.0179437408223748
614,00:00:02.456,0.008665767498314401
615,00:00:02.46,0.010125108063220981
616,00:00:02.464,0.01525622210465371
617,00:00:02.468,-0.0369501924142241
618,00:00:02.472,-0.00152022589463747
619,00:00:02.476,-0.0012597497552633303
620,00:00:02.48,0.0025116854812949905
621,00:00:02.484,0.0028381354932207584
622,00:00:02.488,0.037766182795166914
623,00:00:02.492,-0.02744926768355067
624,00:00:02.496,-0.01595367270056156
625,00:00:02.5,0.013839812949299812
626,00:00:02.504,-0.0019303110893816016
627,00:00:02.508,-0.00509978597983718
628,00:00:02.512,0.01019001973327249
629,00:00:02.516,-0.010430930240545458
630,00:00:02.52,-0.002354992495384067
631,00:00:02.524,0.010577528271824118
632,00:00:02.528,0.026879842393100248
633,00:00:02.532,-0.01886037411168218
634,00:00:02.536,-0.025583740323782002
635,00:00:02.54,-0.022939189337194
636,00:00:02.544,0.0233501764014363
637,00:00:02.548,0.035181225801352446
638,00:00:02.552,0.008252030238509159
639,00:00:02.556,-0.014147422276437296
640,00:00:02.56,-0.04878647020086648
641,00:00:02.564,0.0047504482790827925
642,00:00:02.568,0.03968593804165717
643,00:00:02.572,0.01962738577276473
644,00:00:02.576,-0.0144440587610007
645,00:00:02.58,-0.02493135049007831
646,00:00:02.584,0.0001954424660652902
647,00:00:02.588,0.017901936545968087
648,00:00:02.592,-0.024886391591280782
649,00:00:02.596,-0.00163315329700709
650,00:00:02.6,0.02118325745686892
651,00:00:02.604,0.003812346607446669
652,00:00:02.608,0.006081644445657772
653,00:00:02.612,-0.010986711306031793
654,00:00:02.616,-0.00237600575201214
655,00:00:02.62,-0.0032088992884382224
656,00:00:02.624,-0.011594280222197988
657,00:00:02.628,0.006657456047833004
658,00:00:02.632,0.0120355833787471
659,00:00:02.636,0.007894302383647257
660,00:00:02.64,0.0007394875865429683
661,00:00:02.644,-0.012787507148459559
662,00:00:02.648,-0.022963880997849625
663,00:00:02.652,0.03002210613340131
664,00:00:02.656,0.0023545310832560097
665,00:00:02.66,0.00797280669212348
666,00:00:02.664,-0.02376408362761135
667,00:00:02.668,-0.017730548046529283
668,00:00:02.672,-0.0032288571819663273
669,00:00:02.676,0.0416863188147545
670,00:00:02.68,0.010016573127359091
671,00:00:02.684,-0.01908694300800557
672,00:00:02.688,0.0024813788477331296
673,00:00:02.692,0.005220950813964011
674,00:00:02.696,-0.02673521870747209
675,00:00:02.7,-0.02463699108920994
676,00:00:02.704,0.0191388269886374
677,00:00:02.708,0.035988594405353035
678,00:00:02.712,0.018561223871074593
679,00:00:02.716,-0.00381601997651159
680,00:00:02.72,-0.03504583286121485
681,00:00:02.724,-0.017611336952541055
682,00:00:02.728,-0.008094723336398598
683,00:00:02.732,0.011769932403694838
684,00:00:02.736,0.038156382739543915
685,00:00:02.74,-0.02433677064254879
686,00:00:02.744,0.014694781391881438
687,00:00:02.748,0.0015158257447183097
688,00:00:02.752,-0.021041013766080138
689,00:00:02.756,0.010325933864805854
690,00:00:02.76,0.0072611562209203805
691,00:00:02.764,-0.002125359605997839
692,00:00:02.768,-0.015180070477072146
693,00:00:02.772,-0.018707072362303796
694,00:00:02.776,0.01608076412230727
695,00:00:02.78,0.02673563081771134
696,00:00:02.784,-0.01032400876283645
697,00:00:02.788,0.023536283057183
698,00:00:02.792,-0.013609720597742138
699,00:00:02.796,-0.03508242138195787
700,00:00:02.8,0.00411543506197631
701,00:00:02.804,0.003250216075684877
702,00:00:02.808,0.010784262791275982
703,00:00:02.812,-0.00719271181151275
704,00:00:02.816,0.0047693983651698295
705,00:00:02.82,-0.006336945109069311
706,00:00:02.824,0.04799114004708828
707,00:00:02.828,-0.00158866122364995
708,00:00:02.832,-0.04533542471472176
709,00:00:02.836,-0.00173552031628787
710,00:00:02.84,-0.0023475120542571486
711,00:00:02.844,0.0004888086114079003
712,00:00:02.848,-0.023275734856724798
713,00:00:02.852,0.04945101216435436
714,00:00:02.856,0.01408156612887974
715,00:00:02.86,-0.00578170921653514
716,00:00:02.864,-0.02300617774017159
717,00:00:02.868,0.0012416474055498804
718,00:00:02.872,-0.00505365664139385
719,00:00:02.876,-0.00912055047228932
720,00:00:02.88,0.007080927491188049
721,00:00:02.884,0.004351372364908451
722,00:00:02.888,0.010158764431253069
723,00:00:02.892,-0.0032973124471027447
724,00:00:02.896,-0.010537519119679968
725,00:00:02.9,0.006394033553078779
726,00:00:02.904,0.01198145700618625
727,00:00:02.908,0.002879753243178131
728,00:00:02.912,-0.007702089416852683
729,00:00:02.916,-0.008396449498832267
730,00:00:02.92,-0.04177796072326597
731,00:00:02.924,0.0023607013281433994
732,00:00:02.928,0.06377152446657419
733,00:00:02.932,0.001288167666643819
734,00:00:02.936,-0.0036773500032723297
735,00:00:02.94,0.0023173025256255364
736,00:00:02.944,-0.01247616438195108
737,00:00:02.948,-0.02456790069118141
738,00:00:02.952,-0.018821620149537952
739,00:00:02.956,0.007006602128967639
740,00:00:02.96,0.03558920137584211
741,00:00:02.964,0.0152919366955757
742,00:00:02.968,-0.0200357316061854
743,00:00:02.972,0.0013096015900373598
744,00:00:02.976,-0.0174864631844685
745,00:00:02.98,-0.014406001660972879
746,00:00:02.984,0.018814819399267428
747,00:00:02.988,0.03461215714924035
748,00:00:02.992,-0.005935181863605978
749,00:00:02.996,-0.0323021721560508
750,00:00:03,0.0046563708456233924
751,00:00:03.004,0.012087153736501979
752,00:00:03.008,-0.014537079259753203
753,00:00:03.012,0.0015244355890899897
754,00:00:03.016,-0.0006986683583818237
755,00:00:03.02,-0.004750191466882801
756,00:00:03.024,0.013345582294277857
757,00:00:03.028,0.0228837747126818
758,00:00:03.032,0.012443229556083669
759,00:00:03.036,-0.030500094871968076
760,00:00:03.04,-0.029806361999362672
761,00:00:03.044,-0.02929453318938611
762,00:00:03.048,0.048266764730215204
763,00:00:03.052,0.02972924429923298
764,00:00:03.056,-0.011707841069437619
765,00:00:03.06,-0.012204445083625677
766,00:00:03.064,0.00931779877282684
767,00:00:03.068,0.0056554758921265715
768,00:00:03.072,-0.03226631227880716
769,00:00:03.076,-0.0032634409144521002
770,00:00:03.08,0.00612219562754036
771,00:00:03.084,0.013317862991243651
772,00:00:03.088,0.02600299450568853
773,00:00:03.092,0.00074326095636934
774,00:00:03.096,-0.030527861323207565
775,00:00:03.1,-0.022476390004158006
776,00:00:03.104,0.01564584136940534
777,00:00:03.108,0.0037943029310554925
778,00:00:03.112,0.01520816690754149
779,00:00:03.116,0.010304761119186863
780,00:00:03.12,-0.030902764818165493
781,00:00:03.124,0.003847687505185599
782,00:00:03.128,0.014812036301009319
783,00:00:03.132,0.0122482436709106
784,00:00:03.136,-0.003414591774344439
785,00:00:03.14,-0.018470210023224354
786,00:00:03.144,-0.028063846286386283
787,00:00:03.148,0.011687579564750191
788,00:00:03.152,0.018034793436527197
789,00:00:03.156,0.02079961914569143
790,00:00:03.16,-0.0006036716513335792
791,00:00:03.164,-0.0020635244436561784
792,00:00:03.168,-0.007897478528320819
793,00:00:03.172,-0.0363456318154931
794,00:00:03.176,-0.00124222328304313
795,00:00:03.18,0.03357936767861244
796,00:00:03.184,0.01046090899035335
797,00:00:03.188,0.006987503729760669
798,00:00:03.192,-0.03456222364911814
799,00:00:03.196,-0.01762989792041481
800,00:00:03.2,0.03370880382135512
801,00:00:03.204,0.01958617218770086
802,00:00:03.208,-0.008373757824301753
803,00:00:03.212,-0.024529658665414934
804,00:00:03.216,0.0009718001820147237
805,00:00:03.22,0.015204343013465411
806,00:00:03.224,0.013340109959244732
807,00:00:03.228,-0.021596231730654787
808,00:00:03.232,-0.027977797202766004
809,00:00:03.236,-0.00909823644906279
810,00:00:03.24,0.047450421378016486
811,00:00:03.244,0.02433054544962945
812,00:00:03.248,0.0005259707104414285
813,00:00:03.252,-0.0220153238624334
814,00:00:03.256,-0.0395032577216625
815,00:00:03.26,0.0025040670298039887
816,00:00:03.264,0.02530266670510173
817,00:00:03.268,0.006753285299055278
818,00:00:03.272,-0.0027740173973143187
819,00:00:03.276,0.007575035910122059
820,00:00:03.28,0.0018201798666268119
821,00:00:03.284,-0.02781338756904008
822,00:00:03.288,-0.004214170272462076
823,00:00:03.292,0.0326418122276663
824,00:00:03.296,-0.00965046510100364
825,00:00:03.3,-0.0089455214329064
826,00:00:03.304,0.006863296119263401
827,00:00:03.308,-0.002072532661259209
828,00:00:03.312,0.004370498732896551
829,00:00:03.316,-0.0014400593936443268
830,00:00:03.32,-0.013524730689823662
831,00:00:03.324,0.001474435674026609
832,00:00:03.328,0.02415183372795582
833,00:00:03.332,-0.009302921505877748
834,00:00:03.336,-0.00040633840399095745
835,00:00:03.34,-0.004434964619576922
836,00:00:03.344,-0.02917438407894224
837,00:00:03.348,0.0053607323206961
838,00:00:03.352,0.042615258134901565
839,00:00:03.356,0.01988809555768963
840,00:00:03.36,-0.0151828849921002
841,00:00:03.364,-0.049622640013694694
842,00:00:03.368,0.0026914495974779025
843,00:00:03.372,0.00975654553622007
844,00:00:03.376,0.013488999335095321
845,00:00:03.38,0.00792267406359314
846,00:00:03.384,-0.001335578795988112
847,00:00:03.388,-0.0018307378049939793
848,00:00:03.392,0.0010567735880613206
849,00:00:03.396,-0.006930658826604471
850,00:00:03.4,-0.0111723091104068
851,00:00:03.404,0.003402099304366907
852,00:00:03.408,0.01160496275406331
853,00:00:03.412,0.011752362595871091
854,00:00:03.416,-0.003546157968230548
855,00:00:03.42,-0.007822389481589202
856,00:00:03.424,-0.02050673123449093
857,00:00:03.428,-0.02154203876852989
858,00:00:03.432,0.027428633067756877
859,00:00:03.436,0.0414054431021213
860,00:00:03.44,0.001460011349991009
861,00:00:03.444,-0.02613776829093692
862,00:00:03.448,-0.02121670680935498
863,00:00:03.452,0.01905206590890884
864,00:00:03.456,-0.00688988529145719
865,00:00:03.46,-0.027073735836893383
866,00:00:03.464,0.024751639459282104
867,00:00:03.468,0.01586158480495218
868,00:00:03.472,0.008142865845002189
869,00:00:03.476,1.9026454538115592e-05
870,00:00:03.48,-0.01203435403294861
871,00:00:03.484,0.006581624853424721
872,00:00:03.488,-0.06297256331890819
873,00:00:03.492,0.023832225590013
874,00:00:03.496,0.020002262666821494
875,00:00:03.5,0.015440491843037267
876,00:00:03.504,0.03418258856981994
877,00:00:03.508,-0.01855860836803916
878,00:00:03.512,-0.01264537777751688
879,00:00:03.516,-0.029282538918778255
880,00:00:03.52,-0.01627449807710946
881,00:00:03.524,0.015220904257148532
882,00:00:03.528,0.017072303220629734
883,00:00:03.532,0.012589764915901462
884,00:00:03.536,9.465031325822139e-05
885,00:00:03.54,0.009117784735281034
886,00:00:03.544,-0.019562016241252398
887,00:00:03.548,-0.02315925527364012
888,00:00:03.552,-0.016743285814300148
889,00:00:03.556,0.03959372127428649
890,00:00:03.56,0.0258198240771889
891,00:00:03.564,0.01143065467476845
892,00:00:03.568,-0.02624386688694355
893,00:00:03.572,-0.026609408552758423
894,00:00:03.576,-0.01515763299539688
895,00:00:03.58,0.016678361687809222
896,00:00:03.584,0.02603450929746034
897,00:00:03.588,0.0018003189470618916
898,00:00:03.592,-0.012610199162736532
899,00:00:03.596,-0.02342692716047172
900,00:00:03.6,0.0126579031348229
901,00:00:03.604,0.02991105476394291
902,00:00:03.608,-0.016077174885140294
903,00:00:03.612,-0.0169113958254456
904,00:00:03.616,0.02916097780689595
905,00:00:03.62,-0.006593182682990997
906,00:00:03.624,-0.028510097879916436
907,00:00:03.628,-0.0066826324909925496
908,00:00:03.632,0.025670554954558628
909,00:00:03.636,0.008163905848050448
910,00:00:03.64,-0.0008945864392444509
911,00:00:03.644,-5.4548494517789314e-05
912,00:00:03.648,-0.005835549905896187
913,00:00:03.652,-0.0053249131888150995
914,00:00:03.656,-0.00216035661287605
915,00:00:03.66,-0.00332825817167752
916,00:00:03.664,0.01036957092583181
917,00:00:03.668,-0.00060338620096445
918,00:00:03.672,-0.00604794593527911
919,00:00:03.676,0.007653461303561929
920,00:00:03.68,0.01252406637649979
921,00:00:03.684,-0.01177652063779534
922,00:00:03.688,-0.01134392223320901
923,00:00:03.692,-0.005210168194025749
924,00:00:03.696,-0.00894612772390247
925,00:00:03.7,0.023385430802591117
926,00:00:03.704,0.026508325710892712
927,00:00:03.708,0.002839058637618991
928,00:00:03.712,-0.03391031501814725
929,00:00:03.716,-0.03419531416147944
930,00:00:03.72,0.02435326389968397
931,00:00:03.724,-0.007451192475855389
932,00:00:03.728,0.019306291826069404
933,00:00:03.732,0.03323686559451746
934,00:00:03.736,-0.007649487815797341
935,00:00:03.74,0.0056277946569025
936,00:00:03.744,-0.029799386102240547
937,00:00:03.748,-0.0547828893177211
938,00:00:03.752,0.02695742654032074
939,00:00:03.756,0.02411994244903328
940,00:00:03.76,0.012711542658507902
941,00:00:03.764,0.00992091558873648
942,00:00:03.768,-0.00437358813360331
943,00:00:03.772,-0.012158028082922122
944,00:00:03.776,-0.01283635618165136
945,00:00:03.78,0.00590055109933018
946,00:00:03.784,0.012261006981134399
947,00:00:03.788,-0.008725326508283601
948,00:00:03.792,-0.011314356233924579
949,00:00:03.796,0.005861984565854111
950,00:00:03.8,0.016101579181849904
951,00:00:03.804,0.0020273467525839025
952,00:00:03.808,-0.009047418832779004
953,00:00:03.812,-0.01874313596636056
954,00:00:03.816,0.0005696488660759696
955,00:00:03.82,0.013811223572702147
956,00:00:03.824,0.01999500067904592
957,00:00:03.828,-0.004399407655000728
958,00:00:03.832,-0.062091935891658
959,00:00:03.836,0.0358932167291641
960,00:00:03.84,0.042731041554361644
961,00:00:03.844,0.002479456394212324
962,00:00:03.848,-0.0062252150382846
963,00:00:03.852,-0.0508836936205625
964,00:00:03.856,-0.019647365785203923
965,00:00:03.86,0.0254403660073876
966,00:00:03.864,0.03062243643216785
967,00:00:03.868,0.01342600188218061
968,00:00:03.872,-0.0064054746180773016
969,00:00:03.876,-0.017238543368876022
970,00:00:03.88,-0.025344300258439083
971,00:00:03.884,0.006267199292778939
972,00:00:03.888,-0.0008711167611181996
973,00:00:03.892,0.021006857976317402
974,00:00:03.896,0.02381489786785098
975,00:00:03.9,-0.018399817869067202
976,00:00:03.904,-0.002727319486439228
977,00:00:03.908,-0.02433131635189059
978,00:00:03.912,0.024833037954522345
979,00:00:03.916,0.03992381889838724
980,00:00:03.92,-0.08642504317685962
981,00:00:03.924,-0.005820968188345458
982,00:00:03.928,0.031991920433938496
983,00:00:03.932,0.02205547248013316
984,00:00:03.936,0.00761247146874666
985,00:00:03.94,0.0090732828248292
986,00:00:03.944,0.005154813174158331
987,00:00:03.948,-0.02800928801298146
988,00:00:03.952,-0.023407225497066912
989,00:00:03.956,0.0023268591612577716
990,00:00:03.96,0.00867680413648487
991,00:00:03.964,0.007164597511291511
992,00:00:03.968,0.007749580196104939
993,00:00:03.972,0.00293388543650508
994,00:00:03.976,0.0045031099580228415
995,00:00:03.98,-0.030499120010063083
996,00:00:03.984,0.023917213315144188
997,00:00:03.988,0.01074016094207766
998,00:00:03.992,-0.021597634768113473
999,00:00:03.996,-0.0163822742179037
1000,00:00:04,0.0239296248182655
1001,00:00:04.004,0.008982338098576263
1002,00:00:04.008,0.0037917976733297387
1003,00:00:04.012,-0.010729293338954508
1004,00:00:04.016,-0.01885710377246148
1005,00:00:04.02,-0.00670278305187821
1006,00:00:04.024,0.01210646308027205
1007,00:00:04.028,0.027953757322393344
1008,00:00:04.032,-0.00723840296268463
1009,00:00:04.036,-0.018592692445963593
1010,00:00:04.04,0.0017517009982839712
1011,00:00:04.044,0.00565376342274251
1012,00:00:04.048,0.005139276036061348
1013,00:00:04.052,-0.0002184147015213897
1014,00:00:04.056,-0.0015682195662520756
1015,00:00:04.06,-0.01613961625844245
1016,00:00:04.064,0.00634441524744034
1017,00:00:04.068,0.012462386861443532
1018,00:00:04.072,-0.0027304998366162146
1019,00:00:04.076,-0.01522944867610935
1020,00:00:04.08,0.00973384175449607
1021,00:00:04.084,0.0068465883414319285
1022,00:00:04.088,0.0011465286370366881
1023,00:00:04.092,0.009739067871123542
1024,00:00:04.096,-0.023754076566547128
1025,00:00:04.1,-0.012629203847609457
1026,00:00:04.104,0.017046463646693114
1027,00:00:04.108,0.00509711029008034
1028,00:00:04.112,0.00757958181202412
1029,00:00:04.116,0.004532810300588561
1030,00:00:04.12,-0.0029314863204490376
1031,00:00:04.124,-0.0402306321534525
1032,00:00:04.128,0.008570710488129402
1033,00:00:04.132,0.041018872521817726
1034,00:00:04.136,0.008084483211859998
1035,00:00:04.14,-0.03660519467666749
1036,00:00:04.144,-0.00493529392406344
1037,00:00:04.148,0.00426344340667128
1038,00:00:04.152,0.00887483055703342
1039,00:00:04.156,-0.0032450258731841885
1040,00:00:04.16,0.01212984276935458
1041,00:00:04.164,0.00606926064938308
1042,00:00:04.168,-0.00946444948203862
1043,00:00:04.172,-0.012343908660113829
1044,00:00:04.176,-0.01300526689738036
1045,00:00:04.18,-0.0017307579983026089
1046,00:00:04.184,0.02237445628270506
1047,00:00:04.188,0.013483885210007467
1048,00:00:04.192,-0.0049271844327449296
1049,00:00:04.196,0.007716691587120311
1050,00:00:04.2,0.0096521191298962
1051,00:00:04.204,-0.0374359758570791
1052,00:00:04.208,-0.03380385879427188
1053,00:00:04.212,0.03945393348112704
1054,00:00:04.216,0.012876866385340698
1055,00:00:04.22,0.004843617309234093
1056,00:00:04.224,-0.00960983289405704
1057,00:00:04.228,-0.005043565295636751
1058,00:00:04.232,0.013613804068881996
1059,00:00:04.236,-0.02080003404989838
1060,00:00:04.24,0.00851838570088153
1061,00:00:04.244,-0.007653729058802119
1062,00:00:04.248,0.010763263562694187
1063,00:00:04.252,-0.00427068769931794
1064,00:00:04.256,-0.014924170791346137
1065,00:00:04.26,0.02408859040588139
1066,00:00:04.264,0.00979780568741262
1067,00:00:04.268,0.004028670024126808
1068,00:00:04.272,-0.011813627177616566
1069,00:00:04.276,-0.02297316957265139
1070,00:00:04.28,-0.015134827699512259
1071,00:00:04.284,0.0015355987707153015
1072,00:00:04.288,0.031207360792905117
1073,00:00:04.292,0.02321886969730261
1074,00:00:04.296,-0.023327617207542062
1075,00:00:04.3,0.0021680609788746197
1076,00:00:04.304,0.0012658657506107972
1077,00:00:04.308,-0.01233115093782544
1078,00:00:04.312,-0.008291887119412429
1079,00:00:04.316,0.016810149885714058
1080,00:00:04.32,-0.0037007487844675307
1081,00:00:04.324,0.012640640139579797
1082,00:00:04.328,-0.02777425409294667
1083,00:00:04.332,0.006051139440387469
1084,00:00:04.336,0.0282600497594103
1085,00:00:04.34,-0.0264720940031111
1086,00:00:04.344,0.007982503448147323
1087,00:00:04.348,0.00754258420784027
1088,00:00:04.352,-0.01330710039474067
1089,00:00:04.356,0.01009727246128023
1090,00:00:04.36,-0.006003550952300429
1091,00:00:04.364,-0.007011618203250641
1092,00:00:04.368,0.0021959294099360683
1093,00:00:04.372,0.00308187515474857
1094,00:00:04.376,0.005875967442989361
1095,00:00:04.38,0.004850067140068906
1096,00:00:04.384,-0.007068319479003538
1097,00:00:04.388,-0.0046892655082046986
1098,00:00:04.392,0.00850977608934048
1099,00:00:04.396,0.0012167911045253303
1100,00:00:04.4,-0.013843246269971129
1101,00:00:04.404,0.007815071730874479
1102,00:00:04.408,0.006047880509868261
1103,00:00:04.412,-0.01092119794338945
1104,00:00:04.416,0.011791925877332708
1105,00:00:04.42,-0.00599824020173405
1106,00:00:04.424,-0.018437180668115602
1107,00:00:04.428,0.02338525187224155
1108,00:00:04.432,-0.0032661017030477003
1109,00:00:04.436,-0.0011236276477575198
1110,00:00:04.44,-0.0004701540456153331
1111,00:00:04.444,-0.004528494551777847
1112,00:00:04.448,0.007746926043182629
1113,00:00:04.452,-0.002995762493810616
1114,00:00:04.456,0.0010233099455945168
1115,00:00:04.46,-0.008562063332647038
1116,00:00:04.464,0.012500928714871379
1117,00:00:04.468,-0.0010198885574937526
1118,00:00:04.472,-0.01326520182192329
1119,00:00:04.476,0.00014519086107610962
1120,00:00:04.48,0.005678693472873411
1121,00:00:04.484,0.003195653669536086
1122,00:00:04.488,0.016629417019430593
1123,00:00:04.492,0.0014653266407549694
1124,00:00:04.496,-0.02172206423711034
1125,00:00:04.5,-0.02837613224983213
1126,00:00:04.504,0.02027843799442052
1127,00:00:04.508,0.012262661010026928
1128,00:00:04.512,0.0016404674388468604
1129,00:00:04.516,0.00037838611751791
1130,00:00:04.52,0.004678209777921428
1131,00:00:04.524,0.01270628883503379
1132,00:00:04.528,-0.021948534063994902
1133,00:00:04.532,-0.006629100185818972
1134,00:00:04.536,0.005034662433899939
1135,00:00:04.54,0.0015999944298528191
1136,00:00:04.544,1.1095544323329494e-05
1137,00:00:04.548,-0.002263432834297409
1138,00:00:04.552,0.006310992727321717
1139,00:00:04.556,-0.003863642981741575
1140,00:00:04.56,-0.006779765943065289
1141,00:00:04.564,-0.0036113914102315625
1142,00:00:04.568,0.01161411427892743
1143,00:00:04.572,0.02149415179155766
1144,00:00:04.576,-0.004204488883260593
1145,00:00:04.58,-0.00542469928041096
1146,00:00:04.584,-0.04620147019159042
1147,00:00:04.588,0.0005664662458002489
1148,00:00:04.592,0.03481976455077533
1149,00:00:04.596,0.02446687256451692
1150,00:00:04.6,-0.01578877773135901
1151,00:00:04.604,0.016190354013815522
1152,00:00:04.608,0.0020744781941175894
1153,00:00:04.612,-0.0349180623888969
1154,00:00:04.616,-0.06267545232549311
1155,00:00:04.62,0.024677239824086407
1156,00:00:04.624,0.0553578345570713
1157,00:00:04.628,0.02973011787980793
1158,00:00:04.632,-0.00726929679512978
1159,00:00:04.636,-0.017127549741417107
1160,00:00:04.64,-0.014026143704540998
1161,00:00:04.644,-0.010940038773696838
1162,00:00:04.648,-0.036005566711537554
1163,00:00:04.652,0.018631755374372005
1164,00:00:04.656,0.045872284565120935
1165,00:00:04.66,0.0059321154840290356
1166,00:00:04.664,-0.01565209776163103
1167,00:00:04.668,-0.01370005332864817
1168,00:00:04.672,0.0055930580710992096
1169,00:00:04.676,-0.003323756449390208
1170,00:00:04.68,-0.00708595383912325
1171,00:00:04.684,0.008165980747435249
1172,00:00:04.688,0.005683025228790939
1173,00:00:04.692,-0.025111806346103598
1174,00:00:04.696,0.003538498189300269
1175,00:00:04.7,0.04856701893731945
1176,00:00:04.704,0.006145493127405571
1177,00:00:04.708,-0.03342220140621065
1178,00:00:04.712,-0.0048816837370395
1179,00:00:04.716,-0.010227568447589895
1180,00:00:04.72,-0.03269184939563277
1181,00:00:04.724,-0.010183366946876028
1182,00:00:04.728,0.0278406357392669
1183,00:00:04.732,0.06400623824447399
1184,00:00:04.736,0.0222003124654293
1185,00:00:04.74,-0.028528388589620597
1186,00:00:04.744,-0.03007708210498096
1187,00:00:04.748,-0.010503437370061883
1188,00:00:04.752,-0.0038194349035621106
1189,00:00:04.756,0.006274953018873939
1190,00:00:04.76,-0.01965783443301917
1191,00:00:04.764,0.00469233037438244
1192,00:00:04.768,0.018017506838077645
1193,00:00:04.772,0.03281514160335067
1194,00:00:04.776,-0.011600493919104289
1195,00:00:04.78,-0.03543286304920909
1196,00:00:04.784,-0.000926416367292399
1197,00:00:04.788,0.027130688540637462
1198,00:00:04.792,0.00617473525926471
1199,00:00:04.796,0.01851484342478212
1200,00:00:04.8,-0.035127899143844815
1201,00:00:04.804,-0.057054479140788324
1202,00:00:04.808,0.01962345279753207
1203,00:00:04.812,0.05723335070069885
1204,00:00:04.816,0.02862359397113328
1205,00:00:04.82,-0.028063552454113898
1206,00:00:04.824,-0.0327178779989481
1207,00:00:04.828,-0.002548146061599303
1208,00:00:04.832,0.008554688654839906
1209,00:00:04.836,0.03144887182861561
1210,00:00:04.84,-0.013370828935876454
1211,00:00:04.844,-0.030538813269231493
1212,00:00:04.848,-0.001994299236685074
1213,00:00:04.852,0.01264839444775134
1214,00:00:04.856,0.01990255247801547
1215,00:00:04.86,0.04691875173011792
1216,00:00:04.864,-0.02587475907057522
1217,00:00:04.868,-0.0860691978596151
1218,00:00:04.872,-0.036435782909393276
1219,00:00:04.876,0.05746239703148603
1220,00:00:04.88,0.0855875648558139
1221,00:00:04.884,0.0253234121482819
1222,00:00:04.888,-0.0352450339123606
1223,00:00:04.892,-0.04698092426406217
1224,00:00:04.896,-0.029005211312323767
1225,00:00:04.9,-0.01832752721384171
1226,00:00:04.904,0.0543372277170419
1227,00:00:04.908,0.024762124754488427
1228,00:00:04.912,-0.028738978318870102
1229,00:00:04.916,-0.011803369037806951
1230,00:00:04.92,0.01191187536460352
1231,00:00:04.924,0.01001337962225075
1232,00:00:04.928,-0.004803043324500331
1233,00:00:04.932,-0.007027526851743498
1234,00:00:04.936,0.013172011123970111
1235,00:00:04.94,-0.004591800272464719
1236,00:00:04.944,-0.005319515010341971
1237,00:00:04.948,-0.0223443582653999
1238,00:00:04.952,0.006442966870963577
1239,00:00:04.956,0.07155151665210721
1240,00:00:04.96,-0.029463818762451473
1241,00:00:04.964,-0.06583309266716238
1242,00:00:04.968,-0.006767757236957557
1243,00:00:04.972,0.025093063479289357
1244,00:00:04.976,0.03906821715645491
1245,00:00:04.98,0.022654218366369647
1246,00:00:04.984,0.0032776249572634003
1247,00:00:04.988,-0.04718589968979357
1248,00:00:04.992,-0.025761834345757996
1249,00:00:04.996,-0.0098740523681045
1250,00:00:05,0.0313856825232506
1251,00:00:05.004,0.01663804892450578
1252,00:00:05.008,0.01760923495749011
1253,00:00:05.012,-0.010231014341115896
1254,00:00:05.016,-0.02789797063451261
1255,00:00:05.02,0.008572793100029232
1256,00:00:05.024,-0.005730580014642304
1257,00:00:05.028,-0.004417624324560191
1258,00:00:05.032,0.0409477045759558
1259,00:00:05.036,-0.009085193742066611
1260,00:00:05.04,-0.019925024360418406
1261,00:00:05.044,-0.03712766524404291
1262,00:00:05.048,0.03740340290823944
1263,00:00:05.052,-0.010548681253567307
1264,00:00:05.056,0.03668436361476786
1265,00:00:05.06,0.002104822720866656
1266,00:00:05.064,-0.03491665143519644
1267,00:00:05.068,-0.018322213640203696
1268,00:00:05.072,0.04227615427225828
1269,00:00:05.076,-0.02557295421138403
1270,00:00:05.08,-0.0009080572053789954
1271,00:00:05.084,-0.0085274577140808
1272,00:00:05.088,0.03958401083946239
1273,00:00:05.092,0.012263643089681881
1274,00:00:05.096,-0.0273519931361079
1275,00:00:05.1,-0.036140770185738816
1276,00:00:05.104,0.018093086779117577
1277,00:00:05.108,0.03701779153198
1278,00:00:05.112,-0.025764169637113823
1279,00:00:05.116,-0.01900704106083138
1280,00:00:05.12,0.010190486907959033
1281,00:00:05.124,0.0308475927449762
1282,00:00:05.128,0.005954996217042142
1283,00:00:05.132,-0.011306584812700691
1284,00:00:05.136,-0.030015699565410604
1285,00:00:05.14,-0.03591075213626026
1286,00:00:05.144,0.0073804585263132026
1287,00:00:05.148,0.05095826496835806
1288,00:00:05.152,0.054189230315387235
1289,00:00:05.156,-0.02216845517978073
1290,00:00:05.16,-0.03988982457667588
1291,00:00:05.164,-0.01556986989453434
1292,00:00:05.168,0.008790983352810141
1293,00:00:05.172,-0.01066938927397134
1294,00:00:05.176,-0.022142421221360602
1295,00:00:05.18,0.02266279282048348
1296,00:00:05.184,0.0569403897970915
1297,00:00:05.188,-0.0012213796144351745
1298,00:00:05.192,-0.018225122243166032
1299,00:00:05.196,-0.05786372255533932
1300,00:00:05.2,0.0062228396418504426
1301,00:00:05.204,0.036719444906339035
1302,00:00:05.208,0.014652451151050636
1303,00:00:05.212,-0.010596346081001733
1304,00:00:05.216,-0.02078084275126458
1305,00:00:05.22,-0.00811863504350185
1306,00:00:05.224,0.038408381398767205
1307,00:00:05.228,-0.01672198809683323
1308,00:00:05.232,0.005558745004236702
1309,00:00:05.236,0.0006538494490086286
1310,00:00:05.24,-0.03741917409934102
1311,00:00:05.244,-0.02148343529552218
1312,00:00:05.248,0.0724341049790383
1313,00:00:05.252,0.01327258255332712
1314,00:00:05.256,-0.0018590451218187818
1315,00:00:05.26,-0.02271929406560953
1316,00:00:05.264,-0.03396418155170977
1317,00:00:05.268,0.010585274547338437
1318,00:00:05.272,0.002356708224397152
1319,00:00:05.276,0.0198702560737729
1320,00:00:05.28,-0.02146016899496315
1321,00:00:05.284,-0.017832149067544385
1322,00:00:05.288,0.001628454541787571
1323,00:00:05.292,0.06866539665497842
1324,00:00:05.296,0.01028421707451339
1325,00:00:05.3,-0.033277756068855475
1326,00:00:05.304,-0.025292070815339608
1327,00:00:05.308,-0.033028386533260304
1328,00:00:05.312,-0.019403768703341498
1329,00:00:05.316,0.05757164396345611
1330,00:00:05.32,0.03566891275113453
1331,00:00:05.324,0.01431815419346088
1332,00:00:05.328,-0.009521601721644343
1333,00:00:05.332,-0.03800194151699542
1334,00:00:05.336,-0.006057109276298392
1335,00:00:05.34,-0.055540428962558425
1336,00:00:05.344,-0.002394913695752598
1337,00:00:05.348,0.06028860714286561
1338,00:00:05.352,0.05410964880138639
1339,00:00:05.356,0.0031631835736334385
1340,00:00:05.36,-0.02493354398757212
1341,00:00:05.364,-0.0494860829785466
1342,00:00:05.368,-0.01650362345390018
1343,00:00:05.372,0.01872927346266808
1344,00:00:05.376,0.022945561882806994
1345,00:00:05.38,-0.004269368480890948
1346,00:00:05.384,0.02809498365968459
1347,00:00:05.388,-0.01458575250580903
1348,00:00:05.392,-0.02778671588748692
1349,00:00:05.396,0.0028693921412923547
1350,00:00:05.4,-0.014103276713285576
1351,00:00:05.404,0.008278733585029889
1352,00:00:05.408,0.05298899649642405
1353,00:00:05.412,-0.01152816927060491
1354,00:00:05.416,-0.0360700245946646
1355,00:00:05.42,0.00432356563396747
1356,00:00:05.424,0.0115489563904703
1357,00:00:05.428,0.001443829387426366
1358,00:00:05.432,0.002274165861308606
1359,00:00:05.436,-0.0019884764915332215
1360,00:00:05.44,-0.027334799116943052
1361,00:00:05.444,-0.007149466080591122
1362,00:00:05.448,0.027617247309535707
1363,00:00:05.452,0.011248780414462103
1364,00:00:05.456,0.003394809551537023
1365,00:00:05.46,0.0004832353442907004
1366,00:00:05.464,-0.0021735974587499575
1367,00:00:05.468,-0.008318974170833819
1368,00:00:05.472,-0.031788196327397544
1369,00:00:05.476,0.008640265557914972
1370,00:00:05.48,0.03058302425779402
1371,00:00:05.484,-0.0019536705221980784
1372,00:00:05.488,0.002511614176910355
1373,00:00:05.492,-0.012056732550263398
1374,00:00:05.496,-0.003741930937394441
1375,00:00:05.5,0.008460292592644702
1376,00:00:05.504,-0.02498236298561098
1377,00:00:05.508,0.008707864210009521
1378,00:00:05.512,0.02321878122165802
1379,00:00:05.516,-0.001592723419889806
1380,00:00:05.52,-0.00686255062464625
1381,00:00:05.524,-0.01070935302414
1382,00:00:05.528,0.02999006747268144
1383,00:00:05.532,-0.015338283847086109
1384,00:00:05.536,-0.02562916884198789
1385,00:00:05.54,0.01100571884308011
1386,00:00:05.544,0.01435727719217536
1387,00:00:05.548,-0.015121675329282932
1388,00:00:05.552,0.00023515033535658923
1389,00:00:05.556,0.01113189593888814
1390,00:00:05.56,0.010722821636591105
1391,00:00:05.564,-0.0025901068001985576
1392,00:00:05.568,-0.00392094766721129
1393,00:00:05.572,-0.02539803879335521
1394,00:00:05.576,-0.00465088372584431
1395,00:00:05.58,0.04282718047033996
1396,00:00:05.584,-0.00817019212991004
1397,00:00:05.588,-0.014953461941331622
1398,00:00:05.592,0.0019330421928316008
1399,00:00:05.596,0.007013826631009541
1400,00:00:05.6,-0.003969051060266791
1401,00:00:05.604,-0.021718141622841365
1402,00:00:05.608,-0.011186036281287701
1403,00:00:05.612,0.05457321368157858
1404,00:00:05.616,0.0038271658122538887
1405,00:00:05.62,-0.023837081331294026
1406,00:00:05.624,-0.009627548279240731
1407,00:00:05.628,0.0013080439530312894
1408,00:00:05.632,0.00540778320282698
1409,00:00:05.636,0.004274040693417211
1410,00:00:05.64,-0.00929272454231978
1411,00:00:05.644,-0.006241776514798409
1412,00:00:05.648,0.02356790425255898
1413,00:00:05.652,-0.00410747481510043
1414,00:00:05.656,-0.0056621867697686235
1415,00:00:05.66,-0.026286512205842934
1416,00:00:05.664,-0.006142538040876319
1417,00:00:05.668,0.044397013261914246
1418,00:00:05.672,0.022236225195229088
1419,00:00:05.676,-0.031338618136942394
1420,00:00:05.68,-0.02808577707037323
1421,00:00:05.684,0.02627099654637273
1422,00:00:05.688,-0.0007869463879615097
1423,00:00:05.692,-0.00764865241944789
1424,00:00:05.696,0.007959981332533016
1425,00:00:05.7,0.0034836628474295
1426,00:00:05.704,-0.01755720796063545
1427,00:00:05.708,0.00014338782057160028
1428,00:00:05.712,0.01147433416917921
1429,00:00:05.716,0.0007405636133626103
1430,00:00:05.72,0.003565641862223832
1431,00:00:05.724,0.012823200144339297
1432,00:00:05.728,-0.02067149081267417
1433,00:00:05.732,-0.003070964361540969
1434,00:00:05.736,0.003981729329098042
1435,00:00:05.74,-0.016505238891113556
1436,00:00:05.744,0.008995170239359078
1437,00:00:05.748,0.01498058671131735
1438,00:00:05.752,0.021438108757138225
1439,00:00:05.756,-0.02843599510379135
1440,00:00:05.76,-0.008315993007272458
1441,00:00:05.764,-0.0038303281180560485
1442,00:00:05.768,0.003155604936182471
1443,00:00:05.772,0.0377414189279079
1444,00:00:05.776,0.0031704781576991177
1445,00:00:05.78,-0.033058621920645154
1446,00:00:05.784,-0.023683797684498083
1447,00:00:05.788,0.007808241061866289
1448,00:00:05.792,0.00842160079628232
1449,00:00:05.796,0.0011463696137070899
1450,00:00:05.8,0.01889919402310625
1451,00:00:05.804,-0.0035043095704168008
1452,00:00:05.808,0.01592336781322959
1453,00:00:05.812,-0.01271689287386834
1454,00:00:05.816,-0.012864285439718518
1455,00:00:05.82,0.014142744243144998
1456,00:00:05.824,-0.036187681427691146
1457,00:00:05.828,-0.006852316670119771
1458,00:00:05.832,0.040464173303917064
1459,00:00:05.836,0.011359815485775469
1460,00:00:05.84,-0.01656499691307543
1461,00:00:05.844,-0.005684657953679592
1462,00:00:05.848,0.0037427567294798796
1463,00:00:05.852,-0.00877510203281422
1464,00:00:05.856,0.012304976815357882
1465,00:00:05.86,-0.03175950748845935
1466,00:00:05.864,0.035696152597665814
1467,00:00:05.868,0.01785064861178396
1468,00:00:05.872,-0.00790678302291778
1469,00:00:05.876,-0.021112632704898694
1470,00:00:05.88,-0.019417844712734222
1471,00:00:05.884,-0.023958102799952002
1472,00:00:05.888,0.03140727593563498
1473,00:00:05.892,0.054531427100300844
1474,00:00:05.896,0.00030356924980871024
1475,00:00:05.9,-0.02018974535167218
1476,00:00:05.904,-0.03659632615745071
1477,00:00:05.908,-0.007357719121500829
1478,00:00:05.912,-0.002945983171230181
1479,00:00:05.916,0.01682923338375983
1480,00:00:05.92,0.022354605142027143
1481,00:00:05.924,-0.005222985753789509
1482,00:00:05.928,0.007351824751822278
1483,00:00:05.932,-0.00986460503190756
1484,00:00:05.936,-0.013792298734188111
1485,00:00:05.94,-0.00571923796087503
1486,00:00:05.944,0.0029248637147247783
1487,00:00:05.948,0.01118378015235064
1488,00:00:05.952,0.03354506706818942
1489,00:00:05.956,-0.02564679458737378
1490,00:00:05.96,-0.008390445029363001
1491,00:00:05.964,-0.005374348256737041
1492,00:00:05.968,0.011096995556727052
1493,00:00:05.972,-0.0141497836448252
1494,00:00:05.976,-0.00685572065412998
1495,00:00:05.98,-0.00765284290537235
1496,00:00:05.984,0.0197063647210598
1497,00:00:05.988,0.03227836266160014
1498,00:00:05.992,-0.006397887133061889
1499,00:00:05.996,-0.014612851664423901
1500,00:00:06,-0.01624621861265038
1501,00:00:06.004,0.009288028173614285
1502,00:00:06.008,-0.01768965883820782
1503,00:00:06.012,0.016825992614030897
1504,00:00:06.016,0.02455898001790046
1505,00:00:06.02,-0.039338913280516946
1506,00:00:06.024,0.0038486025296151256
1507,00:00:06.028,-0.0168303176760674
1508,00:00:06.032,0.0406659506261349
1509,00:00:06.036,0.0290791522711516
1510,00:00:06.04,-0.039386780932545704
1511,00:00:06.044,-0.010943820700049428
1512,00:00:06.048,0.005249121226370248
1513,00:00:06.052,-0.001662735827267222
1514,00:00:06.056,-0.0019196399953216297
1515,00:00:06.06,0.01090577547438441
1516,00:00:06.064,0.007276464253664011
1517,00:00:06.068,-0.018918764078989618
1518,00:00:06.072,0.01682872511446477
1519,00:00:06.076,-0.0011545734014362114
1520,00:00:06.08,-0.02421154174953696
1521,00:00:06.084,-0.006900257827510437
1522,00:00:06.088,0.02941439487040039
1523,00:00:06.092,0.006426113657653389
1524,00:00:06.096,-0.0017070398316719176
1525,00:00:06.1,0.014818755560554621
1526,00:00:06.104,-0.02761999191716316
1527,00:00:06.108,-0.038308541872538585
1528,00:00:06.112,0.02988581312820318
1529,00:00:06.116,0.00442274753004313
1530,00:00:06.12,0.01071035116910935
1531,00:00:06.124,0.01731227035634224
1532,00:00:06.128,0.00488244788721204
1533,00:00:06.132,-0.012010713340714588
1534,00:00:06.136,-0.03806588635779917
1535,00:00:06.14,-0.010720896767452383
1536,00:00:06.144,0.03395642410032454
1537,00:00:06.148,0.02788659627549351
1538,00:00:06.152,-0.021248293138342002
1539,00:00:06.156,-0.02954139094799761
1540,00:00:06.16,0.01257678703404963
1541,00:00:06.164,0.02250946103595201
1542,00:00:06.168,0.00470392452552914
1543,00:00:06.172,-0.0160157177597284
1544,00:00:06.176,-0.03174129500985144
1545,00:00:06.18,0.03369602719612888
1546,00:00:06.184,0.016771027818322178
1547,00:00:06.188,-0.015145614976063386
1548,00:00:06.192,0.014299155911430678
1549,00:00:06.196,-0.03999427599774204
1550,00:00:06.2,-0.00815111561678351
1551,00:00:06.204,0.034858541970606886
1552,00:00:06.208,0.007573467679321749
1553,00:00:06.212,-0.00413263880182058
1554,00:00:06.216,0.0017825234681367597
1555,00:00:06.22,-0.01438680617138743
1556,00:00:06.224,0.006607667135540417
1557,00:00:06.228,-0.022377743385732143
1558,00:00:06.232,0.0114555172622204
1559,00:00:06.236,0.00532003864645967
1560,00:00:06.24,0.010859409812837839
1561,00:00:06.244,0.016052843886427588
1562,00:00:06.248,-0.01352492161095142
1563,00:00:06.252,-0.02248885064364007
1564,00:00:06.256,-0.0058740701060742175
1565,00:00:06.26,0.016690939199179404
1566,00:00:06.264,0.00843541137874127
1567,00:00:06.268,-0.0192484031431377
1568,00:00:06.272,-0.0016915695741771906
1569,00:00:06.276,0.0156309586018323
1570,00:00:06.28,0.01688660820946097
1571,00:00:06.284,0.007012656773440543
1572,00:00:06.288,-0.004283784888684736
1573,00:00:06.292,-0.04582449607551109
1574,00:00:06.296,-0.026667454978451088
1575,00:00:06.3,0.0317255277186632
1576,00:00:06.304,0.053901962935924495
1577,00:00:06.308,-0.008517751935869471
1578,00:00:06.312,-0.019887938629835865
1579,00:00:06.316,-0.018189764115959437
1580,00:00:06.32,0.004289037780836221
1581,00:00:06.324,0.0070899997226660984
1582,00:00:06.328,0.007464766968041678
1583,00:00:06.332,-0.002395212191913744
1584,00:00:06.336,-0.013672125991433859
1585,00:00:06.34,-0.00623265234753494
1586,00:00:06.344,0.019936019205488258
1587,00:00:06.348,0.004569797543808832
1588,00:00:06.352,-0.009675649460405111
1589,00:00:06.356,-0.0014377781189978222
1590,00:00:06.36,0.003371058497577909
1591,00:00:06.364,-0.0027705912943929503
1592,00:00:06.368,-0.00965913198888302
1593,00:00:06.372,0.013053456321358679
1594,00:00:06.376,0.014931823126971798
1595,00:00:06.38,0.0035033030435442907
1596,00:00:06.384,-0.0295973997563123
1597,00:00:06.388,-0.02805421892117008
1598,00:00:06.392,0.018578642979264298
1599,00:00:06.396,0.0432731718756258
1600,00:00:06.4,0.0052326337900012905
1601,00:00:06.404,-0.019613837823271748
1602,00:00:06.408,-0.02878096455242483
1603,00:00:06.412,-0.0036765190307050995
1604,00:00:06.416,0.014911258593201629
1605,00:00:06.42,0.02153045497834679
1606,00:00:06.424,0.007173874182626612
1607,00:00:06.428,-0.04186918464256456
1608,00:00:06.432,0.025921736378222683
1609,00:00:06.436,-0.0164661558810622
1610,00:00:06.44,0.005218976177275171
1611,00:00:06.444,0.014918725937604911
1612,00:00:06.448,0.008801594201941057
1613,00:00:06.452,-0.02602972323074937
1614,00:00:06.456,0.001653583138249821
1615,00:00:06.46,0.01265919697470963
1616,00:00:06.464,-0.00901910802349447
1617,00:00:06.468,-0.0038563031703233303
1618,00:00:06.472,0.0017931096517713732
1619,00:00:06.476,0.006203159457072581
1620,00:00:06.48,0.0034227520227432303
1621,00:00:06.484,-0.0045787193812429905
1622,00:00:06.488,0.0013891593553125893
1623,00:00:06.492,0.01936717005446554
1624,00:00:06.496,-0.010511582484468832
1625,00:00:06.5,-0.04720906913280488
1626,00:00:06.504,0.006128721870481902
1627,00:00:06.508,0.059667151886969826
1628,00:00:06.512,-0.007651187479495999
1629,00:00:06.516,-0.035675246617756756
1630,00:00:06.52,-0.01518199621932581
1631,00:00:06.524,0.03321851009968663
1632,00:00:06.528,0.015130106359720199
1633,00:00:06.532,-0.004157721996307359
1634,00:00:06.536,-0.014619745430536568
1635,00:00:06.54,-0.002370535745285454
1636,00:00:06.544,0.006446234416216611
1637,00:00:06.548,0.00875465152785185
1638,00:00:06.552,-0.029157524229958674
1639,00:00:06.556,8.214637637135071e-05
1640,00:00:06.56,0.00797682593110942
1641,00:00:06.564,-0.0015510979574173806
1642,00:00:06.568,0.02132315118797122
1643,00:00:06.572,0.011250000970903831
1644,00:00:06.576,-0.0143407071009278
1645,00:00:06.58,-0.014525167178362589
1646,00:00:06.584,-0.00564928783569485
1647,00:00:06.588,0.0004023425281048064
1648,00:00:06.592,0.01628271443769335
1649,00:00:06.596,-0.01763808028772473
1650,00:00:06.6,0.00344042165670544
1651,00:00:06.604,0.014856136403977899
1652,00:00:06.608,0.012301416951231652
1653,00:00:06.612,0.025684440392069515
1654,00:00:06.616,-0.039829115383327056
1655,00:00:06.62,-0.0381909478455782
1656,00:00:06.624,0.013603227213025064
1657,00:00:06.628,0.026294246781617438
1658,00:00:06.632,-0.006209529470652349
1659,00:00:06.636,-0.03094475343823437
1660,00:00:06.64,0.01665064477128904
1661,00:00:06.644,0.04956720583140858
1662,00:00:06.648,0.0038801736955065592
1663,00:00:06.652,-0.028877046890556805
1664,00:00:06.656,-0.019328350201249102
1665,00:00:06.66,0.01632953737862413
1666,00:00:06.664,-0.03501290176063773
1667,00:00:06.668,-0.007251710165292
1668,00:00:06.672,0.031741474289447055
1669,00:00:06.676,0.02184425340965395
1670,00:00:06.68,0.01843364164233215
1671,00:00:06.684,-0.01404638495296244
1672,00:00:06.688,-0.06019018590450282
1673,00:00:06.692,0.028291806578636162
1674,00:00:06.696,-0.004442646168172373
1675,00:00:06.7,0.0243208259344101
1676,00:00:06.704,0.011259731603786339
1677,00:00:06.708,-0.014400502666831001
1678,00:00:06.712,-0.00986353307962417
1679,00:00:06.716,-0.0067563095362856845
1680,00:00:06.72,0.006107163149863461
1681,00:00:06.724,-0.02861073659732936
1682,00:00:06.728,0.007113669533282477
1683,00:00:06.732,0.0376463606953621
1684,00:00:06.736,0.0449739433825016
1685,00:00:06.74,-0.023924687178805516
1686,00:00:06.744,-0.04519845405593523
1687,00:00:06.748,-0.005833344766870139
1688,00:00:06.752,0.0134425603318959
1689,00:00:06.756,-0.035450818948447704
1690,00:00:06.76,0.009876705356873596
1691,00:00:06.764,0.02830960508435968
1692,00:00:06.768,0.033123793546110405
1693,00:00:06.772,0.0011213675606995786
1694,00:00:06.776,-0.00672323140315711
1695,00:00:06.78,-0.04139053946710186
1696,00:00:06.784,-0.013612386770546402
1697,00:00:06.788,0.00765251275151972
1698,00:00:06.792,0.03000397450523449
1699,00:00:06.796,0.002725342987105282
1700,00:00:06.8,-0.006609935313463249
1701,00:00:06.804,-0.00854531070217492
1702,00:00:06.808,0.0011545042507350878
1703,00:00:06.812,0.0021938597783446407
1704,00:00:06.816,-0.005524031352251771
1705,00:00:06.82,-0.0008727547246962803
1706,00:00:06.824,0.016178214456886022
1707,00:00:06.828,-0.0010010114638134837
1708,00:00:06.832,-0.01519650232512499
1709,00:00:06.836,-0.0102840419858694
1710,00:00:06.84,0.02684290753677479
1711,00:00:06.844,0.004045506939291999
1712,00:00:06.848,-0.02643985068425541
1713,00:00:06.852,0.01056567893829194
1714,00:00:06.856,0.001469159265980069
1715,00:00:06.86,-0.006533911975566339
1716,00:00:06.864,0.018492300063371648
1717,00:00:06.868,0.001928894314914901
1718,00:00:06.872,-0.004276872146874732
1719,00:00:06.876,-0.04680254682898522
1720,00:00:06.88,0.0231732600368559
1721,00:00:06.884,0.01382418535649773
1722,00:00:06.888,0.02015672171546607
1723,00:00:06.892,0.0006826065946370415
1724,00:00:06.896,-0.017582095228135503
1725,00:00:06.9,-0.008790780324488883
1726,00:00:06.904,0.01433108700439334
1727,00:00:06.908,-0.03472532075829803
1728,00:00:06.912,0.0016999973449856112
1729,00:00:06.916,0.02583938138559465
1730,00:00:06.92,0.012437499128282098
1731,00:00:06.924,0.014925810508429973
1732,00:00:06.928,-0.013854943601472805
1733,00:00:06.932,-0.028783696237951552
1734,00:00:06.936,-0.01509864628314972
1735,00:00:06.94,0.02796132210642094
1736,00:00:06.944,0.00834115885663773
1737,00:00:06.948,-0.009223822504282008
1738,00:00:06.952,0.008291616104543199
1739,00:00:06.956,-0.008849858073517628
1740,00:00:06.96,-0.0022750245407223706
1741,00:00:06.964,0.017265907023102052
1742,00:00:06.968,0.00870759575627738
1743,00:00:06.972,-0.020805559935979528
1744,00:00:06.976,-0.02201283816248182
1745,00:00:06.98,0.00399531889706841
1746,00:00:06.984,0.016770738642662788
1747,00:00:06.988,5.58611936867107e-05
1748,00:00:06.992,0.004312002100050397
1749,00:00:06.996,0.0026437703054398355
1750,00:00:07,0.011915268376469602
1751,00:00:07.004,-0.010308035183697842
1752,00:00:07.008,-0.006271255188039507
1753,00:00:07.012,-0.02640156680718068
1754,00:00:07.016,-0.0023462413810193487
1755,00:00:07.02,0.02989159058779482
1756,00:00:07.024,0.01043095905333757
1757,00:00:07.028,0.0198481045663356
1758,00:00:07.032,-0.0192066801246256
1759,00:00:07.036,-0.0467640133574605
1760,00:00:07.04,0.016013213462429073
1761,00:00:07.044,0.020333574153482914
1762,00:00:07.048,0.01130987575743349
1763,00:00:07.052,-0.01012615626677868
1764,00:00:07.056,-0.0007864245562814209
1765,00:00:07.06,-0.01000141794793304
1766,00:00:07.064,-0.0014656915445812133
1767,00:00:07.068,0.01613624254241586
1768,00:00:07.072,-0.001029982813633981
1769,00:00:07.076,-0.012977115809917431
1770,00:00:07.08,-0.01601816825132121
1771,00:00:07.084,0.015143940690904828
1772,00:00:07.088,0.03597416263073687
1773,00:00:07.092,-0.03352775995153927
1774,00:00:07.096,-0.0068083896767348
1775,00:00:07.1,0.02206364180892712
1776,00:00:07.104,-0.016827294602990116
1777,00:00:07.108,0.013240890111774158
1778,00:00:07.112,-0.0067563392221927305
1779,00:00:07.116,-0.004479524213820651
1780,00:00:07.12,-0.0069896501954644485
1781,00:00:07.124,0.0076605570502579195
1782,00:00:07.128,0.01972266705706712
1783,00:00:07.132,-0.0055735462810844105
1784,00:00:07.136,-0.024221185129135847
1785,00:00:07.14,-0.0020926393281115426
1786,00:00:07.144,0.006380480597727
1787,00:00:07.148,0.011160921567352485
1788,00:00:07.152,0.014738377183675742
1789,00:00:07.156,-0.0017043442931026194
1790,00:00:07.16,-0.008213077671825891
1791,00:00:07.164,-0.03475907351821659
1792,00:00:07.168,0.007077068788930781
1793,00:00:07.172,0.04117688816040753
1794,00:00:07.176,-0.015000917948782411
1795,00:00:07.18,-0.0009664513345342142
1796,00:00:07.184,-0.0074138436466455486
1797,00:00:07.188,0.00472225481644273
1798,00:00:07.192,-0.01489292341284452
1799,00:00:07.196,0.004941120743751505
1800,00:00:07.2,0.015236944891512349
1801,00:00:07.204,0.0015330272726714403
1802,00:00:07.208,0.0058136596344411165
1803,00:00:07.212,-0.0170075343921781
1804,00:00:07.216,-0.02144321106607093
1805,00:00:07.22,0.0166563941165805
1806,00:00:07.224,0.028403057716786903
1807,00:00:07.228,-0.01609621383249758
1808,00:00:07.232,-0.019608743488788598
1809,00:00:07.236,0.007433908554958184
1810,00:00:07.24,0.005947308149188729
1811,00:00:07.244,0.00810124585404993
1812,00:00:07.248,-0.00879401620477438
1813,00:00:07.252,0.0018768319860100798
1814,00:00:07.256,0.0027632006676867674
1815,00:00:07.26,0.0025589559227228156
1816,00:00:07.264,0.0027790397871285686
1817,00:00:07.268,0.002894419536460192
1818,00:00:07.272,-0.0141573529690504
1819,00:00:07.276,-0.007583925267681469
1820,00:00:07.28,0.0020597996190190393
1821,00:00:07.284,-0.001574289985001101
1822,00:00:07.288,-0.031845995748881264
1823,00:00:07.292,0.0482172146439553
1824,00:00:07.296,0.031371580902487005
1825,00:00:07.3,-0.005663286428898578
1826,00:00:07.304,-0.03161135653499515
1827,00:00:07.308,-0.01536708185449238
1828,00:00:07.312,0.01610549876932059
1829,00:00:07.316,-5.8990437537429115e-05
1830,00:00:07.32,-0.00650822836905715
1831,00:00:07.324,-0.0006734202615916109
1832,00:00:07.328,-0.01646896777674556
1833,00:00:07.332,0.018466871813870942
1834,00:00:07.336,0.014519579475745562
1835,00:00:07.34,-0.00461281300522386
1836,00:00:07.344,0.024018430114665493
1837,00:00:07.348,-0.024710304860491333
1838,00:00:07.352,-0.01734326826408502
1839,00:00:07.356,-0.007978416209283528
1840,00:00:07.36,-0.0006701201200485195
1841,00:00:07.364,0.01961190486326814
1842,00:00:07.368,0.02914516953751453
1843,00:00:07.372,-0.002878970932215442
1844,00:00:07.376,-0.021309467905666662
1845,00:00:07.38,-0.024353262269869433
1846,00:00:07.384,-0.01672810781747107
1847,00:00:07.388,0.03788482444360852
1848,00:00:07.392,0.019511455728206777
1849,00:00:07.396,-0.01270530908368532
1850,00:00:07.4,0.009323781123384861
1851,00:00:07.404,0.0050341491587460215
1852,00:00:07.408,-0.038052928168326575
1853,00:00:07.412,-0.00975017051678153
1854,00:00:07.416,0.005081358365714569
1855,00:00:07.42,0.01868712063878774
1856,00:00:07.424,0.022150182630866717
1857,00:00:07.428,-0.0045433780178427184
1858,00:00:07.432,0.003289730288088346
1859,00:00:07.436,-0.04059946816414599
1860,00:00:07.44,0.016397718798543747
1861,00:00:07.444,0.01397516275756063
1862,00:00:07.448,0.016044443938881228
1863,00:00:07.452,-0.049425576813518945
1864,00:00:07.456,-0.024456417188048397
1865,00:00:07.46,0.04126958327833565
1866,00:00:07.464,0.04105165414512161
1867,00:00:07.468,0.0037561100907624392
1868,00:00:07.472,-0.013720922637730861
1869,00:00:07.476,-0.0311713479459286
1870,00:00:07.48,-0.0016071974532678394
1871,00:00:07.484,0.00552432425320144
1872,00:00:07.488,-0.03321618121117356
1873,00:00:07.492,0.03464898932725188
1874,00:00:07.496,0.0017602969892323676
1875,00:00:07.5,0.00440696952864527
1876,00:00:07.504,0.004057334735989532
1877,00:00:07.508,0.00946373224724085
1878,00:00:07.512,-0.003552904934622347
1879,00:00:07.516,0.00487152719870209
1880,00:00:07.52,-0.020198347978293903
1881,00:00:07.524,-0.02531171264126894
1882,00:00:07.528,0.00831418950110681
1883,00:00:07.532,0.020218875259160968
1884,00:00:07.536,-0.0076481162104755415
1885,00:00:07.54,0.015055056428536738
1886,00:00:07.544,0.0036040782870258737
1887,00:00:07.548,-0.00408288359176367
1888,00:00:07.552,-0.016744969514547816
1889,00:00:07.556,0.02802727930247783
1890,00:00:07.56,-0.01920661237090822
1891,00:00:07.564,-0.005965612828731478
1892,00:00:07.568,-0.023287332383915737
1893,00:00:07.572,0.01099200942553584
1894,00:00:07.576,0.0321309650316834
1895,00:00:07.58,0.0011514539364725282
1896,00:00:07.584,0.006741861812770342
1897,00:00:07.588,-0.02066367724910378
1898,00:00:07.592,4.7316309064601107e-05
1899,00:00:07.596,0.00799020752310753
1900,00:00:07.6,-0.029836827889084816
1901,00:00:07.604,-0.014953991863876557
1902,00:00:07.608,0.032642771024256945
1903,00:00:07.612,0.009812033735215702
1904,00:00:07.616,0.012403884902596472
1905,00:00:07.62,-0.0025174849724862686
1906,00:00:07.624,-0.008016956970095602
1907,00:00:07.628,-0.0033719853963702605
1908,00:00:07.632,-0.014426795765757542
1909,00:00:07.636,-0.002297447528690112
1910,00:00:07.64,-0.0150059695588425
1911,00:00:07.644,0.01454367255792023
1912,00:00:07.648,0.0346975093707442
1913,00:00:07.652,0.005863991100341068
1914,00:00:07.656,-0.028159158304333697
1915,00:00:07.66,-0.0245656771585345
1916,00:00:07.664,0.032698856201022905
1917,00:00:07.668,-0.003990239580161858
1918,00:00:07.672,-0.02163762645795936
1919,00:00:07.676,0.00014959834516047738
1920,00:00:07.68,0.02027569932397452
1921,00:00:07.684,0.02277662721462542
1922,00:00:07.688,-0.014706796384416519
1923,00:00:07.692,-0.00433567585423586
1924,00:00:07.696,-0.016461701714433733
1925,00:00:07.7,-0.017407532781362582
1926,00:00:07.704,0.0243423199281096
1927,00:00:07.708,0.019795544445514682
1928,00:00:07.712,-0.0219642464071512
1929,00:00:07.716,-0.0061416840180754766
1930,00:00:07.72,0.006943775573745369
1931,00:00:07.724,0.02234910521656271
1932,00:00:07.728,-5.908240564158132e-05
1933,00:00:07.732,-0.03088990203104918
1934,00:00:07.736,0.01152841281145816
1935,00:00:07.74,0.004865848459303388
1936,00:00:07.744,-0.018821162171661823
1937,00:00:07.748,-0.00744199205655603
1938,00:00:07.752,0.01548223628196866
1939,00:00:07.756,0.017598440637812022
1940,00:00:07.76,0.02494687121361497
1941,00:00:07.764,-0.011809003830421681
1942,00:00:07.768,-0.04595060693100092
1943,00:00:07.772,-0.005354560606065194
1944,00:00:07.776,0.030001356266438982
1945,00:00:07.78,-0.0004460329655557385
1946,00:00:07.784,-0.02317183767445383
1947,00:00:07.788,0.012824034667573859
1948,00:00:07.792,0.029358397703617718
1949,00:00:07.796,0.00806773244403303
1950,00:00:07.8,-0.01200597430579365
1951,00:00:07.804,-0.016093724334496053
1952,00:00:07.808,-0.02293775184080004
1953,00:00:07.812,-0.019497585482895437
1954,00:00:07.816,0.030736068263649944
1955,00:00:07.82,0.0228441841900349
1956,00:00:07.824,0.013237687759101339
1957,00:00:07.828,-0.021553971389948908
1958,00:00:07.832,0.0034166630357503787
1959,00:00:07.836,-0.0020000264048576025
1960,00:00:07.84,-0.0165427653118968
1961,00:00:07.844,0.01059733727015559
1962,00:00:07.848,-0.014188225672114644
1963,00:00:07.852,-0.005215415440034124
1964,00:00:07.856,0.03629748779349028
1965,00:00:07.86,-0.009495050180703457
1966,00:00:07.864,-0.009634603396989442
1967,00:00:07.868,0.01646085223183035
1968,00:00:07.872,-0.00848872307688002
1969,00:00:07.876,-0.018705546855926503
1970,00:00:07.88,0.001845281105488541
1971,00:00:07.884,0.00866418145596979
1972,00:00:07.888,0.004982445389032392
1973,00:00:07.892,0.01891323341988023
1974,00:00:07.896,-0.01371732947882265
1975,00:00:07.9,-0.010356354527175397
1976,00:00:07.904,-0.00256494386121631
1977,00:00:07.908,-0.0077064483775757505
1978,00:00:07.912,-0.011131353501696157
1979,00:00:07.916,0.034340417012572316
1980,00:00:07.92,0.0083483681082725
1981,00:00:07.924,0.002204298158176245
1982,00:00:07.928,-0.01781378907617177
1983,00:00:07.932,-0.0136300371959805
1984,00:00:07.936,-0.0027882242866326097
1985,00:00:07.94,-0.003139383043162549
1986,00:00:07.944,0.017370802350342197
1987,00:00:07.948,0.01814394956454635
1988,00:00:07.952,-0.01352278259582818
1989,00:00:07.956,-0.0014451006427406727
1990,00:00:07.96,-0.001433176454156717
1991,00:00:07.964,-0.011168340686708722
1992,00:00:07.968,-0.0009055645205080405
1993,00:00:07.972,0.009480534354224798
1994,00:00:07.976,-0.0019925599917769016
1995,00:00:07.98,0.010356140788644552
1996,00:00:07.984,-0.0070192861603572895
1997,00:00:07.988,0.007331852335482881
1998,00:00:07.992,-0.007279386743903158
1999,00:00:07.996,-0.00205815676599741
2000,00:00:08,-0.004905606736429036
2001,00:00:08.004,0.00783871579915285
2002,00:00:08.008,-0.0025451066903769684
2003,00:00:08.012,-0.00453592231497168
2004,00:00:08.016,-0.004051861520565576
2005,00:00:08.02,0.013637023977935314
2006,00:00:08.024,0.007273368071764709
2007,00:00:08.028,-0.010715011740103341
2008,00:00:08.032,0.017374743474647413
2009,00:00:08.036,-0.027962423628196093
2010,00:00:08.04,-0.0301195234060288
2011,00:00:08.044,0.03594646678538993
2012,00:00:08.048,0.01983245695009831
2013,00:00:08.052,0.010580466361716391
2014,00:00:08.056,-0.015974526293575788
2015,00:00:08.06,-0.0144397020339966
2016,00:00:08.064,-0.02355045033618807
2017,00:00:08.068,0.02673526015132667
2018,00:00:08.072,0.01214073447044939
2019,00:00:08.076,-0.0201391875743865
2020,00:00:08.08,0.00399761367589236
2021,00:00:08.084,0.024274502880871303
2022,00:00:08.088,-0.022738326340913738
2023,00:00:08.092,-0.004550252342596621
2024,00:00:08.096,-0.00502071576192974
2025,00:00:08.1,0.004093461193406256
2026,00:00:08.104,0.01914178766310211
2027,00:00:08.108,0.02626565657556055
2028,00:00:08.112,-0.01702843001112349
2029,00:00:08.116,-0.045984816737473046
2030,00:00:08.12,-0.0012102713808417112
2031,00:00:08.124,-0.0030680811032652803
2032,00:00:08.128,0.04731335490942
2033,00:00:08.132,0.00803809892386197
2034,00:00:08.136,-0.021022584522143062
2035,00:00:08.14,-0.010064240312203768
2036,00:00:08.144,0.022314189933240407
2037,00:00:08.148,-0.011384762823581729
2038,00:00:08.152,-0.028009247966110748
2039,00:00:08.156,-0.0010146875865757795
2040,00:00:08.16,0.02313185075763612
2041,00:00:08.164,0.008077802427578714
2042,00:00:08.168,0.024579902645200456
2043,00:00:08.172,0.005961731076240526
2044,00:00:08.176,-0.04223923524841667
2045,00:00:08.18,-0.0606522485613822
2046,00:00:08.184,0.04009083844721317
2047,00:00:08.188,0.04790348932147026
2048,00:00:08.192,-0.0010018812026828504
2049,00:00:08.196,-0.00940920575521887
2050,00:00:08.2,-0.00598389934748411
2051,00:00:08.204,-0.0020195269025862213
2052,00:00:08.208,-0.0065732793882489135
2053,00:00:08.212,-0.006960828730370797
2054,00:00:08.216,-0.019550391472876124
2055,00:00:08.22,0.011487547890283192
2056,00:00:08.224,0.040427350439131204
2057,00:00:08.228,0.007833364434190984
2058,00:00:08.232,-0.024016391951590773
2059,00:00:08.236,-0.00859378441236908
2060,00:00:08.24,-0.00785304256714881
2061,00:00:08.244,0.004828246979741379
2062,00:00:08.248,-0.01242032775189727
2063,00:00:08.252,-0.0019831932149827567
2064,00:00:08.256,0.029852468054741663
2065,00:00:08.26,0.0025538161862641295
2066,00:00:08.264,0.004303442081436511
2067,00:00:08.268,-0.00548199797049165
2068,00:00:08.272,-0.02316388301551342
2069,00:00:08.276,0.0009670403087511639
2070,00:00:08.28,-0.0017278259620070882
2071,00:00:08.284,-0.00611658627167341
2072,00:00:08.288,0.027672465890646
2073,00:00:08.292,0.01250004675239328
2074,00:00:08.296,-0.013313823670614471
2075,00:00:08.3,-0.00500331446528435
2076,00:00:08.304,0.007954372093081412
2077,00:00:08.308,-0.028070152737200278
2078,00:00:08.312,-0.007885674713179481
2079,00:00:08.316,0.027898432890651755
2080,00:00:08.32,-0.0073859734693542
2081,00:00:08.324,-0.012940041720867181
2082,00:00:08.328,0.0265705497004092
2083,00:00:08.332,0.01483671960886565
2084,00:00:08.336,-0.015243334113620208
2085,00:00:08.34,-0.015298813348636042
2086,00:00:08.344,0.0006953973788768092
2087,00:00:08.348,0.005341979878721757
2088,00:00:08.352,-0.006528778845677155
2089,00:00:08.356,0.01463462365791202
2090,00:00:08.36,-0.009955747038475238
2091,00:00:08.364,-0.00956758065149188
2092,00:00:08.368,-0.0014060805551707697
2093,00:00:08.372,0.011251692456426054
2094,00:00:08.376,0.0194625323638319
2095,00:00:08.38,0.0006214212626219412
2096,00:00:08.384,-0.01520507270470261
2097,00:00:08.388,-0.01854388555511831
2098,00:00:08.392,-0.00998155295383185
2099,00:00:08.396,0.03286551515338947
2100,00:00:08.4,-0.0181361455470324
2101,00:00:08.404,0.031876378692686586
2102,00:00:08.408,0.0011811845470219903
2103,00:00:08.412,-0.0374440904706716
2104,00:00:08.416,0.0024240375496447104
2105,00:00:08.42,0.00423112139105794
2106,00:00:08.424,0.010037415719125416
2107,00:00:08.428,0.009216200967784973
2108,00:00:08.432,-0.01945052854716778
2109,00:00:08.436,0.02313218486960982
2110,00:00:08.44,-0.018843609839677797
2111,00:00:08.444,-0.012529175728559452
2112,00:00:08.448,0.023474659770727112
2113,00:00:08.452,-0.0026746827643364304
2114,00:00:08.456,-0.0103689325042069
2115,00:00:08.46,0.003703889437019877
2116,00:00:08.464,0.01112154172733427
2117,00:00:08.468,-0.012559123337268852
2118,00:00:08.472,0.0037210751324892105
2119,00:00:08.476,0.00783095764927566
2120,00:00:08.48,-0.004179563722573221
2121,00:00:08.484,-0.02049481216818096
2122,00:00:08.488,0.01079347217455505
2123,00:00:08.492,0.01611508242785927
2124,00:00:08.496,0.01217565964907413
2125,00:00:08.5,-0.026808433700352872
2126,00:00:08.504,-0.008029585587792102
2127,00:00:08.508,0.00711982743814593
2128,00:00:08.512,-0.007736758165265199
2129,00:00:08.516,0.003574612434022199
2130,00:00:08.52,0.011593606788665061
2131,00:00:08.524,0.0226282079238445
2132,00:00:08.528,-0.01062555378302936
2133,00:00:08.532,-0.01540122581718602
2134,00:00:08.536,-0.012405480025336152
2135,00:00:08.54,0.014494457282125957
2136,00:00:08.544,-0.00585568475071341
2137,00:00:08.548,0.001373999286443041
2138,00:00:08.552,0.003740436513908159
2139,00:00:08.556,0.000716696260497
2140,00:00:08.56,0.023410289839375736
2141,00:00:08.564,-0.02327304428399648
2142,00:00:08.568,-0.00353813706897197
2143,00:00:08.572,-0.010509948711842302
2144,00:00:08.576,-0.00724356155842542
2145,00:00:08.58,0.013118748553097258
2146,00:00:08.584,0.01584972860291601
2147,00:00:08.588,0.012324007111601528
2148,00:00:08.592,-0.00310779875144363
2149,00:00:08.596,-0.014238642645068456
2150,00:00:08.6,-0.03664457530248915
2151,00:00:08.604,0.03013866441324354
2152,00:00:08.608,0.008479360723868002
2153,00:00:08.612,-0.015118391718715353
2154,00:00:08.616,0.02541285660117867
2155,00:00:08.62,-0.004616437945514919
2156,00:00:08.624,-0.013161072623915918
2157,00:00:08.628,0.0054940322879701905
2158,00:00:08.632,-0.010904464557825125
2159,00:00:08.636,-0.008932856842875479
2160,00:00:08.64,0.005741698434576396
2161,00:00:08.644,0.02726124855689702
2162,00:00:08.648,-0.02256009168922903
2163,00:00:08.652,0.017188022466143642
2164,00:00:08.656,-0.0147591829299927
2165,00:00:08.66,0.01235488802194599
2166,00:00:08.664,0.00871265085879709
2167,00:00:08.668,-0.008340713189681999
2168,00:00:08.672,-0.02567301306407902
2169,00:00:08.676,-0.029960662592202376
2170,00:00:08.68,0.0384371438995004
2171,00:00:08.684,0.02981931483373048
2172,00:00:08.688,-0.013166789896786222
2173,00:00:08.692,0.00609870534390208
2174,00:00:08.696,-0.009335819398984301
2175,00:00:08.7,-0.011372327397111758
2176,00:00:08.704,0.0128599230665714
2177,00:00:08.708,-0.01063892687670888
2178,00:00:08.712,0.004975073970854289
2179,00:00:08.716,-0.014700884930789401
2180,00:00:08.72,-0.018157267244532708
2181,00:00:08.724,0.026312964968383305
2182,00:00:08.728,0.04197098128497604
2183,00:00:08.732,0.004481356649193923
2184,00:00:08.736,-0.04306691000238065
2185,00:00:08.74,-0.033884397125803
2186,00:00:08.744,0.007891015149652958
2187,00:00:08.748,0.035981212276965394
2188,00:00:08.752,0.00926783168688416
2189,00:00:08.756,-0.007588418162413294
2190,00:00:08.76,-0.01172673073597252
2191,00:00:08.764,0.0028476542793214295
2192,00:00:08.768,-0.008787549799308212
2193,00:00:08.772,0.001791120572306686
2194,00:00:08.776,0.015322891995310771
2195,00:00:08.78,-0.01652627857401969
2196,00:00:08.784,0.011061284691095349
2197,00:00:08.788,-0.005727386102080341
2198,00:00:08.792,-0.0034616379998623995
2199,00:00:08.796,0.0018341203685850005
2200,00:00:08.8,0.008346265181899081
2201,00:00:08.804,0.01591561420354995
2202,00:00:08.808,-0.01616790797561404
2203,00:00:08.812,-0.020854220492765328
2204,00:00:08.816,-0.001585887832334255
2205,00:00:08.82,0.02041428443044427
2206,00:00:08.824,0.011867188673932064
2207,00:00:08.828,-0.009709031553938981
2208,00:00:08.832,-0.0006536059954669309
2209,00:00:08.836,-0.0142237318214029
2210,00:00:08.84,0.01065150508657096
2211,00:00:08.844,-0.0010360766063968185
2212,00:00:08.848,0.0004292428493500224
2213,00:00:08.852,0.0026157469255849806
2214,00:00:08.856,0.00027846358716484935
2215,00:00:08.86,-0.0037749541370431256
2216,00:00:08.864,0.006199355353601281
2217,00:00:08.868,-0.013687657192349479
2218,00:00:08.872,0.0011454217601567307
2219,00:00:08.876,0.0162974819540977
2220,00:00:08.88,-0.015540306863840652
2221,00:00:08.884,-0.009331814711913524
2222,00:00:08.888,0.022107646160293353
2223,00:00:08.892,0.017030275426805
2224,00:00:08.896,-0.01939116395078601
2225,00:00:08.9,-0.011044556624256071
2226,00:00:08.904,-0.001404584851115968
2227,00:00:08.908,0.01873159952810961
2228,00:00:08.912,-0.0024956396664492808
2229,00:00:08.916,-0.003968039469327778
2230,00:00:08.92,-0.01152394781820476
2231,00:00:08.924,-0.008261918264906853
2232,00:00:08.928,0.005676406435668482
2233,00:00:08.932,0.005895239766687161
2234,00:00:08.936,0.017431884072720977
2235,00:00:08.94,0.009621198521927039
2236,00:00:08.944,-0.016835700720548658
2237,00:00:08.948,-0.0206612199544907
2238,00:00:08.952,0.014675782382255424
2239,00:00:08.956,0.008008330129086999
2240,00:00:08.96,-0.034953556489199414
2241,00:00:08.964,0.023341165506280997
2242,00:00:08.968,0.0251880926080048
2243,00:00:08.972,-0.007343187462538479
2244,00:00:08.976,-0.021960809244774296
2245,00:00:08.98,-0.0065221218974329575
2246,00:00:08.984,0.01387327257543805
2247,00:00:08.988,0.011759554734453552
2248,00:00:08.992,-0.00575051689520474
2249,00:00:08.996,-0.009269390022382142
2250,00:00:09,0.00728127267211676
2251,00:00:09.004,0.0010298525448888497
2252,00:00:09.008,-0.013644951046444441
2253,00:00:09.012,0.00613166252151132
2254,00:00:09.016,-0.003977462067268791
2255,00:00:09.02,0.00918723014183343
2256,00:00:09.024,0.0099055650644004
2257,00:00:09.028,-0.004701505880802849
2258,00:00:09.032,-0.02016226015985008
2259,00:00:09.036,0.015415224246680754
2260,00:00:09.04,-0.004772725864313616
2261,00:00:09.044,-0.0014301322225947315
2262,00:00:09.048,0.0018953140825032806
2263,00:00:09.052,0.002827868331223728
2264,00:00:09.056,0.0018113134428858792
2265,00:00:09.06,0.008476367569528511
2266,00:00:09.064,-0.008919399639125828
2267,00:00:09.068,-0.00170054100453853
2268,00:00:09.072,0.0027317407075315796
2269,00:00:09.076,-0.02012515533715483
2270,00:00:09.08,-0.006971789523959171
2271,00:00:09.084,0.027222380507737426
2272,00:00:09.088,0.0109806852415204
2273,00:00:09.092,0.00898989709094167
2274,00:00:09.096,-0.012803758494555943
2275,00:00:09.1,-0.02532287512440232
2276,00:00:09.104,-0.0019435607100604128
2277,00:00:09.108,0.01900148120694215
2278,00:00:09.112,0.01191985933110116
2279,00:00:09.116,-0.01914516184478998
2280,00:00:09.12,-0.025289436569437402
2281,00:00:09.124,0.03179858205839986
2282,00:00:09.128,0.014208802022039852
2283,00:00:09.132,0.00724292732775211
2284,00:00:09.136,-0.014259279705584021
2285,00:00:09.14,-0.016936262603849152
2286,00:00:09.144,-0.00670926598832011
2287,00:00:09.148,-0.011267287365626545
2288,00:00:09.152,0.023570397752337165
2289,00:00:09.156,0.026574178016744582
2290,00:00:09.16,-0.015591725474223519
2291,00:00:09.164,-0.01528868905734266
2292,00:00:09.168,0.021315619233064326
2293,00:00:09.172,-0.01445411914028225
2294,00:00:09.176,-0.010275163687765602
2295,00:00:09.18,-0.000644144369289279
2296,00:00:09.184,0.0034888511290773806
2297,00:00:09.188,0.0229543503373861
2298,00:00:09.192,-0.004224261734634634
2299,00:00:09.196,-0.01075127488002181
2300,00:00:09.2,-0.00919636455364524
2301,00:00:09.204,-0.021970361121930203
2302,00:00:09.208,0.022199622238986208
2303,00:00:09.212,0.026188146322965632
2304,00:00:09.216,0.005080333910882492
2305,00:00:09.22,-0.003033016779227178
2306,00:00:09.224,-0.020835892122704563
2307,00:00:09.228,0.0028724321164190006
2308,00:00:09.232,-0.016904850024729988
2309,00:00:09.236,-0.01845762500306592
2310,00:00:09.24,0.023227155965287245
2311,00:00:09.244,0.02852828893810506
2312,00:00:09.248,0.0034418178256600896
2313,00:00:09.252,-0.020736864767968717
2314,00:00:09.256,-0.0004923543892800791
2315,00:00:09.26,-0.01992534287273885
2316,00:00:09.264,-0.004692238755524139
2317,00:00:09.268,0.056417204439640094
2318,00:00:09.272,-0.02001709316391501
2319,00:00:09.276,-0.015184791060164519
2320,00:00:09.28,0.01108388404827568
2321,00:00:09.284,-0.003556626848876459
2322,00:00:09.288,-0.02241438184864816
2323,00:00:09.292,0.00036997397546659205
2324,00:00:09.296,0.008737042837310553
2325,00:00:09.3,0.02505529182963076
2326,00:00:09.304,-0.005118982167914548
2327,00:00:09.308,-0.02078376407735046
2328,00:00:09.312,0.00399049371480942
2329,00:00:09.316,0.012163613224402068
2330,00:00:09.32,0.00820561283035202
2331,00:00:09.324,-0.008038411382585759
2332,00:00:09.328,-0.014283874275861329
2333,00:00:09.332,0.00489515950903297
2334,00:00:09.336,-0.00839907897170633
2335,00:00:09.34,-0.00727731827646494
2336,00:00:09.344,0.02080402011051777
2337,00:00:09.348,0.011437701527029269
2338,00:00:09.352,-0.00494522717781364
2339,00:00:09.356,-0.005656273337081029
2340,00:00:09.36,-0.0004199650138616588
2341,00:00:09.364,-0.02072744019096718
2342,00:00:09.368,0.0168143963383045
2343,00:00:09.372,0.004533515311777599
2344,00:00:09.376,-0.0004807254299520995
2345,00:00:09.38,0.00655118585564197
2346,00:00:09.384,-0.000968361739069161
2347,00:00:09.388,-0.00879524182528255
2348,00:00:09.392,-0.025573864113539478
2349,00:00:09.396,0.01408772636204964
2350,00:00:09.4,0.013158510904759134
2351,00:00:09.404,0.015367885236628381
2352,00:00:09.408,0.0008769272826612091
2353,00:00:09.412,-0.026370515348389762
2354,00:00:09.416,-0.01005235873162744
2355,00:00:09.42,0.016261227894574452
2356,00:00:09.424,0.008241307921707618
2357,00:00:09.428,0.01159979635849595
2358,00:00:09.432,-0.010583100607618738
2359,00:00:09.436,-0.02628099033609032
2360,00:00:09.44,0.013088695355691056
2361,00:00:09.444,0.01766372378915549
2362,00:00:09.448,0.001209121546708043
2363,00:00:09.452,-0.010126878623850692
2364,00:00:09.456,-0.02332819276489316
2365,00:00:09.46,-0.0056043632648652714
2366,00:00:09.464,0.031705811154097305
2367,00:00:09.468,0.01268150750547643
2368,00:00:09.472,0.0057080389233306085
2369,00:00:09.476,-0.0048004374839365396
2370,00:00:09.48,-0.031204943545162598
2371,00:00:09.484,-0.02737302612513303
2372,00:00:09.488,0.021803716197609894
2373,00:00:09.492,0.0339299635961652
2374,00:00:09.496,-0.004570709366817029
2375,00:00:09.5,-0.0013710211496800002
2376,00:00:09.504,-0.00600135163404048
2377,00:00:09.508,0.00502134067937731
2378,00:00:09.512,-0.01442023459821942
2379,00:00:09.516,-0.00801347155356778
2380,00:00:09.52,0.01071182591840621
2381,00:00:09.524,-0.008455511881038519
2382,00:00:09.528,0.022928867489099506
2383,00:00:09.532,0.011779583990573902
2384,00:00:09.536,-0.021975734736770388
2385,00:00:09.54,-0.03105032653547822
2386,00:00:09.544,0.01420549442991614
2387,00:00:09.548,0.02187350997701291
2388,00:00:09.552,0.01799867791123684
2389,00:00:09.556,-0.013123602839186788
2390,00:00:09.56,-0.024030110798776108
2391,00:00:09.564,0.006908073090016791
2392,00:00:09.568,0.00010310718789689928
2393,00:00:09.572,0.007778057013638361
2394,00:00:09.576,-0.01512773288413885
2395,00:00:09.58,0.020282888319343342
2396,00:00:09.584,0.0007536176126450309
2397,00:00:09.588,-0.0009308534208685201
2398,00:00:09.592,-0.0061903824098408205
2399,00:00:09.596,-0.01927446154877545
2400,00:00:09.6,0.03959281370043754
2401,00:00:09.604,-0.016818234696984298
2402,00:00:09.608,-0.01369726820848882
2403,00:00:09.612,0.007374328561127232
2404,00:00:09.616,-0.01955550024285912
2405,00:00:09.62,-0.0102474777959288
2406,00:00:09.624,0.03713025612523782
2407,00:00:09.628,0.03299187030643226
2408,00:00:09.632,-0.004172769142314788
2409,00:00:09.636,-0.020227822649758316
2410,00:00:09.64,-0.029430643422529077
2411,00:00:09.644,-0.009881801961455496
2412,00:00:09.648,0.004155057686148214
2413,00:00:09.652,0.00634726323187349
2414,00:00:09.656,0.01809874642640356
2415,00:00:09.66,0.01748073123235369
2416,00:00:09.664,0.008968422189354909
2417,00:00:09.668,-0.02748465980403129
2418,00:00:09.672,-0.01585582457482818
2419,00:00:09.676,-0.012431020382791747
2420,00:00:09.68,0.02256892473087647
2421,00:00:09.684,0.01259537739679217
2422,00:00:09.688,0.011882823324413042
2423,00:00:09.692,-0.02107711508870124
2424,00:00:09.696,-0.0208125973585993
2425,00:00:09.7,0.00590191758237779
2426,00:00:09.704,0.02198658813722435
2427,00:00:09.708,0.00612752884626388
2428,00:00:09.712,-0.006054009834770115
2429,00:00:09.716,0.00311831873841584
2430,00:00:09.72,-0.0262302085757255
2431,00:00:09.724,0.00971119839232416
2432,00:00:09.728,0.009166490985080602
2433,00:00:09.732,0.00694159814156587
2434,00:00:09.736,-0.014444714644923832
2435,00:00:09.74,-0.0032674852991476403
2436,00:00:09.744,0.00545328226871789
2437,00:00:09.748,0.0028965076780878007
2438,00:00:09.752,-0.0006135476869530976
2439,00:00:09.756,0.012636057101190121
2440,00:00:09.76,-0.0067263473756611
2441,00:00:09.764,-0.0067759063094854355
2442,00:00:09.768,-0.008129732217639686
2443,00:00:09.772,-0.0007211253396235493
2444,00:00:09.776,-0.0033746128901838996
2445,00:00:09.78,0.01800776459276679
2446,00:00:09.784,0.016623483970761275
2447,00:00:09.788,-0.005812018353026366
2448,00:00:09.792,-0.021760496310889797
2449,00:00:09.796,-0.0004004172515124603
2450,00:00:09.8,-0.01729730842635041
2451,00:00:09.804,0.021697109565138803
2452,00:00:09.808,0.0394145026803016
2453,00:00:09.812,-0.045358635485172216
2454,00:00:09.816,-0.0320831639692187
2455,00:00:09.82,0.031273827888071606
2456,00:00:09.824,0.03265220904722806
2457,00:00:09.828,-0.0015422442811541225
2458,00:00:09.832,-0.013845069333910952
2459,00:00:09.836,0.004213667474687023
2460,00:00:09.84,-0.021194191649556098
2461,00:00:09.844,-0.014061664696782829
2462,00:00:09.848,0.0008209273219108616
2463,00:00:09.852,0.014593673404306172
2464,00:00:09.856,0.0284732145955786
2465,00:00:09.86,-0.0013483117800205903
2466,00:00:09.864,-0.010680382838472719
2467,00:00:09.868,-0.02187104336917397
2468,00:00:09.872,0.0032785735093057294
2469,00:00:09.876,-0.00062144314870237
2470,00:00:09.88,0.008118930272758
2471,00:00:09.884,0.004538602195680107
2472,00:00:09.888,0.01625913497991862
2473,00:00:09.892,-0.020514094270765802
2474,00:00:09.896,-0.017590234987437732
2475,00:00:09.9,0.0201023085974156
2476,00:00:09.904,-0.0027389889582991097
2477,00:00:09.908,0.014804068559897174
2478,00:00:09.912,0.0035956385545432594
2479,00:00:09.916,-0.012236136011779319
2480,00:00:09.92,-0.01766708912327889
2481,00:00:09.924,-0.0044857549946754685
2482,00:00:09.928,0.01330287661403418
2483,00:00:09.932,0.019147609826177373
2484,00:00:09.936,-0.023826637887395995
2485,00:00:09.94,0.0016553072491660695
2486,00:00:09.944,0.01276147156022489
2487,00:00:09.948,0.02476110821589831
2488,00:00:09.952,-0.02024517953395844
2489,00:00:09.956,-0.02748894784599542
2490,00:00:09.96,-0.005478858249261979
2491,00:00:09.964,0.014077346655540161
2492,00:00:09.968,0.02008429821580647
2493,00:00:09.972,0.004167104605585331
2494,00:00:09.976,-0.018794737523421652
2495,00:00:09.98,-0.001176217338070269
2496,00:00:09.984,0.0058371782070025715
2497,00:00:09.988,0.0009444829338463214
2498,00:00:09.992,-0.0031100111082196192
2499,00:00:09.996,-0.003387941513210509
2500,00:00:10,-0.007468848722055551
2501,00:00:10.004,0.03820165991783143
2502,00:00:10.008,-0.01817377936095
2503,00:00:10.012,-0.011270935647189631
2504,00:00:10.016,-0.02101450855843727
2505,00:00:10.02,0.01658415887504817
2506,00:00:10.024,0.02888539747800676
2507,00:00:10.028,-0.011243551038205589
2508,00:00:10.032,-0.029351934557780637
2509,00:00:10.036,0.010062054498121129
2510,00:00:10.04,0.022630163060966855
2511,00:00:10.044,0.0042620163294486745
2512,00:00:10.048,-0.012908462667837739
2513,00:00:10.052,-0.02413692511618137
2514,00:00:10.056,0.0016726222820580075
2515,00:00:10.06,0.022689451929181773
2516,00:00:10.064,0.007528429094236343
2517,00:00:10.068,-0.001123019552323995
2518,00:00:10.072,-0.01316371699795127
2519,00:00:10.076,-0.01161445071920753
2520,00:00:10.08,0.006886839808430533
2521,00:00:10.084,0.012891678372398019
2522,00:00:10.088,0.0022174040786921995
2523,00:00:10.092,-0.012283653253689408
2524,00:00:10.096,0.00484370451886206
2525,00:00:10.1,-0.008932521566748619
2526,00:00:10.104,0.008545548655092668
2527,00:00:10.108,0.00822718115523453
2528,00:00:10.112,-0.00443775951862336
2529,00:00:10.116,0.004377430886961534
2530,00:00:10.12,-0.02529083704575897
2531,00:00:10.124,-0.0021501593873835857
2532,00:00:10.128,0.01712445355951784
2533,00:00:10.132,0.01036967337131503
2534,00:00:10.136,0.00795579515397549
2535,00:00:10.14,0.004652550909668221
2536,00:00:10.144,-0.03247640514746311
2537,00:00:10.148,-0.005884879734367132
2538,00:00:10.152,0.010912918660324067
2539,00:00:10.156,-0.001133956015110009
2540,00:00:10.16,8.348294068132034e-05
2541,00:00:10.164,0.02195204049348831
2542,00:00:10.168,0.005124380695633619
2543,00:00:10.172,-0.02349222055636343
2544,00:00:10.176,0.0011214031837880598
2545,00:00:10.18,-0.00521092506824062
2546,00:00:10.184,-0.000658754375763241
2547,00:00:10.188,0.0018400207627564604
2548,00:00:10.192,0.00490903115132824
2549,00:00:10.196,0.008913233876228329
2550,00:00:10.2,0.008667110785609135
2551,00:00:10.204,-0.0012912116362713325
2552,00:00:10.208,-0.020583347766660147
2553,00:00:10.212,-0.00719175860285756
2554,00:00:10.216,-0.00595817333669401
2555,00:00:10.22,0.00378779741004109
2556,00:00:10.224,0.017891674768179704
2557,00:00:10.228,0.02180645021144298
2558,00:00:10.232,-0.0052939066445105674
2559,00:00:10.236,-0.022975979372859
2560,00:00:10.24,-0.012228488980326803
2561,00:00:10.244,0.014405962778255342
2562,00:00:10.248,0.01606911886483429
2563,00:00:10.252,-0.020917161833494898
2564,00:00:10.256,0.01516765542328358
2565,00:00:10.26,-0.01936702523380521
2566,00:00:10.264,-0.02174013061448931
2567,00:00:10.268,0.024441725108772426
2568,00:00:10.272,0.0210616500116884
2569,00:00:10.276,0.008575430023483935
2570,00:00:10.28,-0.007541355444118419
2571,00:00:10.284,-0.00967768742702901
2572,00:00:10.288,-0.001997817336814475
2573,00:00:10.292,-0.00782843038905413
2574,00:00:10.296,-0.01063220715150237
2575,00:00:10.3,0.0048052044585346915
2576,00:00:10.304,0.0007294219103641809
2577,00:00:10.308,0.022719815373420743
2578,00:00:10.312,0.006764180259779129
2579,00:00:10.316,-0.01767244422808292
2580,00:00:10.32,-0.008143894374370571
2581,00:00:10.324,-0.0108931744471192
2582,00:00:10.328,0.023634606041014222
2583,00:00:10.332,0.008384853950701623
2584,00:00:10.336,-0.01097167038824408
2585,00:00:10.34,-0.02006611693650484
2586,00:00:10.344,0.009537696372717657
2587,00:00:10.348,0.0011384994722903087
2588,00:00:10.352,0.026555989868938895
2589,00:00:10.356,-0.006095459801144859
2590,00:00:10.36,-0.020245876337867202
2591,00:00:10.364,-0.02207115129567683
2592,00:00:10.368,0.03155482653528445
2593,00:00:10.372,0.009293135255575177
2594,00:00:10.376,-0.00801742263138299
2595,00:00:10.38,-0.0038669263012707207
2596,00:00:10.384,-0.0024931393563747493
2597,00:00:10.388,-0.0013302032602950905
2598,00:00:10.392,-0.00425441190600395
2599,00:00:10.396,0.004748380997625646
2600,00:00:10.4,-0.005983811337500821
2601,00:00:10.404,-0.0054743499495089
2602,00:00:10.408,0.02484061592258511
2603,00:00:10.412,0.01414313015993688
2604,00:00:10.416,-0.009896873030811592
2605,00:00:10.42,-0.01370948227122418
2606,00:00:10.424,-0.008286734693683712
2607,00:00:10.428,-0.001330664454144424
2608,00:00:10.432,-0.009341638535261172
2609,00:00:10.436,-0.023438946343958322
2610,00:00:10.44,0.03566807438619429
2611,00:00:10.444,0.04474859725451099
2612,00:00:10.448,-0.01604896457865834
2613,00:00:10.452,-0.022023963043466255
2614,00:00:10.456,0.00023081852123141983
2615,00:00:10.46,0.0080558864865452
2616,00:00:10.464,-0.0156488120555878
2617,00:00:10.468,-0.027205195277929334
2618,00:00:10.472,0.0188074493780732
2619,00:00:10.476,0.00682542193681002
2620,00:00:10.48,0.014086361974477761
2621,00:00:10.484,0.01797533151693643
2622,00:00:10.488,0.009588865446858118
2623,00:00:10.492,-0.030327109416248298
2624,00:00:10.496,-0.03851190023124222
2625,00:00:10.5,0.002861960034351745
2626,00:00:10.504,0.03311926280730394
2627,00:00:10.508,0.01567265787161883
2628,00:00:10.512,-0.0008264048956334608
2629,00:00:10.516,-0.019551969191525156
2630,00:00:10.52,0.002586130751296876
2631,00:00:10.524,-0.0008422624086961185
2632,00:00:10.528,-0.0009200074709951921
2633,00:00:10.532,-0.00196250306908041
2634,00:00:10.536,0.00497803254984319
2635,00:00:10.54,0.009050986263900992
2636,00:00:10.544,-0.01280066766776145
2637,00:00:10.548,-0.007600667886435951
2638,00:00:10.552,0.006130142603069565
2639,00:00:10.556,0.009120819682721049
2640,00:00:10.56,-0.003096174128586422
2641,00:00:10.564,-0.00281299185007813
2642,00:00:10.568,0.010421202518045899
2643,00:00:10.572,0.006297823041677503
2644,00:00:10.576,-0.01431382354348903
2645,00:00:10.58,-0.024092106148600603
2646,00:00:10.584,-0.004901297274045611
2647,00:00:10.588,0.0243794769048691
2648,00:00:10.592,0.025393925840035088
2649,00:00:10.596,0.002300951629877101
2650,00:00:10.6,-0.009881347417831421
2651,00:00:10.604,-0.02235030476003888
2652,00:00:10.608,0.0020102374255657404
2653,00:00:10.612,-0.006343700399156665
2654,00:00:10.616,-0.0017467211000621397
2655,00:00:10.62,0.004318635503295773
2656,00:00:10.624,0.021365544176660443
2657,00:00:10.628,0.00621879217214884
2658,00:00:10.632,-0.0167757892049849
2659,00:00:10.636,-0.008910751261282721
2660,00:00:10.64,0.006393954707164091
2661,00:00:10.644,0.00933675467967987
2662,00:00:10.648,-0.00571713293902576
2663,00:00:10.652,-0.00404896924737841
2664,00:00:10.656,-0.007906903978437149
2665,00:00:10.66,-0.006138794240541732
2666,00:00:10.664,0.016179149970412237
2667,00:00:10.668,0.013884766027331321
2668,00:00:10.672,0.00733558693900709
2669,00:00:10.676,-0.019912588730221562
2670,00:00:10.68,-0.01235343306325371
2671,00:00:10.684,0.002826632175128899
2672,00:00:10.688,0.001617173547856586
2673,00:00:10.692,-0.0006340367253869703
2674,00:00:10.696,0.0037126941606401686
2675,00:00:10.7,0.02212063223123555
2676,00:00:10.704,-0.0016750584618421267
2677,00:00:10.708,-0.026653736596927022
2678,00:00:10.712,0.0026709334924817033
2679,00:00:10.716,0.0005193878896534441
2680,00:00:10.72,-0.0016561751253903398
2681,00:00:10.724,0.02823566715233026
2682,00:00:10.728,-0.013785278424620639
2683,00:00:10.732,-0.027635720936814247
2684,00:00:10.736,0.011849261587485671
2685,00:00:10.74,0.0170754191931337
2686,00:00:10.744,-0.00457885803189133
2687,00:00:10.748,0.009445897070690948
2688,00:00:10.752,-0.0060847855347674305
2689,00:00:10.756,-0.008707408327609308
2690,00:00:10.76,-0.02354490477591755
2691,00:00:10.764,0.01162181003019212
2692,00:00:10.768,0.02171913627535107
2693,00:00:10.772,0.02033906592987473
2694,00:00:10.776,-0.02143403468653563
2695,00:00:10.78,-0.007780177984386651
2696,00:00:10.784,-0.0007699092384427799
2697,00:00:10.788,-0.0025452086701989495
2698,00:00:10.792,0.013697142247110619
2699,00:00:10.796,-0.018727521644905258
2700,00:00:10.8,-0.03226617781911049
2701,00:00:10.804,0.01473881443962451
2702,00:00:10.808,0.056555247865617296
2703,00:00:10.812,0.01817851781379433
2704,00:00:10.816,-0.01585653470829134
2705,00:00:10.82,-0.0340300081297755
2706,00:00:10.824,-0.01919573638588187
2707,00:00:10.828,-0.012202815501950648
2708,00:00:10.832,0.012804945930838528
2709,00:00:10.836,0.02986302284989509
2710,00:00:10.84,0.00358189758844673
2711,00:00:10.844,0.0034016493591479575
2712,00:00:10.848,-0.011161784944306452
2713,00:00:10.852,-0.0032734790729591705
2714,00:00:10.856,-0.013018761761486522
2715,00:00:10.86,0.009619941003620663
2716,00:00:10.864,0.00730344001203777
2717,00:00:10.868,-0.03119490772951397
2718,00:00:10.872,0.02530058124102656
2719,00:00:10.876,0.02446912787854668
2720,00:00:10.88,-0.015618340112268928
2721,00:00:10.884,-0.0033367443829774783
2722,00:00:10.888,-0.01830136775970464
2723,00:00:10.892,-0.0011182313319295697
2724,00:00:10.896,0.01010465249419205
2725,00:00:10.9,0.0026501831598579606
2726,00:00:10.904,0.02156548667699098
2727,00:00:10.908,-0.00662317872047421
2728,00:00:10.912,-0.0027241531352046916
2729,00:00:10.916,-0.016296761343255618
2730,00:00:10.92,-0.02600800013169648
2731,00:00:10.924,0.010769403903395893
2732,00:00:10.928,0.02020459761843085
2733,00:00:10.932,0.017878791200928425
2734,00:00:10.936,0.007109893369488422
2735,00:00:10.94,0.00225307070650161
2736,00:00:10.944,-0.03659101529046896
2737,00:00:10.948,-0.02607503626495595
2738,00:00:10.952,0.027262173360213637
2739,00:00:10.956,0.012667970731854411
2740,00:00:10.96,0.01204860326834023
2741,00:00:10.964,-0.011250833049416528
2742,00:00:10.968,-0.00777837145142257
2743,00:00:10.972,-0.006134391354862639
2744,00:00:10.976,0.00590122654102743
2745,00:00:10.98,0.022933246335014732
2746,00:00:10.984,-0.00918357912451023
2747,00:00:10.988,-0.02863944834098224
2748,00:00:10.992,0.01278013398405169
2749,00:00:10.996,-0.0018554943471826985
2750,00:00:11,-0.0028712460771203006
2751,00:00:11.004,0.01130692800506949
2752,00:00:11.008,0.02531456807628277
2753,00:00:11.012,-0.01248854992445559
2754,00:00:11.016,-0.006934353848919278
2755,00:00:11.02,-0.02062777569517493
2756,00:00:11.024,-0.01767786126583807
2757,00:00:11.028,0.03328774496912956
2758,00:00:11.032,0.012866108852904314
2759,00:00:11.036,-0.023236028850078617
2760,00:00:11.04,0.0006716961506754199
2761,00:00:11.044,0.02494593150913716
2762,00:00:11.048,-0.0011497144587338018
2763,00:00:11.052,-0.015653914306312827
2764,00:00:11.056,-0.00844184542074803
2765,00:00:11.06,-0.005100239301100369
2766,00:00:11.064,0.019989052088931154
2767,00:00:11.068,-0.006099395453929907
2768,00:00:11.072,-0.016900268383324167
2769,00:00:11.076,0.00538187264464791
2770,00:00:11.08,0.02644317224621768
2771,00:00:11.084,0.002772612031549231
2772,00:00:11.088,-0.0179048012942076
2773,00:00:11.092,-0.0051949167391285005
2774,00:00:11.096,0.00649245548993349
2775,00:00:11.1,-0.0018863972727558558
2776,00:00:11.104,-0.01130145415663722
2777,00:00:11.108,0.013073667127173368
2778,00:00:11.112,-0.008706312743015612
2779,00:00:11.116,-0.0006884518079460118
2780,00:00:11.12,0.011812028707936411
2781,00:00:11.124,0.00655106312478893
2782,00:00:11.128,0.019256863510236092
2783,00:00:11.132,-0.03178787603974343
2784,00:00:11.136,-0.04096468636998905
2785,00:00:11.14,0.02620333153754473
2786,00:00:11.144,0.03944168519228699
2787,00:00:11.148,-0.007790011164615856
2788,00:00:11.152,-0.006657300269580462
2789,00:00:11.156,-0.01339456811547279
2790,00:00:11.16,0.00674750914186009
2791,00:00:11.164,-0.0072072567418217616
2792,00:00:11.168,-0.0077336636604741086
2793,00:00:11.172,0.014854852342978123
2794,00:00:11.176,0.009083675220608708
2795,00:00:11.18,-0.015930353198200478
2796,00:00:11.184,-0.001432173652574439
2797,00:00:11.188,0.00664861407130958
2798,00:00:11.192,0.004671834874898178
2799,00:00:11.196,-0.0058499912265688216
2800,00:00:11.2,0.0034851415257435244
2801,00:00:11.204,0.01446597301401198
2802,00:00:11.208,-0.01311601372435685
2803,00:00:11.212,-0.023027617291973036
2804,00:00:11.216,0.0044533011969179
2805,00:00:11.22,0.012381534790620199
2806,00:00:11.224,0.015400103409774614
2807,00:00:11.228,-0.00549970474094153
2808,00:00:11.232,-0.0035427242983132714
2809,00:00:11.236,-0.01161773258354514
2810,00:00:11.24,0.007532847579568624
2811,00:00:11.244,0.018173618707805907
2812,00:00:11.248,-0.016407512826844998
2813,00:00:11.252,-0.020217328332364563
2814,00:00:11.256,0.006185446400195412
2815,00:00:11.26,0.01806897367350753
2816,00:00:11.264,-0.004644403699785468
2817,00:00:11.268,0.008300598710775401
2818,00:00:11.272,0.0015162499621510974
2819,00:00:11.276,-0.014043791219592117
2820,00:00:11.28,-0.020301980897784233
2821,00:00:11.284,0.00928188487887382
2822,00:00:11.288,0.022383201867341898
2823,00:00:11.292,0.0209459471516311
2824,00:00:11.296,-0.021596067585050997
2825,00:00:11.3,-0.01047789724543696
2826,00:00:11.304,0.0026930482126772395
2827,00:00:11.308,-0.005220237362664192
2828,00:00:11.312,-0.010628765448927806
2829,00:00:11.316,0.01416311110369863
2830,00:00:11.32,0.000557033243239859
2831,00:00:11.324,0.008942238986492159
2832,00:00:11.328,0.0027875523082911994
2833,00:00:11.332,-0.0018099443987011875
2834,00:00:11.336,-0.016448599577415745
2835,00:00:11.34,-0.002370988484472072
2836,00:00:11.344,0.01120015583001077
2837,00:00:11.348,0.010525928897550326
2838,00:00:11.352,-0.02366558043286207
2839,00:00:11.356,0.00763765908777713
2840,00:00:11.36,0.01617421861737965
2841,00:00:11.364,-0.01744494427111931
2842,00:00:11.368,0.0099936879705638
2843,00:00:11.372,-0.0021744632394984304
2844,00:00:11.376,-0.0033515905961394414
2845,00:00:11.38,0.00518036133144051
2846,00:00:11.384,-0.004915046389214693
2847,00:00:11.388,-0.013642036879900817
2848,00:00:11.392,0.01258798467461018
2849,00:00:11.396,0.01732207182794809
2850,00:00:11.4,-0.0018803428247338193
2851,00:00:11.404,-0.01165481540374455
2852,00:00:11.408,-0.004363028565421698
2853,00:00:11.412,-0.007830011956684752
2854,00:00:11.416,-0.006495884095784274
2855,00:00:11.42,0.01999377529136836
2856,00:00:11.424,0.01415470859501508
2857,00:00:11.428,-0.00980561482720074
2858,00:00:11.432,-0.0234290584921837
2859,00:00:11.436,-0.0007319133728742096
2860,00:00:11.44,0.021736955270171242
2861,00:00:11.444,0.01015125401318073
2862,00:00:11.448,-0.004273879341781142
2863,00:00:11.452,0.01248679542914034
2864,00:00:11.456,-0.0465771108865738
2865,00:00:11.46,0.005611255532130591
2866,00:00:11.464,0.0204293243587017
2867,00:00:11.468,-0.00034812977537512866
2868,00:00:11.472,0.00747249089181424
2869,00:00:11.476,0.01251160295214502
2870,00:00:11.48,-0.053369962610304356
2871,00:00:11.484,0.00845185876823962
2872,00:00:11.488,0.028928500541951452
2873,00:00:11.492,0.0168903921730816
2874,00:00:11.496,-0.015419939532876034
2875,00:00:11.5,0.0024186409427784626
2876,00:00:11.504,-0.021588229690678425
2877,00:00:11.508,0.0013840212486684678
2878,00:00:11.512,0.005003266385756428
2879,00:00:11.516,0.019550531636923548
2880,00:00:11.52,-0.017136563954409243
2881,00:00:11.524,-0.02378646098077292
2882,00:00:11.528,0.014082339592278028
2883,00:00:11.532,0.029687858768738792
2884,00:00:11.536,0.02474822429940101
2885,00:00:11.54,-0.02512198942713445
2886,00:00:11.544,-0.03622627118602392
2887,00:00:11.548,-0.01870904874522242
2888,00:00:11.552,0.02416421473026269
2889,00:00:11.556,0.01117617171257733
2890,00:00:11.56,0.03079290222376594
2891,00:00:11.564,-0.0025623752735555207
2892,00:00:11.568,-0.0294148232787848
2893,00:00:11.572,-0.005926778008870313
2894,00:00:11.576,0.00899054366163906
2895,00:00:11.58,-0.003724780079210171
2896,00:00:11.584,-0.010422000894323002
2897,00:00:11.588,0.0016299961134791296
2898,00:00:11.592,0.02051145047880711
2899,00:00:11.596,0.010591542348265672
2900,00:00:11.6,-0.0009796046651899802
2901,00:00:11.604,-0.00567962764762342
2902,00:00:11.608,-0.02500141621567313
2903,00:00:11.612,-0.007625042460858831
2904,00:00:11.616,0.01781005971133712
2905,00:00:11.62,0.00472638034261764
2906,00:00:11.624,0.009493506513535999
2907,00:00:11.628,0.0028472666162997536
2908,00:00:11.632,-0.028981831856071942
2909,00:00:11.636,-0.0017585083842277614
2910,00:00:11.64,0.0133898695930839
2911,00:00:11.644,0.02214552136138082
2912,00:00:11.648,0.000308347895042976
2913,00:00:11.652,-0.01906845695339146
2914,00:00:11.656,-0.007457049185177377
2915,00:00:11.66,0.004715477232821282
2916,00:00:11.664,0.010508699342608483
2917,00:00:11.668,-0.01331625907914713
2918,00:00:11.672,-0.010823502903804181
2919,00:00:11.676,0.024486835813149803
2920,00:00:11.68,0.010547381476499145
2921,00:00:11.684,-0.02190643176436426
2922,00:00:11.688,-0.00012293457984924056
2923,00:00:11.692,-0.0046953350538387895
2924,00:00:11.696,0.0011400812072679392
2925,00:00:11.7,0.005468484945595259
2926,00:00:11.704,0.01789888064377012
2927,00:00:11.708,0.00942051410675047
2928,00:00:11.712,-0.03860125876963143
2929,00:00:11.716,-0.008408406283706451
2930,00:00:11.72,0.015294180018827288
2931,00:00:11.724,0.011219775507925075
2932,00:00:11.728,0.00784835719969124
2933,00:00:11.732,0.00018299685325474024
2934,00:00:11.736,-0.021845750394277313
2935,00:00:11.74,-0.00720984558574858
2936,00:00:11.744,0.01627316582016643
2937,00:00:11.748,0.01496531674638394
2938,00:00:11.752,-0.01868765277322378
2939,00:00:11.756,-0.00026592868380248926
2940,00:00:11.76,0.0102280480787158
2941,00:00:11.764,-0.003454865654930469
2942,00:00:11.768,-0.011207394767552632
2943,00:00:11.772,0.008050044998526577
2944,00:00:11.776,0.00609609065577392
2945,00:00:11.78,-0.010653433797415346
2946,00:00:11.784,-0.00659363716840739
2947,00:00:11.788,0.01605209754779938
2948,00:00:11.792,0.02343201660551133
2949,00:00:11.796,-0.03306571533903477
2950,00:00:11.8,-0.012353363097645342
2951,00:00:11.804,0.018603313947096467
2952,00:00:11.808,-0.00961390091106302
2953,00:00:11.812,0.00715692463563755
2954,00:00:11.816,0.01326137362048033
2955,00:00:11.82,-0.0063678892329335195
2956,00:00:11.824,-0.009844932239502628
2957,00:00:11.828,0.007223118213005366
2958,00:00:11.832,-0.009088962455280132
2959,00:00:11.836,-0.0097248445963487
2960,00:00:11.84,0.02452544402331117
2961,00:00:11.844,0.01441900571808218
2962,00:00:11.848,-0.024122842354699976
2963,00:00:11.852,-0.013983964920043971
2964,00:00:11.856,0.021761122159659866
2965,00:00:11.86,-0.012715940829366461
2966,00:00:11.864,-0.00539095664862544
2967,00:00:11.868,0.022942302515730262
2968,00:00:11.872,0.012972204945981499
2969,00:00:11.876,-0.05559030256699771
2970,00:00:11.88,0.013747856020927502
2971,00:00:11.884,0.0297348267631605
2972,00:00:11.888,-0.0033888651523739195
2973,00:00:11.892,-0.0021142702316865403
2974,00:00:11.896,-0.0036190457176416982
2975,00:00:11.9,0.004444170743227029
2976,00:00:11.904,-0.01865159627050161
2977,00:00:11.908,-0.0012013884261250739
2978,00:00:11.912,0.015087384759681303
2979,00:00:11.916,-0.0069707046495750494
2980,00:00:11.92,-0.009413746578502469
2981,00:00:11.924,0.026276446878910113
2982,00:00:11.928,0.01182727515697478
2983,00:00:11.932,-0.01193442265503108
2984,00:00:11.936,-0.024430364806903478
2985,00:00:11.94,0.008868344826623822
2986,00:00:11.944,-0.02038632461335509
2987,00:00:11.948,-0.000908520771190531
2988,00:00:11.952,0.029235949739813846
2989,00:00:11.956,0.02160763181746006
2990,00:00:11.96,-0.013839110732078549
2991,00:00:11.964,-0.016088661504909427
2992,00:00:11.968,0.0035138300154358105
2993,00:00:11.972,-0.01005648472346366
2994,00:00:11.976,0.0057539354311301905
2995,00:00:11.98,-0.006339449377264826
2996,00:00:11.984,0.01582842785865073
2997,00:00:11.988,0.02709155669435857
2998,00:00:11.992,-0.03334656718652688
2999,00:00:11.996,-0.03233190556056791
3000,00:00:12,0.01845349717768839
3001,00:00:12.004,0.022022210527211428
3002,00:00:12.008,0.0026708012446761105
3003,00:00:12.012,0.002288925461471119
3004,00:00:12.016,-0.01449025026522577
3005,00:00:12.02,0.01303531508892776
3006,00:00:12.024,-0.013672074826899912
3007,00:00:12.028,-0.007607168983668089
3008,00:00:12.032,0.005099745700135871
3009,00:00:12.036,-0.008714810013771102
3010,00:00:12.04,0.0059682223945856094
3011,00:00:12.044,0.027040714398026452
3012,00:00:12.048,0.00577082321979105
3013,00:00:12.052,-0.01971024763770403
3014,00:00:12.056,-0.016100697568617782
3015,00:00:12.06,-0.004027071874588719
3016,00:00:12.064,0.0031472277187276684
3017,00:00:12.068,0.010088737879414115
3018,00:00:12.072,0.005535291158594189
3019,00:00:12.076,0.01443199417553837
3020,00:00:12.08,-0.008441252168267957
3021,00:00:12.084,-0.005580858414759859
3022,00:00:12.088,-0.0019277860410511498
3023,00:00:12.092,-0.018781551450956592
3024,00:00:12.096,-0.0153430253267288
3025,00:00:12.1,0.025223111122613787
3026,00:00:12.104,0.0177409362513572
3027,00:00:12.108,0.005262410966679461
3028,00:00:12.112,-0.00844267569482326
3029,00:00:12.116,0.002255673825857235
3030,00:00:12.12,0.001193693547975276
3031,00:00:12.124,-0.01731127849780023
3032,00:00:12.128,0.0005060619441792404
3033,00:00:12.132,-0.0121099145617336
3034,00:00:12.136,0.004151209199335423
3035,00:00:12.14,0.010649128817021803
3036,00:00:12.144,0.010853405110538051
3037,00:00:12.148,0.011612923350185201
3038,00:00:12.152,-0.025780164636671512
3039,00:00:12.156,-0.008984783664345802
3040,00:00:12.16,0.026355487294495106
3041,00:00:12.164,0.003166705369949371
3042,00:00:12.168,-0.006249983562156561
3043,00:00:12.172,-0.01758791634347292
3044,00:00:12.176,-0.01097816199762751
3045,00:00:12.18,0.012901448470074683
3046,00:00:12.184,0.01710195948544424
3047,00:00:12.188,0.011223441324545986
3048,00:00:12.192,-0.017725683981552727
3049,00:00:12.196,-0.02038863021880386
3050,00:00:12.2,0.009867294691503003
3051,00:00:12.204,0.01127971056848761
3052,00:00:12.208,-0.004535329528152939
3053,00:00:12.212,-0.0009775815997272695
3054,00:00:12.216,0.01180121814832092
3055,00:00:12.22,-0.00812081154435872
3056,00:00:12.224,-0.01362826954573396
3057,00:00:12.228,0.00885786907747387
3058,00:00:12.232,0.0062758089043199895
3059,00:00:12.236,0.013932227622717612
3060,00:00:12.24,-0.007507136091589879
3061,00:00:12.244,-0.037293728441
3062,00:00:12.248,0.0014792596339248077
3063,00:00:12.252,0.03079619607888163
3064,00:00:12.256,0.021787836216390168
3065,00:00:12.26,-0.0164005046244711
3066,00:00:12.264,-0.01038203202188015
3067,00:00:12.268,-0.002977234311401799
3068,00:00:12.272,0.005624595331028121
3069,00:00:12.276,-0.013868225854821552
3070,00:00:12.28,0.003862080164253711
3071,00:00:12.284,0.011261180974543079
3072,00:00:12.288,-0.01016794354654849
3073,00:00:12.292,-0.0014323634095490187
3074,00:00:12.296,0.013716863933950649
3075,00:00:12.3,0.004690738860517669
3076,00:00:12.304,0.01569984387606383
3077,00:00:12.308,-0.01537733478471632
3078,00:00:12.312,-0.037792831193655736
3079,00:00:12.316,-0.01459280587732794
3080,00:00:12.32,0.02561525837518279
3081,00:00:12.324,0.03934658644720909
3082,00:00:12.328,0.00829610414803025
3083,00:00:12.332,-0.02313138730823993
3084,00:00:12.336,-0.01449075853452091
3085,00:00:12.34,-0.0003001781878992955
3086,00:00:12.344,0.004806847078725699
3087,00:00:12.348,0.00418277271091938
3088,00:00:12.352,-0.019369729212485257
3089,00:00:12.356,0.012466028565540885
3090,00:00:12.36,0.0036524225724861104
3091,00:00:12.364,0.006179448231705464
3092,00:00:12.368,-0.002522288821637641
3093,00:00:12.372,0.013729322701692609
3094,00:00:12.376,-0.004392914474010429
3095,00:00:12.38,-0.02254168968647722
3096,00:00:12.384,-0.02078162971884009
3097,00:00:12.388,0.016536476090550506
3098,00:00:12.392,0.01772544777486477
3099,00:00:12.396,0.00916623929515481
3100,00:00:12.4,0.016335404245182896
3101,00:00:12.404,-0.036078505218029015
3102,00:00:12.408,0.0004860295448452191
3103,00:00:12.412,0.008442393504083158
3104,00:00:12.416,-0.005679010006133464
3105,00:00:12.42,-0.0012930042867083066
3106,00:00:12.424,-0.014708317467011504
3107,00:00:12.428,0.024819646729156347
3108,00:00:12.432,0.025771629996597763
3109,00:00:12.436,-0.0229421257972717
3110,00:00:12.44,-0.02743651287164539
3111,00:00:12.444,-0.007428748533129639
3112,00:00:12.448,0.03472850332036617
3113,00:00:12.452,0.01447896659374233
