Elapsed Time,EMG1,EMG2,EMG3,BioRadio Event,Unnamed: 5
00:00:00,0.168138191103935,1.59627485275269,-0.7514324188232421,0,
00:00:00.004,-0.15377376973629,-1.5210987329483,0.7150667309761051,0,
00:00:00.008,-0.13477988541126298,-1.26075565814972,0.590268015861511,0,
00:00:00.012,-0.0294442288577557,-0.128273189067841,0.0742659047245979,0,
00:00:00.016,0.0662207454442978,0.6381627917289731,-0.309787750244141,0,
00:00:00.02,0.102592296898365,0.788431525230408,-0.37459987401962297,0,
00:00:00.024,0.062136884778738,0.492856591939926,-0.22261145710945104,0,
00:00:00.028,-0.0267389360815287,0.0508246682584286,-0.0452183969318867,0,
00:00:00.032,-0.0270858891308308,-0.231320738792419,0.112811543047428,0,
00:00:00.036,-0.00433872640132904,-0.302241116762161,0.181209549307823,0,
00:00:00.04,0.0035920143127441398,-0.22650158405304,0.0743158012628555,0,
00:00:00.044,-0.0500661544501781,-0.0866854265332222,0.0517788752913475,0,
00:00:00.048,-0.0321952328085899,0.0190458316355944,-0.0284264869987965,0,
00:00:00.052,0.0275686625391245,0.0923814922571182,-0.0404287725687027,0,
00:00:00.056,0.0636667907238007,0.089170053601265,-0.0246400497853756,0,
00:00:00.06,-0.00745966751128435,0.0429771579802036,-0.0196021813899279,0,
00:00:00.064,-0.025775196030736,0.0018801954574883,-0.0122822904959321,0,
00:00:00.068,-0.0157070681452751,-0.0197737514972687,0.0135946031659842,0,
00:00:00.072,0.0239112563431263,-0.0200065188109875,-0.00521582690998912,0,
00:00:00.076,-0.0118530159816146,-0.0357355028390884,0.036128293722868,0,
00:00:00.08,-0.0107898563146591,-0.0043291295878589205,0.00868299603462219,0,
00:00:00.084,-0.0106304297223687,0.0189899355173111,-0.0131099885329604,0,
00:00:00.088,0.0188868399709463,0.0111669022589922,-0.0118158282712102,0,
00:00:00.092,0.02024838142097,-0.0107827736064792,-0.00424850778654218,0,
00:00:00.096,-0.00435724668204784,0.0039108265191316605,-0.0045689023099839705,0,
00:00:00.1,-0.007207321003079409,0.00712216179817915,-0.0132044814527035,0,
00:00:00.104,-0.0099884532392025,-0.00667280424386263,0.0231900401413441,0,
00:00:00.108,-0.000806882919277996,0.0129820955917239,0.0210638046264648,0,
00:00:00.112,0.00129934470169246,-0.0100302593782544,-0.013445733115077,0,
00:00:00.116,0.0138876168057323,0.00335518666543067,-0.0194684565067291,0,
00:00:00.12,0.0163592603057623,-0.0092844320461154,0.0377523750066757,0,
00:00:00.124,-0.0117026772350073,-0.0160732697695494,-0.0267282538115978,0,
00:00:00.128,-0.0953013300895691,0.000576234073378146,-0.033955167979002006,0,
00:00:00.132,0.0739493742585182,0.0189259890466928,0.0532923117280006,0,
00:00:00.136,0.0333852544426918,0.0180496945977211,-0.014017722569406,0,
00:00:00.14,-0.0100651420652866,-0.0036204247735440705,-0.025368345901369996,0,
00:00:00.144,0.025668466463685004,0.0010579829104244698,0.0200225301086903,0,
00:00:00.148,-0.028742428869009,-0.0127466497942805,0.0137054529041052,0,
00:00:00.152,-0.0250131320208311,-0.00628317520022392,-0.0143516957759857,0,
00:00:00.156,-0.0142539981752634,-0.00677129812538624,0.00588210020214319,0,
00:00:00.16,-0.000695138704031706,0.0021196231245994603,-0.0136288907378912,0,
00:00:00.164,0.021497119218111,-0.0009550738031975929,0.00218527251854539,0,
00:00:00.168,0.0083948178216815,0.00627521798014641,0.00285755144432187,0,
00:00:00.172,0.0100725879892707,0.00678439438343048,0.0152996014803648,0,
00:00:00.176,-0.00282643386162817,0.0179193522781134,0.0316569171845913,0,
00:00:00.18,0.008457404561340809,-0.0164209026843309,-0.0485673695802689,0,
00:00:00.184,-0.0267405081540346,-0.0185666680335999,-0.0154215469956398,0,
00:00:00.188,-0.0157678946852684,0.005339360795915129,0.0058881705626845394,0,
00:00:00.192,0.0239410102367401,0.00293979863636196,0.00037060250178910803,0,
00:00:00.196,0.00415071006864309,0.0149596221745014,0.0050011416897177705,0,
00:00:00.2,0.0137136979028583,0.0110935401171446,0.0161996055394411,0,
00:00:00.204,-0.0230940952897072,-0.0177618023008108,0.0276383366435766,0,
00:00:00.208,-0.0101950112730265,-0.0164363011717796,-0.015024839900433998,0,
00:00:00.212,0.0712743625044823,0.00575553579255939,-0.0260726548731327,0,
00:00:00.216,-0.008708209730684759,0.00802138447761536,-0.0103939566761255,0,
00:00:00.22,-0.131212323904037,-0.00676681380718946,0.00303072296082973,0,
00:00:00.224,-0.00880542583763599,0.00501806661486626,0.0152328722178936,0,
00:00:00.228,0.10779146105050999,0.00957834348082542,-0.0226697660982609,0,
00:00:00.232,0.0483153723180294,-0.00635175919160247,0.01850625872612,0,
00:00:00.236,-0.0185948833823204,-0.0030011949129402603,0.0351346470415592,0,
00:00:00.24,-0.0457279272377491,0.0020057447254657698,-0.00261633866466582,0,
00:00:00.244,-0.0192050021141768,-0.000746598409023136,-0.011088976636528998,0,
00:00:00.248,0.0198184698820114,-0.00465955166146159,-0.0426607541739941,0,
00:00:00.252,0.00527274096384645,0.0124770663678646,-0.011362842284142999,0,
00:00:00.256,-0.00772085739299655,-0.0019966890104115,0.0199793018400669,0,
00:00:00.26,-0.0220213923603296,0.00467066140845418,0.0527677275240421,0,
00:00:00.264,0.00591580709442496,-0.0158188585191965,-0.0253916867077351,0,
00:00:00.268,0.0231075920164585,-0.015149986371398,-0.0407358631491661,0,
00:00:00.272,0.024375656619667996,0.0144739076495171,0.0372678637504578,0,
00:00:00.276,-0.0141606219112873,0.013422267511487,-0.00414828583598137,0,
00:00:00.28,-0.0213117189705372,-0.00893464963883162,-0.00810486357659101,0,
00:00:00.284,0.0005314584705047309,0.00766133330762386,0.0151833882555366,0,
00:00:00.288,0.009444376453757291,-0.0049218269996345,0.00258749583736062,0,
00:00:00.292,0.007708080112934109,0.000261817913269624,-0.013929195702076,0,
00:00:00.296,-0.0212167296558619,0.00016607243742328102,-0.028653884306549998,0,
00:00:00.3,0.00155729916878045,-0.000850354961585253,0.0126524809747934,0,
00:00:00.304,0.0221447441726923,0.000881013693287969,0.0114060519263148,0,
00:00:00.308,0.00204356899484992,-0.00898837950080633,0.0375970415771008,0,
00:00:00.312,-0.0491937547922134,3.6189732782077004e-05,-0.000897457648534328,0,
00:00:00.316,0.0122272521257401,0.0174301154911518,-0.0534466840326786,0,
00:00:00.32,0.00224141217768192,-0.00680003082379699,0.0176501404494047,0,
00:00:00.324,0.090691439807415,-0.005379957146942621,-0.00391113199293613,0,
00:00:00.328,-0.0223440248519182,0.0109856184571981,0.0111901303753257,0,
00:00:00.332,-0.0652795359492302,-0.0104924719780684,-0.00714849028736353,0,
00:00:00.336,-0.0302030313760042,-0.0076759047806263,-0.00327312503941357,0,
00:00:00.34,0.02478645183146,-0.0016248353058472302,0.0385655425488949,0,
00:00:00.344,0.0125977490097284,0.0115316435694695,-0.0320572666823864,0,
00:00:00.348,0.0149365477263927,0.00538344075903296,-0.0199956633150578,0,
00:00:00.352,0.0141584258526564,-9.30708774831146e-05,0.000946894113440067,0,
00:00:00.356,-0.00644524581730366,0.00120676890946925,0.0293639153242111,0,
00:00:00.36,-0.0105691039934754,-0.007117599248886109,-0.0028378835413605,0,
00:00:00.364,-0.00689501455053687,-0.0113566434010863,0.0016006244113668802,0,
00:00:00.368,0.000510681711602956,0.00740892114117742,-0.0060077398084104104,0,
00:00:00.372,0.00632424186915159,0.00960709899663925,-0.00681090680882335,0,
00:00:00.376,0.00385923101566732,0.000160626514116302,0.011194309219718,0,
00:00:00.38,-0.0190413910895586,-0.00592114450410008,-0.0130282491445541,0,
00:00:00.384,0.00651186471804976,-0.00588331604376435,0.0166581962257624,0,
00:00:00.388,-0.007525968831032509,-0.0022852641995996198,-0.0048787468113005205,0,
00:00:00.392,0.023608410730957995,0.007727931253612041,-0.0232814103364944,0,
00:00:00.396,0.0179286003112793,0.00376050244085491,0.00303083006292582,0,
00:00:00.4,-0.0218060035258532,0.00698689743876457,0.0264705792069435,0,
00:00:00.404,-0.0208607204258442,-0.007024345453828571,-0.0125251887366176,0,
00:00:00.408,0.0208049528300762,-0.000422894372604787,-0.0025475551374256602,0,
00:00:00.412,-0.0172646399587393,-0.00994241330772638,0.00287459511309862,0,
00:00:00.416,0.0104277553036809,0.009284982457757,0.00974916387349367,0,
00:00:00.42,-0.00669612409546971,-0.00774197140708566,0.0018770864699035898,0,
00:00:00.424,-0.0159576777368784,-0.009546521119773391,0.00923160649836063,0,
00:00:00.428,0.0253659728914499,0.0157328546047211,-0.0250405464321375,0,
00:00:00.432,0.018691647797823,0.0155443251132965,-0.0265950448811054,0,
00:00:00.436,-0.00550452526658773,-0.0035857397597283103,0.0110728479921818,0,
00:00:00.44,0.00530813913792372,-0.00995254144072533,0.0238704513758421,0,
00:00:00.444,-0.011295173317193999,-0.00784334167838097,0.0109906299039721,0,
00:00:00.448,-0.0230754837393761,-0.008815669454634191,-0.000982092460617423,0,
00:00:00.452,-0.00705581717193127,0.0119062690064311,-0.00918654166162014,0,
00:00:00.456,-0.016778040677308998,-0.00779245141893625,0.0216598492115736,0,
00:00:00.46,0.0388632863759995,0.0143661089241505,-0.0281108729541302,0,
00:00:00.464,0.0312228985130787,0.00858912896364927,-0.0298054926097393,0,
00:00:00.468,-0.0343501716852188,-0.0103029785677791,-0.0118797942996025,0,
00:00:00.472,-0.0246745552867651,-0.008050931617617609,0.0451533831655979,0,
00:00:00.476,0.0652474015951157,0.0031615705229342,0.0221003536134958,0,
00:00:00.48,-0.00964998174458742,0.00173285091295838,0.00240413728170097,0,
00:00:00.484,-0.0280992388725281,0.00731441983953118,-0.0196431390941143,0,
00:00:00.488,-0.00624159909784794,0.0007947130943648519,-0.0104848621413112,0,
00:00:00.492,0.0228251628577709,-0.00882839411497116,0.0053690979257226,0,
00:00:00.496,-0.0745567381381989,-0.0057496982626617,0.0021680654026567897,0,
00:00:00.5,-0.0236545242369175,-0.00208633532747626,-0.00898904725909233,0,
00:00:00.504,0.0992418304085732,0.00760685559362173,-0.0168245825916529,0,
00:00:00.508,0.0588886551558971,0.0057092634961009,0.0183701440691948,0,
00:00:00.512,-0.0231025908142328,0.0009608808322809641,0.0114789865911007,0,
00:00:00.516,-0.0646389871835709,-0.00854767858982086,0.0171389058232307,0,
00:00:00.52,-0.0340139754116535,-0.0012828184990212302,-0.0213400758802891,0,
00:00:00.524,0.011091535910963998,0.00688796536996961,-0.0272008720785379,0,
00:00:00.528,0.0191503167152405,-0.00279730441980064,0.0100147798657417,0,
00:00:00.532,0.0256063528358936,-0.0016880655894056,0.0350519716739655,0,
00:00:00.536,0.0282628126442432,0.0176314543932676,-0.0128607070073485,0,
00:00:00.54,-0.0234875176101923,-0.00953765772283077,-0.0172108393162489,0,
00:00:00.544,0.0190611686557531,-0.0155986715108156,0.00831204373389483,0,
00:00:00.548,-0.0463345050811768,-0.000368077628081664,0.0008341478533111509,0,
00:00:00.552,-0.0545555502176285,-0.006718285381793979,0.0119907567277551,0,
00:00:00.556,0.0393369346857071,0.0195584986358881,-0.00556854251772165,0,
00:00:00.56,0.0239737946540117,0.0168391801416874,-0.0235539469867945,0,
00:00:00.564,0.0293310508131981,0.00571722164750099,0.000341401871992275,0,
00:00:00.568,-0.00838370807468891,-0.0301001518964767,0.0298415292054415,0,
00:00:00.572,0.008808444254100321,-0.020071130245924,-0.000789211131632328,0,
00:00:00.576,-0.0069205486215651,0.0186561979353428,-0.011693992651998998,0,
00:00:00.58,-0.0532760508358479,0.0031346322502940898,-0.0137265678495169,0,
00:00:00.584,0.0257797241210938,-0.00231656199321151,-0.000747768441215158,0,
00:00:00.588,0.0198085140436888,0.0212522428482771,0.00017328759713564098,0,
00:00:00.592,-0.0289970617741346,5.26615403941832e-05,0.0298958886414766,0,
00:00:00.596,-0.0147236799821258,-0.0184259694069624,0.0227020531892776,0,
00:00:00.6,0.0187445059418678,-0.0105281043797731,-0.0290827974677086,0,
00:00:00.604,0.0173835754394531,0.0033863268326968,-0.0219703931361437,0,
00:00:00.608,0.0162166021764278,0.0139786768704653,0.00785606075078249,0,
00:00:00.612,0.00535178557038307,0.008282577618956571,-0.0210823956876993,0,
00:00:00.616,0.0212892983108759,-0.00889535062015057,0.00163717207033187,0,
00:00:00.62,-0.0575617328286171,-0.00845390371978283,0.032540787011385,0,
00:00:00.624,-0.0575057975947857,-0.0128999454900622,0.0149741629138589,0,
00:00:00.628,0.0498418211936951,0.0122320596128702,-0.021051462739706,0,
00:00:00.632,0.0418476462364197,0.0184623412787914,-0.00186390068847686,0,
00:00:00.636,-0.0206589363515377,0.00423333700746298,0.00709741050377488,0,
00:00:00.64,-0.0271542612463236,-0.0285930652171373,-0.0108510097488761,0,
00:00:00.644,0.0625770315527916,0.00251421751454473,-0.013227584771811999,0,
00:00:00.648,-0.00746671296656132,0.0213295686990023,-0.00131134537514299,0,
00:00:00.652,-0.0515128038823605,-0.00877843424677849,0.0330091677606106,0,
00:00:00.656,0.00436335941776633,-0.0100182192400098,0.00298827094957232,0,
00:00:00.66,-0.0161337871104479,-0.00252570025622845,-0.0103675089776516,0,
00:00:00.664,0.0109271146357059,-0.000551069446373731,-0.0173463746905327,0,
00:00:00.668,0.0290828589349985,0.0113707454875112,0.018918015062808997,0,
00:00:00.672,0.0241737104952335,0.0132708279415965,-0.0270641185343266,0,
00:00:00.676,0.014930353499949,0.0082186097279191,-0.0090781357139349,0,
00:00:00.68,-0.0465931110084057,-0.0318500511348248,0.0234277378767729,0,
00:00:00.684,-0.0393540449440479,-0.019597589969635,0.014056914485991001,0,
00:00:00.688,0.00747345527634025,0.0190488658845425,0.0111668864265084,0,
00:00:00.692,0.0286101512610912,0.0242018159478903,-0.0167018957436085,0,
00:00:00.696,0.0201836228370667,-0.0132551919668913,-0.0178044606000185,0,
00:00:00.7,0.007983083836734291,-0.00857405085116625,0.0219349395483732,0,
00:00:00.704,-0.0596174038946629,0.00667204428464174,-0.007391791325062509,0,
00:00:00.708,0.0059760850854218,-0.00070599903119728,-0.00707475561648607,0,
00:00:00.712,0.0550558418035507,0.0145146120339632,0.0020232419483363602,0,
00:00:00.716,0.0270860437303782,0.0041689905337989296,0.004350980743765829,0,
00:00:00.72,-0.0250886380672455,-0.0237756092101336,-0.0139065273106098,0,
00:00:00.724,-0.0693660750985146,-0.0137937469407916,-0.000772481376770884,0,
00:00:00.728,-0.0113612934947014,-0.0038725743070244798,0.0271684564650059,0,
00:00:00.732,0.0293934680521488,0.0253057405352592,-0.0145771056413651,0,
00:00:00.736,0.026011835783720003,0.0201699156314135,0.0105871921405196,0,
00:00:00.74,0.0201484896242619,-0.0106570441275835,0.00346910790540278,0,
00:00:00.744,0.00955540779978037,-0.00545585202053189,-0.0315280705690384,0,
00:00:00.748,-0.0218116026371717,-0.0123107563704252,0.009808590635657309,0,
00:00:00.752,-0.0333318263292313,-0.0116328094154596,0.0047519793733954395,0,
00:00:00.756,0.0120071806013584,0.0042827571742236606,0.01428590901196,0,
00:00:00.76,0.0178422760218382,0.0192081425338984,0.007427970878779891,0,
00:00:00.764,-0.00462305312976241,0.00114347692579031,-0.0232000891119242,0,
00:00:00.768,-0.0202443115413189,0.009211866185069079,-0.0278179757297039,0,
00:00:00.772,-0.0226500574499369,-0.00613527465611696,0.0436484329402447,0,
00:00:00.776,0.0368171744048595,-0.0228652711957693,0.005269509274512529,0,
00:00:00.78,0.0271733999252319,-0.00357072683982551,-0.00735250255092978,0,
00:00:00.784,0.00393268186599016,0.0101031418889761,-0.0201632436364889,0,
00:00:00.788,0.0230103954672813,0.0184920523315668,-0.00447577564045787,0,
00:00:00.792,-0.0661663562059402,-0.0074968971312046094,0.0194456540048122,0,
00:00:00.796,-0.041414700448512996,-0.0119787892326713,0.00213075429201126,0,
00:00:00.8,0.0711232274770737,0.0293940622359514,-0.0343727990984917,0,
00:00:00.804,-0.0300348680466414,-0.0173622258007526,0.0307295080274343,0,
00:00:00.808,-0.00447914516553283,-0.0129807712510228,0.0444046556949615,0,
00:00:00.812,0.0387451723217964,-0.00324825919233263,-0.0156477056443691,0,
00:00:00.816,-0.00960017554461956,-0.00227723107673228,-0.052053838968277,0,
00:00:00.82,-0.0158468298614025,0.0100537640973926,-0.00766978319734335,0,
00:00:00.824,0.0244296118617058,0.026031780987977995,0.0101761436089873,0,
00:00:00.828,-0.0164167918264866,-0.0122147295624018,0.0170601531863213,0,
00:00:00.832,-0.0295596048235893,-0.0232836231589317,0.000450757070211694,0,
00:00:00.836,0.00126679358072579,-0.00200116145424545,0.00961106643080711,0,
00:00:00.84,0.0534299723803997,0.0278748814016581,0.0101078096777201,0,
00:00:00.844,0.0051902630366385,0.00265928311273456,-0.0196483414620161,0,
00:00:00.848,-0.0309967342764139,-0.0153311621397734,-0.0015845388406887698,0,
00:00:00.852,-0.0168835110962391,-0.0038492679595947296,0.0146760791540146,0,
00:00:00.856,0.0112274959683418,8.00197158241645e-05,-0.00033010533661581603,0,
00:00:00.86,-0.00405486579984427,-0.00509245274588466,-0.0450409017503262,0,
00:00:00.864,-0.0173554737120867,-0.005344397854059929,0.0196756720542908,0,
00:00:00.868,-0.000468358426587656,0.0114559344947338,0.0380371958017349,0,
00:00:00.872,0.0388092286884785,0.012708199210465001,-0.0122035257518291,0,
00:00:00.876,0.0029644004534930004,-0.0027306170668453,-0.0239092372357845,0,
00:00:00.88,0.0631354749202728,0.00972909294068813,0.000671636662445962,0,
00:00:00.884,-0.0553596056997776,-0.0060467035509645896,-0.0148129826411605,0,
00:00:00.888,-0.11622764915227901,-0.0299633536487818,0.0239718724042177,0,
00:00:00.892,0.0893310680985451,0.0013233305653557199,0.0447718501091003,0,
00:00:00.896,0.0402827896177769,0.0352782234549522,-0.022241173312067996,0,
00:00:00.9,-0.0162088386714458,-0.0005647834623232481,-0.0325836464762688,0,
00:00:00.904,-0.0554057098925114,-0.0258625503629446,0.00194238976109773,0,
00:00:00.908,-0.00161048548761755,-0.0141287725418806,0.0074804262258112405,0,
00:00:00.912,0.0247135702520609,0.0177561603486538,-0.00459327641874552,0,
00:00:00.916,0.0227509662508965,0.0110955787822604,-0.0028452854603529,0,
00:00:00.92,0.00919740181416273,0.0010577866341918698,-7.43477867217734e-05,0,
00:00:00.924,0.0047895838506519794,-0.000439516443293542,0.00881224125623703,0,
00:00:00.928,-0.0195668581873178,-0.00688393786549568,0.0207180269062519,0,
00:00:00.932,-0.0052616698667407,0.00268129166215658,0.00369135802611709,0,
00:00:00.936,-0.00126449624076486,0.00108165817800909,-0.00916150584816933,0,
00:00:00.94,-0.00676412926986814,0.00232780538499355,-0.0291968826204538,0,
00:00:00.944,-0.0172186009585857,-0.00667416583746672,-0.022015318274497996,0,
00:00:00.948,-0.00442693382501602,-0.0133138289675117,0.0342364050447941,0,
00:00:00.952,0.0341250896453857,0.00330557604320347,0.0246895868331194,0,
00:00:00.956,0.0343366153538227,0.0133090056478977,-0.017559977248311,0,
00:00:00.96,-0.0435313284397125,-0.0070464960299432295,0.006366066634655,0,
00:00:00.964,0.00149631139356643,0.0131361847743392,-0.0041573951020836795,0,
00:00:00.968,0.0267335083335638,0.00627307128161192,-0.0393074713647366,0,
00:00:00.972,-0.00318346451967955,-0.00200407020747662,0.0195401553064585,0,
00:00:00.976,-0.0156429000198841,-0.0189830772578716,0.00869326014071703,0,
00:00:00.98,-0.0282928254455328,-0.000878552440553904,0.0263382401317358,0,
00:00:00.984,-0.0289278347045183,0.0058596711605787295,-0.0121714863926172,0,
00:00:00.988,0.0350035429000854,0.0031833641696721302,0.00551556563004851,0,
00:00:00.992,0.0405532047152519,-0.00661074137315154,0.0075115277431905296,0,
00:00:00.996,-0.0127633977681398,-0.00224927463568747,-0.0409760922193527,0,
00:00:01,-0.0115155465900898,0.00721157249063253,-0.000517180538736284,0,
00:00:01.004,0.0415706783533096,0.000868454633746296,0.00898430123925209,0,
00:00:01.008,-0.0314353480935097,0.00421359157189727,0.0029117134399712103,0,
00:00:01.012,-0.0320421457290649,-0.00986317824572325,-0.009743280708789829,0,
00:00:01.016,0.00347155961208045,0.00912971049547195,0.0295198820531368,0,
00:00:01.02,0.025676665827632002,0.00476137921214104,-0.0097499443218112,0,
00:00:01.024,-0.00586624629795551,-0.00703085958957672,0.0152136757969856,0,
00:00:01.028,-0.015007646754384,-0.00642605731263757,0.0050007281824946395,0,
00:00:01.032,0.0038476535119116298,-0.00806938018649817,-0.0126865720376372,0,
00:00:01.036,0.0109450379386544,-0.000443165597971529,-0.0261612739413977,0,
00:00:01.04,0.0209693349897861,0.0181552357971668,-0.00132811209186912,0,
00:00:01.044,0.00287248496897519,0.0138556733727455,-0.0128649603575468,0,
00:00:01.048,-0.0226040873676538,-0.0022645508870482397,0.0361741669476032,0,
00:00:01.052,-0.015868803486228,-0.0179699175059795,0.0109407128766179,0,
00:00:01.056,-0.0142209846526384,-0.0200365725904703,0.0019407223444432,0,
00:00:01.06,0.0588360130786896,0.0195942204445601,-0.0193893779069185,0,
00:00:01.064,-0.0267150849103928,-0.0156020456925035,-0.0270398110151291,0,
00:00:01.068,-0.0205918904393911,0.0120514640584588,0.00946160405874252,0,
00:00:01.072,0.000961138866841793,0.0153454588726163,0.032998263835907,0,
00:00:01.076,0.0195472426712513,0.0048284009099006705,0.0128813842311502,0,
00:00:01.08,0.0007668459438718861,-0.00688853813335299,-0.0130469063296914,0,
00:00:01.084,0.0333817377686501,0.0040228683501482,-0.0383313968777657,0,
00:00:01.088,0.00117918464820832,-0.0105276107788086,0.0052157170139253105,0,
00:00:01.092,-0.0423585399985313,-0.0142418444156647,0.00710402010008693,0,
00:00:01.096,-0.056693259626626996,0.000498761131893843,0.026490330696106002,0,
00:00:01.1,-0.0498910509049892,-0.0105757927522063,0.0191703736782074,0,
00:00:01.104,0.0830898657441139,0.011252261698246,-0.0316344983875752,0,
00:00:01.108,0.13820125162601501,0.0198836885392666,-0.0284215360879898,0,
00:00:01.112,-0.0260611269623041,0.0178921334445477,0.0136326160281897,0,
00:00:01.116,-0.0349873900413513,-0.00845650769770145,0.0011003976687789,0,
00:00:01.12,-0.0842354074120522,-0.0258207581937313,-0.0160174462944269,0,
00:00:01.124,-0.0470603778958321,0.0031261055264622,0.0522248223423958,0,
00:00:01.128,0.0264984145760536,-0.00275589432567358,0.0109968138858676,0,
00:00:01.132,0.0588945671916008,0.00687162578105927,-0.0116106281057,0,
00:00:01.136,0.0378020703792572,0.0146187581121922,-0.0384289883077145,0,
00:00:01.14,-0.008258794434368609,-0.0205673016607761,-0.018242072314023996,0,
00:00:01.144,-0.0314937718212605,-0.0010416463483125,-0.00825839955359697,0,
00:00:01.148,-0.0108719421550632,0.0151436030864716,0.0358849838376045,0,
00:00:01.152,-0.00891754496842623,-0.0141400396823883,0.06289761513471599,0,
00:00:01.156,0.00518780667334795,-0.0113709885627031,-0.0056620417162776,0,
00:00:01.16,0.0309944860637188,0.0209641139954329,-0.0733673498034477,0,
00:00:01.164,-0.0242639966309071,0.00308491848409176,-0.0559289827942848,0,
00:00:01.168,0.00223496137186885,0.0021881787106394802,0.051441065967083,0,
00:00:01.172,-0.0164231788367033,-0.00820836238563061,0.0707654356956482,0,
00:00:01.176,0.0159798841923475,0.00371842924505472,-0.0171003453433514,0,
00:00:01.18,0.0990616157650948,0.00328295188955963,-0.0450964197516441,0,
00:00:01.184,-0.0846006870269775,-0.00683446088805795,0.0105493888258934,0,
00:00:01.188,-0.07122860103845599,-0.00567693868651986,0.00101339956745505,0,
00:00:01.192,0.0147410519421101,-0.00318927317857742,0.009810289368033409,0,
00:00:01.196,0.0489313676953316,0.00852185674011707,-0.00909412372857332,0,
00:00:01.2,-0.0151022989302874,-0.00304539105854928,7.10038948454894e-05,0,
00:00:01.204,0.0181763097643852,0.00122789002489299,0.00783114973455668,0,
00:00:01.208,0.0349672548472881,0.0214393101632595,-0.011178937740623998,0,
00:00:01.212,-0.0174741167575121,-0.0137448329478502,0.0386589765548706,0,
00:00:01.216,-0.04662149772048,-0.0268398765474558,-0.0186506789177656,0,
00:00:01.22,-0.0217431113123894,-0.0026714471168816103,-0.0174703542143106,0,
00:00:01.224,0.0728700906038284,0.0262319128960371,-0.0174581874161959,0,
00:00:01.228,0.0202096588909626,0.0249324310570955,0.00164106232114136,0,
00:00:01.232,-0.0393380783498287,-0.0103285107761621,0.0201506577432156,0,
00:00:01.236,-0.0392401404678822,-0.0233668088912964,-0.00216637621633708,0,
00:00:01.24,-0.0141644198447466,-0.00033297680784016804,0.0014719715109095,0,
00:00:01.244,0.0264229383319616,0.00400488870218396,0.0038737456779927,0,
00:00:01.248,0.0401589907705784,0.0043484834022820005,-0.0136550674214959,0,
00:00:01.252,-0.0013804734917357599,-0.0122585520148277,0.0265290383249521,0,
00:00:01.256,0.0017935940995812399,-0.000880979467183352,0.0262827444821596,0,
00:00:01.26,-0.0218869224190712,0.00911763310432434,-0.0332028716802597,0,
00:00:01.264,-0.0150649631395936,0.0101348971948028,-0.0398940145969391,0,
00:00:01.268,-0.0180237330496311,0.00489244796335697,0.0193387661129236,0,
00:00:01.272,0.0253598242998123,-0.00762197421863675,0.0317549742758274,0,
00:00:01.276,0.0409491881728172,0.00286347791552544,-0.0306261107325554,0,
00:00:01.28,-0.0123100131750107,-0.00873964559286833,-0.0178043358027935,0,
00:00:01.284,-0.030676543712615998,-0.0111021194607019,0.00902376137673855,0,
00:00:01.288,-0.0363737493753433,-0.0117039252072573,0.0272829495370388,0,
00:00:01.292,0.0832114294171333,0.0266221910715103,0.00445910589769483,0,
00:00:01.296,0.00540719367563725,0.0145827066153288,0.0201842021197081,0,
00:00:01.3,-0.0897984728217125,-0.0227053537964821,-0.00690609915181994,0,
00:00:01.304,0.0150732938200235,0.0008981939172372221,-0.0265156924724579,0,
00:00:01.308,0.0234766807407141,0.0162744596600533,-0.0139346281066537,0,
00:00:01.312,0.0282334312796593,-0.00668561877682805,-0.0230571385473013,0,
00:00:01.316,0.007076181005686521,-0.00468795653432608,0.0104914316907525,0,
00:00:01.32,-0.0107419844716787,0.00287152547389269,0.0378634817898273,0,
00:00:01.324,-0.0243402160704136,-0.00531257875263691,0.0191969126462936,0,
00:00:01.328,-0.00542147597298026,-0.025186013430357004,-0.0129411248490214,0,
00:00:01.332,0.0181600451469421,0.0233312360942364,-0.0149387307465076,0,
00:00:01.336,-0.0430984050035477,0.0190674141049385,-0.0174889005720615,0,
00:00:01.34,-0.0127499792724848,-0.0229205265641212,0.0247034095227718,0,
00:00:01.344,0.0681840926408768,0.0017768209800124199,-0.0122783975675702,0,
00:00:01.348,0.0357031188905239,0.0120340073481202,0.00689227040857077,0,
00:00:01.352,-0.00900432281196117,0.00508468830958009,-0.0205154828727245,0,
00:00:01.356,0.008191024884581571,0.00303873419761658,-0.0032287905924022198,0,
00:00:01.36,-0.0722272917628288,-0.00641314219683409,0.0153473215177655,0,
00:00:01.364,-0.0564634390175343,-0.0225668698549271,0.014197064563632,0,
00:00:01.368,0.0768569558858871,0.0046578818000853105,0.0072172163054347,0,
00:00:01.372,0.0128630762919784,0.0145497797057033,0.0197513084858656,0,
00:00:01.376,-0.0190995596349239,-0.0225729998201132,-0.0343231968581676,0,
00:00:01.38,-0.0409105271100998,0.008308215998113159,-0.0364826321601868,0,
00:00:01.384,0.0260484609752893,0.0112422769889235,0.0278983451426029,0,
00:00:01.388,0.0497944913804531,0.0068307453766465204,-0.000602568499743938,0,
00:00:01.392,0.009997650049626829,0.00898665003478527,0.00223679677583277,0,
00:00:01.396,-0.00394755927845836,-0.0072279847227037,0.0240213684737682,0,
00:00:01.4,-0.0449388474225998,-0.0212656557559967,0.00565214501693845,0,
00:00:01.404,-0.00256094709038734,-0.0033582255709916397,-0.0308348834514618,0,
00:00:01.408,0.008767493069171909,0.0150700751692057,-0.0239346269518137,0,
00:00:01.412,-0.00573879247531295,0.015139945782721001,0.0110987732186913,0,
00:00:01.416,-0.00323156686499715,-0.019404174759984,0.0336432829499245,0,
00:00:01.42,0.0194504875689745,-0.00350380758754909,0.00682097766548395,0,
00:00:01.424,0.00278532435186207,0.00728611275553703,-0.0112464474514127,0,
00:00:01.428,-0.0152847655117512,-0.00410126242786646,-0.012813369743526001,0,
00:00:01.432,-0.0124917132779956,0.00912987161427736,-0.0108538018539548,0,
00:00:01.436,0.0312423165887594,-0.00909803900867701,0.00204764539375901,0,
00:00:01.44,0.02693453989923,0.006047082133591179,-0.0134209096431732,0,
00:00:01.444,-0.0391913056373596,-0.00261273398064077,0.0262813568115234,0,
00:00:01.448,-0.0207655690610409,0.00632646074518561,0.04837195947766299,0,
00:00:01.452,-0.0135910706594586,-0.00743599701672792,-0.0431216433644295,0,
00:00:01.456,0.015634061768651,-0.004815077409148221,-0.0160128213465214,0,
00:00:01.46,0.0355906039476395,0.00289911613799632,0.0042037917301058795,0,
00:00:01.464,0.0029967688024044,-0.0022233189083635803,-0.0144612211734056,0,
00:00:01.468,-0.0142526021227241,0.0101514616981149,-0.0193062033504248,0,
00:00:01.472,0.00975646451115608,0.0153368394821882,0.0547589361667633,0,
00:00:01.476,-0.0163040906190872,-0.0163874235004187,0.0279166698455811,0,
00:00:01.48,-0.0463067218661308,-0.0203669331967831,-0.027810625731945,0,
00:00:01.484,0.004882442764937879,0.00327756581827998,-0.00902555417269468,0,
00:00:01.488,0.0293520241975784,0.00862573366612196,-0.0169834401458502,0,
00:00:01.492,0.10630536824464802,0.0165363606065512,-0.0228440929204226,0,
00:00:01.496,-0.0194343663752079,0.00455065630376339,0.00184409797657281,0,
00:00:01.5,-0.0866551250219345,-0.0127415843307972,0.0524333566427231,0,
00:00:01.504,-0.0582459457218647,-0.008147804066538809,-0.0050400476902723295,0,
00:00:01.508,0.0297668967396021,-0.000142677381518297,-0.0235643573105335,0,
00:00:01.512,0.0552646666765213,0.00622127112001181,0.0038724825717508797,0,
00:00:01.516,-0.00484444759786129,-0.008297186344861979,0.0114239556714892,0,
00:00:01.52,-0.008096041157841679,-0.000507751537952572,0.00264603062532842,0,
00:00:01.524,-0.007779711857438091,-0.0016296765534207199,-0.0281694270670414,0,
00:00:01.528,0.0169683899730444,0.0297254975885153,0.0226569529622793,0,
00:00:01.532,-0.0271867383271456,-0.003914370201528071,-0.000778952671680599,0,
00:00:01.536,0.0139023941010237,-0.02038305811584,-0.00136499723885208,0,
00:00:01.54,0.0222744103521109,-0.00899432599544525,0.00346944900229573,0,
00:00:01.544,-0.0159395225346088,0.0017613570671528602,-0.0105783734470606,0,
00:00:01.548,-0.00317131262272596,0.0068162833340466,0.00211257534101605,0,
00:00:01.552,0.00109475874342024,0.00636493368074298,-0.0397200956940651,0,
00:00:01.556,-0.0114730149507523,0.000970520195551217,0.0347112007439137,0,
00:00:01.56,0.0135398088023067,-0.00255765882320702,0.0497424304485321,0,
00:00:01.564,-0.0266639646142721,0.00535914022475481,-0.0224561467766762,0,
00:00:01.568,0.0171879138797522,-0.000996709102764726,-0.0180413965135813,0,
00:00:01.572,0.0299968551844358,0.00671674450859427,-0.0152171012014151,0,
00:00:01.576,-0.00116005272138864,-0.0151639897376299,-0.0199871752411127,0,
00:00:01.58,-0.0323612652719021,-0.0241604074835777,0.0215928982943296,0,
00:00:01.584,-0.0242626443505287,0.0211894996464252,0.0549058802425861,0,
00:00:01.588,0.0424094013869762,0.0211831033229828,-0.0364214107394218,0,
00:00:01.592,0.0212828256189823,0.00406381860375404,-0.0275048725306988,0,
00:00:01.596,-0.0347056463360786,-0.0192325804382563,0.00103806331753731,0,
00:00:01.6,0.000816534855403006,-0.00818698387593031,0.0046021509915590295,0,
00:00:01.604,-0.0167491119354963,0.00658772280439734,0.0219269171357155,0,
00:00:01.608,-0.0159515868872404,0.00261056167073548,0.0159635357558727,0,
00:00:01.612,0.0428218990564346,-0.0106589775532484,0.0206885188817978,0,
00:00:01.616,0.0229274537414312,0.000348474364727736,-0.0368976294994354,0,
00:00:01.62,-0.00896742474287748,0.0152931585907936,-0.0438839644193649,0,
00:00:01.624,-0.0166870839893818,-0.000832736375741661,0.0191364083439112,0,
00:00:01.628,-0.0012135629076510698,0.000864667177665979,0.00332234380766749,0,
00:00:01.632,-0.00877253897488117,-0.0013812453253194698,0.00435584224760532,0,
00:00:01.636,-0.0110040698200464,0.00329165207222104,0.0152520844712853,0,
00:00:01.64,0.0031674026977270803,-0.00653347279876471,-0.00368573400191963,0,
00:00:01.644,0.0013690277701243802,-0.0164886936545372,0.0233758445829153,0,
00:00:01.648,0.0227282624691725,0.00592466257512569,-0.0024691792204976104,0,
00:00:01.652,0.00852251145988703,0.0162013936787844,-0.0405487455427647,0,
00:00:01.656,-0.0009154436411336061,-0.00222086696885526,-0.0036905554588884102,0,
00:00:01.66,0.0104102985933423,0.0035549271851778,0.03512711822986599,0,
00:00:01.664,-0.0646483898162842,-0.016171108931303,-0.00454489374533296,0,
00:00:01.668,-0.00398134579882026,-0.00202773907221854,-0.0217357948422432,0,
00:00:01.672,0.0361478924751282,0.0204009506851435,0.027106324210762995,0,
00:00:01.676,0.0231962874531746,0.00126612791791558,-0.0143377501517534,0,
00:00:01.68,-0.00120905367657542,-0.0219831317663193,-0.0105949230492115,0,
00:00:01.684,-0.00393670424818993,0.0062315007671713794,0.0017905958229675898,0,
00:00:01.688,-0.0132051846012473,0.00796567182987928,-0.00406106421723962,0,
00:00:01.692,-0.0196478255093098,-0.0104516735300422,0.0131182558834553,0,
00:00:01.696,0.00606294767931104,-0.00132454873528332,0.041298720985651,0,
00:00:01.7,0.00765581894665957,0.0281759798526764,-0.0384641252458096,0,
00:00:01.704,0.00333579373545945,-0.0113450633361936,-0.0236588716506958,0,
00:00:01.708,0.0145942382514477,-0.0125199854373932,0.009374937973916529,0,
00:00:01.712,0.0144123351201415,0.0029392729047685896,0.0106377908959985,0,
00:00:01.716,-0.0455740913748741,-0.0125680631026626,-0.0109986746683717,0,
00:00:01.72,0.0260073803365231,-0.00209604110568762,0.0306019820272923,0,
00:00:01.724,0.0178677532821894,0.0103479251265526,-0.00337901245802641,0,
00:00:01.728,-0.0384777300059795,0.0210636369884014,-0.023471724241972,0,
00:00:01.732,-0.0272538810968399,-0.000806427618954331,-0.0060845180414617105,0,
00:00:01.736,0.0214452371001244,-0.0154677089303732,0.0116381477564573,0,
00:00:01.74,0.007694491650909191,-0.00470140110701323,0.0171256363391876,0,
00:00:01.744,0.0617192946374416,0.0133774438872933,-0.0212373845279217,0,
00:00:01.748,0.003923956770449879,-0.0029202401638031,-0.007015100214630371,0,
00:00:01.752,-0.0692268759012222,-0.017731498926878,0.0345365032553673,0,
00:00:01.756,-0.0207972209900618,-0.0011745046358555599,-0.009935464709997179,0,
00:00:01.76,0.0154939871281385,0.00959906820207834,-0.0202279780060053,0,
00:00:01.764,0.0132834641262889,0.0104123540222645,-0.00349251576699317,0,
00:00:01.768,0.022653141990304004,0.000913544849026948,-0.005053727421909571,0,
00:00:01.772,-0.0026408217381686,-0.0054891100153327,0.0355318449437618,0,
00:00:01.776,-0.00556594505906105,-0.00189182907342911,-0.0196911301463842,0,
00:00:01.78,-0.0341532565653324,-0.00272488035261631,-0.00133104366250336,0,
00:00:01.784,0.0203496273607016,0.0163210965692997,0.005961298942565921,0,
00:00:01.788,0.0030181282199919198,-0.0162770133465528,0.000803944247309119,0,
00:00:01.792,0.007061894983053209,-0.0154659366235137,0.019203981384634996,0,
00:00:01.796,0.0251749344170094,0.0114275179803371,-0.0299560222774744,0,
00:00:01.8,-0.0198782738298178,0.0100229131057858,-0.0180076975375414,0,
00:00:01.804,-0.0487448386847973,-9.50544053921476e-05,0.020751116797328,0,
00:00:01.808,0.0655471459031105,-0.0035252945963293297,0.0102654024958611,0,
00:00:01.812,0.0328856408596039,0.0138218803331256,0.00587565312162042,0,
00:00:01.816,-0.101338021457195,-0.00395273137837648,-0.0110968220978975,0,
00:00:01.82,-0.009092484600841999,-0.017617492005229,0.00288387131877244,0,
00:00:01.824,0.0564193166792393,0.00530508626252413,-0.0036216129083186397,0,
00:00:01.828,-0.00735193351283669,-0.0010381113970652199,-0.00350425532087684,0,
00:00:01.832,0.00557743757963181,0.00389949209056795,-0.00509329093620181,0,
00:00:01.836,0.0474739447236061,-0.00646310485899448,-0.0071924296207726,0,
00:00:01.84,-0.0611345395445824,-0.00324983918108046,0.0131406402215362,0,
00:00:01.844,-0.0122090829536319,0.0208891984075308,0.020034147426485998,0,
00:00:01.848,0.009830873459577559,-0.00453858030959964,0.00149974494706839,0,
00:00:01.852,0.0175994336605072,-0.005870593711733821,-0.016370328143238997,0,
00:00:01.856,0.0019111328292638102,0.000651605136226863,0.0025594013277441302,0,
00:00:01.86,0.00155793968588114,-0.00453365128487349,-0.0221174079924822,0,
00:00:01.864,0.00384422414936125,0.00212367018684745,-0.00697928667068481,0,
00:00:01.868,-0.0103475209325552,-0.008850565180182459,0.0160669665783644,0,
00:00:01.872,-0.0127782532945275,-0.0028403331525623803,0.0198201555758715,0,
00:00:01.876,-0.00431426987051964,0.0189686994999647,0.0126107223331928,0,
00:00:01.88,0.018549632281064998,0.00989685393869877,-0.015864284709096,0,
00:00:01.884,0.0123979263007641,-0.0115689979866147,-0.0236481782048941,0,
00:00:01.888,-0.0146131655201316,-0.0101036345586181,0.0129443667829037,0,
00:00:01.892,-0.00239751837216318,0.00378148397430778,0.00202633277513087,0,
00:00:01.896,-0.0205574594438076,0.00562053080648184,0.0137144383043051,0,
00:00:01.9,0.007361261639744041,0.00231787003576756,-0.022594902664423,0,
00:00:01.904,0.0197770874947309,-0.009617782197892671,-0.00316064595244825,0,
00:00:01.908,-0.00542209111154079,-0.00761557789519429,0.00201323768123984,0,
00:00:01.912,0.09170916676521301,0.00111188110895455,-0.011615727096796001,0,
00:00:01.916,-0.0346698388457298,0.0063974983058869795,0.0560319498181343,0,
00:00:01.92,-0.14713545143604298,0.0063645001500845,-0.00921969767659903,0,
00:00:01.924,-0.0114584835246205,0.007278555072844029,-0.0193460267037153,0,
00:00:01.928,0.0671640411019325,-0.00025656440993771,-0.0187919866293669,0,
00:00:01.932,0.0709568187594414,-0.00979367177933455,-0.000848125608172268,0,
00:00:01.936,0.0382824912667274,-0.00642870087176561,0.00234422832727432,0,
00:00:01.94,-0.0148151377215981,0.00371013442054391,-0.0016405739588663,0,
00:00:01.944,-0.0645590573549271,0.0035078143700957303,0.0314968675374985,0,
00:00:01.948,-0.0324515290558338,0.000763241376262158,-0.0052425698377192,0,
00:00:01.952,0.000509113015141338,-0.00945084914565086,-0.022598734125495,0,
00:00:01.956,0.00394578650593758,0.00432488135993481,0.0235132556408644,0,
00:00:01.96,0.0421491600573063,0.00771876471117139,-0.0139489406719804,0,
00:00:01.964,0.0256205871701241,0.004501907620579,-0.0120672723278403,0,
00:00:01.968,-0.011749436147511,0.0037853892426937797,0.00573971029371023,0,
00:00:01.972,-0.0242650546133518,-0.0179011896252632,0.0054416130296886,0,
00:00:01.976,-0.00526500912383199,-0.00999782513827086,-0.00287829502485693,0,
00:00:01.98,0.00473300507292151,-0.00589811289682984,0.0212985370308161,0,
00:00:01.984,-0.0229560527950525,0.0105091361328959,-0.013994013890624,0,
00:00:01.988,0.0201392974704504,0.039379145950079,-0.0168909803032875,0,
00:00:01.992,0.0132018839940429,-0.000111767156340647,0.004066860768944029,0,
00:00:01.996,-0.0265587996691465,-0.0367723181843758,0.019458681344986,0,
00:00:02,0.0355485863983631,-0.0020990348421037197,-0.0184444803744555,0,
00:00:02.004,-0.00343902409076691,-0.0082708029076457,0.0189687497913837,0,
00:00:02.008,-0.009929484687745571,0.0142127424478531,0.000333238218445331,0,
00:00:02.012,0.0588219612836838,0.0267883948981762,-0.0284142252057791,0,
00:00:02.016,-0.07617130130529401,-0.0107110952958465,0.0144994426518679,0,
00:00:02.02,-0.0599531792104244,-0.0217052772641182,0.0258261431008577,0,
00:00:02.024,0.0274515617638826,-0.00772044900804758,-0.0023063737899065,0,
00:00:02.028,0.0598675422370434,0.0143294157460332,-0.0392798185348511,0,
00:00:02.032,-9.52560367295519e-05,0.0113928439095616,-0.0060201259329915,0,
00:00:02.036,-0.014659471809863997,-9.95050140772946e-06,0.0132924094796181,0,
00:00:02.04,0.0258296560496092,0.00575544219464064,0.0120370490476489,0,
00:00:02.044,-0.000701286131516099,-0.0247563235461712,0.008939989842474459,0,
00:00:02.048,-0.00026919913943857003,-0.000545627495739609,-0.0113458083942533,0,
00:00:02.052,-0.0331653393805027,0.003315624082461,0.007401492912322279,0,
00:00:02.056,-0.00704071531072259,0.0125777767971158,-0.00212369137443602,0,
00:00:02.06,0.007103180512785909,0.0100359162315726,0.00725149782374501,0,
00:00:02.064,-0.0233061946928501,-0.00616926327347755,-0.0071619148366153206,0,
00:00:02.068,-0.0162973757833242,-0.0154890045523643,-0.0140561917796731,0,
00:00:02.072,0.0741483420133591,-0.0037899857852608,0.00488205067813396,0,
00:00:02.076,0.0111983716487885,0.0125396447256207,0.00857241172343493,0,
00:00:02.08,-0.0236719697713852,-0.0077012772671878294,0.000588731898460537,0,
00:00:02.084,0.0138817140832543,0.0100222891196609,-0.0213664285838604,0,
00:00:02.088,-0.0036959992721676796,0.00558447977527976,0.0151836005970836,0,
00:00:02.092,-0.0323767177760601,-0.00846936646848917,0.0158159453421831,0,
00:00:02.096,-0.0642163455486298,-0.0104749547317624,0.0187735892832279,0,
00:00:02.1,0.0728268474340439,0.0179494936019182,-0.0320261120796204,0,
00:00:02.104,0.014268958941102,-0.0156510453671217,-0.0399846993386745,0,
00:00:02.108,-0.015959344804287,-0.00162289664149284,0.0249755922704935,0,
00:00:02.112,0.00231573218479753,0.0201674904674292,0.0246201977133751,0,
00:00:02.116,0.000423682329710573,0.0006294909981079401,0.0105762714520097,0,
00:00:02.12,-0.00530871190130711,-0.0163816120475531,-0.0134040908887982,0,
00:00:02.124,0.0150923691689968,-0.0104187224060297,-0.0143548343330622,0,
00:00:02.128,-0.007023727055639029,0.00666662864387035,0.00446794601157308,0,
00:00:02.132,-0.00280243880115449,0.0178686436265707,0.00295225903391838,0,
00:00:02.136,-0.0010541714727878599,0.00172241637483239,-0.0116483438760042,0,
00:00:02.14,-0.0044808876700699295,-0.0103391632437706,0.00722501566633582,0,
00:00:02.144,0.0101770991459489,-0.00709617650136352,0.0213688258081675,0,
00:00:02.148,0.00165861647110432,0.00350148300640285,0.000204178111744113,0,
00:00:02.152,-0.00210750731639564,-0.000529207405634224,-0.0172210969030857,0,
00:00:02.156,-0.0154250478371978,-0.0013449719408527,-0.0385652557015419,0,
00:00:02.16,0.0158340074121952,0.0185000244528055,0.033097792416810996,0,
00:00:02.164,-0.0136757716536522,-0.0103213638067245,0.0360663868486881,0,
00:00:02.168,-0.0399069711565971,-0.0188339464366436,-0.0170639250427485,0,
00:00:02.172,0.0616519451141357,0.007537327241152521,-0.0102072628214955,0,
00:00:02.176,0.00640926556661725,0.00847887247800827,-0.00713456468656659,0,
00:00:02.18,0.0362174585461617,0.0129422089084983,-0.0118397837504745,0,
00:00:02.184,-0.0232001654803753,0.000590045179706067,-0.0355338156223297,0,
00:00:02.188,-0.0633611306548119,-0.0169864427298307,0.06310024112462999,0,
00:00:02.192,-0.0159734953194857,-0.00611388310790062,0.0203130673617125,0,
00:00:02.196,0.0050096553750336205,-0.00531440414488316,-0.0178207531571388,0,
00:00:02.2,0.059585202485323,0.0160668138414621,0.00919593498110771,0,
00:00:02.204,-0.0366321466863155,-0.00759072555229068,-0.023787610232830003,0,
00:00:02.208,-0.00439160689711571,-0.0028263954445719697,0.017355564981698997,0,
00:00:02.212,0.07537407428026201,0.0214620400220156,-0.0563999488949776,0,
00:00:02.216,0.0076561449095606795,0.00167355430312455,-0.00540707679465413,0,
00:00:02.22,-0.0553275570273399,-0.0103271724656224,0.0430878959596157,0,
00:00:02.224,-0.0284398663789034,-0.00914729665964842,0.0144406957551837,0,
00:00:02.228,-0.0038807911332696702,-0.0012335182400420302,-0.00506675103679299,0,
00:00:02.232,0.00635942257940769,0.00394407985731959,0.011980788782238997,0,
00:00:02.236,0.0135103976354003,-0.0141284326091409,-0.00616876780986786,0,
00:00:02.24,0.0249735545367002,0.0117775471881032,-0.0135829700157046,0,
00:00:02.244,0.0110015394166112,0.0284856930375099,-0.00642029801383615,0,
00:00:02.248,-0.0303330160677433,-0.0122798169031739,0.0179159659892321,0,
00:00:02.252,-0.0376500897109509,-0.0374818742275238,-0.0297925043851137,0,
00:00:02.256,0.0297313313931227,0.0143195167183876,0.000302586209727451,0,
00:00:02.26,0.0469406172633171,0.0144298551604152,0.0184603277593851,0,
00:00:02.264,-0.0152071854099631,0.0149140758439898,0.00120780791621655,0,
00:00:02.268,-0.0167318042367697,0.00558256171643734,-0.00453246710821986,0,
00:00:02.272,0.0120177464559674,-0.0107799088582397,0.0195016898214817,0,
00:00:02.276,-0.0456775948405266,-0.055806640535593,0.0198240261524916,0,
00:00:02.28,-0.0230000130832195,0.00965758226811886,-0.0446830876171589,0,
00:00:02.284,0.00503026973456144,0.0282896906137466,-0.0250017233192921,0,
00:00:02.288,0.0485550761222839,0.026976341381669,0.0191170237958431,0,
00:00:02.292,0.0533046647906303,0.0159840118139982,0.0144222769886255,0,
00:00:02.296,0.0288012865930796,-0.0230649393051863,-0.00481493165716529,0,
00:00:02.3,-0.0620479322969913,-0.0219390336424112,0.0274917036294937,0,
00:00:02.304,-0.0804813653230667,-0.0204900000244379,0.0137515487149358,0,
00:00:02.308,0.0106046171858907,0.0114961434155703,-0.0405864380300045,0,
00:00:02.312,0.0325035341084003,0.0180971436202526,-0.0115917418152094,0,
00:00:02.316,0.0337629169225693,0.00898075848817825,0.00417641364037991,0,
00:00:02.32,-0.015400811098516001,-0.0219237618148327,-0.0202690605074167,0,
00:00:02.324,-0.0136493043974042,0.00724301300942898,0.0176400262862444,0,
00:00:02.328,0.0308463200926781,0.0245710257440805,0.0325920544564724,0,
00:00:02.332,0.00747922714799643,-0.0104064540937543,0.0116356331855059,0,
00:00:02.336,-0.0273100938647985,-0.00612243358045816,-0.0197218991816044,0,
00:00:02.34,-0.0313295722007751,-0.0166187155991793,-0.0137407472357154,0,
00:00:02.344,0.0273540057241917,-0.00715829944238067,-0.0160714462399483,0,
00:00:02.348,0.0291073899716139,0.0249796602874994,0.0210906118154526,0,
00:00:02.352,-0.0137498658150434,-0.0101180756464601,0.0189805869013071,0,
00:00:02.356,-0.0147307645529509,0.00458250474184752,-0.0522457994520664,0,
00:00:02.36,-0.0334202647209167,0.00906998571008444,0.0198690444231033,0,
00:00:02.364,0.0146581986919045,0.0030843543354421897,0.0244523696601391,0,
00:00:02.368,0.0341204628348351,-0.0116964438930154,0.0116306077688932,0,
00:00:02.372,0.00623065093532205,-0.00446434505283833,-0.0133163090795279,0,
00:00:02.376,-0.0300582256168127,-0.0216716788709164,-0.015575765632093,0,
00:00:02.38,0.00153909181244671,0.0144699104130268,-0.00565074430778623,0,
00:00:02.384,0.0402135662734509,0.0260861981660128,-0.0072931544855237,0,
00:00:02.388,-0.009149805642664429,0.00833966303616762,-0.00251072319224477,0,
00:00:02.392,-0.0357503555715084,-0.0209382455796003,0.0329042747616768,0,
00:00:02.396,0.008095648139715191,-0.0169106125831604,0.00686518754810095,0,
00:00:02.4,-0.00060346513055265,0.0111659439280629,-0.0288621131330729,0,
00:00:02.404,-0.0180048830807209,0.00955175701528788,0.00412974134087563,0,
00:00:02.408,0.03754573315382,-0.0010949841234833,0.0107614127919078,0,
00:00:02.412,0.00266663706861436,-0.0171748865395784,0.0220873393118382,0,
00:00:02.416,-0.0112721901386976,0.0288851726800203,-0.0339697226881981,0,
00:00:02.42,-0.0107835503295064,-0.0151028363034129,-0.0131286671385169,0,
00:00:02.424,0.00826910231262445,-0.0227029267698526,0.00587004516273737,0,
00:00:02.428,0.00687062181532383,0.014477264136076,0.00464083440601826,0,
00:00:02.432,-0.0247155614197254,0.0018781197723001198,0.0198807995766401,0,
00:00:02.436,0.0027304559480398898,0.0112269045785069,0.01774026080966,0,
00:00:02.44,0.020112531259656,0.0130973719060421,-0.0410102903842926,0,
00:00:02.444,-0.0193619411438704,-0.0233467426151037,-2.13900239032228e-05,0,
00:00:02.448,0.00756674446165562,-0.0198174584656954,0.0016441475600004198,0,
00:00:02.452,0.0270977113395929,0.0319330580532551,0.0229533948004246,0,
00:00:02.456,0.0528334267437458,0.0154939731582999,0.00163004221394658,0,
00:00:02.46,-0.0328517705202103,-0.0208257120102644,-0.0168892033398151,0,
00:00:02.464,-0.0779703631997108,-9.20453476283001e-06,-0.0219305772334337,0,
00:00:02.468,-0.0552100986242294,-0.0305480770766735,0.0321796424686909,0,
00:00:02.472,0.0269118491560221,0.00836583320051432,0.0119231892749667,0,
00:00:02.476,0.0586144812405109,0.0283917486667633,-0.0248706247657537,0,
00:00:02.48,0.0292652323842049,0.0063939387910068,-0.0199289917945862,0,
00:00:02.484,0.0591981001198292,-0.007868051528930659,0.0349850207567215,0,
00:00:02.488,-0.05223149061203,-0.0233861617743969,0.00638282764703035,0,
00:00:02.492,-0.0493091121315956,0.0218216776847839,-0.0097083393484354,0,
00:00:02.496,-0.0017798467306420198,0.00604539830237627,-0.0037201512604951898,0,
00:00:02.5,0.0219014938920736,-0.0160087700933218,-0.00803434941917658,0,
00:00:02.504,0.0102101229131222,-0.0071667144075036,-0.0118151502683759,0,
00:00:02.508,-0.0143230594694614,0.00420645158737898,-0.00273381941951811,0,
00:00:02.512,-0.0266216062009335,0.0147214019671082,0.0290465299040079,0,
00:00:02.516,0.0226204060018063,-0.0122283147647977,0.0148316007107496,0,
00:00:02.52,0.020542012527585,0.008118987083435059,-0.0029419311322271802,0,
00:00:02.524,0.00430605420842767,-0.0017769652185961602,-0.0247861687093973,0,
00:00:02.528,-0.0285666231065989,-0.0134935695677996,-0.0396492704749107,0,
00:00:02.532,0.00269372388720512,0.0105806216597557,0.0266034863889217,0,
00:00:02.536,0.0110527137294412,0.0108535960316658,0.0275581944733858,0,
00:00:02.54,-0.0073154140263795905,-0.00757870450615883,0.00875375047326088,0,
00:00:02.544,-0.00663865730166435,-0.0130039546638727,-0.000561133318115026,0,
00:00:02.548,0.0247744470834732,0.0131021589040756,-0.009591386653482909,0,
00:00:02.552,-0.0127052022144198,0.008141545578837391,-0.0195446200668812,0,
00:00:02.556,0.08394951373338701,0.0103540252894163,0.0154782440513372,0,
00:00:02.56,-0.0417759902775288,-0.0274889841675758,-0.008228973485529421,0,
00:00:02.564,-0.126771554350853,-0.0105356071144342,-0.00749879237264395,0,
00:00:02.568,-0.0468765646219254,-0.0012869859347119901,-0.0166567359119654,0,
00:00:02.572,0.0833436772227287,-0.0102553926408291,0.0334881320595741,0,
00:00:02.576,0.109397046267986,0.0327856056392193,0.007308542262762791,0,
00:00:02.58,0.00493527017533779,0.0262288376688957,-0.0047823530621826605,0,
00:00:02.584,-0.0245064869523048,-0.00620868150144815,-0.0176946707069874,0,
00:00:02.588,-0.0220308396965265,-0.023643622174858995,-0.0136741725727916,0,
00:00:02.592,-0.0312938913702965,-3.3357700885971995e-05,0.0206331890076399,0,
00:00:02.596,-0.0080626467242837,-0.00219763489440084,0.0438556410372257,0,
00:00:02.6,0.00012524134945124399,-0.0138192214071751,-0.0291897058486938,0,
00:00:02.604,-0.00025100787752308,0.00373701634816825,-0.0478918105363846,0,
00:00:02.608,0.00744633376598358,0.0147855672985315,0.0287728551775217,0,
00:00:02.612,0.0168750248849392,-0.00787722785025835,0.0354992970824242,0,
00:00:02.616,0.00403303653001785,-0.0033355460036546,-0.0180571656674147,0,
00:00:02.62,-0.00450488645583391,0.004221918061375621,-0.0299594663083553,0,
00:00:02.624,0.0121736209839582,0.0212115459144115,2.7411324481363398e-05,0,
00:00:02.628,-0.0260307062417269,-0.00326287024654448,0.0239771660417318,0,
00:00:02.632,-0.0299795288592577,-0.0191745646297932,-0.00521196518093348,0,
00:00:02.636,0.0319396629929543,0.0118341613560915,-0.0155821749940515,0,
00:00:02.64,0.0488516986370087,-0.008063072338700291,0.0317262187600136,0,
00:00:02.644,-0.0493644028902054,-0.0155215999111533,-0.0297922007739544,0,
00:00:02.648,0.0267424173653126,0.0072952061891555795,0.0122639192268252,0,
00:00:02.652,0.0344107821583748,0.0169817060232162,0.0238367430865765,0,
00:00:02.656,-0.0611884854733944,-0.00011283648927928899,0.000826990290079266,0,
00:00:02.66,-0.0491986833512783,-0.0113011607900262,-0.007931530475616459,0,
00:00:02.664,0.0166386384516954,0.008067128248512741,-0.0401739664375782,0,
00:00:02.668,0.014166540466248998,-0.00234950799494982,0.008703894913196559,0,
00:00:02.672,0.0219064652919769,-0.0181193668395281,-0.020358769223093997,0,
00:00:02.676,0.0611122027039528,0.0269063599407673,0.0301966555416584,0,
00:00:02.68,-0.00798482354730368,-0.0036723278462886797,0.0595570877194405,0,
00:00:02.684,-0.0887272655963898,-0.0252789035439491,-0.0295746196061373,0,
00:00:02.688,0.000360841426299885,0.0199366454035044,-0.0484780929982662,0,
00:00:02.692,0.0647538378834724,0.0270097479224205,0.006094482261687521,0,
00:00:02.696,-0.0111235529184341,-0.027673190459609,0.0126654440537095,0,
00:00:02.7,-0.0159142203629017,-0.00862418115139008,0.0180463455617428,0,
00:00:02.704,0.0115219308063388,-0.00631124433130026,-0.00634549185633659,0,
00:00:02.708,-0.0037581124342978,0.00680761644616723,-0.0225976929068565,0,
00:00:02.712,-0.0129210548475385,0.0017069682944566,0.025593364611268,0,
00:00:02.716,-0.00428341049700975,0.00791364256292582,0.0161275882273912,0,
00:00:02.72,0.00226286402903497,0.00884511787444353,-0.0309475846588612,0,
00:00:02.724,-0.00539383618161082,-0.0146997906267643,-0.0306556690484285,0,
00:00:02.728,0.0059671038761735,0.00938410591334105,0.0449682213366032,0,
00:00:02.732,0.00580985471606255,-0.0038711379747837795,0.0142949735745788,0,
00:00:02.736,0.0399838052690029,-0.00259130960330367,-0.0298597197979689,0,
00:00:02.74,-0.0251319389790297,-0.0013547195121645901,0.030608557164669,0,
00:00:02.744,-0.0134210679680109,0.00188455719035119,-0.045181043446064,0,
00:00:02.748,0.00572450133040547,0.000686070590745658,0.0126513540744781,0,
00:00:02.752,0.00528810126706958,-0.00901170913130045,0.020766407251358,0,
00:00:02.756,-0.0380396768450737,0.0109907295554876,-0.0180695150047541,0,
00:00:02.76,-0.0378220789134502,-0.0041917385533452,-0.005442100111395121,0,
00:00:02.764,0.0416373498737812,0.00346945063211024,0.007654214743524791,0,
00:00:02.768,0.0642921850085258,0.00385554530657828,0.00467763049528003,0,
00:00:02.772,0.0200453959405422,-0.00529513647779822,0.0247422009706497,0,
00:00:02.776,-0.0584743916988373,-0.0188325718045235,-0.0093496460467577,0,
00:00:02.78,-0.0143143776804209,0.0131756532937288,-0.0101750511676073,0,
00:00:02.784,0.0129417851567268,0.0238111987709999,-0.0305463038384914,0,
00:00:02.788,0.0314667485654354,0.00424258084967732,-0.0025097425095737,0,
00:00:02.792,-0.0251532606780529,-0.024451382458210002,0.0485401675105095,0,
00:00:02.796,-0.0953919440507889,-0.0243979189544916,0.021293431520461998,0,
00:00:02.8,0.0440571457147598,0.009772181510925291,-0.0458003729581833,0,
00:00:02.804,0.0718995332717896,0.016201701015233997,-0.0386788845062256,0,
00:00:02.808,0.0363241396844387,0.022152666002512002,0.0008634121622890231,0,
00:00:02.812,-0.0296660121530294,-0.0130435889586806,0.0488973073661327,0,
00:00:02.816,-0.046076700091362,-0.0229163579642773,0.0328222997486591,0,
00:00:02.82,-0.0145638231188059,0.0109634464606643,-0.0212080553174019,0,
00:00:02.824,0.0104296403005719,-0.00658025592565537,-0.0366876870393753,0,
00:00:02.828,-0.006791928317397829,0.0103132501244545,0.0142891714349389,0,
00:00:02.832,0.0487331412732601,0.0137042151764035,0.0032723301555961396,0,
00:00:02.836,0.0539116039872169,0.0066360784694552396,0.0146698290482163,0,
00:00:02.84,-0.10225508362054801,-0.033847626298666,0.00474589550867677,0,
00:00:02.844,-0.0372399464249611,-0.00576591398566961,-0.024921540170908,0,
00:00:02.848,0.0377988815307617,0.029007600620389,-0.0279849246144295,0,
00:00:02.852,0.0173918530344963,-0.0112892594188452,0.00696384161710739,0,
00:00:02.856,0.0043052192777395205,-0.0122558725997806,0.0124699017032981,0,
00:00:02.86,0.00296274479478598,-0.00991742219775915,0.0376939214766026,0,
00:00:02.864,0.0233765207231045,0.0311205834150314,0.0405454412102699,0,
00:00:02.868,0.0227482132613659,0.0220156088471413,-0.0522591844201088,0,
00:00:02.872,-0.0507520213723183,-0.0287456102669239,-0.0521590635180473,0,
00:00:02.876,-0.0407741777598858,0.00302938278764486,0.0120171122252941,0,
00:00:02.88,0.0225978270173073,0.00170002365484834,0.0246341601014137,0,
00:00:02.884,0.0164072588086128,-0.0233363434672356,0.0068524121306836605,0,
00:00:02.888,0.020738186314702,-0.0011861977400258199,0.0139975342899561,0,
00:00:02.892,0.0104026002809405,0.0290273204445839,-0.0119230225682259,0,
00:00:02.896,-0.0236309040337801,0.00164539180696011,-0.0148732839152217,0,
00:00:02.9,-0.014059099368751002,-0.0168101768940687,0.0139978751540184,0,
00:00:02.904,0.00352682522498071,-0.00836866442114115,0.00130294472910464,0,
00:00:02.908,-0.00957498792558908,0.00090459588682279,-0.0248764436691999,0,
00:00:02.912,0.0386546179652214,0.0163513161242008,0.0280552338808775,0,
00:00:02.916,-0.0251967329531908,0.0150387994945049,0.00697562983259559,0,
00:00:02.92,-0.0518830232322216,-0.016182454302907,-0.0175789650529623,0,
00:00:02.924,0.0339092239737511,-0.0108074592426419,-0.0319321155548096,0,
00:00:02.928,0.0717111602425575,0.008977353572845459,0.0393073000013828,0,
00:00:02.932,0.007722008973360059,0.0070458319969475295,0.0125638358294964,0,
00:00:02.936,-0.0372277833521366,-0.0021996472496539398,0.00332221412099898,0,
00:00:02.94,-0.0346834398806095,-0.0235657449811697,-0.0166624952107668,0,
00:00:02.944,-0.0515479147434235,-0.0253594219684601,-0.0169137269258499,0,
00:00:02.948,0.038159966468811,0.0510814525187016,-0.0216942485421896,0,
00:00:02.952,0.0325519070029259,0.0273277014493942,0.0230569150298834,0,
00:00:02.956,0.0125251738354564,-0.0216297544538975,0.0325546003878117,0,
00:00:02.96,-0.00180294562596828,-0.0201938357204199,-0.013362031430006001,0,
00:00:02.964,-0.0104684056714177,0.00482515059411526,-0.0207647942006588,0,
00:00:02.968,-0.0105332722887397,-0.0128858061507344,0.00866293348371983,0,
00:00:02.972,0.0070989178493619,0.0161148197948933,0.0184140298515558,0,
00:00:02.976,-0.00930032879114151,0.00505510391667485,-0.0134815452620387,0,
00:00:02.98,0.008754340931773191,-0.00928514916449785,-0.0146536398679018,0,
00:00:02.984,0.0170937087386847,-0.0119485976174474,0.0143081480637193,0,
00:00:02.988,-0.0391394160687923,-0.0034651092719286698,0.0204907525330782,0,
00:00:02.992,-0.0163987521082163,0.0173570122569799,0.0038544978015124798,0,
00:00:02.996,0.0382626391947269,0.025506503880023998,-0.0374769754707813,0,
00:00:03,0.0300376750528812,0.00253541488200426,-0.0282025299966335,0,
00:00:03.004,-0.0269985981285572,-0.033974215388298,0.0261027719825506,0,
00:00:03.008,-0.0245588552206755,-0.0254538785666227,0.0133073600009084,0,
00:00:03.012,0.0365656465291977,0.029816523194312997,0.0243246201425791,0,
00:00:03.016,0.0348552539944649,0.0104634379968047,-0.0231975894421339,0,
00:00:03.02,-0.0572765581309795,0.000893940450623631,0.0018391723278909898,0,
00:00:03.024,-0.0334328971803188,-0.0156682003289461,0.0160296373069286,0,
00:00:03.028,0.0200247094035149,-0.000419439980760217,0.00601808214560151,0,
00:00:03.032,0.00129500823095441,0.00241055269725621,-0.0396871715784073,0,
00:00:03.036,0.0177309643477201,0.007863599807024,-0.0219571404159069,0,
00:00:03.04,0.0373992584645748,0.00509993126615882,0.00580700719729066,0,
00:00:03.044,-0.0676881298422813,-0.0145497275516391,0.0329447761178017,0,
00:00:03.048,-0.00701036024838686,0.008154400624334809,0.0552134402096272,0,
00:00:03.052,0.0625068172812462,0.00909178331494331,-0.0605385527014732,0,
00:00:03.056,0.0249417386949062,-0.0063751689158380006,-0.0138653609901667,0,
00:00:03.06,-0.0356962457299232,-0.0256592947989702,0.0285502262413502,0,
00:00:03.064,-0.0401654615998268,-0.011945097707211999,0.0273050516843796,0,
00:00:03.068,0.00098191446159035,0.029059924185276,-0.0223625004291534,0,
00:00:03.072,0.0343941077589989,0.031152443960308997,-0.0345686115324497,0,
00:00:03.076,0.00870520621538162,-0.0102075906470418,-0.0473064482212067,0,
00:00:03.08,-0.0249271132051945,-0.0145349008962512,0.0204008985310793,0,
00:00:03.084,0.00950704887509346,-0.00287941307760775,0.0508440099656582,0,
00:00:03.088,0.015772357583046,0.00878299307078123,0.0403394289314747,0,
00:00:03.092,-0.0556709319353104,-0.0157951638102531,0.00910336617380381,0,
00:00:03.096,0.000485672208014876,-0.007354530505836009,-0.0393111146986485,0,
00:00:03.1,0.0398897305130959,0.006747193634510039,-0.0163770727813244,0,
00:00:03.104,0.0206488780677319,-0.000679392367601395,-0.0174549892544746,0,
00:00:03.108,0.0139035610482097,0.00741625018417835,-0.0375489853322506,0,
00:00:03.112,-0.0240706149488688,0.00608419021591544,0.063839316368103,0,
00:00:03.116,-0.0224941093474627,0.00361096207052469,0.0161346457898617,0,
00:00:03.12,-0.00603894190862775,0.00831047631800175,-0.0244267992675304,0,
00:00:03.124,-0.0102874729782343,-0.0232075825333595,-0.020705820992589,0,
00:00:03.128,0.0150587912648916,-0.00892572570592165,0.0171721167862415,0,
00:00:03.132,-0.0266974754631519,-0.000649760069791228,0.0562254004180431,0,
00:00:03.136,0.0348706394433975,0.0103858970105648,-0.0207743756473064,0,
00:00:03.14,0.0444785989820957,0.00401282496750355,-0.0469153635203838,0,
00:00:03.144,0.006089149508625271,0.0250464621931314,-0.0181832574307919,0,
00:00:03.148,-0.0365715622901917,0.0064590279944241,-0.0243156738579273,0,
00:00:03.152,-0.0247811656445265,-0.0186727233231068,0.0348156653344631,0,
00:00:03.156,-0.0052550174295902296,-0.033152099698782,0.0686112195253372,0,
00:00:03.16,-0.0111458711326122,-0.0151555323973298,0.00996999442577362,0,
00:00:03.164,0.00548594072461128,0.0166295096278191,-0.029834445565939,0,
00:00:03.168,0.0163866877555847,0.0281174574047327,-0.0386788286268711,0,
00:00:03.172,0.0403428487479687,0.0257022045552731,-0.0213631577789783,0,
00:00:03.176,-0.018586415797472,-0.033949501812458,0.000745628494769335,0,
00:00:03.18,-0.0255479235202074,-0.0223414245992899,0.0332204774022102,0,
00:00:03.184,0.0154595691710711,0.0227926522493362,0.0197649821639061,0,
00:00:03.188,0.00489569548517466,0.014297160319983999,-0.00277152843773365,0,
00:00:03.192,-0.00900200381875038,-0.00702126137912273,-0.00580629892647266,0,
00:00:03.196,-0.00161722640041262,-0.00540834525600076,-0.0164564158767462,0,
00:00:03.2,-0.00569589575752616,0.00381121062673628,-0.000801362912170589,0,
00:00:03.204,-0.0392106398940086,-0.008290518075227741,0.0327926799654961,0,
00:00:03.208,-0.0034832910168916,-0.0210814923048019,-0.0181913580745459,0,
00:00:03.212,0.0815965011715889,0.000689711887389421,-0.0546046085655689,0,
00:00:03.216,0.0772024616599083,0.0332516990602016,0.00346266571432352,0,
00:00:03.22,-0.0748113095760345,0.0036960740108043,0.0579743906855583,0,
00:00:03.224,-0.0526133738458157,-0.00468864478170872,0.0139257423579693,0,
00:00:03.228,-0.0158108342438936,-0.00501539278775454,-0.01022944226861,0,
00:00:03.232,-0.0353224165737629,-0.0072762374766171,0.00453068595379591,0,
00:00:03.236,0.0167846195399761,-0.0056710555218160204,-0.00598101364448667,0,
00:00:03.24,0.0753129795193672,0.00885676871985197,-0.0325094908475876,0,
00:00:03.244,0.0106186047196388,-0.007582459133118391,-0.0278509445488453,0,
00:00:03.248,-0.00576493330299854,-0.00418656319379807,0.0183071922510862,0,
00:00:03.252,-0.00578507548198104,0.0234450902789831,0.0496162325143814,0,
00:00:03.256,-0.0173716526478529,-0.00533380685374141,-0.00564116192981601,0,
00:00:03.26,-0.00800453871488571,0.0058895526453852706,-0.0226726885885,0,
00:00:03.264,-0.000623618776444346,-0.00903519243001938,-0.0183238070458174,0,
00:00:03.268,-0.0201230682432652,-0.0179335698485374,0.0140342684462667,0,
00:00:03.272,-0.00460716057568789,-0.0044046645052731,0.0268170461058617,0,
00:00:03.276,0.032342754304409,0.0120107028633356,0.0156562831252813,0,
00:00:03.28,0.0279364679008722,0.00949403177946806,-0.0143060339614749,0,
00:00:03.284,-0.0302836522459984,0.00662040384486318,-0.0452325828373432,0,
00:00:03.288,-0.0315268710255623,0.0019013355486095,0.00883822795003653,0,
00:00:03.292,0.0337055660784245,-0.0128306467086077,-0.00317665608599782,0,
00:00:03.296,0.0208545867353678,0.007358281873166559,0.0163591746240854,0,
00:00:03.3,-0.0255096592009068,-0.0125746270641685,0.014868376776576,0,
00:00:03.304,-0.00616919388994575,-0.008084164932370191,0.0070557463914156,0,
00:00:03.308,0.00263409339822829,0.00989560876041651,0.000286969618173316,0,
00:00:03.312,0.0127340909093618,0.0202000215649605,-0.0299130603671074,0,
00:00:03.316,0.0239166803658009,0.0164067149162292,-0.0354059040546417,0,
00:00:03.32,-0.0234837755560875,-0.034229252487421,0.0482885651290417,0,
00:00:03.324,-0.0161116868257523,-0.0256328172981739,-0.0108507601544261,0,
00:00:03.328,-0.0266847629100084,0.0020321081392467,0.0352861024439335,0,
00:00:03.332,-0.0423591136932373,0.0120510347187519,-0.00436742417514324,0,
00:00:03.336,0.064957469701767,0.0240757800638676,0.00254992651753128,0,
00:00:03.34,0.0656947642564774,0.0154803972691298,-0.03865020722150799,0,
00:00:03.344,0.00605929177254438,-0.00139505788683891,-0.0130514213815331,0,
00:00:03.348,-0.0210439581423998,-0.0286486987024546,0.0200360678136349,0,
00:00:03.352,-0.0570848472416401,-0.0139598101377487,0.00751731637865305,0,
00:00:03.356,-0.0322648361325264,0.0168879833072424,-0.007944159209728241,0,
00:00:03.36,0.0342380777001381,0.0214658137410879,-0.000267739669652656,0,
00:00:03.364,0.0046324399299919605,-0.0191931761801243,0.0339327305555344,0,
00:00:03.368,0.0034296140074729898,-0.0326618663966656,0.008824761025607591,0,
00:00:03.372,0.0316069237887859,0.0141539070755243,-0.0249016005545855,0,
00:00:03.376,0.00564846629276872,0.0194103084504604,-0.0614338517189026,0,
00:00:03.38,-0.0238116309046745,0.0301027558743954,0.00756615307182074,0,
00:00:03.384,-0.0245210807770491,-0.0272125136107206,0.0644090250134468,0,
00:00:03.388,0.012566645629703999,-0.0148299988359213,0.0109372548758984,0,
00:00:03.392,0.0017103444552049,0.0054513025097549,-0.0157891381531954,0,
00:00:03.396,0.00374746858142316,0.0132239898666739,-0.0259201675653458,0,
00:00:03.4,-0.00939733162522316,0.000724481418728828,-0.0260139927268028,0,
00:00:03.404,0.0503358356654644,-0.0166535899043083,0.0533104836940765,0,
00:00:03.408,-0.0138789787888527,0.0011668164515867801,0.0185160394757986,0,
00:00:03.412,-0.0521799214184284,0.0069786058738827705,-0.0398354902863503,0,
00:00:03.416,-0.0095640616491437,-0.00720726093277335,-0.0062144217081368,0,
00:00:03.42,0.00297946925275028,0.0045504258014261705,-0.000394161848817021,0,
00:00:03.424,0.0158547181636095,0.0009168543620035051,-0.0042868349701166205,0,
00:00:03.428,0.082423023879528,0.0118483332917094,0.0110100032761693,0,
00:00:03.432,-0.0166104733943939,-0.00612156977877021,-0.0022543005179613803,0,
00:00:03.436,-0.0658767819404602,-0.00310660433024168,0.0195448882877827,0,
00:00:03.44,-0.00458138855174184,-0.0066968547180295,-0.00683086970821023,0,
00:00:03.444,0.000913448689971119,0.006411737762391571,0.025676166638732,0,
00:00:03.448,-0.0016842775512486698,-0.00521761598065495,-0.0375539809465408,0,
00:00:03.452,-0.00211818283423781,-0.00656979391351342,0.0069434437900781605,0,
00:00:03.456,0.0457483641803265,0.0207328647375107,-0.0139406016096473,0,
00:00:03.46,0.0235215332359076,-0.00640358217060566,-0.0118355918675661,0,
00:00:03.464,-0.0126034980639815,-0.0121645936742425,0.0201127175241709,0,
00:00:03.468,-0.0247611720114946,0.0143423732370138,-0.00694642541930079,0,
00:00:03.472,-0.0400370694696903,-0.00370005588047206,0.0056519047357142,0,
00:00:03.476,-0.0223806332796812,-0.0156844537705183,0.0520455799996853,0,
00:00:03.48,0.0309386309236288,0.0103442249819636,-0.00529340840876102,0,
00:00:03.484,0.0495436936616898,0.0100045157596469,-0.0432409755885601,0,
00:00:03.488,0.0094297518953681,3.5335528082214296e-05,-0.0637563392519951,0,
00:00:03.492,-0.0157173704355955,-0.0040431572124362,0.0273058153688908,0,
00:00:03.496,-0.00034155556932091697,-0.0018812649650499199,0.0551152005791664,0,
00:00:03.5,-0.0352465286850929,-0.00599981844425201,0.0204905122518539,0,
00:00:03.504,-0.018684396520257,0.00461294781416655,-0.006943503860384229,0,
00:00:03.508,0.0222186148166656,-0.00950097199529409,-0.0373428426682949,0,
00:00:03.512,0.0233309175819159,0.0028836817946285,-0.0113380774855614,0,
00:00:03.516,0.0197244565933943,0.0174261908978224,0.00628487160429358,0,
00:00:03.52,-0.0242375638335943,0.0036612029653042603,-0.0153058003634214,0,
00:00:03.524,-0.0561165921390057,-0.0107094189152122,0.0050127524882555,0,
00:00:03.528,0.0520687699317932,-0.0154250478371978,0.0801569074392319,0,
00:00:03.532,0.0223879758268595,0.00530408276244998,0.009307209402322771,0,
00:00:03.536,-0.028482947498560004,0.00342776207253337,-0.0769621953368187,0,
00:00:03.54,0.00044647717732004805,-0.000951844733208418,-0.038004893809556996,0,
00:00:03.544,0.0142161287367344,0.0145245911553502,0.00457999296486378,0,
00:00:03.548,0.00513944728299975,0.0065036281011998705,0.0220861844718456,0,
00:00:03.552,-0.0157070085406303,-0.00839797779917717,0.0338099896907806,0,
00:00:03.556,-0.0201965440064669,-0.0239180438220501,0.0309389401227236,0,
00:00:03.56,-0.0165195781737566,-0.0116682182997465,0.0136308716610074,0,
00:00:03.564,0.0298323482275009,0.021026598289608997,-0.0698647052049637,0,
00:00:03.568,0.0279809646308422,0.0220431927591562,-0.0342920199036598,0,
00:00:03.572,0.00871143024414778,-0.0078565776348114,0.0235078949481249,0,
00:00:03.576,-0.00194581737741828,0.0028119185008108603,0.025791222229599998,0,
00:00:03.58,-0.026974668726325004,-0.0109584275633097,0.0022813908290118,0,
00:00:03.584,-0.0194784607738256,-0.00553940562531352,-0.00331336096860468,0,
00:00:03.588,0.00503658503293991,0.0016920032212510698,0.0019440845353528898,0,
00:00:03.592,0.0108117731288075,0.0026479207444936,0.0084735993295908,0,
00:00:03.596,-0.0320306941866875,-0.00681089935824275,-0.0015709091676399099,0,
00:00:03.6,0.0185429397970438,0.008134369738399979,-0.0023365025408566,0,
00:00:03.604,0.0424998849630356,0.00199473416432738,0.0107086235657334,0,
00:00:03.608,0.009812396019697191,0.00210845773108304,-0.00931860320270061,0,
00:00:03.612,-0.0352979004383087,-0.00662385858595371,-0.0300535876303911,0,
00:00:03.616,-0.0035184507723897704,0.0017200340516865301,-0.0294848810881376,0,
00:00:03.62,0.0266727134585381,0.0171101130545139,0.00908779632300138,0,
00:00:03.624,-0.0404464118182659,-0.008868341334164141,0.0547837428748608,0,
00:00:03.628,-0.0345946997404099,-0.0246273893862963,0.0348527021706104,0,
00:00:03.632,0.039493590593338,0.0101848030462861,-0.00605989061295986,0,
00:00:03.636,0.020196782425046002,0.00928591936826706,-0.0390875153243542,0,
00:00:03.64,-0.0385795496404171,-0.026141781359910996,0.000969259010162205,0,
00:00:03.644,0.14341676235199,0.0505769215524197,-0.0432952381670475,0,
00:00:03.648,-0.0397243201732636,-0.00631300965324044,0.004290211480110879,0,
00:00:03.652,-0.129266172647476,-0.0281231068074703,0.0549942441284657,0,
00:00:03.656,-0.03281369805336,-0.011267364025116001,0.00224398635327816,0,
00:00:03.66,0.0357910841703415,0.00673826923593879,-0.0357385687530041,0,
00:00:03.664,0.0585957728326321,0.0196087043732405,-0.0182686448097229,0,
00:00:03.668,0.0350759960711002,-0.00019042151689063798,0.0395217277109623,0,
00:00:03.672,-0.009973396547138691,-0.000688184925820678,0.0261466465890408,0,
00:00:03.676,-0.0210636612027884,-0.007361423224210741,-0.0142894750460982,0,
00:00:03.68,-0.007124688010662791,-0.00823957566171885,-0.0191886406391859,0,
00:00:03.684,-0.0110554220154881,0.0106973303481936,-0.0101885097101331,0,
00:00:03.688,-0.0143125718459487,0.000281939952401444,-0.0126070762053132,0,
00:00:03.692,0.0193796548992395,-0.0059202634729445,0.00471782730892301,0,
00:00:03.696,0.02513337880373,0.0134149426594377,0.025362603366375,0,
00:00:03.7,-0.00848348531872034,0.00813400838524103,-0.00262328563258052,0,
00:00:03.704,-0.0258619245141745,-0.0251698475331068,-0.00314310332760215,0,
00:00:03.708,-0.0181614588946104,-0.0158230978995562,-0.007292676251381641,0,
00:00:03.712,0.0378469228744507,0.0226949565112591,0.0145192323252559,0,
00:00:03.716,0.02335593290627,-0.0011800561333075198,0.00369477667845786,0,
00:00:03.72,-0.0596536248922348,0.000687568564899266,-0.007858908735215659,0,
00:00:03.724,-0.0169626753777266,0.00474084308370948,0.0101753966882825,0,
00:00:03.728,0.0614287108182907,0.00868451409041882,-0.0239009242504835,0,
00:00:03.732,0.0388202294707298,-0.000627828761935234,-0.0203648116439581,0,
00:00:03.736,-0.00997548550367355,-0.0115863913670182,0.0175290480256081,0,
00:00:03.74,-0.0291796587407589,-0.0018758854130283,-0.015127650462091002,0,
00:00:03.744,-0.0315679162740707,-0.00281974603421986,0.0360330119729042,0,
00:00:03.748,-0.046671561896800995,-0.0071523985825479,0.0454165190458298,0,
00:00:03.752,0.0136740896850824,0.000979266478680074,-0.0372975543141365,0,
00:00:03.756,0.0266863908618689,0.00491672614589334,-0.0260729324072599,0,
00:00:03.76,0.0241038557142019,-0.00526033854112029,-0.0244992319494486,0,
00:00:03.764,0.0523567646741867,0.0337717421352863,0.0270222518593073,0,
00:00:03.768,0.00720500759780407,0.0037047427613288203,0.0164847057312727,0,
00:00:03.772,-0.035188801586627995,-0.0220108386129141,-0.0255105495452881,0,
00:00:03.776,-0.0454828552901745,-0.0164900664240122,0.0144046908244491,0,
00:00:03.78,-0.0150830484926701,0.0135158533230424,0.0048760287463665,0,
00:00:03.784,0.0119370631873608,-0.0073959706351161,0.0111452052369714,0,
00:00:03.788,0.0150503050535917,0.0059987991116941,-0.00680902227759361,0,
00:00:03.792,-0.0052720308303833,-0.0111622475087643,-0.0138742486014962,0,
00:00:03.796,0.0122473649680614,-0.00204005697742105,0.0025780948344618104,0,
00:00:03.8,0.0014100932748988301,0.00336521398276091,0.00535706989467144,0,
00:00:03.804,0.0572557263076305,0.0239605009555817,-0.0141129549592733,0,
00:00:03.808,-0.0161907318979502,0.0157710593193769,0.0148874148726463,0,
00:00:03.812,-0.0374140031635761,-0.008923036046326159,-0.0226907543838024,0,
00:00:03.816,-0.0893880724906921,-0.043550755828618996,0.0056872982531786,0,
00:00:03.82,0.025433799251913997,0.0069864639081060895,0.012977977283298999,0,
00:00:03.824,0.0671189278364182,0.000356732489308342,0.0648954436182976,0,
00:00:03.828,0.0318557024002075,0.023463036864996,-0.0205347314476967,0,
00:00:03.832,0.00236640381626785,0.00463554728776217,-0.0753773003816605,0,
00:00:03.836,-0.0274902302771807,-0.0073741762898862405,-0.0239226911216974,0,
00:00:03.84,-0.007218311075121159,-0.00740724569186568,0.0216216631233692,0,
00:00:03.844,-0.0163167715072632,-0.00105390429962426,0.0279244296252728,0,
00:00:03.848,-0.0149645395576954,-0.00112385582178831,0.0438737161457539,0,
00:00:03.852,-0.0026292537804693,-0.0010341637535020698,0.012840542010963,0,
00:00:03.856,0.0145109025761485,0.00217808014713228,-0.0521076917648315,0,
00:00:03.86,0.0187789928168058,0.0035499257501214704,-0.0333102606236935,0,
00:00:03.864,0.0075025693513453,0.0005231325631029901,0.0112504661083221,0,
00:00:03.868,0.0028603789396584,0.0005253358976915481,0.0274033043533564,0,
00:00:03.872,0.00274791102856398,0.00675495062023401,-0.00454765930771828,0,
00:00:03.876,-0.0190754998475313,0.0231900159269571,0.0115245562046766,0,
00:00:03.88,-0.0117483902722597,-0.0289458818733692,0.031184833496808995,0,
00:00:03.884,0.000386377243557945,-0.0324382968246937,-0.0226355046033859,0,
00:00:03.888,0.0133695295080543,-0.00210637249983847,-0.0381400622427464,0,
00:00:03.892,0.00753923924639821,0.017272936180233997,-0.0301597099751234,0,
00:00:03.896,-0.0405435971915722,0.0301465559750795,0.00533148134127259,0,
00:00:03.9,-0.007645351812243459,0.00557725504040718,0.0582890696823597,0,
00:00:03.904,0.0403168350458145,-0.00332152890041471,0.0266545638442039,0,
00:00:03.908,0.0431924015283585,-0.0165203530341387,-0.0300834272056818,0,
00:00:03.912,0.032258927822113,-0.00449493620544672,-0.026369271799922,0,
00:00:03.916,-0.0535721704363823,0.00335577130317688,0.0145725971087813,0,
00:00:03.92,-0.0949973315000534,0.00473963050171733,0.0202319156378508,0,
00:00:03.924,-0.00994557049125433,-0.02687450312078,0.0249175243079662,0,
00:00:03.928,0.0772906839847565,0.00171200162731111,-0.0543786101043224,0,
00:00:03.932,0.0470907725393772,0.0292853824794292,-0.0520359724760056,0,
00:00:03.936,-0.0287101939320564,0.0019706052262336,0.0124716209247708,0,
00:00:03.94,-0.00902788806706667,0.000644730229396373,0.0610263012349606,0,
00:00:03.944,-0.00122003874275833,-0.0128326322883368,0.0269659049808979,0,
00:00:03.948,0.00206960225477815,0.0075758462771773295,-0.0135649787262082,0,
00:00:03.952,-0.0009483498288318509,0.0103373369202018,-0.0126626826822758,0,
00:00:03.956,-0.009671728126704691,-0.0319647192955017,-0.000345854496117681,0,
00:00:03.96,-0.0142090879380703,-0.0229278020560741,-0.028915211558342004,0,
00:00:03.964,0.0042991121299564795,0.0293766278773546,-0.0189713910222054,0,
00:00:03.968,0.0254579279571772,0.0407430715858936,0.0199431013315916,0,
00:00:03.972,-0.000902587780728936,-0.0092874001711607,0.0241527929902077,0,
00:00:03.976,-0.0165169071406126,-0.026544077321887002,0.0017071401234716199,0,
00:00:03.98,-0.000362905178917572,-0.005105117335915571,-0.00627868575975299,0,
00:00:03.984,0.006936673540621999,0.0029657152481377103,-0.00180920364800841,0,
00:00:03.988,-0.00415453547611833,0.00838599167764187,-0.004365592263638971,0,
00:00:03.992,0.00759014999493957,-0.00954129453748465,0.0203889161348343,0,
00:00:03.996,0.00168956909328699,-0.00916322134435177,-0.0089056110009551,0,
00:00:04,-0.0209099669009447,0.0215803738683462,-0.0091530829668045,0,
00:00:04.004,-0.00416952790692449,0.00476911570876837,-0.0190314128994942,0,
00:00:04.008,0.0655816122889519,0.00770072173327208,0.00143371056765318,0,
00:00:04.012,-0.0198714528232813,-0.0143574206158519,0.0465300120413303,0,
00:00:04.016,-0.0270751342177391,-0.0115662217140198,-0.0289549566805363,0,
00:00:04.02,-0.0230449438095093,0.00607267441228032,-0.0189106240868568,0,
00:00:04.024,-0.000764807569794357,0.0090392017737031,-0.00523550715297461,0,
00:00:04.028,0.0160818994045258,-0.0039795492775738205,0.0181558877229691,0,
00:00:04.032,0.0136573417112231,-0.0206011906266212,0.0337737165391445,0,
00:00:04.036,-0.009586525149643421,0.00669133896008134,0.00299964868463576,0,
00:00:04.04,0.0052569853141903895,0.0182845201343298,-0.0245579332113266,0,
00:00:04.044,0.00793216377496719,0.0012316196225583599,-0.0234908144921064,0,
00:00:04.048,0.0034940151963383,-0.00452295411378145,-0.00498831504955888,0,
00:00:04.052,-8.071090178418671e-07,-0.000183535201358609,0.0175884589552879,0,
00:00:04.056,-0.0071500213816762,-0.008020150475203991,0.0196902751922607,0,
00:00:04.06,-0.0191825777292252,0.00304205459542573,0.00505373580381274,0,
00:00:04.064,-0.00167605699971318,0.00277268956415355,-0.0239491201937199,0,
00:00:04.068,-0.0131372045725584,-0.0186290498822927,-0.0182896200567484,0,
00:00:04.072,0.0389129184186459,0.00583713222295046,0.0017788576660677801,0,
00:00:04.076,0.042846105992794,0.0335058942437172,0.0283040348440409,0,
00:00:04.08,-0.0313259176909924,-0.004801601171493529,0.0186353176832199,0,
00:00:04.084,-0.0880706831812859,-0.0271619260311127,-0.0143087981268764,0,
00:00:04.088,0.0240119658410549,0.0035622436553239796,-0.0271899048238993,0,
00:00:04.092,0.0629212111234665,0.0159418061375618,-0.00810910202562809,0,
00:00:04.096,0.0219533629715443,-0.0173596534878016,0.0218934267759323,0,
00:00:04.1,-0.0135479522868991,0.00371652212925255,0.013406197540462001,0,
00:00:04.104,-0.0221147891134024,0.0121502792462707,0.0051314877346158,0,
00:00:04.108,-0.0197588372975588,-0.0142448227852583,0.0185485370457172,0,
00:00:04.112,-0.00700715696439147,0.00345537043176591,-0.0551840886473656,0,
00:00:04.116,-0.0017844934482127398,0.00911886803805828,-0.0162531398236752,0,
00:00:04.12,0.0112327802926302,-0.00665802648290992,0.00952951610088348,0,
00:00:04.124,0.0213392246514559,-0.005096080712974071,0.0287436507642269,0,
00:00:04.128,-0.000284345675026998,0.000200713446247391,0.0109672378748655,0,
00:00:04.132,0.0127306105569005,0.0075383041985333,-0.00427167164161801,0,
00:00:04.136,-0.0183790754526854,0.0015822098357603,0.0275742188096046,0,
00:00:04.14,-0.0495966523885727,-0.0015117289731279,-0.0304908230900764,0,
00:00:04.144,0.0232105851173401,-0.00429042847827077,-0.0329225733876228,0,
00:00:04.148,0.0418785363435745,-0.00160731677897274,0.00462945317849517,0,
00:00:04.152,0.008724403567612171,0.00114266679156572,0.0114943459630013,0,
00:00:04.156,-0.00550753250718117,0.0229008290916681,0.0161071922630072,0,
00:00:04.16,-0.0350030697882175,-0.028539564460516004,0.0177055280655622,0,
00:00:04.164,-4.70687773486134e-05,-0.00197134516201913,-0.00784763414412737,0,
00:00:04.168,-0.00128403271082789,0.0060961111448705205,-0.00853459537029266,0,
00:00:04.172,0.0019306171452626601,-0.0113038383424282,-0.0473421178758144,0,
00:00:04.176,0.00258886022493243,0.0238792542368174,0.0161365400999784,0,
00:00:04.18,0.025658106431365003,0.00626208586618304,0.0440270975232124,0,
00:00:04.184,-0.00865235459059477,-0.0138154225423932,0.0037885156925767704,0,
00:00:04.188,0.0135950883850455,0.00732485903427005,-0.019179929047823,0,
00:00:04.192,-0.0236638374626637,-0.00761419627815485,-0.0201693531125784,0,
00:00:04.196,-0.015160015784204,-0.0137368999421597,0.0243897661566734,0,
00:00:04.2,0.00562468823045492,-0.00241283210925758,-0.028035955503582996,0,
00:00:04.204,-0.00992358103394508,0.015511579811573,0.0296994782984257,0,
00:00:04.208,0.0269923433661461,0.00779008446261287,-0.009016884490847591,0,
00:00:04.212,0.0342981964349747,0.00183961249422282,-0.0215144772082567,0,
00:00:04.216,-0.0626912117004395,-0.0168068297207356,0.0555129386484623,0,
00:00:04.22,-0.0446128621697426,-0.0109289204701781,-0.00916047021746635,0,
00:00:04.224,0.0764218494296074,0.0193603169173002,-0.0390919856727123,0,
00:00:04.228,0.0543668083846569,0.0235601477324963,-0.0231629591435194,0,
00:00:04.232,-0.0186756029725075,-0.0103413928300142,0.00384733290411532,0,
00:00:04.236,-0.0291254743933678,-0.0189276710152626,0.0460705459117889,0,
00:00:04.24,-0.055061936378479004,-0.0100670326501131,0.0141111323609948,0,
00:00:04.244,-0.0144923543557525,0.00096973730251193,-0.0312044639140368,0,
00:00:04.248,0.0389418229460716,0.0236859582364559,-0.0273827891796827,0,
00:00:04.252,0.0111665902659297,-0.0250772517174482,0.04371972009539601,0,
00:00:04.256,0.0238661468029022,-0.0015738628571853,0.0265319459140301,0,
00:00:04.26,-0.00157456134911627,0.0157010201364756,-0.0102783385664225,0,
00:00:04.264,0.00209480640478432,0.0226990804076195,-0.0383337512612343,0,
00:00:04.268,-0.0108938589692116,0.0030432657804340102,-0.0300591010600328,0,
00:00:04.272,-0.0243204832077026,-0.0210048984736204,0.0120241800323129,0,
00:00:04.276,-0.00299804448150098,-0.00802886579185724,0.0036093476228416,0,
00:00:04.28,-0.00336017622612417,-0.00535276392474771,0.0228218398988247,0,
00:00:04.284,0.0184080190956593,-0.0109371589496732,0.0410122238099575,0,
00:00:04.288,0.0489039272069931,0.0109239965677261,-0.010753239504992998,0,
00:00:04.292,-0.0605102144181728,0.00617711432278156,-0.005453090183436871,0,
00:00:04.296,-0.0185808837413788,-0.000788847042713314,-0.0349328108131886,0,
00:00:04.3,0.0178919546306133,0.019828375428915,-0.0234325584024191,0,
00:00:04.304,0.0440716221928597,0.0060241548344492895,-0.00311734457500279,0,
00:00:04.308,-0.0032177383545786103,-0.00485260272398591,0.0309152361005545,0,
00:00:04.312,-0.0360272973775864,-0.0344777815043926,0.0408030450344086,0,
00:00:04.316,0.00992278289049864,-0.00353807397186756,-0.016303388401866,0,
00:00:04.32,-0.0150508265942335,0.00599601538851857,-0.0299761537462473,0,
00:00:04.324,-0.0166735462844372,0.0049154604785144294,0.0255402624607086,0,
00:00:04.328,0.0247564911842346,0.0298580788075924,-0.0123164197430015,0,
00:00:04.332,0.0392762497067451,0.0136739537119865,-0.035454448312521,0,
00:00:04.336,-0.0031921684276312603,-0.02392603084445,0.0341881178319454,0,
00:00:04.34,-0.0220229420810938,-0.0348733328282833,0.0289201512932777,0,
00:00:04.344,-0.0221399385482073,-0.00399418408051133,-0.0236191023141146,0,
00:00:04.348,-0.0103836245834827,0.0106169013306499,-0.0121053149923682,0,
00:00:04.352,0.0255295541137457,0.040256604552268996,-0.0192148312926292,0,
00:00:04.356,0.0051013468764722295,0.00417668791487813,0.0146173527464271,0,
00:00:04.36,0.0018118222942575801,-0.0131641095504165,0.0257577337324619,0,
00:00:04.364,0.0032037296332418897,-0.0149364219978452,0.0061722258105874105,0,
00:00:04.368,-0.0252056568861008,-8.011363388504829e-05,-0.016678087413311,0,
00:00:04.372,-0.0111186746507883,-0.0229443516582251,-0.0127717088907957,0,
00:00:04.376,0.054977048188448,0.00546845933422446,0.00806933827698231,0,
00:00:04.38,-0.00952187273651361,0.0200760420411825,-0.0007955627515912059,0,
00:00:04.384,-0.0451856851577759,0.0131099028512836,-0.0367432162165642,0,
00:00:04.388,-0.0326163023710251,-0.00697299698367715,0.0857281386852264,0,
00:00:04.392,0.0764496475458145,0.00769582390785217,-0.0220308862626553,0,
00:00:04.396,0.0268865823745728,-0.0115220006555319,-0.0365421138703823,0,
00:00:04.4,-0.0201927721500397,0.00070921890437603,-0.0391648672521114,0,
00:00:04.404,-0.026769895106554,-0.00359893287532032,0.0353548936545849,0,
00:00:04.408,-0.00875014439225197,-0.00210069236345589,0.0462108142673969,0,
00:00:04.412,-0.00041409922414459304,-0.00598133821040392,-0.0232755448669195,0,
00:00:04.416,0.00113237230107188,-0.000913557829335332,-0.0210879500955343,0,
00:00:04.42,-0.00023915678320918197,0.005899480544030671,0.008340169675648209,0,
00:00:04.424,0.00240430282428861,-0.0176215153187513,0.0378539972007275,0,
00:00:04.428,0.0146091002970934,0.00915748067200184,-0.00107469852082431,0,
00:00:04.432,-0.0018243792001158,0.0351916812360287,-0.056390468031168005,0,
00:00:04.436,-0.00797336734831333,0.00536746345460415,-0.0144338235259056,0,
00:00:04.44,0.0209752358496189,-0.0111227808520198,0.0290276389569044,0,
00:00:04.444,-0.0183527022600174,-0.0208705086261034,0.0026236197445541603,0,
00:00:04.448,-0.022026302292942997,-0.0206238366663456,0.0310746524482965,0,
00:00:04.452,0.0372816845774651,0.013768682256341001,-0.0162033773958683,0,
00:00:04.456,0.0167822223156691,0.00773174175992608,0.00121677503921092,0,
00:00:04.46,-0.0511815994977951,0.0165298469364643,-0.0101208025589585,0,
00:00:04.464,-0.0393290929496288,-0.0146345654502511,-0.0023785037919879,0,
00:00:04.468,0.0530625283718109,-0.0208969954401255,-0.016358520835638,0,
00:00:04.472,0.0641442760825157,0.0147459479048848,0.00638421392068267,0,
00:00:04.476,-0.0256582777947187,0.0260050632059574,0.0489053018391132,0,
00:00:04.48,-0.0451215393841267,-0.000768471218179911,-0.0340836718678474,0,
00:00:04.484,-0.018574183806777,-0.018574096262455004,0.0195491872727871,0,
00:00:04.488,0.0103069730103016,-0.0119987409561872,-0.0382730066776276,0,
00:00:04.492,0.019244659692049002,0.00145413540303707,-0.008434710092842579,0,
00:00:04.496,0.0139216622337699,-0.0038846293464303,0.0169512312859297,0,
00:00:04.5,0.0139618739485741,0.0218619126826525,0.007358262315392491,0,
00:00:04.504,-0.0310836639255285,0.015214447863399998,0.0134289544075727,0,
00:00:04.508,-0.0374363102018833,-0.0185580737888813,0.0137990117073059,0,
00:00:04.512,0.0228686947375536,-0.0172821525484324,-0.0261546596884727,0,
00:00:04.516,0.0398154519498348,0.00365336192771792,-0.00717809097841382,0,
00:00:04.52,0.0142399873584509,0.00203172117471695,0.0030564614571631,0,
00:00:04.524,-0.00888470839709044,0.0133396899327636,-0.00695173209533095,0,
00:00:04.528,-0.0204361211508513,0.00588364247232676,0.00701931770890951,0,
00:00:04.532,-0.0299774128943682,0.0010464764200151,0.00353351072408259,0,
00:00:04.536,0.0130736520513892,-0.0026744029019027896,-0.007380283903330559,0,
00:00:04.54,-0.00340464035980403,-0.0149375014007092,0.007615477312356229,0,
00:00:04.544,-0.00822602119296789,-0.0256281848996878,0.0372602008283138,0,
00:00:04.548,0.0160519536584616,0.00599714880809188,-0.00621579075232148,0,
00:00:04.552,0.0249638184905052,0.0336201675236225,-0.0308358296751976,0,
00:00:04.556,0.007280338555574421,0.00652390066534281,-0.0401709824800491,0,
00:00:04.56,-0.0132705355063081,-0.0072779911570251,0.00625261384993792,0,
00:00:04.564,-0.0273247268050909,-0.0117866722866893,0.0448034629225731,0,
00:00:04.568,0.0290006659924984,0.0127717535942793,-0.00523352809250355,0,
00:00:04.572,0.00290315505117178,0.00187663873657584,0.00412608729675412,0,
00:00:04.576,-0.0546440146863461,-0.0196396112442017,0.0149595299735665,0,
00:00:04.58,-0.0121104596182704,-0.00307991984300315,-0.0367697365581989,0,
00:00:04.584,0.0597578249871731,0.0171949490904808,-0.0055435248650610395,0,
00:00:04.588,0.00608866754919291,-0.0141591569408774,0.00940641760826111,0,
00:00:04.592,0.0288290996104479,-0.00445059314370155,0.0236474089324474,0,
00:00:04.596,-0.00137066375464201,0.0287453643977642,-0.00989658199250698,0,
00:00:04.6,-0.0776916444301605,-0.0106132132932544,0.00238620303571224,0,
00:00:04.604,-0.0123924119397998,-0.0119515126571059,-0.00943941436707973,0,
00:00:04.608,0.0381100364029408,0.0036129693035036295,-0.0159058943390846,0,
00:00:04.612,0.00499174930155277,-0.00966164004057646,0.0336412340402603,0,
00:00:04.616,0.0173725858330727,0.0237228833138943,0.0116261560469866,0,
00:00:04.62,0.0080241272225976,0.00228848285041749,-0.0140591477975249,0,
00:00:04.624,-0.00836949143558741,-0.0138276843354106,-0.0487799681723118,0,
00:00:04.628,-0.0127597181126475,-0.0044023497030139,-0.000859101768583059,0,
00:00:04.632,-0.00673136953264475,0.0026619557756930603,0.007050353102386,0,
00:00:04.636,-0.00412042532116175,0.00244023837149143,0.0440572872757912,0,
00:00:04.64,-0.004924132023006679,-0.00360369542613626,0.0124361552298069,0,
00:00:04.644,-0.00400853250175714,-0.00713788298889995,-0.0043731597252190104,0,
00:00:04.648,0.0338088050484657,0.0205599833279848,-0.0128493616357446,0,
00:00:04.652,0.000674090697430074,0.000225911673624068,-0.0184886548668146,0,
00:00:04.656,-0.0197844170033932,-0.00722649693489075,0.0180984046310186,0,
00:00:04.66,0.0018196179298684,-0.0189497265964746,-0.00270234863273799,0,
00:00:04.664,0.0217109639197588,0.0093265837058425,-0.0122032957151532,0,
00:00:04.668,-0.0055843023583293,0.0109577747061849,-0.028333866968751,0,
00:00:04.672,-0.0162601340562105,0.00177174829877913,-0.006848253775388,0,
00:00:04.676,-0.0228804089128971,-0.00675982749089599,0.0580254048109055,0,
00:00:04.68,-0.0075424932874739205,0.000614593038335443,0.00919613614678383,0,
00:00:04.684,0.0313098132610321,0.0115766627714038,0.00374972959980369,0,
00:00:04.688,0.0207495205104351,-0.0140775348991156,-0.0189992599189281,0,
00:00:04.692,0.00685796700417995,-0.009347245097160341,-0.0421180315315723,0,
00:00:04.696,-0.0132075529545546,0.009530727751553059,0.00441146269440651,0,
00:00:04.7,-0.000587694812566042,0.00344126834534109,0.0484156832098961,0,
00:00:04.704,-0.0302907712757587,-0.00558550143614411,-0.00167692243121564,0,
00:00:04.708,-0.0223835222423077,0.00336336297914386,-0.0296382009983063,0,
00:00:04.712,0.0299001820385456,0.00823546666651964,-0.0161691848188639,0,
00:00:04.716,0.0228036530315876,-0.00037591386353597,0.00962727330625057,0,
00:00:04.72,0.00925280619412661,0.00195960770361125,0.0161524377763271,0,
00:00:04.724,0.0199027787894011,-0.00382318766787648,0.0211370214819908,0,
00:00:04.728,-0.0370958000421524,-0.0148949390277267,-0.0100029073655605,0,
00:00:04.732,-0.05028470605611799,-0.0135833313688636,0.0142242182046175,0,
00:00:04.736,0.0440230704843998,0.00673870090395212,-0.0376659221947193,0,
00:00:04.74,0.0265974476933479,0.0380490534007549,-0.0143252266570926,0,
00:00:04.744,-0.0714378580451012,0.00496698031201959,-0.0056462148204445796,0,
00:00:04.748,0.0201127044856548,-0.0258574336767197,0.0332926586270332,0,
00:00:04.752,0.0549359992146492,-0.0083212461322546,0.0370586216449738,0,
00:00:04.756,0.0098617821931839,-0.0099851293489337,0.0162128433585167,0,
00:00:04.76,-0.0205472838133574,0.00719899591058493,-0.0580694489181042,0,
00:00:04.764,-0.021992351859808,0.0155004467815161,-0.0390906259417534,0,
00:00:04.768,-0.0171019900590181,0.00969923194497824,0.00147163099609315,0,
00:00:04.772,0.008855746127665041,0.0024185492657125,0.00875823758542538,0,
00:00:04.776,0.0143784508109093,-0.0183358024805784,0.0504122972488403,0,
00:00:04.78,0.00265704817138612,0.009201701730489729,0.0249317102134228,0,
00:00:04.784,-0.0118582500144839,-0.0173420123755932,-0.0226649716496468,0,
00:00:04.788,0.00996097084134817,-0.0152414990589023,-0.0208418946713209,0,
00:00:04.792,0.00506593706086278,-0.00212076818570495,0.0056934906169772105,0,
00:00:04.796,0.0052363937720656395,0.0297044347971678,-0.0207869056612253,0,
00:00:04.8,-0.0100066028535366,0.0239737667143345,3.59818914148491e-05,0,
00:00:04.804,-0.021262327209115,0.0030492981895804397,0.0061182025820016896,0,
00:00:04.808,0.0156704913824797,-0.0143871707841754,-0.00454800575971603,0,
00:00:04.812,0.0170737504959106,-0.0264675710350275,0.0195448976010084,0,
00:00:04.816,-0.0175098441541195,-0.0160342641174793,0.0158304739743471,0,
00:00:04.82,0.016248531639576,0.0146233551204205,-0.0162377618253231,0,
00:00:04.824,-0.0331878624856472,0.00745883351191878,-0.0112378373742104,0,
00:00:04.828,-0.0038405158556997798,0.00834588799625635,0.020851219072938,0,
00:00:04.832,0.0475194528698921,0.0127598457038403,-0.0198811590671539,0,
00:00:04.836,-0.0046505331993103,-0.0102330176159739,0.0014000771334394802,0,
00:00:04.84,-0.0417112745344639,-0.00985327176749706,-0.0049940166063606704,0,
00:00:04.844,0.016857024282217,0.00962423533201218,0.00417838012799621,0,
00:00:04.848,-0.00233208248391747,-0.00918913725763559,0.0152429845184088,0,
00:00:04.852,0.0442438796162605,0.0048320735804736606,-0.0366099700331688,0,
00:00:04.856,-0.0192435961216688,-0.00586530892178416,0.0316350944340229,0,
00:00:04.86,-0.0024796761572361,-0.00653780996799469,-0.0058507570065558,0,
00:00:04.864,-0.023970041424035998,0.00655302545055747,0.0132658574730158,0,
00:00:04.868,-0.0363551899790764,0.0140115469694138,0.0156284514814615,0,
00:00:04.872,0.0138630839064717,-0.00224164174869657,-0.0302241463214159,0,
00:00:04.876,0.0478660278022289,0.00257535744458437,-0.0401052609086037,0,
00:00:04.88,0.00778652261942625,-0.00748087791725993,0.0151331536471844,0,
00:00:04.884,-0.00260450760833919,0.0012433087686076801,0.0625511929392815,0,
00:00:04.888,-0.027640750631689998,-0.0291077345609665,-0.0122494865208864,0,
00:00:04.892,0.0123164048418403,0.0128489080816507,-0.035993043333292,0,
00:00:04.896,-0.00165408290922642,0.0216901339590549,-0.0062930118292570105,0,
00:00:04.9,-0.00584106240421534,-0.00632531009614468,0.010670268908142998,0,
00:00:04.904,-0.0184753146022558,0.000420933094574139,0.0214283876121044,0,
00:00:04.908,0.0198159087449312,0.0049578002654016,0.00952667836099863,0,
00:00:04.912,0.0142198521643877,-0.0025766431353986302,-0.0190777033567429,0,
00:00:04.916,-0.0584194995462894,0.0012835469096899,-0.0308845154941082,0,
00:00:04.92,0.0298407524824142,-0.0095592113211751,-0.0151911778375506,0,
00:00:04.924,0.0568434223532677,-0.0100835161283612,0.0469475314021111,0,
00:00:04.928,-0.0047867461107671296,-0.0058569721877574895,0.0505983717739582,0,
00:00:04.932,-0.0170322712510824,0.023835115134716003,-0.0404598563909531,0,
00:00:04.936,-0.0166622400283813,0.00731287850067019,-0.0356218926608562,0,
00:00:04.94,-0.0181431416422129,-0.0072650783695280595,-0.0231630578637123,0,
00:00:04.944,-0.0087935533374548,0.0035249739885330205,0.0524928644299507,0,
00:00:04.948,0.00876028556376696,0.00450250133872032,0.028005862608552003,0,
00:00:04.952,-0.00277081783860922,-0.020523039624095,-0.0319887325167656,0,
00:00:04.956,0.0172897540032864,-0.007177364081144329,-0.0231649912893772,0,
00:00:04.96,0.0153193613514304,-0.00913252960890532,0.0119354892522097,0,
00:00:04.964,0.0107449805364013,0.0152252390980721,0.007259752135723829,0,
00:00:04.968,-0.0172213166952133,0.0243362989276648,-0.00649423338472843,0,
00:00:04.972,-0.0495078191161156,-0.0113769518211484,0.004397544078528879,0,
00:00:04.976,0.0321823246777058,0.00518629560247064,-0.00813493877649307,0,
00:00:04.98,0.0301232356578112,0.00502293463796377,0.00863960012793541,0,
00:00:04.984,-0.007052704226225609,-0.00099059462081641,-0.0128426114097238,0,
00:00:04.988,-0.009166388772428041,-0.0223304498940706,0.0546257942914963,0,
00:00:04.992,-0.0113643389195204,-0.0136847691610456,-0.00607643229886889,0,
00:00:04.996,-0.0013506393879652,0.0054322462528944,-0.0495141074061394,0,
00:00:05,0.0036174701526761103,0.00030798302032053503,-0.0105121713131666,0,
00:00:05.004,-0.00193884130567312,0.0243744160979986,-0.00040815077954903196,0,
00:00:05.008,0.00848757196217775,0.0242769215255976,0.0137959225103259,0,
00:00:05.012,0.0509502813220024,-0.0018654084997251602,-0.00590634625405073,0,
00:00:05.016,-0.0378061681985855,-0.027427239343523997,0.03413375467062,0,
00:00:05.02,-0.0772023871541023,-0.0286574251949787,0.0335240252315998,0,
00:00:05.024,0.008359607309103009,-0.0024641002528369396,-0.0359228923916817,0,
00:00:05.028,0.0420683845877647,0.0182157345116138,-0.0123571008443832,0,
00:00:05.032,0.058939553797245005,0.0188887268304825,-0.0204453691840172,0,
00:00:05.036,-0.00024012848734855698,0.00283615291118622,-0.0122032193467021,0,
00:00:05.04,-0.0191088765859604,0.00220400909893215,0.0035690772347152203,0,
00:00:05.044,-0.0437903515994549,-0.000782949035055935,0.021643852815031995,0,
00:00:05.048,-0.031317874789238,-0.026689063757657994,0.04543611779809,0,
00:00:05.052,0.0306420605629683,1.7816360923461602e-05,-0.010893439874053001,0,
00:00:05.056,0.0181242860853672,0.00677359709516168,-0.0355623476207256,0,
00:00:05.06,-0.00483595067635179,0.009668935090303421,-0.00347515498287976,0,
00:00:05.064,0.0201008096337318,-0.00159602018538862,-0.0204759668558836,0,
00:00:05.068,-0.00412179855629802,0.007053780369460579,0.0273252110928297,0,
00:00:05.072,-0.0101193161681294,0.0136829670518637,0.022996649146080003,0,
00:00:05.076,0.0115307122468948,-0.0103190122172236,-0.0104814516380429,0,
00:00:05.08,-0.0341914035379887,-0.0406091846525669,-0.0252179633826017,0,
00:00:05.084,-0.00108794053085148,0.00372085184790194,0.0256349127739668,0,
00:00:05.088,0.019204817712307,0.0206449031829834,0.0129991136491299,0,
00:00:05.092,0.0234506130218506,0.0153993666172028,-0.020256020128727,0,
00:00:05.096,-0.00859330128878355,0.005930848419666289,-0.0482827499508858,0,
00:00:05.1,-0.010335342027247,-0.00677751936018467,0.0178528036922216,0,
00:00:05.104,-0.0331154279410839,-0.009248503483831879,0.0643438473343849,0,
00:00:05.108,-0.00048789233551360705,0.000302443979308009,-0.0109185334295034,0,
00:00:05.112,0.05303691700100901,-0.00503693474456668,-0.0167573969811201,0,
00:00:05.116,0.00403386075049639,-0.0192943811416626,-0.0201921164989471,0,
00:00:05.12,-0.0169400442391634,0.0127245346084237,-0.0129833770915866,0,
00:00:05.124,-0.006794295273721221,0.0202560238540173,0.0217541493475437,0,
00:00:05.128,-0.0156060727313161,0.0160777252167463,0.00506247486919165,0,
00:00:05.132,-0.0062543782405555205,-0.0147104216739535,-0.0102111957967281,0,
00:00:05.136,0.0190734956413507,-0.0206615719944239,0.0133997816592455,0,
00:00:05.14,0.0143637787550688,-0.00531708868220448,0.00375998322851956,0,
00:00:05.144,0.00183364434633404,0.0031566424295306197,-0.0131791960448027,0,
00:00:05.148,-0.031860888004303,0.0144843058660626,0.0318781398236752,0,
00:00:05.152,-0.00179184204898775,0.018264589831233,-0.0151150282472372,0,
00:00:05.156,0.0130382152274251,-0.0172305516898632,-0.0257532261312008,0,
00:00:05.16,-0.009693547151982779,-0.0165014080703259,-0.0210695378482342,0,
00:00:05.164,0.0232728235423565,-0.00213745329529047,0.0152339907363057,0,
00:00:05.168,0.0199168864637613,0.0184298623353243,0.0186383277177811,0,
00:00:05.172,-0.009291622787714001,0.0061365771107375604,0.0177842639386654,0,
00:00:05.176,-0.0196232721209526,-0.00841855444014072,0.0064166281372308705,0,
00:00:05.18,0.0039666141383349895,0.00898851733654737,-0.0174125637859106,0,
00:00:05.184,-0.0216718129813671,-0.00522374454885721,-0.015267251059413001,0,
00:00:05.188,0.000596366007812321,-0.013892499729991,-0.0069032683968544,0,
00:00:05.192,0.019838934764266004,0.0059114680625498295,-0.0108697488903999,0,
00:00:05.196,-0.0049247653223574205,-0.004938891623169179,0.0160842519253492,0,
00:00:05.2,-0.0204729717224836,-4.99403504363727e-05,0.0246663000434637,0,
00:00:05.204,0.0261692572385073,0.007145706098526721,0.0382160432636738,0,
00:00:05.208,0.0184211060404778,0.00385905592702329,-0.0361633896827698,0,
00:00:05.212,-0.0113043794408441,0.0161130931228399,-0.0421737767755985,0,
00:00:05.216,-0.00900243502110243,0.00035938929067924597,0.0047945664264261705,0,
00:00:05.22,0.00296822609379888,-0.0310137271881104,0.0168041884899139,0,
00:00:05.224,-0.007292067166417841,-0.00434797769412398,0.005657740868628029,0,
00:00:05.228,-0.0155802685767412,0.00278230290859938,-0.00175237352959812,0,
00:00:05.232,-0.0045973141677677605,0.00392405176535249,-0.0180992223322392,0,
00:00:05.236,0.0360155180096626,0.0181259401142597,0.0119585758075118,0,
00:00:05.24,0.00458591803908348,0.00359043409116566,0.0287294965237379,0,
00:00:05.244,-0.0169690027832985,-0.004643491934984921,-0.0165464002639055,0,
00:00:05.248,0.0021861046552658103,-0.00868611596524715,-0.00864199548959732,0,
00:00:05.252,0.00344022968783975,-0.0150451585650444,0.00876773986965418,0,
00:00:05.256,-0.00048159112338908,0.0205133128911257,-0.0264445692300797,0,
00:00:05.26,-0.0241354703903198,0.0178772620856762,0.0268129967153072,0,
00:00:05.264,-0.0108598237857223,-0.0242442563176155,0.0265200771391392,0,
00:00:05.268,0.031756229698657996,-0.0126618053764105,-0.025209154933691,0,
00:00:05.272,0.0226382482796907,0.000942104787100106,-0.0262020882219076,0,
00:00:05.276,-0.0506475605070591,-0.00852831266820431,-0.0273867882788181,0,
00:00:05.28,0.0448229797184467,0.038430068641901,0.0270646773278713,0,
00:00:05.284,0.0408692397177219,0.0158763267099857,0.0451063625514507,0,
00:00:05.288,-0.0684328228235245,-0.0326012372970581,0.0474036857485771,0,
00:00:05.292,-0.0201015193015337,-0.0004795876739081,-0.0795114412903786,0,
00:00:05.296,0.0175280570983887,-0.006228412501513961,-0.0420078560709953,0,
00:00:05.3,-0.0233632363379002,-0.00833737384527922,0.0188929680734873,0,
00:00:05.304,-0.0100531568750739,0.008689773268997671,0.028932623565197,0,
00:00:05.308,0.0678597986698151,0.0179666373878717,0.0186763778328896,0,
00:00:05.312,0.01861154101789,0.000564277579542249,-0.0092473141849041,0,
00:00:05.316,-0.0106935119256377,-0.0157346166670322,-0.00620469683781266,0,
00:00:05.32,-0.0183692146092653,-0.00167442706879228,-0.009784179739654059,0,
00:00:05.324,-0.0330634638667107,-0.0075111421756446405,0.0107519887387753,0,
00:00:05.328,-0.00527286902070045,0.0147522706538439,-0.00303224660456181,0,
00:00:05.332,0.0184481963515282,0.00952594075351954,0.000359885452780873,0,
00:00:05.336,0.0115947034209967,-0.000859481398947537,0.00979577098041773,0,
00:00:05.34,0.0190619435161352,-0.0109250200912356,-0.017598083242774,0,
00:00:05.344,-0.0253014657646418,-0.0111333280801773,-0.007741503417491909,0,
00:00:05.348,-0.0512316077947617,-0.0046107834205031395,0.0200198981910944,0,
00:00:05.352,0.0235460791736841,0.0130044035613537,-0.00338388932868838,0,
00:00:05.356,0.0642362907528877,0.0195545647293329,-0.0184829197824001,0,
00:00:05.36,0.0203238166868687,0.005659410264343021,0.0161925535649061,0,
00:00:05.364,-0.0556602291762829,-0.0343980938196182,0.0245623625814915,0,
00:00:05.368,-0.0108756730332971,-0.00294728064909577,-0.0267384573817253,0,
00:00:05.372,0.0025730517227202697,0.019730094820261,-0.0164052490144968,0,
00:00:05.376,-0.0146984225139022,0.0057289274409413294,0.00989483017474413,0,
00:00:05.38,-0.00281489035114646,-0.0057737673632800605,0.0097216060385108,0,
00:00:05.384,0.0683420971035957,-0.0107042565941811,-0.0138529939576983,0,
00:00:05.388,0.00671400083228946,0.00512242550030351,0.0383489280939102,0,
00:00:05.392,-0.0667183995246887,0.00417788280174136,-0.012099402025342,0,
00:00:05.396,-0.0246106125414371,0.00396307883784175,-0.0182756129652262,0,
00:00:05.4,0.0209797713905573,-0.0211444199085236,-0.0020032774191349697,0,
00:00:05.404,0.0186088420450687,-0.00234968937002122,0.000508928438648582,0,
00:00:05.408,0.0263712555170059,0.0242264457046986,0.000328900583554059,0,
00:00:05.412,0.00203736312687397,0.00990171451121569,0.0026512623298913197,0,
00:00:05.416,-0.0533570051193237,-0.0171641409397125,0.0117144081741571,0,
00:00:05.42,0.0193027872592211,-0.00299392570741475,-0.00560635374858975,0,
00:00:05.424,0.0134624186903238,-0.00732677150517702,-0.00196739262901247,0,
00:00:05.428,-0.00640080915763974,0.0089847519993782,-0.0118727330118418,0,
00:00:05.432,0.00498088682070374,-0.00554775632917881,0.0065867500379681605,0,
00:00:05.436,0.0113014541566372,0.0248713381588459,0.0200277213007212,0,
00:00:05.44,0.0071951262652874,0.00273396982811391,-0.0237287152558565,0,
00:00:05.444,-0.0324729904532433,-0.033276654779911,0.0104831354692578,0,
00:00:05.448,-0.017612287774682,-0.0177199952304363,0.00110031454823911,0,
00:00:05.452,0.0008877967484295369,0.0197034478187561,-0.000893332180567086,0,
00:00:05.456,0.0411134734749794,0.0216905251145363,-0.00913564208894968,0,
00:00:05.46,0.0170309524983168,0.0111129712313414,-0.0155117949470878,0,
00:00:05.464,-0.0253675654530525,-0.0201931949704885,0.0298749040812254,0,
00:00:05.468,-0.00976264104247093,-0.0059387823566794395,-0.000296649377560243,0,
00:00:05.472,-0.00272831390611827,-0.000271122786216438,-0.00429149018600583,0,
00:00:05.476,-0.0263054613023996,0.00142238952685148,-0.0181146375834942,0,
00:00:05.48,0.0277981515973806,0.005576838739216329,0.0247538536787033,0,
00:00:05.484,0.0298133511096239,0.00729793822392821,0.0205525644123554,0,
00:00:05.488,-0.0165792405605316,-0.014931445941328997,-0.0295547191053629,0,
00:00:05.492,0.0172990914434195,-0.0024864582810550898,-0.0185175649821758,0,
00:00:05.496,-0.0243788808584213,-0.00582936685532331,-0.0101161040365696,0,
00:00:05.5,-0.0281203836202621,0.000752517487853765,0.00831023883074522,0,
00:00:05.504,0.0133965890854597,0.0143743576481938,0.0292088109999895,0,
00:00:05.508,-0.0023173603694886,0.007218435872346159,0.0162150841206312,0,
00:00:05.512,0.0119848167523742,0.0041985958814621,-0.0127471117302775,0,
00:00:05.516,0.028472201898694,-0.00392534770071507,-0.0134581895545125,0,
00:00:05.52,-0.010919795371591998,-0.0120184104889631,0.00890241749584675,0,
00:00:05.524,-0.0111549189314246,-0.000523721042554826,-0.0334354788064957,0,
00:00:05.528,-0.0235537365078926,0.000832085555884987,-0.0065543311648070795,0,
00:00:05.532,0.0202019102871418,-0.0103693315759301,0.0382109023630619,0,
00:00:05.536,0.0172746814787388,0.0033091616351157396,0.0339482426643372,0,
00:00:05.54,-0.0146311605349183,0.00791455898433924,-0.0430780462920666,0,
00:00:05.544,-0.00966582167893648,0.00189442676492035,-0.00998909119516611,0,
00:00:05.548,0.00554956309497356,0.014016074128449,0.00153011677321047,0,
00:00:05.552,0.0175231024622917,0.00399310467764735,-0.0104169296100736,0,
00:00:05.556,-0.00279673491604626,-0.0109677305445075,0.0131403682753444,0,
00:00:05.56,-0.0261602774262428,-0.0294823106378317,0.0403118953108788,0,
00:00:05.564,-0.0167735684663057,0.0026031099259853398,0.0105810137465596,0,
00:00:05.568,0.0114027792587876,0.011085070669651002,-0.0409185215830803,0,
00:00:05.572,0.0154681233689189,0.00666723074391484,-0.0444330275058746,0,
00:00:05.576,0.0279889851808548,0.0178418476134539,0.022605724632740003,0,
00:00:05.58,0.0026102347765117897,-0.000614315213169903,0.009624987840652471,0,
00:00:05.584,-0.000313308148179203,-0.00960440188646317,0.00267315423116088,0,
00:00:05.588,-0.0250262431800365,-0.0054599428549408895,0.0320449098944664,0,
00:00:05.592,-0.0232689250260592,-0.0191585402935743,0.0071496544405818,0,
00:00:05.596,-0.0249934140592813,0.00281762843951583,-0.0414746031165123,0,
00:00:05.6,0.0385446697473526,0.00276192091405392,0.001324791344814,0,
00:00:05.604,0.0415754206478596,0.0194090772420168,0.0140505526214838,0,
00:00:05.608,-0.00231991545297205,0.0248675681650639,-0.0444158054888248,0,
00:00:05.612,-0.035420399159193004,-0.0141554502770305,0.0432464741170406,0,
00:00:05.616,-0.0221454799175262,-0.0246856790035963,0.0338291488587856,0,
00:00:05.62,0.014660001732408999,-0.0117446957156062,-0.0365792736411095,0,
00:00:05.624,0.0184984933584929,-0.0033213158603757603,-0.01659294962883,0,
00:00:05.628,-0.00177168706431985,0.0285134837031364,0.0043381047435104795,0,
00:00:05.632,-0.0087822126224637,0.00669063813984394,0.0271288771182299,0,
00:00:05.636,0.0164991710335016,-0.00665035890415311,-0.0581470690667629,0,
00:00:05.64,-0.00989641901105642,-0.0115009602159262,0.042007751762867,0,
00:00:05.644,-0.022009713575244002,-0.007753845304250721,0.045660212635994006,0,
00:00:05.648,0.0141936959698796,0.0199726317077875,-0.0453627519309521,0,
00:00:05.652,0.0161041188985109,0.0055540734902024295,-0.0264754351228476,0,
00:00:05.656,-0.0111480467021465,-0.0216577164828777,0.0470564141869545,0,
00:00:05.66,0.0258572120219469,0.0056468248367309605,-0.0250523611903191,0,
00:00:05.664,0.00119837245438248,0.00958014372736216,-0.0115739665925503,0,
00:00:05.668,-0.0643151104450226,-0.00430199364200234,0.00461631221696734,0,
00:00:05.672,-0.0209158752113581,0.00157125119585544,0.0008228460792452099,0,
00:00:05.676,0.0337036177515984,-0.0111667159944773,0.0144113730639219,0,
00:00:05.68,0.05708036571741099,0.004892933648079629,-0.00214752438478172,0,
00:00:05.684,0.034497257322073,0.011627459898591002,-0.0018447723705321602,0,
00:00:05.688,-0.0323256552219391,-0.00866875424981117,0.0445566214621067,0,
00:00:05.692,-0.0376339256763458,-0.00896409526467323,-0.041760690510272994,0,
00:00:05.696,-0.0478952787816525,-0.000169874794664793,-0.0151590621098876,0,
00:00:05.7,0.0140219600871205,0.00992386043071747,-0.0020628939382731897,0,
00:00:05.704,0.0294723361730576,0.00438959943130612,-0.0106968032196164,0,
00:00:05.708,0.0227838158607483,0.0125192916020751,0.00251128966920078,0,
00:00:05.712,0.0055151954293251,-0.0161686521023512,0.0356062985956669,0,
00:00:05.716,-0.00322435353882611,-0.0104584433138371,0.0166211687028408,0,
00:00:05.72,-0.0339532271027565,0.000967499683611095,-0.028158962726593,0,
00:00:05.724,-0.00624987436458468,0.013171823695302001,-0.015097045339644,0,
00:00:05.728,0.0278012324124575,-0.0036884141154587295,0.00642089126631618,0,
00:00:05.732,0.0111803561449051,-0.00269568129442632,0.0125850960612297,0,
00:00:05.736,-0.0121150547638536,-0.00723181013017893,0.0100003620609641,0,
00:00:05.74,-0.0041504339314997205,-0.004090275149792429,-0.0309706665575504,0,
00:00:05.744,0.00021666040993295602,0.0157721098512411,-0.0147352712228894,0,
00:00:05.748,-0.007015085779130461,0.00962807517498732,0.0496313907206059,0,
00:00:05.752,0.000185383862117305,-0.00327173271216452,-0.0109135415405035,0,
00:00:05.756,-0.004665939603000879,-0.00117641116958112,0.0116330627351999,0,
00:00:05.76,0.007417041342705491,-0.015836775302887,0.00789959263056517,0,
00:00:05.764,0.0248554963618517,-0.0008885621209628881,-0.0493797324597836,0,
00:00:05.768,-0.0224680174142122,-0.00843008607625961,-0.0200523026287556,0,
00:00:05.772,-0.0168833285570145,0.00949601829051971,0.0109295807778835,0,
00:00:05.776,0.0314961411058903,0.0197619199752808,0.0445526018738747,0,
00:00:05.78,0.0249404311180115,0.0248146802186966,0.00382217415608466,0,
00:00:05.784,-0.0483095794916153,-0.041375994682312005,-0.0152918407693505,0,
00:00:05.788,-0.008008644916117191,-0.0186839681118727,-0.00286705163307488,0,
00:00:05.792,0.0069825672544539,0.0111559228971601,0.00696066441014409,0,
00:00:05.796,-0.0037271401379257397,0.00293973507359624,-0.0157631505280733,0,
00:00:05.8,0.0148883666843176,0.0136682940647006,0.00655563222244382,0,
00:00:05.804,0.0085916155949235,0.00678772293031216,0.00884488970041275,0,
00:00:05.808,0.0029483474791049996,-0.0145905446261168,-0.00928232818841934,0,
00:00:05.812,-0.0017960473196581,0.0115101635456085,0.0217195451259613,0,
00:00:05.816,-0.00642310595139861,0.00621821545064449,-0.0133118042722344,0,
00:00:05.82,-0.0107493493705988,-0.0207719337195158,-0.0258794315159321,0,
00:00:05.824,-0.0036793483886867796,-0.0077861794270575,-0.00404992327094078,0,
00:00:05.828,0.00124470819719136,0.009051753208041191,0.0157138928771019,0,
00:00:05.832,0.0183675438165665,-0.00702315010130405,0.0356816165149212,0,
00:00:05.836,-0.0180263873189688,-0.00327783287502825,-0.0075070774182677295,0,
00:00:05.84,0.009583804756402971,0.0226317066699266,-0.0288270600140095,0,
00:00:05.844,0.00684214057400823,0.0249508079141378,-0.0152217084541917,0,
00:00:05.848,0.0068260133266449,-0.0150471199303865,0.0113407783210278,0,
00:00:05.852,-0.0178078263998032,-0.0358033291995525,0.0213954895734787,0,
00:00:05.856,-0.0117454743012786,-0.00209829560481012,-0.0121601140126586,0,
00:00:05.86,0.006951457820832729,0.0133724315091968,0.0295944586396217,0,
00:00:05.864,0.0168880075216293,0.0135272117331624,-0.00967576541006565,0,
00:00:05.868,0.0149450358003378,0.00822851620614529,-0.0347638763487339,0,
00:00:05.872,-0.0018081256421282898,-0.00562266213819385,0.0274137351661921,0,
00:00:05.876,-0.0189308281987906,-0.0178492572158575,-0.0220600925385952,0,
00:00:05.88,-0.0176747459918261,-0.00909486413002014,-0.00328508950769901,0,
00:00:05.884,-0.0213272962719202,0.00876170210540295,0.0163367595523596,0,
00:00:05.888,0.0033531449735164603,0.019396860152483004,0.00411354890093207,0,
00:00:05.892,0.0493427328765392,0.0105263516306877,0.00773278484120965,0,
00:00:05.896,0.0141127677634358,-0.022715849801898,-0.0179611798375845,0,
00:00:05.9,-0.0129468105733395,-0.0166069269180298,-0.0126023162156343,0,
00:00:05.904,-0.012270912528037999,0.0135022299364209,0.0106991091743112,0,
00:00:05.908,-0.009200194850564001,0.0141750350594521,0.0217518452554941,0,
00:00:05.912,-0.00823372602462769,-0.0058348304592073,0.0111281480640173,0,
00:00:05.916,0.00256135663948953,-0.00662589725106955,-0.00723650120198727,0,
00:00:05.92,0.0148286717012525,-0.00804327614605427,-0.015556669794023,0,
00:00:05.924,-0.00033120193984359503,0.0162808336317539,-0.0334531106054783,0,
00:00:05.928,-0.0145224379375577,0.00223193690180779,0.0111212143674493,0,
00:00:05.932,0.009112718515098091,-0.0017738770693540601,0.00882567185908556,0,
00:00:05.936,-0.00246528838761151,-0.00640111044049263,0.0212119668722153,0,
00:00:05.94,0.00628693588078022,-0.00401507643982768,0.0174687243998051,0,
00:00:05.944,0.0181580223143101,0.00395893631502986,-0.0102986181154847,0,
00:00:05.948,-0.010725773870945,-0.0100283240899444,-0.0378343686461449,0,
00:00:05.952,-0.031488012522458995,0.00723190372809768,-0.0102928206324577,0,
00:00:05.956,-0.0168351531028748,0.00992501992732286,0.0299375727772713,0,
00:00:05.96,0.0417867116630077,0.0110975466668606,0.0416552536189556,0,
00:00:05.964,0.0331797190010548,-0.0176294539123774,-0.0185508020222187,0,
00:00:05.968,-0.0367051586508751,-0.0186012592166662,-0.0193631798028946,0,
00:00:05.972,0.0024048644118011,0.00797052215784788,-0.0370439253747463,0,
00:00:05.976,0.012032370083033999,0.0104216290637851,0.00413133576512337,0,
00:00:05.98,-0.0419318340718746,0.0110409474000335,0.0390724763274193,0,
00:00:05.984,0.0252835918217897,0.0162592586129904,-0.0142056830227375,0,
00:00:05.988,0.0114955976605415,-0.0193647611886263,0.000458612281363457,0,
00:00:05.992,-0.00551851466298103,-0.0249821580946445,0.0363732986152172,0,
00:00:05.996,-0.0133993569761515,0.00406354526057839,-0.0235533881932497,0,
00:00:06,-0.00123909988906235,0.0100575955584645,-0.0237504784017801,0,
00:00:06.004,0.0246120449155569,0.000272232689894736,0.0210536904633045,0,
00:00:06.008,-0.019333565607667,-0.00111824739724398,-0.0152288489043713,0,
00:00:06.012,-0.0052583394572138795,0.0149212693795562,0.0307907946407795,0,
00:00:06.016,0.00896948669105768,-0.00792698003351688,-0.00967451836913824,0,
00:00:06.02,0.0076137185096740705,-0.007266136817634109,-0.0330934748053551,0,
00:00:06.024,0.007886453531682491,0.00115923001430929,0.00933966226875782,0,
00:00:06.028,-0.00883977953344584,0.0034384389873594,-0.0104215191677213,0,
00:00:06.032,-0.0133258886635303,0.00856986176222563,0.0240140035748482,0,
00:00:06.036,-0.00169604644179344,0.006858093198388811,0.0260795895010233,0,
00:00:06.04,0.0131141673773527,-0.0220316220074892,0.0101874871179461,0,
00:00:06.044,0.0103451693430543,-0.00376503728330135,-0.0526703484356403,0,
00:00:06.048,-0.021216806024313,0.0018145459471270399,-0.00769609864801168,0,
00:00:06.052,-0.0229686796665192,-0.00333864358253777,0.0255821514874697,0,
00:00:06.056,0.0461384132504463,0.0126079376786947,0.0115693490952253,0,
00:00:06.06,0.0005304891965352,0.00482974061742425,-0.0494894534349442,0,
00:00:06.064,-0.0222643353044987,0.00873022712767124,0.0332734137773514,0,
00:00:06.068,0.0299059152603149,0.0006101775215938691,0.0238366778939962,0,
00:00:06.072,-0.0570029206573963,-0.0189379043877125,-0.00288284150883555,0,
00:00:06.076,0.00993972737342119,-0.00881186965852976,0.00765336770564318,0,
00:00:06.08,0.0416626892983913,0.0037025169003754898,-0.0498509779572487,0,
00:00:06.084,0.0184953957796097,0.0130672305822372,-0.013664286583661998,0,
00:00:06.088,-0.017337104305625,-0.00313541642390192,0.0328288450837135,0,
00:00:06.092,-0.0341365486383438,-0.00982601940631866,0.0108843296766281,0,
00:00:06.096,0.00627971813082695,0.00991442985832691,-0.01115866843611,0,
00:00:06.1,-0.00253857602365315,0.013474315404892,-0.0112664764747024,0,
00:00:06.104,-0.0142076052725315,-0.00416227243840694,0.0722436159849167,0,
00:00:06.108,-0.0087913079187274,-0.0139125371351838,-0.0157958678901196,0,
00:00:06.112,0.0364827960729599,-0.0157466139644384,-0.0668946206569672,0,
00:00:06.116,0.0282460637390614,0.00701961200684309,-0.0167116522789001,0,
00:00:06.12,0.000188262449228205,0.0205885116010904,0.0214339271187782,0,
00:00:06.124,-0.0157069768756628,7.399648166028779e-05,0.0327265337109566,0,
00:00:06.128,-0.00899672228842974,0.000934596348088235,-0.00784366857260466,0,
00:00:06.132,-0.00345101207494736,-0.0037947339005768295,-0.0200067907571793,0,
00:00:06.136,-0.0277229212224483,-0.0142234330996871,0.0398400463163853,0,
00:00:06.14,-0.015962740406394,-0.00481836125254631,6.91592140356079e-05,0,
00:00:06.144,0.0313766300678253,0.0028554885648191,-0.0276587978005409,0,
00:00:06.148,0.0226158685982227,0.012397387996316003,0.00400857347995043,0,
00:00:06.152,-0.00784743018448353,0.0161626432090998,0.0186724122613668,0,
00:00:06.156,0.0208185948431492,0.000688200176227838,-0.0406036376953125,0,
00:00:06.16,-0.0102935610339046,-0.0231857821345329,-0.0111468359827995,0,
00:00:06.164,-0.0125008318573236,-0.008686434477567671,0.0639564916491508,0,
00:00:06.168,-0.0121590280905366,0.0108654797077179,-0.0155403818935156,0,
00:00:06.172,-0.00852658320218325,-0.0028103401418775303,-0.0222278777509928,0,
00:00:06.176,-0.0138760730624199,-0.000451147614512593,-0.0276728738099337,0,
00:00:06.18,0.0230042468756437,0.007669999264180659,0.025946157053112998,0,
00:00:06.184,0.0406229719519615,0.00668506883084774,0.0285722520202398,0,
00:00:06.188,-0.0041796704754233395,-0.00456732185557485,-0.0059096044860780204,0,
00:00:06.192,-0.0199623927474022,-0.0010769619839265901,-0.0137987369671464,0,
00:00:06.196,-0.0148158827796578,4.77595458505675e-05,-0.00466891238465905,0,
00:00:06.2,-0.0084292758256197,-0.00859992671757936,0.0074642151594162,0,
00:00:06.204,-0.00504779769107699,0.000736779358703643,-0.00688750669360161,0,
00:00:06.208,0.019054738804698,0.00922450236976147,0.0138994436711073,0,
00:00:06.212,0.00424433639273047,-0.0037272407207638,-0.012585649266839,0,
00:00:06.216,-0.014709834009408998,-0.0166881494224072,0.00452126562595367,0,
00:00:06.22,0.0108376583084464,0.0026350368279963697,0.0172387026250362,0,
00:00:06.224,0.0148157067596912,0.0174721013754606,-0.0428151749074459,0,
00:00:06.228,0.008698215708136559,0.0162941422313452,-0.00839270651340485,0,
00:00:06.232,-0.0115078371018171,-0.0111500006169081,0.0662545785307884,0,
00:00:06.236,-0.00451819458976388,-0.0021619985345751,-0.0153713431209326,0,
00:00:06.24,-0.0101903276517987,-0.00458096293732524,-0.0298953764140606,0,
00:00:06.244,-0.0538385510444641,-0.0245746355503798,-0.0028150063008070005,0,
00:00:06.248,0.00402757991105318,0.00976969487965107,0.0119367884472013,0,
00:00:06.252,0.0813487768173218,0.0100792748853564,0.0186475664377213,0,
00:00:06.256,0.0187954809516668,0.00270971655845642,-0.0277205128222704,0,
00:00:06.26,-0.0118270702660084,0.0144731514155865,-0.0149919232353568,0,
00:00:06.264,-0.0351633951067925,0.00219504302367568,0.0458193048834801,0,
00:00:06.268,-0.00265994132496417,-0.021367184817791,-0.008541993796825409,0,
00:00:06.272,-0.00846020691096783,-0.00778275961056352,-0.00202618981711566,0,
00:00:06.276,-0.007249956950545309,0.0045412462204694705,-0.014942086301744,0,
00:00:06.28,-0.00294713070616126,0.00662885559722781,-0.00222856481559575,0,
00:00:06.284,0.0197286587208509,0.0143932960927486,0.018343023955821998,0,
00:00:06.288,0.0350541211664677,-0.00720860296860337,-0.0008828770369291311,0,
00:00:06.292,-0.0219286102801561,-0.0159289482980967,-0.0457474365830421,0,
00:00:06.296,-0.0355342254042625,-0.00688729668036103,0.0325793623924255,0,
00:00:06.3,0.00695999665185809,0.013921526260674,0.0420213863253593,0,
00:00:06.304,0.0330201201140881,0.0276117194443941,-0.0428186617791653,0,
00:00:06.308,-0.0219909008592367,-0.0325697436928749,-0.00904166791588068,0,
00:00:06.312,0.0122034726664424,-0.0144365699961782,0.0245818551629782,0,
