,Elapsed Time,EMG
0,00:00:00,-0.4691261351108542
1,00:00:00.004,0.44227108359336453
2,00:00:00.008,0.3833554685115801
3,00:00:00.012,0.03954504989087648
4,00:00:00.016,-0.20062281936406845
5,00:00:00.02,-0.2358469963073757
6,00:00:00.024,-0.14559699967503636
7,00:00:00.028,-0.017740181647241643
8,00:00:00.032,0.09445944242179383
9,00:00:00.036,0.07479868456721295
10,00:00:00.04,0.06549035757780036
11,00:00:00.044,0.03111620992422065
12,00:00:00.048,-0.017021229490637793
13,00:00:00.052,-0.02587350830435739
14,00:00:00.056,-0.016305858269333395
15,00:00:00.06,-0.025996447249781368
16,00:00:00.064,-0.001782388077117495
17,00:00:00.068,0.0161955212242902
18,00:00:00.072,0.014112546807155013
19,00:00:00.076,0.0031837918795645237
20,00:00:00.08,0.0017392230220139304
21,00:00:00.084,-0.014149459777399911
22,00:00:00.088,0.005809854483231869
23,00:00:00.092,0.005690267775207749
24,00:00:00.096,-0.00826894049532712
25,00:00:00.1,-0.006478776536823714
26,00:00:00.104,-0.00265734875574704
27,00:00:00.108,-0.0007300310535356398
28,00:00:00.112,0.00979738123714924
29,00:00:00.116,0.009808482369408008
30,00:00:00.12,0.003901465373928658
31,00:00:00.124,-0.004387166234664617
32,00:00:00.128,-0.01393945026211444
33,00:00:00.132,-3.0184863135170048e-05
34,00:00:00.136,0.00713474734220654
35,00:00:00.14,-0.01641650358214973
36,00:00:00.144,0.01108983671292659
37,00:00:00.148,0.0045682587660849094
38,00:00:00.152,0.00628475483972579
39,00:00:00.156,-0.0013074629823677298
40,00:00:00.16,-0.0038361821789294794
41,00:00:00.164,-0.0011340568889863802
42,00:00:00.168,0.0008160567376762594
43,00:00:00.172,-0.00737223972100765
44,00:00:00.176,0.001695579790975905
45,00:00:00.18,0.00330869189929217
46,00:00:00.184,0.004006158842457804
47,00:00:00.188,-0.008044914582569616
48,00:00:00.192,0.00964462896808981
49,00:00:00.196,-0.00839525263290853
50,00:00:00.2,-0.0002667322987690494
51,00:00:00.204,0.004839568991883421
52,00:00:00.208,0.00671737908851355
53,00:00:00.212,-0.008787272876361383
54,00:00:00.216,-0.00579218310303986
55,00:00:00.22,0.008938263752497733
56,00:00:00.224,-0.003692368160045593
57,00:00:00.228,0.0016602024843450553
58,00:00:00.232,-0.0007243431173265015
59,00:00:00.236,0.0017713671550154695
60,00:00:00.24,0.006747768231434745
61,00:00:00.244,-0.01513511664234102
62,00:00:00.248,0.0037178897764533697
63,00:00:00.252,-0.0051293418509885695
64,00:00:00.256,0.00727869314141572
65,00:00:00.26,0.00850101653486489
66,00:00:00.264,-0.0004953299649059799
67,00:00:00.268,-0.0019979861099272992
68,00:00:00.272,-0.0016388609074056149
69,00:00:00.276,-0.01571461919229479
70,00:00:00.28,0.004618864671101618
71,00:00:00.284,0.01039986696559936
72,00:00:00.288,0.00901925540529193
73,00:00:00.292,-0.01160227140644566
74,00:00:00.296,-0.0037875948473811193
75,00:00:00.3,-0.0014598273555748173
76,00:00:00.304,0.010326131596229967
77,00:00:00.308,-0.004580224747769532
78,00:00:00.312,-0.004134746268391611
79,00:00:00.316,0.0040864496259018805
80,00:00:00.32,0.0027393558993935602
81,00:00:00.324,-0.00039558520074933507
82,00:00:00.328,-0.004189533399767235
83,00:00:00.332,-0.006247961369808758
84,00:00:00.336,0.01085392793174833
85,00:00:00.34,-0.0006221287185326206
86,00:00:00.344,-0.002768370584817607
87,00:00:00.348,0.0006388356850948174
88,00:00:00.352,-0.00381181837292388
89,00:00:00.356,0.0055373701907228704
90,00:00:00.36,-0.0015301336534321369
91,00:00:00.364,-0.006020710134180258
92,00:00:00.368,0.0015473288949578992
93,00:00:00.372,0.01025621732696895
94,00:00:00.376,-0.0008808800484984818
95,00:00:00.38,-0.004160181691986515
96,00:00:00.384,-0.0032297414727509013
97,00:00:00.388,-0.0030691847787238623
98,00:00:00.392,0.0006740507960785154
99,00:00:00.396,0.015433140157256282
100,00:00:00.4,-0.008968487207312133
101,00:00:00.404,-0.0084999479586259
102,00:00:00.408,0.0007146303832996689
103,00:00:00.412,0.0059935963945462805
104,00:00:00.416,0.00133977574296295
105,00:00:00.42,0.0016870229737833147
106,00:00:00.424,-0.00687104347161948
107,00:00:00.428,0.005910887382924553
108,00:00:00.432,0.0030728141282452236
109,00:00:00.436,-0.00396323902532459
110,00:00:00.44,-0.01239960663951933
111,00:00:00.444,0.0022081083152443197
112,00:00:00.448,0.00932440976612271
113,00:00:00.452,0.0058531454415060614
114,00:00:00.456,0.006479610878159299
115,00:00:00.46,-0.011260210798354814
116,00:00:00.464,-0.01088972517754882
117,00:00:00.468,0.00480737828183919
118,00:00:00.472,0.0015582499327137988
119,00:00:00.476,0.008057746861595657
120,00:00:00.48,-0.0060784219531342405
121,00:00:00.484,-0.0017960948468385145
122,00:00:00.488,0.00738821178674697
123,00:00:00.492,-0.0019055120646953535
124,00:00:00.496,-0.0056609904859214995
125,00:00:00.5,0.00415828370023518
126,00:00:00.504,-0.004277494270354509
127,00:00:00.508,-0.0019171128515154093
128,00:00:00.512,0.005874495313037187
129,00:00:00.516,-0.0007849307730794005
130,00:00:00.52,0.009469408047152678
131,00:00:00.524,-0.009596610150765635
132,00:00:00.528,-0.005273509770631791
133,00:00:00.532,-0.004296745406463746
134,00:00:00.536,0.00461021135561168
135,00:00:00.54,0.00826736283488572
136,00:00:00.544,0.0037004967452958226
137,00:00:00.548,-0.0013978385832160798
138,00:00:00.552,-0.0038172085769474506
139,00:00:00.556,0.004865252878516911
140,00:00:00.56,-0.01156970858573914
141,00:00:00.564,-0.0043260563397780095
142,00:00:00.568,0.0001506337430328161
143,00:00:00.572,0.0048103028093464655
144,00:00:00.576,0.016017714544432238
145,00:00:00.58,-0.004422341473400591
146,00:00:00.584,-0.00783082254929468
147,00:00:00.588,-0.006375035038217901
148,00:00:00.592,-5.3774332627649305e-05
149,00:00:00.596,0.00608648592606186
150,00:00:00.6,0.00860965391620994
151,00:00:00.604,-0.007307096617296351
152,00:00:00.608,0.0009295726194977799
153,00:00:00.612,-0.0015362757258117294
154,00:00:00.616,-0.0013311643269844292
155,00:00:00.62,0.0017922793049365295
156,00:00:00.624,-0.0035045550321228794
157,00:00:00.628,0.00321149348746987
158,00:00:00.632,8.022756082937295e-05
159,00:00:00.636,0.001650241363677198
160,00:00:00.64,-2.0472041796890713e-05
161,00:00:00.644,-0.003441444132476999
162,00:00:00.648,-0.005731082521379
163,00:00:00.652,0.004744459525682034
164,00:00:00.656,0.0051292456919327396
165,00:00:00.66,0.00396472658030689
166,00:00:00.664,-0.0010102769592776882
167,00:00:00.668,-0.005983049981296063
168,00:00:00.672,0.0003349219914525704
169,00:00:00.676,-0.00621325056999922
170,00:00:00.68,0.0007896294991951453
171,00:00:00.684,0.00580773875117303
172,00:00:00.688,0.0013850558316335047
173,00:00:00.692,0.0039554345421493105
174,00:00:00.696,-0.010766256134957079
175,00:00:00.7,0.004192827967926861
176,00:00:00.704,0.000193510291865089
177,00:00:00.708,0.008638650702778247
178,00:00:00.712,-0.004947830711898858
179,00:00:00.716,-0.007764340261928737
180,00:00:00.72,-0.00836096797138452
181,00:00:00.724,0.025377242360264098
182,00:00:00.728,-0.01069416670361532
183,00:00:00.732,-0.0015125670470297805
184,00:00:00.736,0.00019114138558506792
185,00:00:00.74,-0.0002287623938172778
186,00:00:00.744,-0.00682325416710228
187,00:00:00.748,0.001323803560808301
188,00:00:00.752,0.010922923102043569
189,00:00:00.756,9.717547800392064e-05
190,00:00:00.76,-0.01175700360909104
191,00:00:00.764,0.009019609307870281
192,00:00:00.768,0.00347904139198363
193,00:00:00.772,-0.006243004580028355
194,00:00:00.776,-0.0002114141243509944
195,00:00:00.78,-0.0019308099290355997
196,00:00:00.784,-0.00683280162047595
197,00:00:00.788,0.01305010577198118
198,00:00:00.792,0.002545165189076218
199,00:00:00.796,-0.003156202554237095
200,00:00:00.8,-0.008345245340024126
201,00:00:00.804,-0.006856758540379822
202,00:00:00.808,0.013050575807937996
203,00:00:00.812,0.002110672066919511
204,00:00:00.816,0.0030061707366257897
205,00:00:00.82,-0.0032216244144365187
206,00:00:00.824,-0.0018240167992189613
207,00:00:00.828,-0.006107451431489608
208,00:00:00.832,-0.00376448803581297
209,00:00:00.836,0.012913400452816864
210,00:00:00.84,0.00186145992483943
211,00:00:00.844,-0.00550572527572513
212,00:00:00.848,-0.002030857838690281
213,00:00:00.852,-0.006718279080814681
214,00:00:00.856,-4.3841544538729404e-05
215,00:00:00.86,0.011419798480346806
216,00:00:00.864,-0.0001982396934181396
217,00:00:00.868,0.006396608776412911
218,00:00:00.872,-0.0025003820774145416
219,00:00:00.876,-0.00403137155808509
220,00:00:00.88,-0.01522784633561969
221,00:00:00.884,-0.0016570719890296503
222,00:00:00.888,0.01767547894269229
223,00:00:00.892,0.0008891721954569195
224,00:00:00.896,0.00318806432187557
225,00:00:00.9,-0.005968402281723676
226,00:00:00.904,-0.011426053606555794
227,00:00:00.908,0.008646850241348147
228,00:00:00.912,-0.0057730364496819744
229,00:00:00.916,0.013913337374106051
230,00:00:00.92,0.007963120355270801
231,00:00:00.924,-0.01496944879181684
232,00:00:00.928,-0.015001136838691309
233,00:00:00.932,0.0053923688828945195
234,00:00:00.936,0.01553439756389708
235,00:00:00.94,-0.00240776827558875
236,00:00:00.944,-0.00659072771668435
237,00:00:00.948,0.0023788441903889197
238,00:00:00.952,0.0006273255858104651
239,00:00:00.956,0.00036701696444652065
240,00:00:00.96,0.004401351267006255
241,00:00:00.964,-0.003937343921279528
242,00:00:00.968,0.0089423405006528
243,00:00:00.972,-0.0083993854932487
244,00:00:00.976,-0.01035030465573073
245,00:00:00.98,-0.0106710065738298
246,00:00:00.984,0.01021285739261657
247,00:00:00.988,0.014899199362844232
248,00:00:00.992,0.010950403288006783
249,00:00:00.996,-0.00806894677225501
250,00:00:01,-0.00977755407802761
251,00:00:01.004,0.0014390755313797837
252,00:00:01.008,-0.007557269491371694
253,00:00:01.012,-0.003960767993703481
254,00:00:01.016,0.01652227959129954
255,00:00:01.02,0.00805129471700643
256,00:00:01.024,-0.011890625813975932
257,00:00:01.028,-0.0070541886379942315
258,00:00:01.032,-0.007107810233719619
259,00:00:01.036,0.012978159822523599
260,00:00:01.04,0.00458504762718803
261,00:00:01.044,0.0016142645617946974
262,00:00:01.048,-0.008577890694141381
263,00:00:01.052,-0.0020592467917595054
264,00:00:01.056,0.01016400963999331
265,00:00:01.06,-0.007221014617243798
266,00:00:01.064,-0.000780633999966081
267,00:00:01.068,-0.009136512875556899
268,00:00:01.072,0.017249757511308382
269,00:00:01.076,0.006834727246314299
270,00:00:01.08,-0.008209876599721609
271,00:00:01.084,-0.012629389777430371
272,00:00:01.088,-0.0035212825168855484
273,00:00:01.092,0.012875475338660191
274,00:00:01.096,0.0012252700907993078
275,00:00:01.1,-0.00361415604129435
276,00:00:01.104,0.005029628751799471
277,00:00:01.108,0.0037677359068766297
278,00:00:01.112,-0.004534890409559011
279,00:00:01.116,-0.0035141936969012373
280,00:00:01.12,-0.00693933705031214
281,00:00:01.124,-0.00763497082516551
282,00:00:01.128,0.009519308106973759
283,00:00:01.132,0.009912401088513429
284,00:00:01.136,0.00393919623456896
285,00:00:01.14,-0.0017338220495730571
286,00:00:01.144,-0.006380137987434858
287,00:00:01.148,0.00020431874145288384
288,00:00:01.152,-0.004236415494233371
289,00:00:01.156,0.00278831156902015
290,00:00:01.16,-0.00624365825206042
291,00:00:01.164,0.00571854226291179
292,00:00:01.168,0.007270836038514968
293,00:00:01.172,-0.0008912399644032199
294,00:00:01.176,0.00045855122152715986
295,00:00:01.18,-0.009089500788832078
296,00:00:01.184,-0.01073931297287345
297,00:00:01.188,0.0118249464139808
298,00:00:01.192,0.00984416296705603
299,00:00:01.196,-0.004668679204769437
300,00:00:01.2,0.0037301327101886203
301,00:00:01.204,-0.006676076678559162
302,00:00:01.208,-0.008888356853276491
303,00:00:01.212,0.014228657237254062
304,00:00:01.216,0.0003617249894887157
305,00:00:01.22,-0.01078288039207105
306,00:00:01.224,-7.142126560210921e-05
307,00:00:01.228,-0.0005591756198555205
308,00:00:01.232,0.0071077810862334445
309,00:00:01.236,0.00449875963386147
310,00:00:01.24,-0.00015232991427182978
311,00:00:01.244,0.0011888229637406753
312,00:00:01.248,-0.005079111026134321
313,00:00:01.252,-0.00915361102670428
314,00:00:01.256,-0.002217996865510939
315,00:00:01.26,0.00195767276454717
316,00:00:01.264,0.014056510757654902
317,00:00:01.268,-0.00025178145733661744
318,00:00:01.272,0.0003283590194769182
319,00:00:01.276,-0.00265353365102783
320,00:00:01.28,-0.00393666769377886
321,00:00:01.284,-0.0049623146187514
322,00:00:01.288,-0.011261091800406572
323,00:00:01.292,0.01655404863413423
324,00:00:01.296,0.01599716034252196
325,00:00:01.3,-0.007953975815325972
326,00:00:01.304,-0.016790348337963182
327,00:00:01.308,-0.00110365636646748
328,00:00:01.312,0.00995457405224442
329,00:00:01.316,0.010333542799344286
330,00:00:01.32,-0.006198495160788289
331,00:00:01.324,-0.0071887109370436545
332,00:00:01.328,-0.004837587242946033
333,00:00:01.332,0.0012716557830572007
334,00:00:01.336,0.008781920536421246
335,00:00:01.34,0.00865665753372016
336,00:00:01.344,-0.00926483073271811
337,00:00:01.348,-0.0033085084287449587
338,00:00:01.352,-0.002778412366751577
339,00:00:01.356,0.0003163074725307496
340,00:00:01.36,0.0002448928426019908
341,00:00:01.364,0.00440813321620226
342,00:00:01.368,0.0029645722825080204
343,00:00:01.372,0.004331081916461696
344,00:00:01.376,-0.007701949740294374
345,00:00:01.38,-0.00540818538866006
346,00:00:01.384,0.0019541153160389495
347,00:00:01.388,0.00113954558037221
348,00:00:01.392,0.00797247502487153
349,00:00:01.396,-0.004284688853658744
350,00:00:01.4,-0.004143999358348083
351,00:00:01.404,0.0034150786232203254
352,00:00:01.408,-0.00222922419197857
353,00:00:01.412,0.007223405293188985
354,00:00:01.416,-0.0048652204568497845
355,00:00:01.42,-0.006781772826798259
356,00:00:01.424,0.0030901513528078803
357,00:00:01.428,0.0016078170738182962
358,00:00:01.432,0.00331527285743505
359,00:00:01.436,-0.0053140596719458595
360,00:00:01.44,0.00046603172086178823
361,00:00:01.444,0.004821140115382155
362,00:00:01.448,0.0002712185087148087
363,00:00:01.452,0.007270917063578969
364,00:00:01.456,-0.006804291042499246
365,00:00:01.46,-0.0028426256903912924
366,00:00:01.464,-0.01462257327511907
367,00:00:01.468,0.002213792526163159
368,00:00:01.472,0.02183505892753601
369,00:00:01.476,0.0025973869487643207
370,00:00:01.48,-0.016706896247342222
371,00:00:01.484,-0.001455242279917019
372,00:00:01.488,0.004113076021894812
373,00:00:01.492,0.014297519257524986
374,00:00:01.496,-0.006288022137596273
375,00:00:01.5,-0.008818317321129147
376,00:00:01.504,-0.006215769797563549
377,00:00:01.508,0.0029337314263102703
378,00:00:01.512,0.0051584244356490646
379,00:00:01.516,0.0056124809198081485
380,00:00:01.52,-0.00111750815995038
381,00:00:01.524,-0.004824684001505373
382,00:00:01.528,-0.0020367034012451794
383,00:00:01.532,0.009327963132818713
384,00:00:01.536,-0.011906047817319621
385,00:00:01.54,0.0072920410893857505
386,00:00:01.544,0.0029165365267545007
387,00:00:01.548,-0.005545560066821052
388,00:00:01.552,-0.001154631405370313
389,00:00:01.556,0.000867266178829597
390,00:00:01.56,-0.004971592745278027
391,00:00:01.564,0.008803509233985096
392,00:00:01.568,0.0031109404517337706
393,00:00:01.572,0.0006845411262474971
394,00:00:01.576,-0.005087714060209688
395,00:00:01.58,-0.020786454668268603
396,00:00:01.584,0.02088784985244274
397,00:00:01.588,0.01265061408048494
398,00:00:01.592,-0.00531811243854465
399,00:00:01.596,-0.006809528276789935
400,00:00:01.6,-0.0115364221855998
401,00:00:01.604,-0.00446172326337546
402,00:00:01.608,0.00955627125222235
403,00:00:01.612,0.01758690271526575
404,00:00:01.616,-0.006381166982464502
405,00:00:01.62,-0.00833680550567806
406,00:00:01.624,0.009253771509975202
407,00:00:01.628,-0.004135445778956639
408,00:00:01.632,-0.014591026701964431
409,00:00:01.636,0.00890031619928778
410,00:00:01.64,0.0032865883695194454
411,00:00:01.644,-0.006001830333843831
412,00:00:01.648,0.0029926893766969494
413,00:00:01.652,-0.0021739457151852552
414,00:00:01.656,0.007739735417999327
415,00:00:01.66,0.006383663509041071
416,00:00:01.664,0.00087782827904448
417,00:00:01.668,-0.013995956192957251
418,00:00:01.672,-0.005552558170165871
419,00:00:01.676,-0.0065078383777290106
420,00:00:01.68,0.025269230129197268
421,00:00:01.684,0.0010482436046004304
422,00:00:01.688,-0.01346586109139026
423,00:00:01.692,-0.0026580878184176955
424,00:00:01.696,0.0023186742328107305
425,00:00:01.7,0.0051982675213366695
426,00:00:01.704,0.006071003619581451
427,00:00:01.708,-0.00535293889697641
428,00:00:01.712,-0.005929733626544479
429,00:00:01.716,-0.010676466103177518
430,00:00:01.72,-0.0014056489162612724
431,00:00:01.724,0.027380117680877426
432,00:00:01.728,0.015813078265637152
433,00:00:01.732,-0.02188239060342311
434,00:00:01.736,-0.02120298775844275
435,00:00:01.74,-0.00681674527004362
436,00:00:01.744,0.012111376272514471
437,00:00:01.748,0.013276389683596818
438,00:00:01.752,0.008574401494115591
439,00:00:01.756,0.0014097754610702343
440,00:00:01.76,-0.012414409080520262
441,00:00:01.764,-0.00645916792564094
442,00:00:01.768,0.003380395763088021
443,00:00:01.772,0.004770058483700265
444,00:00:01.776,-0.012328854470979424
445,00:00:01.78,0.0005924142315052456
446,00:00:01.784,0.008525739423930642
447,00:00:01.788,0.014401388762053059
448,00:00:01.792,-0.0007220910629257594
449,00:00:01.796,-0.02141053136438133
450,00:00:01.8,0.0008307396201416798
451,00:00:01.804,0.003385656047612425
452,00:00:01.808,-0.0008733549620956204
453,00:00:01.812,0.003747848866623824
454,00:00:01.816,0.0035221684374846544
455,00:00:01.82,0.005410224315710361
456,00:00:01.824,-0.004812011728063224
457,00:00:01.828,-0.00510432897135616
458,00:00:01.832,0.0001006065649562511
459,00:00:01.836,-0.00524927000515163
460,00:00:01.84,0.008535522792954001
461,00:00:01.844,0.0029936544597148904
462,00:00:01.848,-0.00333000533282757
463,00:00:01.852,0.005413826977019196
464,00:00:01.856,-0.01269549643620848
465,00:00:01.86,-0.009915318223647777
466,00:00:01.864,0.020201069302856887
467,00:00:01.868,0.009555481141433122
468,00:00:01.872,-0.021643253159709254
469,00:00:01.876,0.00707320193760097
470,00:00:01.88,-0.0010301740985596524
471,00:00:01.884,-0.004269426222890613
472,00:00:01.888,0.018142483953852206
473,00:00:01.892,-0.0023782702628523103
474,00:00:01.896,-0.0041270824149251
475,00:00:01.9,-0.007998043845873324
476,00:00:01.904,-0.006804480770369986
477,00:00:01.908,0.01033107633702457
478,00:00:01.912,-0.00315671146381647
479,00:00:01.916,-0.00693115196190774
480,00:00:01.92,-0.0035558443050831556
481,00:00:01.924,0.009954702225513751
482,00:00:01.928,0.00947805377654731
483,00:00:01.932,0.007513954289606765
484,00:00:01.936,-0.0041867048130370624
485,00:00:01.94,-0.0038552719634026293
486,00:00:01.944,-0.014236985298339302
487,00:00:01.948,0.004809026111615822
488,00:00:01.952,-0.001681208668742328
489,00:00:01.956,-0.004250878118909901
490,00:00:01.96,0.004178019313258124
491,00:00:01.964,0.01651452085934579
492,00:00:01.968,-0.01018390897661447
493,00:00:01.972,-0.00385668990202248
494,00:00:01.976,0.00247021269751713
495,00:00:01.98,0.006171785644255577
496,00:00:01.984,-0.006038631312549141
497,00:00:01.988,-0.00676550576463342
498,00:00:01.992,0.01007033069618046
499,00:00:01.996,-0.0015098642325028873
500,00:00:02,-0.0033050420170184177
501,00:00:02.004,-0.003521988634020091
502,00:00:02.008,-0.0015589115791954042
503,00:00:02.012,0.015436765679623939
504,00:00:02.016,-0.0031170196598395705
505,00:00:02.02,-0.012738500488922
506,00:00:02.024,0.00023414401221089325
507,00:00:02.028,0.011166482872795319
508,00:00:02.032,-0.0016449959948659002
509,00:00:02.036,0.0007583269616588972
510,00:00:02.04,-0.00124110491015016
511,00:00:02.044,-0.010848030702618416
512,00:00:02.048,0.005784116918221116
513,00:00:02.052,0.0016960378270596296
514,00:00:02.056,0.0031785669707460364
515,00:00:02.06,-0.0010374763514846568
516,00:00:02.064,0.0008891106117516799
517,00:00:02.068,0.005995762126985932
518,00:00:02.072,-0.0009650806896388496
519,00:00:02.076,-0.01633904594928026
520,00:00:02.08,-0.012586642638780194
521,00:00:02.084,0.01937220152467489
522,00:00:02.088,0.0128425401635468
523,00:00:02.092,-0.0025391454109922086
524,00:00:02.096,-0.0016604763222858388
525,00:00:02.1,-0.00575763697270304
526,00:00:02.104,4.116271156817024e-05
527,00:00:02.108,-0.004806675482541318
528,00:00:02.112,-0.003829236789897548
529,00:00:02.116,0.005951014230959112
530,00:00:02.12,-0.009433054248802367
531,00:00:02.124,0.0088692834833637
532,00:00:02.128,0.01579265086911619
533,00:00:02.132,0.0016224941937252862
534,00:00:02.136,-0.007202436332590879
535,00:00:02.14,-0.0024012728972593335
536,00:00:02.144,-0.01737285376293585
537,00:00:02.148,0.000351075723301621
538,00:00:02.152,0.01102798723150045
539,00:00:02.156,0.000362932798452681
540,00:00:02.16,0.0016766247572377298
541,00:00:02.164,0.000969555272604344
542,00:00:02.168,-0.004345931785792352
543,00:00:02.172,0.00718240870628506
544,00:00:02.176,-0.001654833788052199
545,00:00:02.18,-0.011843195301480591
546,00:00:02.184,0.005738187217502875
547,00:00:02.188,0.012644089059904232
548,00:00:02.192,-0.0020202212035655906
549,00:00:02.196,-0.015149268321692938
550,00:00:02.2,0.004660342208808283
551,00:00:02.204,0.00514132459647953
552,00:00:02.208,-0.003411918878555295
553,00:00:02.212,-0.00458953157067298
554,00:00:02.216,0.0002919512335210991
555,00:00:02.22,0.0036285500973462998
556,00:00:02.224,0.009980583330616351
557,00:00:02.228,6.34928583167501e-05
558,00:00:02.232,-0.00922402041032911
559,00:00:02.236,0.0007747017079964329
560,00:00:02.24,-0.01174992800224572
561,00:00:02.244,0.00671888818033039
562,00:00:02.248,0.004012090008473023
563,00:00:02.252,0.007305765990167859
564,00:00:02.256,0.010228490689769408
565,00:00:02.26,-0.006855434330646006
566,00:00:02.264,-0.019390197005122907
567,00:00:02.268,-0.00344515102915466
568,00:00:02.272,0.005338457645848369
569,00:00:02.276,0.00301156227942555
570,00:00:02.28,0.0086489442619495
571,00:00:02.284,0.00227002601604909
572,00:00:02.288,0.004904262430500242
573,00:00:02.292,-0.004370559006929399
574,00:00:02.296,-0.00904485187493265
575,00:00:02.3,-0.00486364448443055
576,00:00:02.304,-0.001521042722743005
577,00:00:02.308,0.005567898493609389
578,00:00:02.312,0.009516433026874443
579,00:00:02.316,-0.005841598147526379
580,00:00:02.32,-0.010405833978438746
581,00:00:02.324,0.008611248145825813
582,00:00:02.328,0.02060182485729457
583,00:00:02.332,-0.010093035281897754
584,00:00:02.336,-0.00899503706023097
585,00:00:02.34,-0.007684004143811761
586,00:00:02.344,-0.001479882281273609
587,00:00:02.348,0.00333610596135259
588,00:00:02.352,0.00680727022700012
589,00:00:02.356,-0.004801178642082955
590,00:00:02.36,0.003266511484980579
591,00:00:02.364,0.007966148434206849
592,00:00:02.368,-0.004730315762571988
593,00:00:02.372,-0.00249140243977308
594,00:00:02.376,0.00526018952950835
595,00:00:02.38,-0.00391706149093806
596,00:00:02.384,-0.008659413259010765
597,00:00:02.388,-0.0019280989654362306
598,00:00:02.392,0.0123933048453182
599,00:00:02.396,-0.00015572074335069071
600,00:00:02.4,-0.00690689450129866
601,00:00:02.404,0.01269590784795583
602,00:00:02.408,-0.004542146751191462
603,00:00:02.412,-0.00901005929335952
604,00:00:02.416,0.0007527924499299817
605,00:00:02.42,0.0004561709938570896
606,00:00:02.424,-0.0069037821085658
607,00:00:02.428,0.005475643585668873
608,00:00:02.432,0.009658907423727221
609,00:00:02.436,0.014617331966292108
610,00:00:02.44,-0.007563470622699238
611,00:00:02.444,-0.01897225063294173
612,00:00:02.448,-0.006463957717642192
613,00:00:02.452,0.0076319593936205205
614,00:00:02.456,0.001235127449035642
615,00:00:02.46,0.00667201448231935
616,00:00:02.464,0.0016085712122730937
617,00:00:02.468,0.003422679263167089
618,00:00:02.472,-0.005424295268312562
619,00:00:02.476,-0.0025044468929991204
620,00:00:02.48,-0.000976603099843489
621,00:00:02.484,-0.0020827011903747908
622,00:00:02.488,0.0045903144591648085
623,00:00:02.492,-0.003801919345278297
624,00:00:02.496,-0.0011369580170139699
625,00:00:02.5,0.006463500176323579
626,00:00:02.504,0.005527264496777198
627,00:00:02.508,-0.0009713229956105366
628,00:00:02.512,-0.01111423387192191
629,00:00:02.516,-0.0008974981028586702
630,00:00:02.52,0.0005375311593525107
631,00:00:02.524,0.00248887785710394
632,00:00:02.528,0.00902104040142149
633,00:00:02.532,-0.0042485767044127005
634,00:00:02.536,-0.004758952418342241
635,00:00:02.54,-0.00349567970260978
636,00:00:02.544,0.00539540359750391
637,00:00:02.548,0.006022952788043762
638,00:00:02.552,0.0002917111269198393
639,00:00:02.556,-0.01204089634120464
640,00:00:02.56,-0.0025176324270432763
641,00:00:02.564,0.01022744574584067
642,00:00:02.568,0.0015966362298058833
643,00:00:02.572,0.006883015390485535
644,00:00:02.576,-0.009568560402840369
645,00:00:02.58,-0.00954113760963082
646,00:00:02.584,0.00325452082324773
647,00:00:02.588,0.007542970473878091
648,00:00:02.592,-0.0009000805439427432
649,00:00:02.596,-0.0015545048518106298
650,00:00:02.6,0.00394688046071679
651,00:00:02.604,-0.00528014788869768
652,00:00:02.608,-0.0025766803883016066
653,00:00:02.612,0.009815517521928998
654,00:00:02.616,-0.00263295648619533
655,00:00:02.62,-0.0019586400594562266
656,00:00:02.624,-0.0035980532411485906
657,00:00:02.628,0.0032634155941195842
658,00:00:02.632,0.003822679107543081
659,00:00:02.636,-0.0028132815205026422
660,00:00:02.64,-0.01392760733142496
661,00:00:02.644,0.0041228688205592326
662,00:00:02.648,0.012710315873846412
663,00:00:02.652,0.0037636847234807625
664,00:00:02.656,-0.004412931681144981
665,00:00:02.66,-0.0024176098231691867
666,00:00:02.664,-0.0059322912711650185
667,00:00:02.668,0.004958824312780049
668,00:00:02.672,0.001091083744540801
669,00:00:02.676,-0.004994091112166628
670,00:00:02.68,0.009027977008372549
671,00:00:02.684,-0.00324506429024044
672,00:00:02.688,-0.01279556506779046
673,00:00:02.692,0.0020182763691991602
674,00:00:02.696,0.01774569926783446
675,00:00:02.7,-0.003936619963496929
676,00:00:02.704,-0.00219516083598139
677,00:00:02.708,-0.0002332071308046601
678,00:00:02.712,-0.003927400335669519
679,00:00:02.716,0.0015643449441995558
680,00:00:02.72,-0.003986043215263638
681,00:00:02.724,-0.0057853065663948655
682,00:00:02.728,-0.00069220679870341
683,00:00:02.732,0.0100641087628901
684,00:00:02.736,0.009585277177393436
685,00:00:02.74,0.00962182530201972
686,00:00:02.744,-0.010736815631389621
687,00:00:02.748,-0.02108524600043889
688,00:00:02.752,-0.0005434541089925846
689,00:00:02.756,0.007295574527233832
690,00:00:02.76,0.000861034583067523
691,00:00:02.764,0.01351173403963914
692,00:00:02.768,0.002810520978528073
693,00:00:02.772,-0.0028094021399738293
694,00:00:02.776,-0.01085130125284195
695,00:00:02.78,-0.01040626736357813
696,00:00:02.784,0.0023286864161491377
697,00:00:02.788,0.007512516342103477
698,00:00:02.792,0.014765186468139282
699,00:00:02.796,-0.003232728689908984
700,00:00:02.8,-0.009562744962750006
701,00:00:02.804,-0.005146445837453944
702,00:00:02.808,0.002596866121166383
703,00:00:02.812,0.0056656922388356136
704,00:00:02.816,-9.641144424677112e-05
705,00:00:02.82,-0.003771340794628488
706,00:00:02.824,-0.00138073883135803
707,00:00:02.828,0.015750884573208165
708,00:00:02.832,-0.01172247296199203
709,00:00:02.836,-0.00586280412971974
710,00:00:02.84,-0.0007466950919479097
711,00:00:02.844,-0.012356618186458961
712,00:00:02.848,0.01453594863414764
713,00:00:02.852,0.01950890244916077
714,00:00:02.856,-0.0005317106115398998
715,00:00:02.86,-0.01364083657972515
716,00:00:02.864,-0.01153630274347961
717,00:00:02.868,0.0005833958275616204
718,00:00:02.872,0.00768774282187224
719,00:00:02.876,0.00329125276766717
720,00:00:02.88,0.0049370928099960985
721,00:00:02.884,-0.0003891908272635183
722,00:00:02.888,-0.004175842739641658
723,00:00:02.892,-0.0023316050355788346
724,00:00:02.896,-0.00634279928635805
725,00:00:02.9,-0.0036112196976318886
726,00:00:02.904,0.0030104101169854394
727,00:00:02.908,0.0060859894147142785
728,00:00:02.912,0.011158981389598921
729,00:00:02.916,0.008252568077296022
730,00:00:02.92,-0.020040225703269236
731,00:00:02.924,-0.008880114823114132
732,00:00:02.928,-0.0032776037405710633
733,00:00:02.932,0.009480702457949509
734,00:00:02.936,0.014920282294042405
735,00:00:02.94,0.0013271204661577992
736,00:00:02.944,-0.008608697447925806
737,00:00:02.948,-0.0117282650899142
738,00:00:02.952,-0.00494350446388126
739,00:00:02.956,0.010791496140882371
740,00:00:02.96,0.008636598009616138
741,00:00:02.964,0.0017192715313285544
742,00:00:02.968,-0.005366133176721633
743,00:00:02.972,-0.002594562101876362
744,00:00:02.976,-0.00767814717255533
745,00:00:02.98,-0.00291964384814492
746,00:00:02.984,0.0172163457609713
747,00:00:02.988,0.010067840397823652
748,00:00:02.992,-0.01651084958575666
749,00:00:02.996,-0.003220067941583695
750,00:00:03,-0.005864363178261558
751,00:00:03.004,0.002507232973584906
752,00:00:03.008,0.005212453921558337
753,00:00:03.012,0.003970667501562273
754,00:00:03.016,0.007494595098251011
755,00:00:03.02,-0.00897074863314628
756,00:00:03.024,-0.011076626484282315
757,00:00:03.028,0.01993190171197056
758,00:00:03.032,-0.0069744045904371905
759,00:00:03.036,-0.008663431159220629
760,00:00:03.04,-0.0003013540990650602
761,00:00:03.044,-0.0010459281620569538
762,00:00:03.048,-0.0012203257938381241
763,00:00:03.052,0.01693792198784649
764,00:00:03.056,0.01333086192607879
765,00:00:03.06,-0.01716093672439456
766,00:00:03.064,-0.025533567648381002
767,00:00:03.068,0.0061861578797106605
768,00:00:03.072,0.017531096236780293
769,00:00:03.076,0.0005709704710170692
770,00:00:03.08,0.0019929860718548307
771,00:00:03.084,0.0014027921206434238
772,00:00:03.088,0.00149262207560241
773,00:00:03.092,-0.010496637420146721
774,00:00:03.096,-0.00888472679071128
775,00:00:03.1,0.00626785305212252
776,00:00:03.104,-0.00204031635075808
777,00:00:03.108,0.011919502401724461
778,00:00:03.112,0.001035361608956012
779,00:00:03.116,-0.005647880519973116
780,00:00:03.12,-0.010108378937729867
781,00:00:03.124,0.009694572305306792
782,00:00:03.128,0.01108673901762813
783,00:00:03.132,-0.01684124977327882
784,00:00:03.136,0.0017425102414563303
785,00:00:03.14,0.008772964240051813
786,00:00:03.144,-0.006103352643549451
787,00:00:03.148,-0.00432112021371723
788,00:00:03.152,0.00694879028014839
789,00:00:03.156,0.00588280847296118
790,00:00:03.16,-0.01162831229157745
791,00:00:03.164,0.006640031060669602
792,00:00:03.168,-0.006960970931686459
793,00:00:03.172,0.0010025977389887001
794,00:00:03.176,-0.001232596194313373
795,00:00:03.18,0.001762359403073779
796,00:00:03.184,0.009657064831117168
797,00:00:03.188,-0.00116709969006479
798,00:00:03.192,-0.00410521679441445
799,00:00:03.196,-0.00308711221441626
800,00:00:03.2,0.0011282495688646993
801,00:00:03.204,-0.0054404014372266786
802,00:00:03.208,0.005660812137648461
803,00:00:03.212,0.010450255009345705
804,00:00:03.216,-0.010031349956989281
805,00:00:03.22,-0.0014371763681992893
806,00:00:03.224,-0.001946389063959942
807,00:00:03.228,-0.01056503027211873
808,00:00:03.232,0.01120082696434111
809,00:00:03.236,0.009931857915944428
810,00:00:03.24,0.004159322532359554
811,00:00:03.244,-0.012071911827661092
812,00:00:03.248,0.0008926649752538712
813,00:00:03.252,0.00317541277036072
814,00:00:03.256,-0.0009812882635742296
815,00:00:03.26,-0.01387352170422673
816,00:00:03.264,0.004816813103389003
817,00:00:03.268,0.0072477112989872815
818,00:00:03.272,0.0014759958867216478
819,00:00:03.276,-0.008881126705091441
820,00:00:03.28,0.0069596745306626
821,00:00:03.284,0.0017528703028801872
822,00:00:03.288,0.0023110515903681404
823,00:00:03.292,0.006044756912160665
824,00:00:03.296,-0.008025591028854251
825,00:00:03.3,-0.0135406085755676
826,00:00:03.304,0.00807648268528283
827,00:00:03.308,0.00742206652648747
828,00:00:03.312,-0.007133946754038336
829,00:00:03.316,0.006804543470934723
830,00:00:03.32,0.0006847002077847702
831,00:00:03.324,-0.005234523676335811
832,00:00:03.328,-0.003644113545306021
833,00:00:03.332,-0.00025978265330195037
834,00:00:03.336,-8.210423402488037e-05
835,00:00:03.34,0.0043756075319834106
836,00:00:03.344,-0.0030638933531008695
837,00:00:03.348,0.006392771028913559
838,00:00:03.352,0.007641958130989229
839,00:00:03.356,-0.0053212016355246305
840,00:00:03.36,-0.00919045691989595
841,00:00:03.364,-0.0018118240404874102
842,00:00:03.368,0.00389414175879211
843,00:00:03.372,0.002747670630924399
844,00:00:03.376,-0.01005441835150123
845,00:00:03.38,0.004614613717421885
846,00:00:03.384,0.01715306052938106
847,00:00:03.388,-0.008576819091103971
848,00:00:03.392,-0.00893808691762387
849,00:00:03.396,0.00407417747192084
850,00:00:03.4,0.0013075323658995387
851,00:00:03.404,-0.0003106356598436902
852,00:00:03.408,0.0013202750124037214
853,00:00:03.412,-0.0066157563123852
854,00:00:03.416,0.00020766320085385855
855,00:00:03.42,0.005381003255024556
856,00:00:03.424,0.0011381014483049508
857,00:00:03.428,0.0017573982186149767
858,00:00:03.432,0.0036108939675614155
859,00:00:03.436,-0.01018875255249441
860,00:00:03.44,-0.003462309832684702
861,00:00:03.444,0.005964092968497427
862,00:00:03.448,-0.0002328213304281224
863,00:00:03.452,0.010004700627177947
864,00:00:03.456,-0.0133949687005952
865,00:00:03.46,-0.0053166286816122045
866,00:00:03.464,0.00088104378664866
867,00:00:03.468,0.010177530988585207
868,00:00:03.472,0.01267726602964103
869,00:00:03.476,0.00030955951660871983
870,00:00:03.48,-0.010715857148170471
871,00:00:03.484,-0.011865656124427939
872,00:00:03.488,-0.0018448161426931578
873,00:00:03.492,-0.00280487604322843
874,00:00:03.496,0.0063854095060378304
875,00:00:03.5,0.01006172213237733
876,00:00:03.504,-0.0014050152094569012
877,00:00:03.508,0.006789566017687331
878,00:00:03.512,-0.00968517083674669
879,00:00:03.516,0.008823123294860132
880,00:00:03.52,-0.002182685944717375
881,00:00:03.524,-0.012587187346071
882,00:00:03.528,-0.003205677261576048
883,00:00:03.532,0.0054436336504295494
884,00:00:03.536,0.005417800392024217
885,00:00:03.54,0.00437258952297271
886,00:00:03.544,-0.00256753584835678
887,00:00:03.548,-0.0035630771890282588
888,00:00:03.552,-0.004013429788756184
889,00:00:03.556,0.006135506788268685
890,00:00:03.56,-0.009475120517890907
891,00:00:03.564,0.006059662016923541
892,00:00:03.568,0.01028352131834253
893,00:00:03.572,0.0016824740450829198
894,00:00:03.576,-0.00950466003268958
895,00:00:03.58,-0.01116819703020155
896,00:00:03.584,0.0008183021564036597
897,00:00:03.588,0.0166630367748439
898,00:00:03.592,-0.003922440169844782
899,00:00:03.596,-0.003401062451303012
900,00:00:03.6,-0.0013428120873868491
901,00:00:03.604,0.0003259242512285692
902,00:00:03.608,0.003071955405175679
903,00:00:03.612,-0.0011378593626432155
904,00:00:03.616,-0.0013294912641867982
905,00:00:03.62,-0.00449426681734617
906,00:00:03.624,-0.0018248802516609413
907,00:00:03.628,0.00780054868664592
908,00:00:03.632,0.011846657551359427
909,00:00:03.636,0.0007605243590660389
910,00:00:03.64,-0.01184160786215211
911,00:00:03.644,-0.007035996648482984
912,00:00:03.648,-0.0060223874170333164
913,00:00:03.652,0.003711754747200753
914,00:00:03.656,0.0022944735828787084
915,00:00:03.66,0.010684319218853496
916,00:00:03.664,0.0005992359947413197
917,00:00:03.668,0.0015377863310277397
918,00:00:03.672,-0.004426428349688649
919,00:00:03.676,0.0037688400479964934
920,00:00:03.68,-0.014139776234515011
921,00:00:03.684,-0.008434455958195036
922,00:00:03.688,0.014372887788340448
923,00:00:03.692,0.010582423536106935
924,00:00:03.696,-0.00953231821767986
925,00:00:03.7,0.00447676866315305
926,00:00:03.704,-0.006325661208393278
927,00:00:03.708,0.0031578094130963953
928,00:00:03.712,0.0083465197822079
929,00:00:03.716,-0.01501579396426678
930,00:00:03.72,-0.0013114153116475856
931,00:00:03.724,0.008250828395830464
932,00:00:03.728,-0.00598641310352832
933,00:00:03.732,0.00670487014576793
934,00:00:03.736,0.004403239800012678
935,00:00:03.74,-0.007024064194411039
936,00:00:03.744,-0.004008748859632764
937,00:00:03.748,0.005211909650824959
938,00:00:03.752,0.007832015515305105
939,00:00:03.756,-0.004070950657478542
940,00:00:03.76,-0.00777902919799089
941,00:00:03.764,-0.005070710700238125
942,00:00:03.768,0.01010278624016792
943,00:00:03.772,0.0037253024056553806
944,00:00:03.776,-0.00976789742708207
945,00:00:03.78,0.0024606189690530283
946,00:00:03.784,0.00593315763399005
947,00:00:03.788,-0.0025876069703372204
948,00:00:03.792,0.0015139441238716201
949,00:00:03.796,0.0018063973402604498
950,00:00:03.8,-0.006045634974725553
951,00:00:03.804,-0.010033978032879533
952,00:00:03.808,0.012553054490126671
953,00:00:03.812,0.0018617978785186997
954,00:00:03.816,0.0006239078938961007
955,00:00:03.82,-0.0013866291847079906
956,00:00:03.824,-0.008337279316037895
957,00:00:03.828,0.002325079985894263
958,00:00:03.832,0.012723714811727408
959,00:00:03.836,-0.009469294891459873
960,00:00:03.84,-0.0025500787887722284
961,00:00:03.844,-0.0030431401974055894
962,00:00:03.848,0.008060542168095704
963,00:00:03.852,0.00683716707862913
964,00:00:03.856,-0.0028858517762273533
965,00:00:03.86,-0.00972056738100946
966,00:00:03.864,-0.0020050657913088903
967,00:00:03.868,0.004410365945659572
968,00:00:03.872,-0.0028017961885780087
969,00:00:03.876,0.006606832670513535
970,00:00:03.88,0.0016507870750501709
971,00:00:03.884,-0.007408344186842439
972,00:00:03.888,0.0122321421513334
973,00:00:03.892,-0.00862044864334166
974,00:00:03.896,-0.0005338718765415321
975,00:00:03.9,-0.00165524692420149
976,00:00:03.904,-0.006611483287997545
977,00:00:03.908,0.006829344201833007
978,00:00:03.912,0.010410840855911369
979,00:00:03.916,0.005867980304174131
980,00:00:03.92,-0.011319339275360111
981,00:00:03.924,-0.01844435604289175
982,00:00:03.928,0.0008173664464266065
983,00:00:03.932,0.01771231810562313
984,00:00:03.936,0.0073048863559961276
985,00:00:03.94,-0.01043913629837334
986,00:00:03.944,-0.004480074916500602
987,00:00:03.948,0.009281394188292321
988,00:00:03.952,-0.000548630254343149
989,00:00:03.956,-0.00581844919361174
990,00:00:03.96,-0.0009801688138395587
991,00:00:03.964,0.0008297731546917982
992,00:00:03.968,-0.0009753797203302399
993,00:00:03.972,-0.0014511933550238592
994,00:00:03.976,0.0037537005264312103
995,00:00:03.98,0.0011862877290695901
996,00:00:03.984,0.00281256111338735
997,00:00:03.988,0.004628707421943541
998,00:00:03.992,-0.005643704003887254
999,00:00:03.996,-0.003510713635478166
1000,00:00:04,-0.006000189343467361
1001,00:00:04.004,-0.002547026844695207
1002,00:00:04.008,0.01628466974943877
1003,00:00:04.012,-0.0014722395571880073
1004,00:00:04.016,-0.011377809103578329
1005,00:00:04.02,0.0070129348896443905
1006,00:00:04.024,-0.0032638280245009792
1007,00:00:04.028,-0.001325381264905448
1008,00:00:04.032,0.008206027210690078
1009,00:00:04.036,0.007469916366972031
1010,00:00:04.04,-0.0024954335240181522
1011,00:00:04.044,-0.01850170746911322
1012,00:00:04.048,0.002598133985884483
1013,00:00:04.052,-0.0029778050957247498
1014,00:00:04.056,0.004028116236440834
1015,00:00:04.06,0.0036743944510817285
1016,00:00:04.064,0.0057387260603718356
1017,00:00:04.068,0.006455830720369707
1018,00:00:04.072,-0.0012281848539714732
1019,00:00:04.076,-0.0166270425543189
1020,00:00:04.08,-0.006743277946952733
1021,00:00:04.084,0.00669634398218477
1022,00:00:04.088,0.01951583661139012
1023,00:00:04.092,0.00587414111942053
1024,00:00:04.096,-0.013632420508656654
1025,00:00:04.1,-0.01812796026933934
1026,00:00:04.104,0.0024557583965361084
1027,00:00:04.108,0.010371879325248304
1028,00:00:04.112,0.008485370781272658
1029,00:00:04.116,-0.009867482658592086
1030,00:00:04.12,0.00308796050376259
1031,00:00:04.124,-0.0034398103889543576
1032,00:00:04.128,0.009565174812451002
1033,00:00:04.132,-0.005644108692649753
1034,00:00:04.136,-0.0032155176158994393
1035,00:00:04.14,-0.00486051838379353
1036,00:00:04.144,0.00482076639309526
1037,00:00:04.148,0.008751019020564847
1038,00:00:04.152,0.001515522279078146
1039,00:00:04.156,-0.010676897363737219
1040,00:00:04.16,-0.008070524665527039
1041,00:00:04.164,0.00731795956380666
1042,00:00:04.168,0.0046944121131673455
1043,00:00:04.172,0.005759597755968564
1044,00:00:04.176,-0.0025142540107481112
1045,00:00:04.18,-0.01304866815917191
1046,00:00:04.184,0.006699626101180882
1047,00:00:04.188,-0.006484948506113143
1048,00:00:04.192,0.008089645765721791
1049,00:00:04.196,0.01056562986923382
1050,00:00:04.2,-0.0012888847850263205
1051,00:00:04.204,-0.008688827161677177
1052,00:00:04.208,-0.006146799089037817
1053,00:00:04.212,-0.0031394399120472385
1054,00:00:04.216,0.00656462961342185
1055,00:00:04.22,0.00518487894441933
1056,00:00:04.224,-0.0031169692520052307
1057,00:00:04.228,0.0020702921319752897
1058,00:00:04.232,-0.005508032758370966
1059,00:00:04.236,0.006692109163850539
1060,00:00:04.24,-0.0011021168320439808
1061,00:00:04.244,-0.0004833046696148778
1062,00:00:04.248,-0.0033775600604713006
1063,00:00:04.252,-0.01399933628272265
1064,00:00:04.256,0.01882714172825218
1065,00:00:04.26,0.00987560721114281
1066,00:00:04.264,-0.0062732796650379905
1067,00:00:04.268,6.61045778542705e-05
1068,00:00:04.272,-0.016275135101750493
1069,00:00:04.276,-0.00645606988109649
1070,00:00:04.28,0.011401183786802
1071,00:00:04.284,0.0017440040828660096
1072,00:00:04.288,0.01080220472067594
1073,00:00:04.292,0.01000396499875934
1074,00:00:04.296,-0.003691572914249267
1075,00:00:04.3,-0.028143434319645146
1076,00:00:04.304,-0.00292912451550364
1077,00:00:04.308,0.010491709399502724
1078,00:00:04.312,0.00535154389217496
1079,00:00:04.316,0.00758313771802932
1080,00:00:04.32,0.0038928089197725084
1081,00:00:04.324,-0.009414139716682262
1082,00:00:04.328,-0.0025429208762943805
1083,00:00:04.332,0.0017225785995833584
1084,00:00:04.336,-0.0017423511781089471
1085,00:00:04.34,-0.005415887018898507
1086,00:00:04.344,-0.004126390587771307
1087,00:00:04.348,0.012386990012601011
1088,00:00:04.352,0.01028318458702415
1089,00:00:04.356,0.0019616966601461207
1090,00:00:04.36,-0.01921610999852416
1091,00:00:04.364,-0.0012721025850623868
1092,00:00:04.368,-0.0023212569067254697
1093,00:00:04.372,0.01135523687116802
1094,00:00:04.376,0.0041609567124396615
1095,00:00:04.38,0.0004910961724817696
1096,00:00:04.384,-0.014073415426537401
1097,00:00:04.388,0.00939206569455564
1098,00:00:04.392,-0.0006719472730765152
1099,00:00:04.396,-0.0027657186146825595
1100,00:00:04.4,0.0006226643454283554
1101,00:00:04.404,-0.00992364878766238
1102,00:00:04.408,0.0034352459479123397
1103,00:00:04.412,0.01163490628823638
1104,00:00:04.416,0.00550768314860761
1105,00:00:04.42,-0.004076685683685359
1106,00:00:04.424,-0.001540254335850479
1107,00:00:04.428,-0.005324009223841131
1108,00:00:04.432,-0.001604972407221789
1109,00:00:04.436,-0.004529170430032535
1110,00:00:04.44,-0.008208630897570401
1111,00:00:04.444,0.01588187785819173
1112,00:00:04.448,0.0048786192201077895
1113,00:00:04.452,0.006052665645256639
1114,00:00:04.456,-0.007988945115357637
1115,00:00:04.46,-0.0029527593869716003
1116,00:00:04.464,-0.00799886405002322
1117,00:00:04.468,0.00276342628058046
1118,00:00:04.472,0.0170586365275085
1119,00:00:04.476,-0.003001763485372071
1120,00:00:04.48,-0.019821180496364842
1121,00:00:04.484,-0.009634852176532151
1122,00:00:04.488,0.01009961147792638
1123,00:00:04.492,0.01709237671457231
1124,00:00:04.496,0.00940621283371001
1125,00:00:04.5,-0.01134491222910583
1126,00:00:04.504,0.0005416655912995299
1127,00:00:04.508,-0.00402319571003317
1128,00:00:04.512,-0.008975157048553228
1129,00:00:04.516,-0.006981296231970192
1130,00:00:04.52,0.007313747657462949
1131,00:00:04.524,0.010967852314934171
1132,00:00:04.528,0.004715546034276489
1133,00:00:04.532,0.00440386030822992
1134,00:00:04.536,-0.019030714873224473
1135,00:00:04.54,-0.00540819088928402
1136,00:00:04.544,0.010190958364546528
1137,00:00:04.548,0.0029108610469847905
1138,00:00:04.552,0.002073663752526043
1139,00:00:04.556,-0.004882211098447451
1140,00:00:04.56,0.0016461397462990152
1141,00:00:04.564,0.0011484655769891077
1142,00:00:04.568,0.0014549148036167058
1143,00:00:04.572,-0.00343142834026367
1144,00:00:04.576,-0.0048751617723610235
1145,00:00:04.58,0.001472411255235783
1146,00:00:04.584,0.00289127300493419
1147,00:00:04.588,-0.0022278465912677395
1148,00:00:04.592,0.004360103630460796
1149,00:00:04.596,0.01095123065169901
1150,00:00:04.6,-0.01885851158294829
1151,00:00:04.604,-0.0032001194776967207
1152,00:00:04.608,0.01126341032795608
1153,00:00:04.612,0.0023892279132269375
1154,00:00:04.616,0.002810714127917886
1155,00:00:04.62,-0.00809067580848932
1156,00:00:04.624,0.001470199975301522
1157,00:00:04.628,0.005266982712782919
1158,00:00:04.632,-0.004846858093515039
1159,00:00:04.636,-0.01118586561642592
1160,00:00:04.64,-0.0038313550176098995
1161,00:00:04.644,0.01657102257013322
1162,00:00:04.648,0.005901365075260401
1163,00:00:04.652,-0.0012747694272547895
1164,00:00:04.656,-0.01038883475121111
1165,00:00:04.66,0.006336375605314969
1166,00:00:04.664,-0.004949378781020633
1167,00:00:04.668,-0.0027841674163937595
1168,00:00:04.672,0.009738464083056895
1169,00:00:04.676,-0.0045402686810120906
1170,00:00:04.68,-0.0017779955887817808
1171,00:00:04.684,0.004403430502861741
1172,00:00:04.688,-0.007070663268677888
1173,00:00:04.692,0.003598143201088538
1174,00:00:04.696,0.0074663739651441505
1175,00:00:04.7,-0.003672482213005428
1176,00:00:04.704,-0.013376195216551421
1177,00:00:04.708,0.00341439778640051
1178,00:00:04.712,0.0028640868840739166
1179,00:00:04.716,0.014505076687783012
1180,00:00:04.72,0.0018849014104489513
1181,00:00:04.724,-0.014835515408776671
1182,00:00:04.728,-5.479343235493053e-05
1183,00:00:04.732,0.003942807146813717
1184,00:00:04.736,-0.00783032306935638
1185,00:00:04.74,-0.006860262714326349
1186,00:00:04.744,0.007613034453243014
1187,00:00:04.748,0.011204787937458603
1188,00:00:04.752,0.008745170896872878
1189,00:00:04.756,-0.002090485999360678
1190,00:00:04.76,-0.004321167486068586
1191,00:00:04.764,-0.01208879356272519
1192,00:00:04.768,-0.015439651207998402
1193,00:00:04.772,0.0020631450170185413
1194,00:00:04.776,0.02377292420715097
1195,00:00:04.78,-0.002956310752779229
1196,00:00:04.784,-0.0005257748998701503
1197,00:00:04.788,-0.002212251536548142
1198,00:00:04.792,0.0055236885091289895
1199,00:00:04.796,0.000836631181300617
1200,00:00:04.8,-0.01842454052530228
1201,00:00:04.804,0.01099879411049192
1202,00:00:04.808,0.00449668208602816
1203,00:00:04.812,-0.0006633475422859201
1204,00:00:04.816,-0.0027602299815043902
1205,00:00:04.82,-0.00651380163617432
1206,00:00:04.824,-0.001067123259417721
1207,00:00:04.828,0.011890333378687501
1208,00:00:04.832,-0.0033210383262485296
1209,00:00:04.836,0.0024572372203692785
1210,00:00:04.84,-0.00016377377323805765
1211,00:00:04.844,-0.006949639006052169
1212,00:00:04.848,-0.0011951127089559997
1213,00:00:04.852,-0.004630490526324138
1214,00:00:04.856,0.012209317763336
1215,00:00:04.86,0.00030542688909919024
1216,00:00:04.864,-0.00664500066341134
1217,00:00:04.868,0.002216028166003522
1218,00:00:04.872,0.009181875619105998
1219,00:00:04.876,-0.011270674178376789
1220,00:00:04.88,0.002050906274234875
1221,00:00:04.884,-0.001360786962322889
1222,00:00:04.888,0.010392677941126749
1223,00:00:04.892,-0.004253270220942793
1224,00:00:04.896,-0.01258202386088669
1225,00:00:04.9,0.006977734970860185
1226,00:00:04.904,-0.00044237449765205383
1227,00:00:04.908,-0.00020867641433142126
1228,00:00:04.912,-0.004950903821736571
1229,00:00:04.916,0.00973576633259654
1230,00:00:04.92,0.010274155589286238
1231,00:00:04.924,-0.006959313526749611
1232,00:00:04.928,-0.014529725187458093
1233,00:00:04.932,0.006418085191398811
1234,00:00:04.936,0.008199903095373832
1235,00:00:04.94,-0.00755211059004068
1236,00:00:04.944,-0.00910665886476636
1237,00:00:04.948,0.0132808096241206
1238,00:00:04.952,0.0016997569655359292
1239,00:00:04.956,0.00195133977103979
1240,00:00:04.96,-0.008300664834678171
1241,00:00:04.964,-0.004409618621139089
1242,00:00:04.968,0.005482605878569298
1243,00:00:04.972,0.00429726962465792
1244,00:00:04.976,-0.0015767242293804901
1245,00:00:04.98,0.006180747877806429
1246,00:00:04.984,-0.015007476438768163
1247,00:00:04.988,-0.0003330333274789124
1248,00:00:04.992,-0.001210419024573645
1249,00:00:04.996,0.016714325174689293
1250,00:00:05,-0.001257331197848544
1251,00:00:05.004,-0.005202022686717101
1252,00:00:05.008,-0.0034058368764817754
1253,00:00:05.012,0.00979867181740701
1254,00:00:05.016,-0.008697031938936556
1255,00:00:05.02,-0.0108567294664681
1256,00:00:05.024,0.008121895371004939
1257,00:00:05.028,0.0098553984425962
1258,00:00:05.032,-4.477053880693046e-05
1259,00:00:05.036,-0.004231382859870791
1260,00:00:05.04,-0.004019103826067299
1261,00:00:05.044,-0.010075328755192436
1262,00:00:05.048,0.006292747333645817
1263,00:00:05.052,0.008101313142105932
1264,00:00:05.056,0.0059538153072935555
1265,00:00:05.06,-0.004777813621331001
1266,00:00:05.064,-0.0007118834182620005
1267,00:00:05.068,0.00263008766341955
1268,00:00:05.072,-0.01027844054624439
1269,00:00:05.076,-0.00921998522244394
1270,00:00:05.08,0.010499260795768345
1271,00:00:05.084,0.007265696156537159
1272,00:00:05.088,0.0021396938827820213
1273,00:00:05.092,0.00458177919790615
1274,00:00:05.096,-0.01101094274781645
1275,00:00:05.1,-0.005366626661270852
1276,00:00:05.104,0.00013535819016396598
1277,00:00:05.108,-0.00320885237306357
1278,00:00:05.112,0.011186368297785531
1279,00:00:05.116,0.008878910826751959
1280,00:00:05.12,-0.007019715820206326
1281,00:00:05.124,-0.009102316340431571
1282,00:00:05.128,0.00598519993945956
1283,00:00:05.132,0.007832422503270202
1284,00:00:05.136,-0.01155611593276262
1285,00:00:05.14,-0.0052303371485322705
1286,00:00:05.144,-0.0006958798039704505
1287,00:00:05.148,0.006437496747821565
1288,00:00:05.152,0.007745930342934991
1289,00:00:05.156,0.00415448588319123
1290,00:00:05.16,-0.006855066851130687
1291,00:00:05.164,-0.01648052653763443
1292,00:00:05.168,0.01846162299625573
1293,00:00:05.172,-0.002089628309477118
1294,00:00:05.176,-0.00253214314579964
1295,00:00:05.18,0.0007466390379704587
1296,00:00:05.184,-0.010327651631087068
1297,00:00:05.188,0.01312769390642643
1298,00:00:05.192,0.00946562027093021
1299,00:00:05.196,-0.01089237676933408
1300,00:00:05.2,-0.01358348957728594
1301,00:00:05.204,-9.53243579715924e-06
1302,00:00:05.208,0.006926160800503572
1303,00:00:05.212,0.011238459963351481
1304,00:00:05.216,0.001666626194491982
1305,00:00:05.22,-0.00563702557701618
1306,00:00:05.224,-0.00258348463103175
1307,00:00:05.228,0.0007627838640473705
1308,00:00:05.232,-0.00868829048704356
1309,00:00:05.236,0.00442829052917659
1310,00:00:05.24,0.01355520612560212
1311,00:00:05.244,-0.003894295310601593
1312,00:00:05.248,-0.011727650184184299
1313,00:00:05.252,-0.0006000461580697451
1314,00:00:05.256,-0.00106756461900659
1315,00:00:05.26,0.0006338825915008801
1316,00:00:05.264,0.010566812823526561
1317,00:00:05.268,0.0031150004360824906
1318,00:00:05.272,-0.00621716119349003
1319,00:00:05.276,0.0042425216524861736
1320,00:00:05.28,-0.0016466841043438767
1321,00:00:05.284,-0.00608271826058627
1322,00:00:05.288,-0.00944033148698508
1323,00:00:05.292,0.004548906348645691
1324,00:00:05.296,0.009707818506285555
1325,00:00:05.3,0.00907338177785277
1326,00:00:05.304,-0.0007188376039266508
1327,00:00:05.308,-0.01533846510574222
1328,00:00:05.312,0.0006351136835292003
1329,00:00:05.316,0.0008087534806691106
1330,00:00:05.32,-0.003116749183391226
1331,00:00:05.324,0.0008701736805960603
1332,00:00:05.328,0.003920453324099075
1333,00:00:05.332,0.012185917410533868
1334,00:00:05.336,-0.006077148362237496
1335,00:00:05.34,-0.011181514739291736
1336,00:00:05.344,0.0056102669332176395
1337,00:00:05.348,-0.005410355894127864
1338,00:00:05.352,0.014227301522623746
1339,00:00:05.356,0.0013785586925223509
1340,00:00:05.36,-0.01174561225343492
1341,00:00:05.364,0.003927806101273747
1342,00:00:05.368,-0.0022529212292283695
1343,00:00:05.372,-0.01499347749631852
1344,00:00:05.376,0.009193475823849441
1345,00:00:05.38,0.00887839263305068
1346,00:00:05.384,0.016804351995233446
1347,00:00:05.388,-0.01220227032899856
1348,00:00:05.392,-0.01492062094621361
1349,00:00:05.396,-0.00233741197735075
1350,00:00:05.4,0.0067807289306074416
1351,00:00:05.404,0.010202716803178188
1352,00:00:05.408,-0.00183248263783753
1353,00:00:05.412,-0.00862844102084636
1354,00:00:05.416,0.0010938277409877641
1355,00:00:05.42,0.002900342515204107
1356,00:00:05.424,0.00156807550229132
1357,00:00:05.428,-0.00013771746307610967
1358,00:00:05.432,-0.005196411191718652
1359,00:00:05.436,0.00498480955138803
1360,00:00:05.44,0.009088394697755579
1361,00:00:05.444,-0.01952143525704742
1362,00:00:05.448,-0.00232318480266258
1363,00:00:05.452,0.021043981425464202
1364,00:00:05.456,-0.002298401261214172
1365,00:00:05.46,-0.01157699781470001
1366,00:00:05.464,-0.0027095285477116704
1367,00:00:05.468,0.002899596845963965
1368,00:00:05.472,0.00840157963102684
1369,00:00:05.476,-0.005332498694770039
1370,00:00:05.48,0.005289499764330689
1371,00:00:05.484,-0.00013692292850465016
1372,00:00:05.488,-0.0007708243792876601
1373,00:00:05.492,-0.011016326490789648
1374,00:00:05.496,0.0071111652650870435
1375,00:00:05.5,-0.0010171641479246292
1376,00:00:05.504,-0.005016889772377909
1377,00:00:05.508,0.006914644502103329
1378,00:00:05.512,0.00714122713543475
1379,00:00:05.516,0.00432862574234605
1380,00:00:05.52,-0.008593852515332408
1381,00:00:05.524,-0.012595829612109803
1382,00:00:05.528,0.00285222800448536
1383,00:00:05.532,-0.0010864412179216797
1384,00:00:05.536,0.0004037487960886288
1385,00:00:05.54,0.00879413494840265
1386,00:00:05.544,0.003589904896216467
1387,00:00:05.548,-8.127617184072993e-05
1388,00:00:05.552,0.004200955852866169
1389,00:00:05.556,-0.004124681639950724
1390,00:00:05.56,-0.008419433492235843
1391,00:00:05.564,-0.006351847667247051
1392,00:00:05.568,-0.0012848018668591948
1393,00:00:05.572,0.013401300257100963
1394,00:00:05.576,0.007274204632267351
1395,00:00:05.58,-0.014102305169217287
1396,00:00:05.584,0.0015827597817406
1397,00:00:05.588,0.008233118598582223
1398,00:00:05.592,0.0019574942416511485
1399,00:00:05.596,-0.005982722999760879
1400,00:00:05.6,-0.009626762592233731
1401,00:00:05.604,-0.004101480590179559
1402,00:00:05.608,0.00854165619239211
1403,00:00:05.612,0.005851499503478401
1404,00:00:05.616,0.00884323823265732
1405,00:00:05.62,-0.004121363512240349
1406,00:00:05.624,-0.00882117438595742
1407,00:00:05.628,-0.0022540277568623398
1408,00:00:05.632,0.001013030938338497
1409,00:00:05.636,-0.00220859283581376
1410,00:00:05.64,0.00546276045497507
1411,00:00:05.644,0.008043974346946923
1412,00:00:05.648,-0.0016728243499528634
1413,00:00:05.652,-0.00952521234285086
1414,00:00:05.656,0.0015988543163985005
1415,00:00:05.66,-0.010610555327730248
1416,00:00:05.664,0.009603614744264622
1417,00:00:05.668,0.00435562117490917
1418,00:00:05.672,0.0014035903732292402
1419,00:00:05.676,0.009991785249440001
1420,00:00:05.68,-0.009035508031956851
1421,00:00:05.684,-0.009401204195455645
1422,00:00:05.688,-0.007437442662194371
1423,00:00:05.692,0.010300954105332511
1424,00:00:05.696,0.005798943806439639
1425,00:00:05.7,-0.00544767978135497
1426,00:00:05.704,-0.000345485052093865
1427,00:00:05.708,0.00420353841036558
1428,00:00:05.712,0.006296504725469271
1429,00:00:05.716,-0.013079275260679427
1430,00:00:05.72,0.0002344346139580098
1431,00:00:05.724,0.012336311396211391
1432,00:00:05.728,-0.0007554767653346105
1433,00:00:05.732,-0.011983738222625114
1434,00:00:05.736,0.0051475696382112714
1435,00:00:05.74,-0.0028123144875280494
1436,00:00:05.744,-0.0037607272388413505
1437,00:00:05.748,0.0010061378125101384
1438,00:00:05.752,0.0061091186944395234
1439,00:00:05.756,0.006012802274199198
1440,00:00:05.76,-0.0018041956936940549
1441,00:00:05.764,-0.0059709090783144365
1442,00:00:05.768,-0.00708341447170824
1443,00:00:05.772,0.008814519038423889
1444,00:00:05.776,0.0038338691229000696
1445,00:00:05.78,0.0013931886423961244
1446,00:00:05.784,-0.004680902638938278
1447,00:00:05.788,-0.006163663056213416
1448,00:00:05.792,0.00695974426344037
1449,00:00:05.796,-0.0052226705010980385
1450,00:00:05.8,-0.0028134018648415787
1451,00:00:05.804,0.008037519408389924
1452,00:00:05.808,3.656838089227026e-05
1453,00:00:05.812,-0.003787395966355693
1454,00:00:05.816,0.002985473664011802
1455,00:00:05.82,0.0037581082433462195
1456,00:00:05.824,-0.00907185906544328
1457,00:00:05.828,0.0022396598942577804
1458,00:00:05.832,0.0051614748081192305
1459,00:00:05.836,-0.00529685080982745
1460,00:00:05.84,-0.0028789262287318602
1461,00:00:05.844,0.0034505519574850063
1462,00:00:05.848,0.007546323700807995
1463,00:00:05.852,-0.004907099530100821
1464,00:00:05.856,-0.0063409809954464505
1465,00:00:05.86,0.0014991670032031773
1466,00:00:05.864,0.005764838017057624
1467,00:00:05.868,0.0005806946428492639
1468,00:00:05.872,0.00918612875830149
1469,00:00:05.876,-0.009076166199520234
1470,00:00:05.88,-0.00467851408757269
1471,00:00:05.884,-0.010665323061402884
1472,00:00:05.888,-0.0007833663839846763
1473,00:00:05.892,0.019724655663594586
1474,00:00:05.896,0.005056855443399402
1475,00:00:05.9,-0.014799774158746011
1476,00:00:05.904,-0.009562452440150051
1477,00:00:05.908,0.02148434252012517
1478,00:00:05.912,-0.0045956966932863014
1479,00:00:05.916,-0.0026220596628263593
1480,00:00:05.92,-0.0037466848007170457
1481,00:00:05.924,0.00318433111533522
1482,00:00:05.928,-0.004629321367247035
1483,00:00:05.932,0.011127104517072429
1484,00:00:05.936,-0.007211762596853073
1485,00:00:05.94,-0.01024684286676348
1486,00:00:05.944,0.005760384257882835
1487,00:00:05.948,0.0090335754211992
1488,00:00:05.952,0.004978607059456401
1489,00:00:05.956,0.0014924905262887374
1490,00:00:05.96,-0.01433307770639658
1491,00:00:05.964,-0.012796500464901371
1492,00:00:05.968,0.00277414894662797
1493,00:00:05.972,0.011612319387495518
1494,00:00:05.976,0.010552124120295039
1495,00:00:05.98,-6.838701665401383e-05
1496,00:00:05.984,-0.008778414689004421
1497,00:00:05.988,0.001326259691268206
1498,00:00:05.992,0.0008354033343493908
1499,00:00:05.996,0.0027878711698576817
1500,00:00:06,-0.006088985363021471
1501,00:00:06.004,-0.012976740181329667
1502,00:00:06.008,0.005386473407270387
1503,00:00:06.012,0.00904482440091669
1504,00:00:06.016,0.0013307055924087745
1505,00:00:06.02,0.0085968003841117
1506,00:00:06.024,-0.0054586328333244005
1507,00:00:06.028,-0.00225537270307541
1508,00:00:06.032,-0.00462124950718135
1509,00:00:06.036,-0.00241219706367701
1510,00:00:06.04,0.002524321840610358
1511,00:00:06.044,6.735662464052916e-05
1512,00:00:06.048,-0.007865937470342041
1513,00:00:06.052,0.01096552680246532
1514,00:00:06.056,0.00968426116742193
1515,00:00:06.06,-0.008598233223892752
1516,00:00:06.064,-0.0029996733064763252
1517,00:00:06.068,0.003370313672348851
1518,00:00:06.072,-0.005953243118710821
1519,00:00:06.076,-0.005086373654194169
1520,00:00:06.08,0.0035777641460299405
1521,00:00:06.084,0.01159482391085476
1522,00:00:06.088,0.00566233007702977
1523,00:00:06.092,-0.004211549705360079
1524,00:00:06.096,-0.014606144977733491
1525,00:00:06.1,-0.01925876387394964
1526,00:00:06.104,0.01454762881621718
1527,00:00:06.108,0.02533503551967439
1528,00:00:06.112,0.0015781652182340813
1529,00:00:06.116,-0.012904106813948598
1530,00:00:06.12,-0.01143184723332524
1531,00:00:06.124,0.002399905817583208
1532,00:00:06.128,0.00736334471730515
1533,00:00:06.132,0.001341633265838024
1534,00:00:06.136,-0.0032788125099614198
1535,00:00:06.14,0.00456117035355419
1536,00:00:06.144,-0.007371493964456015
1537,00:00:06.148,0.0028183480026200496
1538,00:00:06.152,0.002592601813375951
1539,00:00:06.156,-2.1150874090381075e-05
1540,00:00:06.16,0.00043330940388841555
1541,00:00:06.164,-0.005719142587622626
1542,00:00:06.168,-0.0024921712756622552
1543,00:00:06.172,-0.000457032350823281
1544,00:00:06.176,0.00327347801066934
1545,00:00:06.18,0.010501818731427191
1546,00:00:06.184,-0.003228621688322161
1547,00:00:06.188,-0.008803650503978131
1548,00:00:06.192,0.00607796548865735
1549,00:00:06.196,0.0039976226471480905
1550,00:00:06.2,-0.0032414412835350967
1551,00:00:06.204,-0.0018602624768391223
1552,00:00:06.208,-0.00796764311598959
1553,00:00:06.212,0.004800481256097553
1554,00:00:06.216,0.004797245375812061
1555,00:00:06.22,-0.0029282671748660513
1556,00:00:06.224,-0.005876912618987257
1557,00:00:06.228,0.013082668883726
1558,00:00:06.232,-0.0068160106893628905
1559,00:00:06.236,0.00339706940576435
1560,00:00:06.24,0.0035373112186789504
1561,00:00:06.244,-0.0019151577143929886
1562,00:00:06.248,-0.013109768973663422
1563,00:00:06.252,0.005978869739919899
1564,00:00:06.256,-0.002935859258286662
1565,00:00:06.26,-4.5875087380409674e-05
1566,00:00:06.264,0.007566104046418327
1567,00:00:06.268,4.374678246676987e-05
1568,00:00:06.272,-0.00104015052784234
1569,00:00:06.276,0.003714852209668606
1570,00:00:06.28,0.002335799259526534
1571,00:00:06.284,-0.01325583923608064
1572,00:00:06.288,0.0027250798884779206
1573,00:00:06.292,0.006425544852390886
1574,00:00:06.296,-0.0004606583388522302
1575,00:00:06.3,-0.004748777952045178
1576,00:00:06.304,-0.002134395355824381
1577,00:00:06.308,-0.0009839716367423292
1578,00:00:06.312,-0.00173943815752864
1579,00:00:06.316,0.01796229579485956
1580,00:00:06.32,6.888923235236948e-05
1581,00:00:06.324,-0.009263664251193411
1582,00:00:06.328,-0.006894832826219489
1583,00:00:06.332,0.0006269568402785797
1584,00:00:06.336,0.002574167214334006
1585,00:00:06.34,-5.6756893172860146e-05
1586,00:00:06.344,-0.0013830718307872294
1587,00:00:06.348,0.003354589745867993
1588,00:00:06.352,-0.0013434301363304299
1589,00:00:06.356,0.012828571954742069
1590,00:00:06.36,-0.003729076110175809
1591,00:00:06.364,-0.009925411664880809
1592,00:00:06.368,-0.007400072645395994
1593,00:00:06.372,0.0026667159982025606
1594,00:00:06.376,0.005589504173258315
1595,00:00:06.38,0.00620642548892647
1596,00:00:06.384,-0.0007478063344024177
1597,00:00:06.388,-0.0027130714152008304
1598,00:00:06.392,-6.001698784529924e-05
1599,00:00:06.396,0.0034715774236247004
1600,00:00:06.4,-0.011408883685362527
1601,00:00:06.404,0.001683196460362529
1602,00:00:06.408,0.004351195530034599
1603,00:00:06.412,-0.0014952473575249303
1604,00:00:06.416,0.0041971827158704495
1605,00:00:06.42,3.859109710905445e-06
1606,00:00:06.424,-0.00116219627670944
1607,00:00:06.428,-0.000982585828751323
1608,00:00:06.432,-0.0024976560380309833
1609,00:00:06.436,0.00408678955864161
1610,00:00:06.44,0.001976831117644912
1611,00:00:06.444,-0.00322675844654441
1612,00:00:06.448,-0.0004966740962117902
1613,00:00:06.452,0.0038584328722208695
1614,00:00:06.456,-0.008497152943164103
1615,00:00:06.46,-0.007869409717386592
1616,00:00:06.464,0.01506935153156519
1617,00:00:06.468,0.0008411174640059441
1618,00:00:06.472,6.669316280749366e-05
1619,00:00:06.476,-0.0031158896163106
1620,00:00:06.48,0.006698833341943059
1621,00:00:06.484,-0.005507277674041689
1622,00:00:06.488,-0.00530787484603934
1623,00:00:06.492,-0.00338078167987987
1624,00:00:06.496,0.0038869106210768292
1625,00:00:06.5,0.00245759240351618
1626,00:00:06.504,0.006307849427685143
1627,00:00:06.508,0.001502166851423689
1628,00:00:06.512,0.00117353221867234
1629,00:00:06.516,-0.012357156083453445
1630,00:00:06.52,-0.0042954194796038766
1631,00:00:06.524,-0.001925308955833312
1632,00:00:06.528,0.006598863285034891
1633,00:00:06.532,0.011177816661074758
1634,00:00:06.536,0.00772629794664681
1635,00:00:06.54,-0.0076470132335089225
1636,00:00:06.544,-0.01371414156164975
1637,00:00:06.548,-0.0011312365531921395
1638,00:00:06.552,0.001410096767358487
1639,00:00:06.556,0.00977886188775302
1640,00:00:06.56,-0.0065547216217964905
1641,00:00:06.564,-0.0031998098129406545
1642,00:00:06.568,0.008832049963530153
1643,00:00:06.572,0.0009622871293686369
1644,00:00:06.576,0.006897451705299308
1645,00:00:06.58,-0.007296858588233583
1646,00:00:06.584,-0.01145431585609913
1647,00:00:06.588,0.00770109449513257
1648,00:00:06.592,-0.0008830364095047099
1649,00:00:06.596,0.0009153264109045237
1650,00:00:06.6,-0.00349518889561295
1651,00:00:06.604,0.0019043087959289499
1652,00:00:06.608,0.0028675125795416577
1653,00:00:06.612,0.00781428371556104
1654,00:00:06.616,-0.00185480748768897
1655,00:00:06.62,-0.01827449933625757
1656,00:00:06.624,0.004931855946779256
1657,00:00:06.628,0.0059915769379586
1658,00:00:06.632,0.0057414763723500056
1659,00:00:06.636,0.0007635511574335379
1660,00:00:06.64,-0.004971895250491799
1661,00:00:06.644,-0.01411465811543167
1662,00:00:06.648,0.009147082106210295
1663,00:00:06.652,0.01790867932140828
1664,00:00:06.656,0.0011447936994954996
1665,00:00:06.66,-0.01747173012699932
1666,00:00:06.664,-0.010559036600170648
1667,00:00:06.668,-0.00129128980915993
1668,00:00:06.672,0.0133599832188338
1669,00:00:06.676,0.01548056025058031
1670,00:00:06.68,-0.007046320009976622
1671,00:00:06.684,-0.0136400789488107
1672,00:00:06.688,0.0016182404942810555
1673,00:00:06.692,0.00635462498757987
1674,00:00:06.696,-0.001784130035957789
1675,00:00:06.7,0.00015853064542171048
1676,00:00:06.704,-0.002009159186854959
1677,00:00:06.708,0.0016628322191536502
1678,00:00:06.712,-0.004989125511201561
1679,00:00:06.716,0.00380681699607521
1680,00:00:06.72,0.00194615963846445
1681,00:00:06.724,0.007382968149613582
1682,00:00:06.728,-0.009734955849125988
1683,00:00:06.732,0.004846627125516532
1684,00:00:06.736,-0.001910290913656353
1685,00:00:06.74,0.0034806670155376183
1686,00:00:06.744,-0.007111352402716871
1687,00:00:06.748,-0.006504156481241808
1688,00:00:06.752,0.00482524652034044
1689,00:00:06.756,0.00338605116121471
1690,00:00:06.76,0.002199334965553139
1691,00:00:06.764,-0.001250895715202206
1692,00:00:06.768,0.00577985821291804
1693,00:00:06.772,-0.00533951562829316
1694,00:00:06.776,0.00205830170307309
1695,00:00:06.78,-0.00409601023420692
1696,00:00:06.784,-0.00674124469514936
1697,00:00:06.788,0.004351970274001289
1698,00:00:06.792,0.011627222236711528
1699,00:00:06.796,-0.009691307524917646
1700,00:00:06.8,0.00869352975860238
1701,00:00:06.804,-0.007712871185503902
1702,00:00:06.808,0.0005910258623771395
1703,00:00:06.812,0.0006608550320379432
1704,00:00:06.816,-0.004838701221160596
1705,00:00:06.82,-0.0013475258019752887
1706,00:00:06.824,0.0045150584774091805
1707,00:00:06.828,-0.0004456583119463167
1708,00:00:06.832,0.004884611116722221
1709,00:00:06.836,0.00415772615815513
1710,00:00:06.84,-0.0014229886000975932
1711,00:00:06.844,-0.01084344414994121
1712,00:00:06.848,-0.002450394444167611
1713,00:00:06.852,0.0029121293919161
1714,00:00:06.856,0.00218132813461125
1715,00:00:06.86,0.011069969332311299
1716,00:00:06.864,-0.0057257721491623635
1717,00:00:06.868,-0.007960288727190344
1718,00:00:06.872,0.0005383983952924621
1719,00:00:06.876,0.009826224908465526
1720,00:00:06.88,-0.005020119657274327
1721,00:00:06.884,-0.006153708905912939
1722,00:00:06.888,0.01463719410821795
1723,00:00:06.892,-0.003345117089338605
1724,00:00:06.896,-0.006827853620052339
1725,00:00:06.9,-0.0017894404591061158
1726,00:00:06.904,-0.0018621669150888894
1727,00:00:06.908,0.0028825333574786774
1728,00:00:06.912,0.0005301265628077122
1729,00:00:06.916,0.0007828402594896029
1730,00:00:06.92,-0.001023752265609806
1731,00:00:06.924,0.004799465415999288
1732,00:00:06.928,0.0018805515719577674
1733,00:00:06.932,-0.00174002419225871
1734,00:00:06.936,-0.003137727821012959
1735,00:00:06.94,-0.004458912648260594
1736,00:00:06.944,0.00333943089935929
1737,00:00:06.948,-0.005855140945641317
1738,00:00:06.952,0.00991688889916986
1739,00:00:06.956,0.003160978434607379
1740,00:00:06.96,-0.004356207617092878
1741,00:00:06.964,-0.010366259317379438
1742,00:00:06.968,0.00248688005376607
1743,00:00:06.972,0.01205871079582721
1744,00:00:06.976,-0.001947104465216399
1745,00:00:06.98,-0.002129330765455958
1746,00:00:06.984,-0.006198276911163699
1747,00:00:06.988,-0.0098103613127023
1748,00:00:06.992,0.023123206105083262
1749,00:00:06.996,0.002742816403042526
1750,00:00:07,-0.008541187329683448
1751,00:00:07.004,-0.007314607384614641
1752,00:00:07.008,0.001924820593558255
1753,00:00:07.012,-0.002084090549033135
1754,00:00:07.016,0.00626934017054737
1755,00:00:07.02,-0.00991113728377968
1756,00:00:07.024,0.011934316484257591
1757,00:00:07.028,0.00221304455772042
1758,00:00:07.032,-0.01357300789095461
1759,00:00:07.036,0.0057492969790473615
1760,00:00:07.04,-0.00042857963126153014
1761,00:00:07.044,0.006682565319351854
1762,00:00:07.048,-0.0041456907056271995
1763,00:00:07.052,-0.0032102553741424384
1764,00:00:07.056,0.00011740521586034932
1765,00:00:07.06,0.01033249590545892
1766,00:00:07.064,-0.00177492655348033
1767,00:00:07.068,-0.005545163876377043
1768,00:00:07.072,-0.0020963329297956123
1769,00:00:07.076,-0.007209378527477389
1770,00:00:07.08,0.0015945457853376904
1771,00:00:07.084,0.0031796474941074813
1772,00:00:07.088,0.008590402081608769
1773,00:00:07.092,0.00148260081186891
1774,00:00:07.096,-0.004279475950170315
1775,00:00:07.1,0.0010334262624383003
1776,00:00:07.104,0.003800259204581391
1777,00:00:07.108,-0.003889920539222657
1778,00:00:07.112,-0.009443679358810152
1779,00:00:07.116,-0.0031152538722380935
1780,00:00:07.12,-0.0008352061850018773
1781,00:00:07.124,0.011680372408591207
1782,00:00:07.128,0.00351253943517805
1783,00:00:07.132,0.006196844740770759
1784,00:00:07.136,-0.00113282710663043
1785,00:00:07.14,-0.008371906114916781
1786,00:00:07.144,-0.01690376084297895
1787,00:00:07.148,0.01437956257723272
1788,00:00:07.152,0.00436806961806724
1789,00:00:07.156,-0.006826724507845941
1790,00:00:07.16,-0.00024871126515791297
1791,00:00:07.164,0.007360806688666345
1792,00:00:07.168,0.0013161001843400326
1793,00:00:07.172,-0.0018536702264100296
1794,00:00:07.176,0.0016468974063172893
1795,00:00:07.18,-0.007682407245738438
1796,00:00:07.184,0.0024400521069765186
1797,00:00:07.188,-0.0063049104064703005
1798,00:00:07.192,0.007499812250898688
1799,00:00:07.196,0.00498633156530559
1800,00:00:07.2,-0.00677781249396503
1801,00:00:07.204,-0.0018385438015684442
1802,00:00:07.208,0.009555360069498389
1803,00:00:07.212,-0.00583406013902277
1804,00:00:07.216,-0.00726184924133122
1805,00:00:07.22,-0.0005630101077258602
1806,00:00:07.224,0.012625785428099334
1807,00:00:07.228,0.0033037912799045405
1808,00:00:07.232,-0.013895018026232725
1809,00:00:07.236,0.00031505496008321816
1810,00:00:07.24,0.006401650840416551
1811,00:00:07.244,0.003301561562693682
1812,00:00:07.248,-0.00295134959742426
1813,00:00:07.252,-0.005083097654278385
1814,00:00:07.256,0.0009154211729764895
1815,00:00:07.26,0.004341555992141359
1816,00:00:07.264,-0.002608712238725276
1817,00:00:07.268,0.0005003996193408999
1818,00:00:07.272,0.007030388573184611
1819,00:00:07.276,-0.00781549513339997
1820,00:00:07.28,-0.007464842739864249
1821,00:00:07.284,0.006614266429096466
1822,00:00:07.288,0.0036501085851341495
1823,00:00:07.292,0.01124096103012563
1824,00:00:07.296,-0.01490258751437068
1825,00:00:07.3,-0.00357764773070813
1826,00:00:07.304,-0.0047788135707378405
1827,00:00:07.308,0.01064490340650082
1828,00:00:07.312,0.004860246786847711
1829,00:00:07.316,0.0016125068068504394
1830,00:00:07.32,-0.00914488721173256
1831,00:00:07.324,-0.00892220996320248
1832,00:00:07.328,0.003339961171150198
1833,00:00:07.332,0.01798247802071276
1834,00:00:07.336,0.01037637668196112
1835,00:00:07.34,-0.01222831080667674
1836,00:00:07.344,-0.02430173335596919
1837,00:00:07.348,-0.00282465270720423
1838,00:00:07.352,0.01143205189873698
1839,00:00:07.356,0.01744268764741722
1840,00:00:07.36,-0.005093727260828018
1841,00:00:07.364,-0.0021061122606624866
1842,00:00:07.368,0.00475520151667296
1843,00:00:07.372,-0.003041762363864108
1844,00:00:07.376,-0.011814395606052134
1845,00:00:07.38,-0.004221380455419426
1846,00:00:07.384,0.008030586323002346
1847,00:00:07.388,0.007078056805767122
1848,00:00:07.392,-0.002039212355157364
1849,00:00:07.396,4.850066034116634e-06
1850,00:00:07.4,0.00201906927395612
1851,00:00:07.404,-0.002552246383856988
1852,00:00:07.408,0.0017045179447450214
1853,00:00:07.412,0.003544039558619253
1854,00:00:07.416,-0.012673076940700412
1855,00:00:07.42,-0.007983485003933321
1856,00:00:07.424,0.005384748044889425
1857,00:00:07.428,0.013275575824081887
1858,00:00:07.432,0.0023193731904029807
1859,00:00:07.436,-0.0019805807096418032
1860,00:00:07.44,0.009652595152147107
1861,00:00:07.444,-0.01387727400287986
1862,00:00:07.448,-0.012770994333550341
1863,00:00:07.452,0.00928808562457565
1864,00:00:07.456,0.0013569886796176403
1865,00:00:07.46,0.0024171767290681605
1866,00:00:07.464,0.0010222143027931478
1867,00:00:07.468,-0.002519322442822156
1868,00:00:07.472,-0.0032548801973462105
1869,00:00:07.476,0.0067574165295809525
1870,00:00:07.48,0.0011245873174630108
1871,00:00:07.484,-0.004053997865412382
1872,00:00:07.488,-0.0005079996171843956
1873,00:00:07.492,-0.0018870075582526624
1874,00:00:07.496,-0.004174027766566726
1875,00:00:07.5,0.009592220769263842
1876,00:00:07.504,0.00516894576139748
1877,00:00:07.508,-0.008020437257073354
1878,00:00:07.512,-0.0012878976413048786
1879,00:00:07.516,0.006611964134208385
1880,00:00:07.52,-0.007646456360816959
1881,00:00:07.524,-0.01533767161890864
1882,00:00:07.528,0.01499372255057097
1883,00:00:07.532,0.012668389710597699
1884,00:00:07.536,-0.002280375570990139
1885,00:00:07.54,-0.014252205495722588
1886,00:00:07.544,0.007853047456592321
1887,00:00:07.548,0.011898074299097058
1888,00:00:07.552,-0.013397570844972511
1889,00:00:07.556,-0.006047681905329229
1890,00:00:07.56,0.00188082829117776
1891,00:00:07.564,0.0008658912265673299
1892,00:00:07.568,-0.006733922986313709
1893,00:00:07.572,0.007637278002221137
1894,00:00:07.576,0.018097546184435487
1895,00:00:07.58,-0.007287578482646498
1896,00:00:07.584,-0.006108942900027615
1897,00:00:07.588,-0.012921948102302867
1898,00:00:07.592,0.0016062795184552722
1899,00:00:07.596,0.01289060688577592
1900,00:00:07.6,-0.004541607806459069
1901,00:00:07.604,-0.0010254342923872182
1902,00:00:07.608,0.005759885418228809
1903,00:00:07.612,0.002208831443567761
1904,00:00:07.616,0.0020149052143096898
1905,00:00:07.62,-0.011905317544005811
1906,00:00:07.624,-0.004294425190892065
1907,00:00:07.628,0.0019613673212006593
1908,00:00:07.632,0.00649810465984047
1909,00:00:07.636,-0.0003972824197262504
1910,00:00:07.64,0.010076037462567912
1911,00:00:07.644,-0.0007876220042817264
1912,00:00:07.648,-0.017186229699291282
1913,00:00:07.652,-0.002983765851240601
1914,00:00:07.656,0.002840534085407854
1915,00:00:07.66,0.016652534264721942
1916,00:00:07.664,-0.00855624920222909
1917,00:00:07.668,-0.008217487833462614
1918,00:00:07.672,0.01365746313240379
1919,00:00:07.676,0.013465364230796691
1920,00:00:07.68,-0.01117785670794547
1921,00:00:07.684,-0.015170950442552561
1922,00:00:07.688,-0.00590302795171738
1923,00:00:07.692,0.01155811693752184
1924,00:00:07.696,-0.0007601094548590468
1925,00:00:07.7,-0.0047078235074877696
1926,00:00:07.704,0.0015773245831951404
1927,00:00:07.708,0.00563350552693009
1928,00:00:07.712,0.01958151417784393
1929,00:00:07.716,0.0004523571114987109
1930,00:00:07.72,-0.02471083123236896
1931,00:00:07.724,-0.009886011946946379
1932,00:00:07.728,0.00020345246593933466
1933,00:00:07.732,0.015836597871384542
1934,00:00:07.736,0.0005984799936413782
1935,00:00:07.74,-0.0015713502652943126
1936,00:00:07.744,0.0018160396721214067
1937,00:00:07.748,0.004996957723051298
1938,00:00:07.752,0.00143113208469003
1939,00:00:07.756,-0.01294706377666444
1940,00:00:07.76,-0.00265227758791298
1941,00:00:07.764,0.002268337717396207
1942,00:00:07.768,0.005439965094410585
1943,00:00:07.772,-0.007935424568131564
1944,00:00:07.776,0.011138217756524682
1945,00:00:07.78,-0.00012702716048807036
1946,00:00:07.784,-0.00486616604030133
1947,00:00:07.788,0.006253397208638494
1948,00:00:07.792,-0.006779356626793749
1949,00:00:07.796,-0.0022098349872976546
1950,00:00:07.8,0.00726585672236979
1951,00:00:07.804,-0.00170496478676795
1952,00:00:07.808,-0.005256266027572575
1953,00:00:07.812,0.002500920876627788
1954,00:00:07.816,-0.004093256080523119
1955,00:00:07.82,-0.0002727286118897657
1956,00:00:07.824,0.003401874913834029
1957,00:00:07.828,0.01431754091754556
1958,00:00:07.832,-0.005672855331795288
1959,00:00:07.836,-0.010383056360296902
1960,00:00:07.84,-0.0021415404335129932
1961,00:00:07.844,0.002185290970373892
1962,00:00:07.848,0.01142238476313647
1963,00:00:07.852,-0.005845020001288509
1964,00:00:07.856,-0.014412397984415291
1965,00:00:07.86,0.00857458100654184
1966,00:00:07.864,0.006894494057632988
1967,00:00:07.868,0.006504964549094439
1968,00:00:07.872,-0.0011454129125922797
1969,00:00:07.876,-0.00591002777218819
1970,00:00:07.88,-0.012041934707667679
1971,00:00:07.884,0.0010718111880123598
1972,00:00:07.888,0.003294502646895122
1973,00:00:07.892,0.004433660797076298
1974,00:00:07.896,0.007514219876611614
1975,00:00:07.9,0.0013597311917692388
1976,00:00:07.904,-0.01217062526848167
1977,00:00:07.908,-0.00968430348439142
1978,00:00:07.912,0.02341063576750452
1979,00:00:07.916,4.2748171836140374e-05
1980,00:00:07.92,-0.007488961331546341
1981,00:00:07.924,-0.01658422988839448
1982,00:00:07.928,0.012060987297445553
1983,00:00:07.932,-0.0004337474238127498
1984,00:00:07.936,0.006423345301300289
1985,00:00:07.94,0.01104678236879409
1986,00:00:07.944,-0.020190753974020488
1987,00:00:07.948,-0.002651167626027022
1988,00:00:07.952,0.014644659822806761
1989,00:00:07.956,-0.007281132508069278
1990,00:00:07.96,-0.006014348473399879
1991,00:00:07.964,0.006670860951999203
1992,00:00:07.968,0.004661551211029291
1993,00:00:07.972,-0.0023331210250034902
1994,00:00:07.976,-0.0052774298237636685
1995,00:00:07.98,-0.0016684115398675125
1996,00:00:07.984,0.0038629656191915404
1997,00:00:07.988,-0.0011394289322197457
1998,00:00:07.992,0.0023954276111908205
1999,00:00:07.996,0.006096043151046619
2000,00:00:08,-0.009931213106028732
2001,00:00:08.004,-0.00048541394062340086
2002,00:00:08.008,0.01344808470457793
2003,00:00:08.012,-0.0050416518060956116
2004,00:00:08.016,0.0011204161564819437
2005,00:00:08.02,-0.015197102678939702
2006,00:00:08.024,0.000530938938027251
2007,00:00:08.028,0.009860127931460742
2008,00:00:08.032,-0.011500817945488948
2009,00:00:08.036,0.012592630926519629
2010,00:00:08.04,0.0089546111994423
2011,00:00:08.044,-0.0026927561848424397
2012,00:00:08.048,-0.004413549730088558
2013,00:00:08.052,-0.007036093156784772
2014,00:00:08.056,-0.009569956455379721
2015,00:00:08.06,0.006863411763333715
2016,00:00:08.064,0.0018512862734496598
2017,00:00:08.068,0.00949919153936207
2018,00:00:08.072,0.0102241327986121
2019,00:00:08.076,-0.00846235209610313
2020,00:00:08.08,-0.01236989325843752
2021,00:00:08.084,-0.007155238185077909
2022,00:00:08.088,0.004309894982725378
2023,00:00:08.092,0.007215071585960679
2024,00:00:08.096,0.0132506457157433
2025,00:00:08.1,-0.008816757617751136
2026,00:00:08.104,-0.0041747432551346685
2027,00:00:08.108,-0.005728774005547169
2028,00:00:08.112,0.0039169916417449695
2029,00:00:08.116,0.004014550970168785
2030,00:00:08.12,-0.004999341996153818
2031,00:00:08.124,0.006942409701878207
2032,00:00:08.128,0.001144508481957011
2033,00:00:08.132,-0.00657923065591604
2034,00:00:08.136,0.00918755284510552
2035,00:00:08.14,-0.004369659407529974
2036,00:00:08.144,-0.0166403974872082
2037,00:00:08.148,0.00485051522264256
2038,00:00:08.152,0.01104563963599505
2039,00:00:08.156,-0.0008282698690891405
2040,00:00:08.16,-0.0035991901531815503
2041,00:00:08.164,0.008384105516597632
2042,00:00:08.168,-0.0011332524300087226
2043,00:00:08.172,0.0023634220742678722
2044,00:00:08.176,-0.004719585995189849
2045,00:00:08.18,-0.01393544091843068
2046,00:00:08.184,-0.00332389934919774
2047,00:00:08.188,0.01485342919477262
2048,00:00:08.192,0.0013560715378844225
2049,00:00:08.196,0.007867693668231378
2050,00:00:08.2,0.0028445824573282174
2051,00:00:08.204,-0.013710202882066369
2052,00:00:08.208,-0.01073935348540544
2053,00:00:08.212,0.00859406986273826
2054,00:00:08.216,0.007599630393087869
2055,00:00:08.22,-0.0006315817590802995
2056,00:00:08.224,-0.00715210975613444
2057,00:00:08.228,-0.0024451857898384393
2058,00:00:08.232,0.01497216778807342
2059,00:00:08.236,0.002674353541806343
2060,00:00:08.24,-0.016841470263898373
2061,00:00:08.244,-0.006628963892580945
2062,00:00:08.248,0.00303016067482531
2063,00:00:08.252,0.01318961486686022
2064,00:00:08.256,-0.0022902350174263094
2065,00:00:08.26,0.0012452153605408958
2066,00:00:08.264,8.364405948669428e-05
2067,00:00:08.268,-0.00772665324620902
2068,00:00:08.272,-0.00017494673375040987
2069,00:00:08.276,0.00962239608634263
2070,00:00:08.28,0.0035971254110336347
2071,00:00:08.284,-0.0073977125575766
2072,00:00:08.288,-0.0017719066017889361
2073,00:00:08.292,-0.005063352582510564
2074,00:00:08.296,-0.0009155326988547975
2075,00:00:08.3,0.0008106235763989382
2076,00:00:08.304,0.00584558863192797
2077,00:00:08.308,5.257601151243394e-05
2078,00:00:08.312,0.01292977738194167
2079,00:00:08.316,-0.00028116197790951014
2080,00:00:08.32,-0.01266374497208745
2081,00:00:08.324,-0.011161101167090237
2082,00:00:08.328,-0.005612592969555406
2083,00:00:08.332,0.007491071824915709
2084,00:00:08.336,0.01654076622799039
2085,00:00:08.34,0.0005570191424340001
2086,00:00:08.344,0.0001104125403799186
2087,00:00:08.348,-0.005450253491289911
2088,00:00:08.352,-0.0027309940196573795
2089,00:00:08.356,0.008608647418441254
2090,00:00:08.36,-0.01897925953380764
2091,00:00:08.364,-0.002181172370910651
2092,00:00:08.368,0.008522277981683146
2093,00:00:08.372,0.0034147388651035726
2094,00:00:08.376,0.00869732932187617
2095,00:00:08.38,0.0039512796574854275
2096,00:00:08.384,-0.01467834739014507
2097,00:00:08.388,-0.00607962161302566
2098,00:00:08.392,0.006148374290205539
2099,00:00:08.396,0.0034833051031455398
2100,00:00:08.4,0.0012902321759611403
2101,00:00:08.404,-0.0002370722359046262
2102,00:00:08.408,0.001129685464547947
2103,00:00:08.412,0.001225744141265749
2104,00:00:08.416,-0.0020010042935609818
2105,00:00:08.42,-0.01374439639039338
2106,00:00:08.424,0.0074784816242754355
2107,00:00:08.428,0.005693564511602743
2108,00:00:08.432,-0.00222286290954798
2109,00:00:08.436,0.00300060748122632
2110,00:00:08.44,-0.000819892080471619
2111,00:00:08.444,-0.00346758856903761
2112,00:00:08.448,0.00327491800999269
2113,00:00:08.452,0.0037551227433141278
2114,00:00:08.456,-0.0030207188101485406
2115,00:00:08.46,-0.003857375704683366
2116,00:00:08.464,-0.001906777557451283
2117,00:00:08.468,-0.0038109426386654295
2118,00:00:08.472,0.0013882841449230792
2119,00:00:08.476,0.008878698339685798
2120,00:00:08.48,0.0066720710601657586
2121,00:00:08.484,-0.00940066616749391
2122,00:00:08.488,-0.001946984848473221
2123,00:00:08.492,0.000770921877119698
2124,00:00:08.496,0.005234160402324054
2125,00:00:08.5,0.0007131231250241501
2126,00:00:08.504,-0.00731986411847174
2127,00:00:08.508,-0.010237712613161419
2128,00:00:08.512,0.008985719876363873
2129,00:00:08.516,0.012758699129335579
2130,00:00:08.52,0.0004627929301932502
2131,00:00:08.524,-0.012096131453290578
2132,00:00:08.528,-0.008527229554601942
2133,00:00:08.532,0.0076449399348348535
2134,00:00:08.536,0.013536630431190131
2135,00:00:08.54,-0.008037434425204989
2136,00:00:08.544,-0.0031541360076516893
2137,00:00:08.548,-0.0069821323268115494
2138,00:00:08.552,0.0041935523040592705
2139,00:00:08.556,0.00758541817776859
2140,00:00:08.56,0.00691810611169785
2141,00:00:08.564,-0.008053765253862366
2142,00:00:08.568,-0.0010224571451544757
2143,00:00:08.572,-0.0077562960796058195
2144,00:00:08.576,-0.002535361563786869
2145,00:00:08.58,0.0031251880282070427
2146,00:00:08.584,0.009288574103266
2147,00:00:08.588,-0.004297912295442072
2148,00:00:08.592,-0.0002986746112583168
2149,00:00:08.596,0.00793291546870023
2150,00:00:08.6,-0.0002408250002190397
2151,00:00:08.604,-0.012695999350398779
2152,00:00:08.608,0.00974440737627447
2153,00:00:08.612,-0.005632277228869494
2154,00:00:08.616,0.002129214495653283
2155,00:00:08.62,0.001197573146782822
2156,00:00:08.624,-0.007158524123951793
2157,00:00:08.628,-0.0040826137992553396
2158,00:00:08.632,0.013781435511191376
2159,00:00:08.636,0.005080950853880493
2160,00:00:08.64,-0.00892329844646156
2161,00:00:08.644,-0.01008837495464832
2162,00:00:08.648,0.01246107718907297
2163,00:00:08.652,0.007393905892968188
2164,00:00:08.656,-0.010371958225732666
2165,00:00:08.66,-0.005103347881231459
2166,00:00:08.664,-0.0017368027365591773
2167,00:00:08.668,0.007131444872356946
2168,00:00:08.672,0.004800658411113547
2169,00:00:08.676,0.0022394594270735897
2170,00:00:08.68,-0.004673194955103099
2171,00:00:08.684,-0.008804220880847424
2172,00:00:08.688,-0.0041558495722711095
2173,00:00:08.692,0.01413017860613763
2174,00:00:08.696,0.00749138748506085
2175,00:00:08.7,-0.010696018580347301
2176,00:00:08.704,-0.01164925959892571
2177,00:00:08.708,0.006065719106118194
2178,00:00:08.712,0.00999450532253831
2179,00:00:08.716,0.0161250124219805
2180,00:00:08.72,-0.02268867823295296
2181,00:00:08.724,-0.00480365150724537
2182,00:00:08.728,-0.0065700396662577995
2183,00:00:08.732,0.010801636846736072
2184,00:00:08.736,0.00024323689285664992
2185,00:00:08.74,0.00308096990920603
2186,00:00:08.744,0.0089524951763451
2187,00:00:08.748,-0.007250309514347459
2188,00:00:08.752,0.006326829170575367
2189,00:00:08.756,-0.006527371544507332
2190,00:00:08.76,-0.01111730351112783
2191,00:00:08.764,0.0013818213119520804
2192,00:00:08.768,-0.0013162115355953579
2193,00:00:08.772,0.013904905477829743
2194,00:00:08.776,0.0023153471120167498
2195,00:00:08.78,-0.005472688586451117
2196,00:00:08.784,-0.00649730639997869
2197,00:00:08.788,-0.0032489179111507894
2198,00:00:08.792,0.013179321889765516
2199,00:00:08.796,0.003707803494762628
2200,00:00:08.8,-0.0038344945060089196
2201,00:00:08.804,-0.0143225914798677
2202,00:00:08.808,-0.0003525356296449891
2203,00:00:08.812,-0.0006650760769844099
2204,00:00:08.816,0.01557045697700235
2205,00:00:08.82,0.009820186416618523
2206,00:00:08.824,-0.009035786264576016
2207,00:00:08.828,-0.00979455164633691
2208,00:00:08.832,-0.006090870650950812
2209,00:00:08.836,0.00550298625603318
2210,00:00:08.84,0.00356187764555216
2211,00:00:08.844,0.004063723958097393
2212,00:00:08.848,-0.00973453745245933
2213,00:00:08.852,0.01200167206116021
2214,00:00:08.856,0.0037080882466398193
2215,00:00:08.86,-0.00605444505345077
2216,00:00:08.864,-0.012710520764812838
2217,00:00:08.868,0.00304203119594603
2218,00:00:08.872,0.005733794532716271
2219,00:00:08.876,0.0032216793624684193
2220,00:00:08.88,-0.00198299228213727
2221,00:00:08.884,-0.0038340402534231544
2222,00:00:08.888,0.00794325838796794
2223,00:00:08.892,-0.0035527533618733296
2224,00:00:08.896,-0.005963988369330763
2225,00:00:08.9,0.009349920088425279
2226,00:00:08.904,-0.013128892169334029
2227,00:00:08.908,0.00358215777669102
2228,00:00:08.912,0.008482675941195346
2229,00:00:08.916,0.005501869367435569
2230,00:00:08.92,-0.01435208553448318
2231,00:00:08.924,0.0060732999118045
2232,00:00:08.928,0.004697821997979193
2233,00:00:08.932,-0.001062178227584809
2234,00:00:08.936,-0.00833781762048602
2235,00:00:08.94,-0.008095251512713711
2236,00:00:08.944,0.007703397539444259
2237,00:00:08.948,0.00562332628760487
2238,00:00:08.952,0.00247356644831598
2239,00:00:08.956,-0.00027246575336903073
2240,00:00:08.96,0.0024231902789324596
2241,00:00:08.964,-0.007870052242651582
2242,00:00:08.968,-0.0024408620083704487
2243,00:00:08.972,0.0010480794589966588
2244,00:00:08.976,0.006392834708094592
2245,00:00:08.98,-0.0021634612276102373
2246,00:00:08.984,-0.0005339212657418139
2247,00:00:08.988,-0.004699731769505892
2248,00:00:08.992,0.005428109463537104
2249,00:00:08.996,0.00303569692187011
2250,00:00:09,-0.007386059558484706
2251,00:00:09.004,-0.001324177967035214
2252,00:00:09.008,0.004248454715707342
2253,00:00:09.012,-0.0012648667907342393
2254,00:00:09.016,0.001975501741981133
2255,00:00:09.02,0.0036474119406193495
2256,00:00:09.024,0.0002079871483147179
2257,00:00:09.028,-0.00042788097925950297
2258,00:00:09.032,-0.006968911329749966
2259,00:00:09.036,-0.0034256755607202597
2260,00:00:09.04,0.0033801466233853708
2261,00:00:09.044,0.005761043808888635
2262,00:00:09.048,-0.004490446415729819
2263,00:00:09.052,-0.00010671955533326583
2264,00:00:09.056,0.0017355079762637695
2265,00:00:09.06,0.005706777155864981
2266,00:00:09.064,-0.0034535760059952805
2267,00:00:09.068,0.00039327447302638964
2268,00:00:09.072,-0.005203233333304521
2269,00:00:09.076,-0.00860895356163383
2270,00:00:09.08,0.0010143059771507974
2271,00:00:09.084,0.020037883892655386
2272,00:00:09.088,0.010292963008396338
2273,00:00:09.092,-0.015969948610290878
2274,00:00:09.096,-0.004988617438357322
2275,00:00:09.1,-0.012754452414810661
2276,00:00:09.104,-0.0017281847540289252
2277,00:00:09.108,0.009847483714111151
2278,00:00:09.112,0.0161075743380934
2279,00:00:09.116,0.00895769440103323
2280,00:00:09.12,-0.01791562978178262
2281,00:00:09.124,-0.010753255104646092
2282,00:00:09.128,0.007554521434940401
2283,00:00:09.132,0.0014003528049215627
2284,00:00:09.136,-0.006721068173646941
2285,00:00:09.14,-0.00071647681033937
2286,00:00:09.144,0.01101204846054316
2287,00:00:09.148,0.0039029294566717073
2288,00:00:09.152,0.002567802788689729
2289,00:00:09.156,-0.0015209915582090603
2290,00:00:09.16,-0.01454432052560151
2291,00:00:09.164,-0.00888972281245514
2292,00:00:09.168,0.015352763817645622
2293,00:00:09.172,-0.0007223228458315108
2294,00:00:09.176,-0.0015840941705391766
2295,00:00:09.18,0.00296561664436012
2296,00:00:09.184,0.004329699120717118
2297,00:00:09.188,-0.003964778617955741
2298,00:00:09.192,-0.005263680242933335
2299,00:00:09.196,0.00989629310788586
2300,00:00:09.2,-0.00069139082916081
2301,00:00:09.204,-0.004557503038086001
2302,00:00:09.208,-0.0058531315298751005
2303,00:00:09.212,-0.00128814397612586
2304,00:00:09.216,0.0025908757743309287
2305,00:00:09.22,0.0037000336451455933
2306,00:00:09.224,-0.0015814186190254995
2307,00:00:09.228,0.0087490298319608
2308,00:00:09.232,-0.0015213703336485226
2309,00:00:09.236,-0.004348554590251298
2310,00:00:09.24,-0.0032032456947490647
2311,00:00:09.244,-0.0008948661852628001
2312,00:00:09.248,0.00709184480365366
2313,00:00:09.252,-0.006516475754324342
2314,00:00:09.256,-0.0038547691074199988
2315,00:00:09.26,0.0035453024320304402
2316,00:00:09.264,0.00417766883037984
2317,00:00:09.268,0.00402135611511767
2318,00:00:09.272,0.0017487613949924699
2319,00:00:09.276,-0.007249735877849162
2320,00:00:09.28,-0.005095914500998327
2321,00:00:09.284,-0.0024745606133365046
2322,00:00:09.288,0.0004897236358374294
2323,00:00:09.292,0.014982840511947839
2324,00:00:09.296,0.00361428991891444
2325,00:00:09.3,-0.01533109927549956
2326,00:00:09.304,-0.0035686276387423303
2327,00:00:09.308,0.005175415535632051
2328,00:00:09.312,0.008853905019350343
2329,00:00:09.316,0.00160352105740459
2330,00:00:09.32,-0.0105787597130984
2331,00:00:09.324,-0.0017704342026263493
2332,00:00:09.328,-0.004811768652871252
2333,00:00:09.332,0.001522198785096407
2334,00:00:09.336,0.018215411575511105
2335,00:00:09.34,-0.0022354724351316595
2336,00:00:09.344,-0.009318231543147704
2337,00:00:09.348,-0.0009181338828056973
2338,00:00:09.352,-0.0054724966175854215
2339,00:00:09.356,0.004242381895892322
2340,00:00:09.36,0.006823207251727579
2341,00:00:09.364,0.0020020658557768894
2342,00:00:09.368,-0.00857739348430187
2343,00:00:09.372,-0.0019466953817755001
2344,00:00:09.376,0.01247813180088998
2345,00:00:09.38,-0.004814530082512647
2346,00:00:09.384,-0.008328441064804789
2347,00:00:09.388,-0.0023244321346283002
2348,00:00:09.392,0.007243419080623424
2349,00:00:09.396,0.004932844312861558
2350,00:00:09.4,-0.003958446017350066
2351,00:00:09.404,-0.0008411789312958509
2352,00:00:09.408,0.0022460379404947196
2353,00:00:09.412,0.00240323878824711
2354,00:00:09.416,0.0006491392850875811
2355,00:00:09.42,-0.013683079276233866
2356,00:00:09.424,-0.0048057181120384485
2357,00:00:09.428,0.01554874470457434
2358,00:00:09.432,0.005000046570785344
2359,00:00:09.436,-0.00997487525455654
2360,00:00:09.44,0.0018393016216577988
2361,00:00:09.444,0.003246166743338106
2362,00:00:09.448,-0.0010497592884348623
2363,00:00:09.452,0.002926696251961399
2364,00:00:09.456,-0.00430426769889891
2365,00:00:09.46,0.005301780794980011
2366,00:00:09.464,-0.005769262439571321
2367,00:00:09.468,-0.006653674063272774
2368,00:00:09.472,0.0037872871034778633
2369,00:00:09.476,0.0002697983291000119
2370,00:00:09.48,0.0015855610836297202
2371,00:00:09.484,0.008666211040690529
2372,00:00:09.488,0.0020892680622637393
2373,00:00:09.492,-0.008400798280490568
2374,00:00:09.496,-0.006181015458423645
2375,00:00:09.5,-0.0029224765021353904
2376,00:00:09.504,0.0027010419871658
2377,00:00:09.508,0.009261106490157548
2378,00:00:09.512,0.004219801921863117
2379,00:00:09.516,-0.005914916109759364
2380,00:00:09.52,-0.0046943499473854995
2381,00:00:09.524,-0.0007912023284006886
2382,00:00:09.528,0.00391733844298869
2383,00:00:09.532,0.00658731500152499
2384,00:00:09.536,-0.004101287922821944
2385,00:00:09.54,-0.00906109274365008
2386,00:00:09.544,-0.0001413226127624503
2387,00:00:09.548,0.00401955319102853
2388,00:00:09.552,0.008171557594323536
2389,00:00:09.556,0.0021148968080524373
2390,00:00:09.56,-0.005478665232658383
2391,00:00:09.564,-0.005101641756482429
2392,00:00:09.568,-0.0018566860817372899
2393,00:00:09.572,0.0031034658313728826
2394,00:00:09.576,-0.0038724520709365606
2395,00:00:09.58,-0.004050289397127926
2396,00:00:09.584,0.01396308140829205
2397,00:00:09.588,0.01186524401418865
2398,00:00:09.592,-0.00614725906052627
2399,00:00:09.596,-0.0063803931698203096
2400,00:00:09.6,-0.021287599112838493
2401,00:00:09.604,-0.00501390069257469
2402,00:00:09.608,0.02475394890643658
2403,00:00:09.612,0.01091182138770818
2404,00:00:09.616,-0.01398076047189533
2405,00:00:09.62,0.0065816172864288005
2406,00:00:09.624,0.002993947651702905
2407,00:00:09.628,-0.01421356646460481
2408,00:00:09.632,0.0014224287006072717
2409,00:00:09.636,-0.0005687475950253403
2410,00:00:09.64,0.007533243100624536
2411,00:00:09.644,-0.007521954132243993
2412,00:00:09.648,-0.0008539501577615807
2413,00:00:09.652,0.0139222452417016
2414,00:00:09.656,0.00038001011125743823
2415,00:00:09.66,-0.010010590543970469
2416,00:00:09.664,-0.003972430480644109
2417,00:00:09.668,0.00253695994615554
2418,00:00:09.672,0.00047877547331153956
2419,00:00:09.676,-0.005481803207658234
2420,00:00:09.68,0.011155211890581995
2421,00:00:09.684,0.003926212491933257
2422,00:00:09.688,-0.008552184735890481
2423,00:00:09.692,-0.006996242969762538
2424,00:00:09.696,0.003023323079105466
2425,00:00:09.7,0.01602152222767472
2426,00:00:09.704,6.85309169057291e-05
2427,00:00:09.708,-0.013626315165311091
2428,00:00:09.712,-0.003445847476541534
2429,00:00:09.716,0.005603292200248685
2430,00:00:09.72,-0.00322543055517599
2431,00:00:09.724,-0.0012226260732859393
2432,00:00:09.728,0.004122562822885813
2433,00:00:09.732,0.01158646168187261
2434,00:00:09.736,-0.011376272188499577
2435,00:00:09.74,-0.00804374506697059
2436,00:00:09.744,0.006771398184355351
2437,00:00:09.748,0.0016521494253538581
2438,00:00:09.752,0.006874877130030654
2439,00:00:09.756,-0.009588161949068301
2440,00:00:09.76,-0.00699198909569532
2441,00:00:09.764,0.012650167365791278
2442,00:00:09.768,0.007549256806669288
2443,00:00:09.772,-0.009967496058379769
2444,00:00:09.776,0.0034823658643290505
2445,00:00:09.78,-0.003480169485555966
2446,00:00:09.784,-0.009880913887172939
2447,00:00:09.788,0.0005858812946826209
2448,00:00:09.792,0.018292838998604538
2449,00:00:09.796,0.004209581384202461
2450,00:00:09.8,-0.02123328205198052
2451,00:00:09.804,-0.00587469758465885
2452,00:00:09.808,0.01135214767418802
2453,00:00:09.812,0.004450846172403547
2454,00:00:09.816,0.0050903020892292304
2455,00:00:09.82,-0.00887239594885614
2456,00:00:09.824,0.0014233834808692401
2457,00:00:09.828,-0.00018010986968874975
2458,00:00:09.832,0.0060033233094145605
2459,00:00:09.836,-0.005846861982718111
2460,00:00:09.84,-0.006755637004971506
2461,00:00:09.844,-0.0025001483154483113
2462,00:00:09.848,0.00818314403295517
2463,00:00:09.852,0.0064721874659881004
2464,00:00:09.856,0.005422489368356764
2465,00:00:09.86,-0.00861140096094459
2466,00:00:09.864,-0.01118539925664664
2467,00:00:09.868,0.008793430504738353
2468,00:00:09.872,0.0062522263033315505
2469,00:00:09.876,-0.006854974664747719
2470,00:00:09.88,0.00147829588968306
2471,00:00:09.884,0.0007055755704641277
2472,00:00:09.888,-0.013691650703549389
2473,00:00:09.892,0.010077956249006089
2474,00:00:09.896,0.004702531994553282
2475,00:00:09.9,0.009326319879619403
2476,00:00:09.904,-0.013081226032227281
2477,00:00:09.908,-0.008407745306612929
2478,00:00:09.912,0.005245365653536283
2479,00:00:09.916,0.014766475751457633
2480,00:00:09.92,-0.0071028561796993
2481,00:00:09.924,-0.007473898236639791
2482,00:00:09.928,0.00033249205444008025
2483,00:00:09.932,0.006944375243620014
2484,00:00:09.936,-0.00167902320390568
2485,00:00:09.94,-0.006681911821942771
2486,00:00:09.944,0.011401221505366259
2487,00:00:09.948,-0.001855579561379273
2488,00:00:09.952,-0.00697308871895074
2489,00:00:09.956,-0.001065408636350181
2490,00:00:09.96,-0.00267154339235276
2491,00:00:09.964,-0.0045702417264692485
2492,00:00:09.968,0.02055271319113677
2493,00:00:09.972,0.0029002942610532097
2494,00:00:09.976,-0.008151756570441647
2495,00:00:09.98,-0.0012050996301695802
2496,00:00:09.984,-0.016952740261331242
2497,00:00:09.988,0.004324831301346431
2498,00:00:09.992,0.01115187129471451
2499,00:00:09.996,0.012151109869591888
2500,00:00:10,-0.01079061406198889
2501,00:00:10.004,-0.01141764875501399
2502,00:00:10.008,0.00452517415396869
2503,00:00:10.012,0.0015731109306216292
2504,00:00:10.016,0.0039814820047467895
2505,00:00:10.02,-7.6424563303569e-05
2506,00:00:10.024,0.007675863802433019
2507,00:00:10.028,-0.004061499232193452
2508,00:00:10.032,-0.004358913574833419
2509,00:00:10.036,-0.005811298789922152
2510,00:00:10.04,-0.00806429400108755
2511,00:00:10.044,0.003763220243854449
2512,00:00:10.048,0.010285135940648619
2513,00:00:10.052,0.00859238533303142
2514,00:00:10.056,-0.0014875709312036607
2515,00:00:10.06,-0.007168947078753259
2516,00:00:10.064,-0.0024248167756013533
2517,00:00:10.068,0.003865516162477437
2518,00:00:10.072,-0.00133241002913564
2519,00:00:10.076,-0.00457467720843852
2520,00:00:10.08,-0.005648675491102037
2521,00:00:10.084,0.00568221136927605
2522,00:00:10.088,0.0103359860368073
2523,00:00:10.092,0.0006620733765885303
2524,00:00:10.096,-0.00626333255786449
2525,00:00:10.1,-0.0046343452995643054
2526,00:00:10.104,-0.0008760506752878393
2527,00:00:10.108,0.0017531095072627016
2528,00:00:10.112,0.004479000243009064
2529,00:00:10.116,-0.006583972775842993
2530,00:00:10.12,0.00881204567849637
2531,00:00:10.124,-0.00183774321340024
2532,00:00:10.128,0.0012494537513703199
2533,00:00:10.132,-0.0029002563096582994
2534,00:00:10.136,-0.0025372770614922107
2535,00:00:10.14,0.003439702966716143
2536,00:00:10.144,-0.00524527463130653
2537,00:00:10.148,-0.006228270009160042
2538,00:00:10.152,0.01653442671522498
2539,00:00:10.156,0.0034190822625532655
2540,00:00:10.16,-0.011025548272300512
2541,00:00:10.164,-0.006821434682933614
2542,00:00:10.168,-0.00147145276423543
2543,00:00:10.172,0.01292712637223304
2544,00:00:10.176,0.004546651849523182
2545,00:00:10.18,-0.00852139154449106
2546,00:00:10.184,-0.005141771136550226
2547,00:00:10.188,0.0007900885175331461
2548,00:00:10.192,0.014201169775333266
2549,00:00:10.196,0.010202948935329921
2550,00:00:10.2,-0.02264259522780781
2551,00:00:10.204,-0.010573721490800379
2552,00:00:10.208,-0.0008283131755888488
2553,00:00:10.212,0.01117249205708504
2554,00:00:10.216,0.006664863089099519
2555,00:00:10.22,-0.0020292549161240398
2556,00:00:10.224,0.006949373055249452
2557,00:00:10.228,-0.0011174115352332514
2558,00:00:10.232,-0.00717466138303279
2559,00:00:10.236,-0.0090096068306593
2560,00:00:10.24,0.009575789677910512
2561,00:00:10.244,-0.006621875450946391
2562,00:00:10.248,0.004210117040202029
2563,00:00:10.252,0.002513792074751106
2564,00:00:10.256,-0.0007439418695867012
2565,00:00:10.26,0.00423972448334097
2566,00:00:10.264,0.011467312462627893
2567,00:00:10.268,-0.01429310580715537
2568,00:00:10.272,-0.00754314742516727
2569,00:00:10.276,-0.005621672695269807
2570,00:00:10.28,0.01044173305854202
2571,00:00:10.284,-0.005489703617058695
2572,00:00:10.288,0.00970952853094786
2573,00:00:10.292,0.009849184309132397
2574,00:00:10.296,-0.017908650450408452
2575,00:00:10.3,0.0012388738105073606
2576,00:00:10.304,0.002509619749616825
2577,00:00:10.308,0.006231578765436998
2578,00:00:10.312,-0.0009845581771514783
2579,00:00:10.316,-0.0075419460190460095
2580,00:00:10.32,-0.002862831723177812
2581,00:00:10.324,0.004359722370281819
2582,00:00:10.328,0.00843168329447507
2583,00:00:10.332,-0.004459802061319358
2584,00:00:10.336,0.00195699068717659
2585,00:00:10.34,-0.0066634746035561
2586,00:00:10.344,-0.0073231446524459915
2587,00:00:10.348,0.013920958153903481
2588,00:00:10.352,0.0012435578973963898
2589,00:00:10.356,0.0011163243252667542
2590,00:00:10.36,-0.0047533013857901105
2591,00:00:10.364,-0.014728562025993576
2592,00:00:10.368,0.010431053582578901
2593,00:00:10.372,0.007263562874868514
2594,00:00:10.376,-0.0007009581895545099
2595,00:00:10.38,-0.00678840492400923
2596,00:00:10.384,0.006225874036317696
2597,00:00:10.388,0.0009173285216093096
2598,00:00:10.392,-0.004427992505952719
2599,00:00:10.396,-0.0029187457403168
2600,00:00:10.4,0.0020745968213305
2601,00:00:10.404,0.0018883051816374098
2602,00:00:10.408,-0.0058051914093084685
2603,00:00:10.412,0.005320432363078001
2604,00:00:10.416,0.004112547059776259
2605,00:00:10.42,0.00213727727532386
2606,00:00:10.424,-0.006572211743332409
2607,00:00:10.428,-0.00450276979245245
2608,00:00:10.432,0.006087683053920042
2609,00:00:10.436,-0.0012669224524870498
2610,00:00:10.44,-0.00816196005325764
2611,00:00:10.444,-0.000726224388927219
2612,00:00:10.448,0.01382784731686115
2613,00:00:10.452,0.0006094480631873007
2614,00:00:10.456,-0.000879416242241856
2615,00:00:10.46,-0.00446345307864249
2616,00:00:10.464,-0.0005641032475978205
2617,00:00:10.468,0.00422109523788094
2618,00:00:10.472,0.002157285518478595
2619,00:00:10.476,-0.01358790646190755
2620,00:00:10.48,-0.005596043542027479
2621,00:00:10.484,0.012619435961823907
2622,00:00:10.488,0.00448270760534797
2623,00:00:10.492,-4.300486762076443e-05
2624,00:00:10.496,0.002266566036269073
2625,00:00:10.5,-0.010038498730864374
2626,00:00:10.504,-0.000451915198937058
2627,00:00:10.508,0.00481171882711352
2628,00:00:10.512,-0.0016159148508449958
2629,00:00:10.516,0.0033265529054915498
2630,00:00:10.52,-0.0009158062748611008
2631,00:00:10.524,-0.0015975780552253203
2632,00:00:10.528,-0.0029216991388238992
2633,00:00:10.532,0.00825767684727907
2634,00:00:10.536,-0.0016668674070388118
2635,00:00:10.54,-0.00409271870739758
2636,00:00:10.544,-0.00469496380537749
2637,00:00:10.548,0.0017565101006766792
2638,00:00:10.552,-0.001116569088480897
2639,00:00:10.556,0.007949355145683517
2640,00:00:10.56,0.0016504804503085745
2641,00:00:10.564,-0.008213560200601934
2642,00:00:10.568,0.0010329371434636449
2643,00:00:10.572,0.0029576472588814873
2644,00:00:10.576,0.00789092597551644
2645,00:00:10.58,0.0022272603819146796
2646,00:00:10.584,-0.02024760295171293
2647,00:00:10.588,-0.0003526951186358961
2648,00:00:10.592,0.004060423845658077
2649,00:00:10.596,0.003210017457604409
2650,00:00:10.6,0.007714549574302515
2651,00:00:10.604,0.0027348618023097593
2652,00:00:10.608,-0.008705283216841057
2653,00:00:10.612,0.005578166572377081
2654,00:00:10.616,-0.004628916503861551
2655,00:00:10.62,5.8011617511519956e-05
2656,00:00:10.624,-0.00037525773223024317
2657,00:00:10.628,-0.00730768831272143
2658,00:00:10.632,-0.0032440584618598197
2659,00:00:10.636,0.010664387766155414
2660,00:00:10.64,0.013848206086549956
2661,00:00:10.644,-0.001154040190158419
2662,00:00:10.648,-0.021173716289922567
2663,00:00:10.652,0.0013969372957944905
2664,00:00:10.656,-0.00030740094371140003
2665,00:00:10.66,0.00529162341263145
2666,00:00:10.664,0.009059352334588771
2667,00:00:10.668,-0.00406805740203709
2668,00:00:10.672,-0.0021554975537583197
2669,00:00:10.676,-0.0009101249743252984
2670,00:00:10.68,0.00603283650707453
2671,00:00:10.684,-0.007874775736127045
2672,00:00:10.688,-0.0048365449183620495
2673,00:00:10.692,0.007360894698649649
2674,00:00:10.696,0.00042371085146441514
2675,00:00:10.7,-0.002981933997943999
2676,00:00:10.704,0.00988667586352676
2677,00:00:10.708,-0.00603055907413364
2678,00:00:10.712,-0.00596594484522939
2679,00:00:10.716,0.004939000209560612
2680,00:00:10.72,-0.005673219624441117
2681,00:00:10.724,-0.0038336616707965697
2682,00:00:10.728,0.0113976338179782
2683,00:00:10.732,0.008712074602954086
2684,00:00:10.736,-0.0012472253292799005
2685,00:00:10.74,-0.019556702347472296
2686,00:00:10.744,-0.0013102018274366812
2687,00:00:10.748,0.008378773694857941
2688,00:00:10.752,0.0065142180537805
2689,00:00:10.756,0.0015376518713310309
2690,00:00:10.76,-0.004195439250906933
2691,00:00:10.764,-0.005356499808840452
2692,00:00:10.768,0.0033275358146056585
2693,00:00:10.772,0.00696913478896022
2694,00:00:10.776,-0.003794868942350145
2695,00:00:10.78,-0.004845419036200842
2696,00:00:10.784,-0.006224358894542096
2697,00:00:10.788,0.00059043907094747
2698,00:00:10.792,0.011457630433142182
2699,00:00:10.796,0.001543911144835875
2700,00:00:10.8,-5.210941890254942e-05
2701,00:00:10.804,-0.004442034412932115
2702,00:00:10.808,0.00730244209989905
2703,00:00:10.812,-0.00408965384121985
2704,00:00:10.816,-0.014916624881152524
2705,00:00:10.82,-0.0021937613491900257
2706,00:00:10.824,0.002211797982454301
2707,00:00:10.828,0.01612025895155966
2708,00:00:10.832,0.00843694573268294
2709,00:00:10.836,-0.00416105054318904
2710,00:00:10.84,-0.01589219691231847
2711,00:00:10.844,-0.0017290366813540506
2712,00:00:10.848,0.01098261680454015
2713,00:00:10.852,0.00341559108346701
2714,00:00:10.856,-3.663855022750383e-05
2715,00:00:10.86,-0.005848037777468555
2716,00:00:10.864,-0.008609535172581671
2717,00:00:10.868,0.005111349390062972
2718,00:00:10.872,0.0009982670890167306
2719,00:00:10.876,0.0011949235340580366
2720,00:00:10.88,0.005742115899920461
2721,00:00:10.884,0.0034420066222082832
2722,00:00:10.888,-0.011024774925317612
2723,00:00:10.892,-0.0038292195531539645
2724,00:00:10.896,0.004019656538730491
2725,00:00:10.9,0.002055415404356606
2726,00:00:10.904,-0.0005858678487129544
2727,00:00:10.908,0.0111183314002119
2728,00:00:10.912,0.0041749060619622495
2729,00:00:10.916,-0.018882133066654212
2730,00:00:10.92,-0.00852985517121852
2731,00:00:10.924,0.0025006344076246006
2732,00:00:10.928,0.0096601212862879
2733,00:00:10.932,0.002691304660402242
2734,00:00:10.936,0.009482814930379401
2735,00:00:10.94,-0.005288214655593039
2736,00:00:10.944,-0.006706133659463374
2737,00:00:10.948,0.0009925091289915142
2738,00:00:10.952,0.0027705573011189907
2739,00:00:10.956,-0.006930925068445505
2740,00:00:10.96,-0.00933727918891236
2741,00:00:10.964,0.01228218415053562
2742,00:00:10.968,0.013734591193497181
2743,00:00:10.972,-0.00710781547240912
2744,00:00:10.976,-0.010334156977478415
2745,00:00:10.98,0.0031275854562409252
2746,00:00:10.984,-0.002687986590899522
2747,00:00:10.988,0.00026572275237412776
2748,00:00:10.992,0.011378737981431158
2749,00:00:10.996,-0.0004540839872788628
2750,00:00:11,-0.0047192341298796245
2751,00:00:11.004,-0.01034124035504646
2752,00:00:11.008,-0.00189010123722255
2753,00:00:11.012,0.01154195191338659
2754,00:00:11.016,0.015502110589295633
2755,00:00:11.02,-0.008302525337967385
2756,00:00:11.024,-0.00929350371006875
2757,00:00:11.028,-0.00974191376008093
2758,00:00:11.032,0.003154257196001711
2759,00:00:11.036,0.007846456021070468
2760,00:00:11.04,-0.0023628526832907993
2761,00:00:11.044,0.00106553221121431
2762,00:00:11.048,-0.004347713696915888
2763,00:00:11.052,0.00285590544808655
2764,00:00:11.056,0.008775095921009758
2765,00:00:11.06,0.009172764141112571
2766,00:00:11.064,-0.01739889953751115
2767,00:00:11.068,-0.000377006348571734
2768,00:00:11.072,-6.962550105526805e-05
2769,00:00:11.076,-0.0018150477844756131
2770,00:00:11.08,0.00670953548979014
2771,00:00:11.084,0.0025514146473142336
2772,00:00:11.088,-0.012693779426626852
2773,00:00:11.092,0.0038487014680868023
2774,00:00:11.096,0.007466337061487139
2775,00:00:11.1,-0.010365690919570628
2776,00:00:11.104,0.00291096221189946
2777,00:00:11.108,0.011707323137670759
2778,00:00:11.112,-0.005004309234209366
2779,00:00:11.116,0.00296613073442131
2780,00:00:11.12,-0.0070670655695721455
2781,00:00:11.124,0.0015888196649029899
2782,00:00:11.128,-0.01188635849393904
2783,00:00:11.132,0.004169678781181569
2784,00:00:11.136,0.01600078830961136
2785,00:00:11.14,0.007283581420779241
2786,00:00:11.144,-0.01594998571090401
2787,00:00:11.148,-0.015434055734658576
2788,00:00:11.152,0.00965650216676294
2789,00:00:11.156,0.0057066226727329125
2790,00:00:11.16,0.002610310097225007
2791,00:00:11.164,-0.0018027682381216443
2792,00:00:11.168,-0.00115533813368529
2793,00:00:11.172,0.0022446825169026904
2794,00:00:11.176,0.00912315730238333
2795,00:00:11.18,-0.00894656754098833
2796,00:00:11.184,-0.012462741928175088
2797,00:00:11.188,0.00194334541447461
2798,00:00:11.192,0.004202482377877456
2799,00:00:11.196,0.01306210097391159
2800,00:00:11.2,-0.0006556557491421595
2801,00:00:11.204,-0.011989443562924867
2802,00:00:11.208,-0.0033057157706935
2803,00:00:11.212,0.006850198144093151
2804,00:00:11.216,0.00044674787204712857
2805,00:00:11.22,0.0038970126770436807
2806,00:00:11.224,-0.0015754833584651394
2807,00:00:11.228,-0.0047298213467002
2808,00:00:11.232,0.004506632194534174
2809,00:00:11.236,-0.004561003152048212
2810,00:00:11.24,-0.00037852770037716255
2811,00:00:11.244,0.003470892086625098
2812,00:00:11.248,-0.000506782933371137
2813,00:00:11.252,-0.0008989704510895514
2814,00:00:11.256,0.0039333291351795205
2815,00:00:11.26,-0.00567131454590708
2816,00:00:11.264,-0.007043419114779679
2817,00:00:11.268,0.007516733021475379
2818,00:00:11.272,0.013035400887019929
2819,00:00:11.276,-0.00851305143442005
2820,00:00:11.28,-0.005576713941991335
2821,00:00:11.284,0.0010108365677297514
2822,00:00:11.288,0.00604001991450786
2823,00:00:11.292,-0.009338076226413252
2824,00:00:11.296,0.006561032962054049
2825,00:00:11.3,0.00201868859585375
2826,00:00:11.304,-0.007747664116322987
2827,00:00:11.308,0.0013054504524916497
2828,00:00:11.312,0.00520447769667953
2829,00:00:11.316,0.0019285610469523826
2830,00:00:11.32,-0.0056692038197070395
2831,00:00:11.324,-0.00918869650922716
2832,00:00:11.328,0.0090492736781016
2833,00:00:11.332,0.01001253048889339
2834,00:00:11.336,0.005702836380805818
2835,00:00:11.34,-0.01092346699442715
2836,00:00:11.344,-0.013781708898022771
2837,00:00:11.348,0.001259312557522204
2838,00:00:11.352,0.008285713149234649
2839,00:00:11.356,0.0032322988845407993
2840,00:00:11.36,-0.003763581626117231
2841,00:00:11.364,0.0030336423078551993
2842,00:00:11.368,0.008356480859220028
2843,00:00:11.372,-0.00429503293707966
2844,00:00:11.376,-0.01094063906930392
2845,00:00:11.38,-0.008361246436834339
2846,00:00:11.384,0.011016864096745859
2847,00:00:11.388,0.013365454375161782
2848,00:00:11.392,-0.004241817223373794
2849,00:00:11.396,-0.006977929500862963
2850,00:00:11.4,0.00045014038914814375
2851,00:00:11.404,-0.007911264197900917
2852,00:00:11.408,-0.0011779021533584446
2853,00:00:11.412,0.01135333115234971
2854,00:00:11.416,0.012948847317602454
2855,00:00:11.42,-0.012947947136126459
2856,00:00:11.424,-0.008120625512674454
2857,00:00:11.428,0.005470878677442671
2858,00:00:11.432,-0.0022793734678998702
2859,00:00:11.436,0.00136364868376403
2860,00:00:11.44,-0.00011330703273415088
2861,00:00:11.444,0.003055591601878402
2862,00:00:11.448,-0.00046825091703795
2863,00:00:11.452,0.00975111010484395
2864,00:00:11.456,-0.00997019920032471
2865,00:00:11.46,-0.0017870635492727098
2866,00:00:11.464,-0.01081880205310881
2867,00:00:11.468,0.0031817904673516807
2868,00:00:11.472,0.00975185306742788
2869,00:00:11.476,0.010037289292085914
2870,00:00:11.48,0.006513697357149791
2871,00:00:11.484,-0.02076623123139143
2872,00:00:11.488,-0.012676575453951958
2873,00:00:11.492,0.01190361659973859
2874,00:00:11.496,-0.002587694791145627
2875,00:00:11.5,0.01125847944058478
2876,00:00:11.504,0.003522659768350423
2877,00:00:11.508,-0.004657420737203207
2878,00:00:11.512,-0.00895416806451977
2879,00:00:11.516,0.00604050350375474
2880,00:00:11.52,0.0019233984057791557
2881,00:00:11.524,-0.009426681906916201
2882,00:00:11.528,0.00796272722072899
2883,00:00:11.532,0.0032455663895234435
2884,00:00:11.536,-0.00734340480994433
2885,00:00:11.54,-0.00109348213300109
2886,00:00:11.544,0.0065486783278174724
2887,00:00:11.548,-0.0011238123988732696
2888,00:00:11.552,0.0023543667048215896
2889,00:00:11.556,-0.00029424717649816946
2890,00:00:11.56,-0.004604843445122251
2891,00:00:11.564,-0.004824683463084508
2892,00:00:11.568,0.010512702516280111
2893,00:00:11.572,0.0019465735531412063
2894,00:00:11.576,-0.016467671375721693
2895,00:00:11.58,0.0006043297471478597
2896,00:00:11.584,0.000569885363802319
2897,00:00:11.588,0.011822373373433951
2898,00:00:11.592,0.0112781508360058
2899,00:00:11.596,-0.002457408059854058
2900,00:00:11.6,-0.008327304385602474
2901,00:00:11.604,-0.011491232609841969
2902,00:00:11.608,-0.005382022005505862
2903,00:00:11.612,0.01017519808374346
2904,00:00:11.616,0.014557581860572098
2905,00:00:11.62,-0.01030081312637776
2906,00:00:11.624,-0.008105189859634274
2907,00:00:11.628,0.00411669770255685
2908,00:00:11.632,0.00715658534318208
2909,00:00:11.636,0.002092031762003899
2910,00:00:11.64,-0.002531442791223527
2911,00:00:11.644,-0.012284080730751153
2912,00:00:11.648,-0.0031995294848457013
2913,00:00:11.652,0.01796612306497992
2914,00:00:11.656,0.012658550404012198
2915,00:00:11.66,-0.01842480106279254
2916,00:00:11.664,-0.007137059350498021
2917,00:00:11.668,-0.0022071353741921454
2918,00:00:11.672,0.0029195597162470226
2919,00:00:11.676,0.0089631318114698
2920,00:00:11.68,-0.00025898613967001525
2921,00:00:11.684,-0.004084757383679972
2922,00:00:11.688,0.0008142442675307376
2923,00:00:11.692,-0.0004948914574924828
2924,00:00:11.696,0.006779310177080351
2925,00:00:11.7,0.001442709792172535
2926,00:00:11.704,-0.00794946029782295
2927,00:00:11.708,-0.00941966625396167
2928,00:00:11.712,0.003885253987391481
2929,00:00:11.716,0.008518690476194031
2930,00:00:11.72,0.0060460835520643715
2931,00:00:11.724,-0.009403368458151819
2932,00:00:11.728,-0.007637412869371478
2933,00:00:11.732,0.019813963444903493
2934,00:00:11.736,-0.00124336197040975
2935,00:00:11.74,-0.01471662937547078
2936,00:00:11.744,-0.00511918414849788
2937,00:00:11.748,0.00473367259837687
2938,00:00:11.752,0.001546379469800745
2939,00:00:11.756,0.008987866516690698
2940,00:00:11.76,-0.002893065451644356
2941,00:00:11.764,0.005091890256153421
2942,00:00:11.768,-0.01062503177672625
2943,00:00:11.772,-0.005528693072847093
2944,00:00:11.776,0.0105333651881665
2945,00:00:11.78,-5.8373203501100104e-05
2946,00:00:11.784,0.006614387792069463
2947,00:00:11.788,-0.0022832206450402797
2948,00:00:11.792,-0.01621615840122104
2949,00:00:11.796,-0.000995267022517513
2950,00:00:11.8,0.012715839780867088
2951,00:00:11.804,0.005113716295454651
2952,00:00:11.808,-0.003285203434643338
2953,00:00:11.812,-0.008143104612827301
2954,00:00:11.816,0.008303331793285905
2955,00:00:11.82,-0.004449975007446483
2956,00:00:11.824,0.000789541954873128
2957,00:00:11.828,-0.0033754568867152587
2958,00:00:11.832,0.0015867966285441045
2959,00:00:11.836,0.0002920998958870786
2960,00:00:11.84,0.003233856754377488
2961,00:00:11.844,0.0015449461061507502
2962,00:00:11.848,-0.002771810512058428
2963,00:00:11.852,0.006423291924875229
2964,00:00:11.856,0.00036349229048936995
2965,00:00:11.86,-0.013457967666909088
2966,00:00:11.864,-0.00623963493853807
2967,00:00:11.868,0.0052167043322697325
2968,00:00:11.872,0.00537268305197358
2969,00:00:11.876,0.00866624107584358
2970,00:00:11.88,-0.00177050766069443
2971,00:00:11.884,0.0005350440042093487
2972,00:00:11.888,-0.00825180672109128
2973,00:00:11.892,0.00241869001183659
2974,00:00:11.896,0.006273814768064764
2975,00:00:11.9,-0.0022820169106125814
2976,00:00:11.904,-0.00909885135479271
2977,00:00:11.908,-0.00776888709515334
2978,00:00:11.912,0.01068738382309675
2979,00:00:11.916,0.004472441360121599
2980,00:00:11.92,0.0012031502556055802
2981,00:00:11.924,-0.002614841912873092
2982,00:00:11.928,-0.005480079780681988
2983,00:00:11.932,0.01262508984655146
2984,00:00:11.936,-0.0015383446589112308
2985,00:00:11.94,-0.01374111801851546
2986,00:00:11.944,0.010195419890806082
2987,00:00:11.948,0.0018107001960743193
2988,00:00:11.952,-0.0027842008275911173
2989,00:00:11.956,-0.005478660343214868
2990,00:00:11.96,0.002282785368151958
2991,00:00:11.964,-0.01048392022494227
2992,00:00:11.968,0.009840110549703239
2993,00:00:11.972,0.012912225938634954
2994,00:00:11.976,-0.0084807937964797
2995,00:00:11.98,-0.0009370439802296494
2996,00:00:11.984,-0.0044774804264307
2997,00:00:11.988,0.000824421702418477
2998,00:00:11.992,0.00616731721675023
2999,00:00:11.996,-0.00056839536409824
3000,00:00:12,-0.005061177653260536
3001,00:00:12.004,-0.004603432578733194
3002,00:00:12.008,-0.00136489619035274
3003,00:00:12.012,0.014252149267122139
3004,00:00:12.016,0.003863068064674735
3005,00:00:12.02,-0.00841918308287859
3006,00:00:12.024,-0.006802233401685958
3007,00:00:12.028,0.004794336229679172
3008,00:00:12.032,0.0007222940912470198
3009,00:00:12.036,-0.013640073826536541
3010,00:00:12.04,0.002361573744565243
3011,00:00:12.044,0.021590240765363
3012,00:00:12.048,4.725658800452666e-05
3013,00:00:12.052,-0.0048871732433326525
3014,00:00:12.056,-0.012197822477901354
3015,00:00:12.06,0.008194263791665442
3016,00:00:12.064,-0.00609487760812044
3017,00:00:12.068,-0.00326483394019305
3018,00:00:12.072,0.004252406826708464
3019,00:00:12.076,0.008875831903424109
3020,00:00:12.08,0.0002941082057077479
3021,00:00:12.084,-0.00576042180182413
3022,00:00:12.088,-0.001804897328838699
3023,00:00:12.092,-0.006481014017481353
3024,00:00:12.096,0.0062604440608993095
3025,00:00:12.1,0.00750057504046708
3026,00:00:12.104,-0.00307537126354873
3027,00:00:12.108,-0.00398328073788435
3028,00:00:12.112,-0.0016023473581299108
3029,00:00:12.116,0.002735915419179945
3030,00:00:12.12,-0.0003836357500404111
3031,00:00:12.124,-0.0024024674203246797
3032,00:00:12.128,-0.0018629390979185713
3033,00:00:12.132,0.0103272560518235
3034,00:00:12.136,0.00614992558257654
3035,00:00:12.14,-0.00756439589895308
3036,00:00:12.144,-0.01434438466094434
3037,00:00:12.148,-0.001620022609131411
3038,00:00:12.152,0.014296545181423422
3039,00:00:12.156,0.0033591504052310492
3040,00:00:12.16,-0.006374318152666089
3041,00:00:12.164,-0.0016171018360182604
3042,00:00:12.168,0.0029460798250511297
3043,00:00:12.172,-0.0026441068039275767
3044,00:00:12.176,0.0053381066536530904
3045,00:00:12.18,0.0017162611475214297
3046,00:00:12.184,-0.004621304717147721
3047,00:00:12.188,-0.01225387700833384
3048,00:00:12.192,0.004808417492313302
3049,00:00:12.196,0.009894643226289189
3050,00:00:12.2,-0.00379466451704502
3051,00:00:12.204,0.00844003283418716
3052,00:00:12.208,0.00024957049754447975
3053,00:00:12.212,-0.0068508654949255236
3054,00:00:12.216,-0.00116208955296315
3055,00:00:12.22,-0.005209168593864885
3056,00:00:12.224,0.0006070900708436938
3057,00:00:12.228,-0.0036998657742515297
3058,00:00:12.232,0.00398648547707126
3059,00:00:12.236,0.01614121731836348
3060,00:00:12.24,-0.002162888471502815
3061,00:00:12.244,-0.011870707792695612
3062,00:00:12.248,-0.0020003899990115254
3063,00:00:12.252,-0.0026583460858091725
3064,00:00:12.256,0.00584188045468181
3065,00:00:12.26,0.004405860905535519
3066,00:00:12.264,0.0026762079505715563
3067,00:00:12.268,-0.008090647170320152
3068,00:00:12.272,-0.004293324018362912
3069,00:00:12.276,0.003469061222858719
3070,00:00:12.28,0.00625475798733533
3071,00:00:12.284,-2.2497086320075882e-05
3072,00:00:12.288,0.0020925726275891005
3073,00:00:12.292,-0.003689665056299413
3074,00:00:12.296,-0.00810163607820868
3075,00:00:12.3,0.00014361657667905092
3076,00:00:12.304,0.00375004814122804
3077,00:00:12.308,0.00986700295470655
3078,00:00:12.312,-0.00419808481819928
3079,00:00:12.316,-0.005174946621991692
3080,00:00:12.32,-0.0018691713703447028
3081,00:00:12.324,0.003194077056832609
3082,00:00:12.328,0.00026172646903432797
3083,00:00:12.332,0.004251139878761026
3084,00:00:12.336,-0.0035591830092016664
