Elapsed Time,EMG1,EMG2,EMG3,BioRadio Event,
00:00:00,0.226260036230087,1.59835064411163,0.354958385229111,0,
00:00:00.004,-0.217385917901993,-1.51684665679932,-0.348159044981003,0,
00:00:00.008,-0.191537827253342,-1.27247524261475,-0.287518978118896,0,
00:00:00.012,-0.00175211078021675,-0.12112258374691,-0.0104123409837484,0,
00:00:00.016,0.122311942279339,0.648387670516968,0.193216577172279,0,
00:00:00.02,0.0910132601857185,0.769870221614838,0.13412743806839,0,
00:00:00.024,0.0369041375815868,0.455596536397934,0.0876733660697937,0,
00:00:00.028,0.00597558403387666,0.0842467695474625,-0.00830291770398617,0,
00:00:00.032,-0.0151533167809248,-0.182755827903748,-0.0263271294534206,0,
00:00:00.036,-0.0355340428650379,-0.311784774065018,-0.0582755282521248,0,
00:00:00.04,-0.0388352796435356,-0.252545177936554,-0.0474082008004189,0,
00:00:00.044,-0.0018379760440439,-0.105463787913322,-0.0321193337440491,0,
00:00:00.048,0.00666524795815349,0.0188362095504999,0.00637747114524245,0,
00:00:00.052,0.00170998717658222,0.109492763876915,0.0178908407688141,0,
00:00:00.056,0.0177361015230417,0.0925854742527008,0.0516800284385681,0,
00:00:00.06,-0.00495308265089989,0.0207667239010334,-0.00505325710400939,0,
00:00:00.064,-0.013290774077177,0.0320108681917191,-0.0217993669211864,0,
00:00:00.068,0.0329140685498714,-0.00391099276021123,-0.0263269729912281,0,
00:00:00.072,-0.0118728810921311,-0.0380020663142204,0.0294328704476357,0,
00:00:00.076,-0.0241115018725395,-0.0607827045023441,0.00935630779713392,0,
00:00:00.08,0.00413240538910031,-0.0140477204695344,0.0261072926223278,0,
00:00:00.084,0.0143396956846118,0.0435752049088478,-0.0535017363727093,0,
00:00:00.088,0.0127631006762385,0.0165313798934221,-0.0276091452687979,0,
00:00:00.092,-0.0166919771581888,-0.0286231841892004,0.0632554292678833,0,
00:00:00.096,-0.0221135057508945,0.0298971515148878,0.00434837210923433,0,
00:00:00.1,0.0184533093124628,0.0194425322115421,-0.0432734861969948,0,
00:00:00.104,0.0181197244673967,-0.0273562744259834,-0.00615674629807472,0,
00:00:00.108,-0.011975172907114,-0.0273195449262857,0.00611580023542047,0,
00:00:00.112,-0.0011121827410534,0.0181535948067904,0.0267995186150074,0,
00:00:00.116,0.00454002618789673,0.0137189105153084,0.00922474637627602,0,
00:00:00.12,0.00789541658014059,0.0121813639998436,-0.0061850561760366,0,
00:00:00.124,-0.0267704017460346,-0.0281806513667107,-0.00534419994801283,0,
00:00:00.128,-0.00340587226673961,-0.0323770046234131,-0.00624555395916104,0,
00:00:00.132,0.0105445887893438,0.0182158574461937,-0.00900464691221714,0,
00:00:00.136,0.0141895832493901,0.0629121586680412,-0.0144607266411185,0,
00:00:00.14,-0.00610098848119378,0.00727207493036985,0.0159927867352962,0,
00:00:00.144,0.00535585079342127,-0.0637763813138008,0.036563690751791,0,
00:00:00.148,0.00908801145851612,-0.0120995258912444,-0.00620291940867901,0,
00:00:00.152,-0.0394062474370003,-0.0074781971052289,-0.0386457778513432,0,
00:00:00.156,0.0071737258695066,0.049517747014761,-0.00387037917971611,0,
00:00:00.16,0.0210257507860661,0.0103471130132675,0.00998965557664633,0,
00:00:00.164,0.0123572954908013,-0.0244453568011522,0.0106246490031481,0,
00:00:00.168,-0.000534471531864256,0.00796253141015768,-0.00495366333052516,0,
00:00:00.172,-0.0332569144666195,-0.00559175619855523,0.0263535156846046,0,
00:00:00.176,0.00203464343212545,-0.023775365203619,-0.00462437607347965,0,
00:00:00.18,0.0239346344023943,0.029168501496315,-0.0466788485646248,0,
00:00:00.184,0.0110259279608727,0.0109312599524856,0.010976598598063,0,
00:00:00.188,-0.0155257331207395,-0.0450455062091351,0.0453222431242466,0,
00:00:00.192,-0.0149687184020877,0.0173383299261332,-0.0255665462464094,0,
00:00:00.196,-0.00281871692277491,0.0277061704546213,-0.0380778163671494,0,
00:00:00.2,-0.0167138911783695,-0.0409260727465153,0.0446218252182007,0,
00:00:00.204,0.00487851491197944,0.00503147067502141,0.0338487327098846,0,
00:00:00.208,0.0343148075044155,0.0137444753199816,-0.0164416749030352,0,
00:00:00.212,0.0319924205541611,0.0434142760932446,-0.0664720460772514,0,
00:00:00.216,-0.0269376318901777,-0.00593842938542366,-0.00639055436477065,0,
00:00:00.22,-0.0173186995089054,-0.050895668566227,0.0567267797887325,0,
00:00:00.224,0.0097420010715723,-0.00926343444734812,0.0137743651866913,0,
00:00:00.228,-0.00872532650828362,0.0270364191383123,-0.0206158719956875,0,
00:00:00.232,-0.00637945206835866,0.0105681139975786,-0.0140689443796873,0,
00:00:00.236,0.0108298342674971,0.00451875757426023,-0.00207140273414552,0,
00:00:00.24,-0.032298356294632,-0.0459556505084038,0.0224064476788044,0,
00:00:00.244,-0.0172963105142117,-0.0209453105926514,0.0123580256476998,0,
00:00:00.248,0.0520527437329292,0.0376528948545456,-0.00534299947321415,0,
00:00:00.252,0.0412065573036671,0.0542428456246853,-0.0325071848928928,0,
00:00:00.256,0.00209062732756138,0.0044400910846889,0.00601808354258537,0,
00:00:00.26,-0.0431359373033047,-0.0253769308328629,0.0144962910562754,0,
00:00:00.264,-0.0294585712254047,-0.0206002835184336,-0.0102728037163615,0,
00:00:00.268,-0.0220499951392412,-0.00535461958497763,-0.00553998351097107,0,
00:00:00.272,0.0248814169317484,-0.0412106104195118,0.0077433418482542,0,
00:00:00.276,0.0783605054020882,0.00400393595919013,0.0223454926162958,0,
00:00:00.28,-0.0460670255124569,0.0411101505160332,-0.0150625370442867,0,
00:00:00.284,-0.023267412558198,0.0432199276983738,-0.0237058270722628,0,
00:00:00.288,0.0059621948748827,0.0068444162607193,-0.000201012240722775,0,
00:00:00.292,-0.0079029742628336,-0.0588521510362625,0.0430517606437206,0,
00:00:00.296,0.0188131239265203,-0.0051173772662878,-0.00273578800261021,0,
00:00:00.3,-0.0139068542048335,0.0166193414479494,-0.0113552547991276,0,
00:00:00.304,-0.02443802729249,-0.0263150501996279,-0.0135703412815928,0,
00:00:00.308,0.00792176462709904,-0.0143422754481435,0.00606465060263872,0,
00:00:00.312,0.0478779077529907,0.0431444384157658,-0.00639635417610407,0,
00:00:00.316,0.0309043955057859,0.0484224818646908,-0.0209400802850723,0,
00:00:00.32,-0.00092966080410406,-0.0150163704529405,-0.00174708303529769,0,
00:00:00.324,-0.0618449561297894,-0.0407053790986538,0.0457913056015968,0,
00:00:00.328,-0.0261390116065741,-0.0172900203615427,0.000518933462444693,0,
00:00:00.332,0.0285800863057375,0.00897339917719364,-0.025838315486908,0,
00:00:00.336,-0.0163098685443401,-0.0315410755574703,0.0319948866963387,0,
00:00:00.34,0.00750890746712685,0.0248639490455389,0.00578979309648275,0,
00:00:00.344,0.0234817620366812,0.0539718233048916,-0.0382922925055027,0,
00:00:00.348,0.0198209676891565,0.0243704672902822,-0.0357554517686367,0,
00:00:00.352,-0.023685161024332,-0.0424825325608253,0.0245871040970087,0,
00:00:00.356,-0.0136679681017995,-0.0493591986596584,0.025296539068222,0,
00:00:00.36,0.011435978114605,0.00570421060547233,0.00643256492912769,0,
00:00:00.364,-0.0202863290905952,-0.0127352513372898,0.00713810743764043,0,
00:00:00.368,0.0211417954415083,0.0341697558760643,-0.0242617446929216,0,
00:00:00.372,0.0270684193819761,0.0504413433372974,-0.0113237528130412,0,
00:00:00.376,-0.0257799383252859,-0.0159924365580082,0.0137728340923786,0,
00:00:00.38,-0.0190990418195724,-0.0412021465599537,0.00631123967468739,0,
00:00:00.384,0.00599638978019357,-0.0199758000671864,-0.00357359182089567,0,
00:00:00.388,0.00919321365654469,0.0365697219967842,0.00370235810987651,0,
00:00:00.392,-0.00376186659559608,0.0255220085382462,-0.0096949078142643,0,
00:00:00.396,-0.000824688759166747,-0.0211272165179253,0.000831558660138398,0,
00:00:00.4,0.0157943554222584,-0.0320537760853767,0.00216895015910268,0,
00:00:00.404,0.0151875149458647,-0.00121417467016727,0.011444341391325,0,
00:00:00.408,-0.0188874918967485,0.0138239627704024,0.00269304728135467,0,
00:00:00.412,-0.0541944652795792,0.0165581945329905,0.00470799347385764,0,
00:00:00.416,-0.00829961244016886,-0.0111057879403234,-0.00948086380958557,0,
00:00:00.42,0.0701870396733284,0.0303829181939363,-0.0274915210902691,0,
00:00:00.424,0.0340331122279167,0.0232496280223131,-0.0230679977685213,0,
00:00:00.428,0.00958692282438278,-0.0461895540356636,0.0389343425631523,0,
00:00:00.432,-0.0410041250288486,-0.0582297779619694,0.0293249040842056,0,
00:00:00.436,-0.0738842189311981,0.0152725297957659,-0.0115384915843606,0,
00:00:00.44,0.0143791977316141,0.0349796861410141,0.00359875941649079,0,
00:00:00.444,0.0325500555336475,0.0227264724671841,-0.0262111127376556,0,
00:00:00.448,0.0313728302717209,0.0266546420753002,-0.0171624999493361,0,
00:00:00.452,0.00246013165451586,-0.00964258331805468,0.0133033255115151,0,
00:00:00.456,-0.0250161495059729,-0.0411375500261784,0.0129682412371039,0,
00:00:00.46,-0.00230036675930023,-0.011279322206974,0.0190702192485332,0,
00:00:00.464,0.00179199757985771,-0.00405975617468357,-0.00536483712494373,0,
00:00:00.468,0.0108434921130538,0.0168284438550472,-0.0128081226721406,0,
00:00:00.472,-0.0314889773726463,-0.0320363901555538,0.0217677820473909,0,
00:00:00.476,0.00441455282270908,0.0345411039888859,-0.0277885496616364,0,
00:00:00.48,0.000559027073904872,0.0355192720890045,-0.031600583344698,0,
00:00:00.484,0.0479037538170815,-0.00776344444602728,0.0155475465580821,0,
00:00:00.488,0.00298359920270741,-0.0230914372950792,0.0363788306713104,0,
00:00:00.492,-0.0448967292904854,-0.0180615987628698,0.0227408409118652,0,
00:00:00.496,-0.00193134869914502,0.0238414779305458,-0.0290029365569353,0,
00:00:00.5,0.0104113025590777,-0.00759530812501907,-0.000148206192534417,0,
00:00:00.504,-0.000259392254520208,-0.0145144499838352,-0.0335208736360073,0,
00:00:00.508,-0.00907851848751307,0.0281240772455931,-0.0235021021217108,0,
00:00:00.512,0.0193428155034781,0.00675865076482296,0.0318303070962429,0,
00:00:00.516,-0.0116564743220806,-0.0462348908185959,0.028308043256402,0,
00:00:00.52,-0.00429822551086545,-0.00643477123230696,0.0185989942401648,0,
00:00:00.524,0.0123880840837955,0.0278914924710989,0.0264155007898808,0,
00:00:00.528,0.0133214136585593,0.0256909113377333,-0.0493708364665508,0,
00:00:00.532,0.00264314957894385,0.00645996164530516,-0.0455475933849812,0,
00:00:00.536,-0.0233925096690655,0.00104083633050323,0.00547155318781734,0,
00:00:00.54,-0.0149323605000973,-0.0327768176794052,0.0114730810746551,0,
00:00:00.544,-0.00379568990319967,-0.052854873239994,0.04448451846838,0,
00:00:00.548,0.00937896873801947,0.0288678146898746,-0.00276138517074287,0,
00:00:00.552,0.032129805535078,0.0455901101231575,-0.0108301229774952,0,
00:00:00.556,0.00602129101753235,0.0260121114552021,-0.0149395046755672,0,
00:00:00.56,-0.0265492592006922,-0.0447282157838345,-0.00621893163770437,0,
00:00:00.564,-0.0166593212634325,-0.0184010583907366,0.00459045637398958,0,
00:00:00.568,0.00695048039779067,0.0092180147767067,0.000214959800359793,0,
00:00:00.572,0.0212783589959145,0.0122747225686908,-0.00260989181697369,0,
00:00:00.576,-0.0223450865596533,0.0100368894636631,0.0256538111716509,0,
00:00:00.58,-0.0171320773661137,-0.00694274483248591,0.000873662007506937,0,
00:00:00.584,0.0861445739865303,0.00889559555798769,0.0126680098474026,0,
00:00:00.588,-0.0323065780103207,-0.0229519587010145,-0.0528054274618626,0,
00:00:00.592,-0.0339482389390469,-0.00372744561173022,-0.00549430446699262,0,
00:00:00.596,0.00149948324542493,0.0217540059238672,0.0272979568690062,0,
00:00:00.6,-0.0374495834112167,-0.0507351569831371,0.0251268967986107,0,
00:00:00.604,0.0186136607080698,0.0263279229402542,-0.0314409472048283,0,
00:00:00.608,0.0400935299694538,0.0486416406929493,-0.0242501515895128,0,
00:00:00.612,0.0100423814728856,0.0127366576343775,0.0139203732833266,0,
00:00:00.616,0.00358657632023096,-0.0196106713265181,0.018283486366272,0,
00:00:00.62,-0.0258208476006985,-0.0726276934146881,0.065480075776577,0,
00:00:00.624,-0.0195549447089434,-0.00530204130336642,-0.0266131088137627,0,
00:00:00.628,0.0172872301191092,0.0477607846260071,-0.0360191650688648,0,
00:00:00.632,0.000932828115765005,0.028444355353713,-0.0402883626520634,0,
00:00:00.636,-0.008616560138762,0.00270041637122631,-0.0227989442646503,0,
00:00:00.64,0.00296038296073675,-0.00878875888884068,0.0339595824480057,0,
00:00:00.644,0.0307662803679705,-0.00908539071679115,0.0224998164921999,0,
00:00:00.648,0.00296138669364154,-0.0102834571152925,0.0229031275957823,0,
00:00:00.652,-0.0533751919865608,-0.0281697511672974,0.0267452131956816,0,
00:00:00.656,-0.0329829342663288,-0.017729178071022,-0.00747743621468544,0,
00:00:00.66,0.0207062512636185,0.00871646869927645,-0.0226330254226923,0,
00:00:00.664,0.065160796046257,0.050578910857439,-0.0354367159307003,0,
00:00:00.668,0.0225896127521992,0.0400250777602196,-0.0257452242076397,0,
00:00:00.672,-0.0096037844195962,-0.00616519991308451,0.00826077535748482,0,
00:00:00.676,-0.0171713251620531,-0.018858291208744,0.0167581681162119,0,
00:00:00.68,-0.0457549877464771,-0.010920412838459,0.00986234564334154,0,
00:00:00.684,-0.0165413320064545,-0.0600042231380939,0.0552367977797985,0,
00:00:00.688,-0.0136776976287365,-0.0689999982714653,0.0592639967799187,0,
00:00:00.692,0.0291064791381359,0.0876611769199371,-0.0910719856619835,0,
00:00:00.696,0.0633649453520775,0.0701644793152809,-0.064886212348938,0,
00:00:00.7,0.0261491443961859,0.0212914757430553,-0.0091118048876524,0,
00:00:00.704,-0.0385657213628292,-0.007938995026052,0.00932495296001434,0,
00:00:00.708,-0.0357452780008316,-0.0308023430407047,0.0427731908857822,0,
00:00:00.712,-0.0606509856879711,-0.099175289273262,0.0469472892582417,0,
00:00:00.716,-0.00276219449006021,-0.0744789019227028,0.0362625122070313,0,
00:00:00.72,0.0852336585521698,0.131588652729988,-0.0567512214183807,0,
00:00:00.724,0.0435206852853298,0.102765507996082,-0.0439951084554195,0,
00:00:00.728,-0.0101147731766105,-0.000265700946329162,-0.000768614467233419,0,
00:00:00.732,-0.0275935344398022,-0.0542150586843491,0.00536627136170864,0,
00:00:00.736,-0.0378980934619904,-0.0474843308329582,0.0165940746665001,0,
00:00:00.74,-0.0196961313486099,-0.0319120772182941,0.000238689521211199,0,
00:00:00.744,0.00919634848833084,-0.00991872604936361,0.0136660188436508,0,
00:00:00.748,0.0228670164942741,0.029200978577137,0.021149005740881,0,
00:00:00.752,0.0319370701909065,0.0303058717399836,-0.0149834202602506,0,
00:00:00.756,0.051774799823761,0.0337987691164017,-0.0403004735708237,0,
00:00:00.76,-0.0855410695075989,0.0126610668376088,-0.00284272199496627,0,
00:00:00.764,-0.10329769551754,-0.0641908422112465,0.0538932792842388,0,
00:00:00.768,0.034153513610363,-0.0347907058894634,0.0362520143389702,0,
00:00:00.772,0.132493332028389,0.0441134311258793,-0.0717376172542572,0,
00:00:00.776,0.0330703184008598,0.0319695360958576,-0.059080708771944,0,
00:00:00.78,-0.0321688801050186,-0.0116966152563691,0.019918330013752,0,
00:00:00.784,-0.0753752216696739,-0.0416671670973301,0.0679527446627617,0,
00:00:00.788,-0.0265236981213093,-0.0113903218880296,0.017985176295042,0,
00:00:00.792,0.0259081311523914,0.0462757870554924,-0.00890290271490812,0,
00:00:00.796,0.0160437878221273,0.0494195260107517,-0.0298763345927,0,
00:00:00.8,0.00337996636517346,-0.0310162380337715,-0.0168434605002403,0,
00:00:00.804,-0.00301305460743606,-0.0524965934455395,0.00911367870867252,0,
00:00:00.808,0.00919928215444088,-0.0178343094885349,0.000501219648867846,0,
00:00:00.812,0.00416732812300324,0.0293798241764307,0.0102846501395106,0,
00:00:00.816,-0.00290626264177263,0.00621854513883591,0.0211896356195211,0,
00:00:00.82,-0.0205643121153116,-0.00897497497498989,-0.00748200016096234,0,
00:00:00.824,0.00886957347393036,0.0432418063282967,-0.0318412818014622,0,
00:00:00.828,0.00340199586935341,0.01269306614995,0.00529764965176582,0,
00:00:00.832,0.0205922946333885,-0.0241189319640398,0.015184854157269,0,
00:00:00.836,-0.000103919715911616,-0.0253123790025711,-0.00880855415016413,0,
00:00:00.84,-0.0262666586786509,-0.0114935133606195,-0.012763312086463,0,
00:00:00.844,-0.0296457186341286,-0.00161788857076317,0.0261721648275852,0,
00:00:00.848,0.0201467573642731,-0.00292646675370634,0.00802888348698616,0,
00:00:00.852,0.025512458756566,0.0266136713325977,-0.0219017881900072,0,
00:00:00.856,0.0140984198078513,0.0248645525425673,-0.00220390479080379,0,
00:00:00.86,0.00155804760288447,0.00191478442866355,0.0365839079022408,0,
00:00:00.864,-0.0366024412214756,-0.0123608615249395,-0.0222278740257025,0,
00:00:00.868,-0.0431890413165092,-0.0378053970634937,-0.0224930252879858,0,
00:00:00.872,0.0135964844375849,-0.0170104876160622,0.0071730655618012,0,
00:00:00.876,0.0660968795418739,0.043543491512537,0.00277453218586743,0,
00:00:00.88,0.0357105433940887,0.0282219965010881,-0.00974569469690323,0,
00:00:00.884,-0.00942781008780003,-0.0244920905679464,0.029168426990509,0,
00:00:00.888,-0.0517628416419029,-0.0284741837531328,0.0021204324439168,0,
00:00:00.892,-0.0362165868282318,-0.00102057156618685,-0.0262325834482908,0,
00:00:00.896,0.015298442915082,0.0357760488986969,-0.0107006328180432,0,
00:00:00.9,0.00688608642667532,0.0125175705179572,0.00760762859135866,0,
00:00:00.904,-0.00860702898353338,-0.0456030443310738,0.0269417390227318,0,
00:00:00.908,0.0320930108428001,0.00091780669754371,0.0196511838585138,0,
00:00:00.912,0.00816104654222727,0.00999888591468334,-0.022763742133975,0,
00:00:00.916,-0.0105928303673863,-0.00400824844837189,-0.0046220519579947,0,
00:00:00.92,-0.00218184501864016,0.0236882697790861,-0.0138355242088437,0,
00:00:00.924,0.0192757248878479,0.0449259206652641,-0.0153173776343465,0,
00:00:00.928,-0.0115272784605622,-0.0245562959462404,0.0163206793367863,0,
00:00:00.932,-0.0428202264010906,-0.0537848435342312,-0.0149992676451802,0,
00:00:00.936,-0.0158243011683226,-0.0598977543413639,0.0307665430009365,0,
00:00:00.94,0.0556514225900173,0.0467220619320869,0.030706349760294,0,
00:00:00.944,0.0260477513074875,0.059233695268631,-0.0408642739057541,0,
00:00:00.948,-0.0122935026884079,0.0224831402301788,-0.0124993855133653,0,
00:00:00.952,-0.0150739913806319,-0.00614215061068535,-0.00716978264972568,0,
00:00:00.956,-0.0283953864127398,-0.0449329577386379,0.0200603045523167,0,
00:00:00.96,-0.0102383410558105,-0.0294205509126186,0.0291398484259844,0,
00:00:00.964,0.0149230333045125,0.00227083312347531,0.00217290315777063,0,
00:00:00.968,0.0105103440582752,0.018262030556798,-0.0450329706072807,0,
00:00:00.972,0.0209092441946268,0.0348044708371162,-0.0200426448136568,0,
00:00:00.976,0.00951202213764191,-0.0106608094647527,0.0252183806151152,0,
00:00:00.98,0.00383890932425857,0.0131569691002369,0.00323101342655718,0,
00:00:00.984,-0.0444980040192604,-0.0282241869717836,0.0292989835143089,0,
00:00:00.988,-0.0063479389064014,-0.0368492864072323,0.00170808122493327,0,
00:00:00.992,0.0250367131084204,0.0359423123300076,-0.0221954081207514,0,
00:00:00.996,0.00066895061172545,0.0242661945521832,-0.0281874276697636,0,
00:00:01,0.0163482800126076,0.0248178970068693,0.0221341606229544,0,
00:00:01.004,-0.0178952179849148,-0.0584428906440735,0.0194655898958445,0,
00:00:01.008,-0.0321759060025215,-0.0390773266553879,-0.0117223085835576,0,
00:00:01.012,0.000511451624333858,0.0313619300723076,-0.022226732224226,0,
00:00:01.016,0.0233962945640087,0.0519293323159218,-0.00124423252418637,0,
00:00:01.02,0.0366182886064053,0.0028963852673769,0.0121224941685796,0,
00:00:01.024,0.00541818235069513,-0.018509604036808,0.0382609255611897,0,
00:00:01.028,-0.0214993730187416,-0.00882345344871283,-0.0250314567238092,0,
00:00:01.032,-0.0367506854236126,-0.0155401770025492,0.00622569024562836,0,
00:00:01.036,-0.0113558452576399,-0.051203366369009,0.00416463520377874,0,
00:00:01.04,0.0351933129131794,0.0375899486243725,-0.0358625315129757,0,
00:00:01.044,0.021413529291749,0.0585941001772881,-0.00653864908963442,0,
00:00:01.048,-0.0146221909672022,0.0127740111202002,0.0218836590647697,0,
00:00:01.052,-0.0196013525128365,-0.022763604298234,-0.00080043391790241,0,
00:00:01.056,-0.00109984702430665,-0.0479413643479347,0.0137077458202839,0,
00:00:01.06,-0.0032457469496876,-0.0249370709061623,0.0122485132887959,0,
00:00:01.064,0.00895082764327526,0.0218750666826963,-0.00158910464961082,0,
00:00:01.068,0.0218817982822657,0.0416933447122574,-0.0315896011888981,0,
00:00:01.072,0.00933604780584574,0.0049313036724925,-0.0104111321270466,0,
00:00:01.076,-0.00959522370249033,-0.00269791041500866,0.0132410963997245,0,
00:00:01.08,-0.0105283642187715,0.000602767628151923,-0.00311900558881462,0,
00:00:01.084,-0.0160766560584307,-0.0244890004396439,0.035813957452774,0,
00:00:01.088,-0.0160500761121511,-0.0249727088958025,-0.0025731164496392,0,
00:00:01.092,0.0229710303246975,0.0196857713162899,-0.0276734903454781,0,
00:00:01.096,0.00937585160136223,0.00688045099377632,0.00139523821417242,0,
00:00:01.1,-0.000331026676576585,0.0134164877235889,0.00350594194605947,0,
00:00:01.104,-0.00201100343838334,0.00444039143621922,-9.59530589170754E-05,0,
00:00:01.108,-0.00957734882831573,-0.0148990964516997,0.00638513127341866,0,
00:00:01.112,0.00542559567838907,0.00410657003521919,-0.015321240760386,0,
00:00:01.116,0.0272232908755541,0.00227220868691802,-0.00216513988561928,0,
00:00:01.12,-0.000897443678695709,-0.00269672507420182,0.0204888787120581,0,
00:00:01.124,-0.0423198752105236,-0.00453381147235632,0.00406737206503749,0,
00:00:01.128,-0.0104784937575459,0.0114473244175315,-2.02017909032293E-05,0,
00:00:01.132,0.00445012701675296,-0.0370352417230606,-0.00989820249378681,0,
00:00:01.136,0.043163113296032,-0.00465277349576354,0.00723140360787511,0,
00:00:01.14,-0.00336257717572153,0.0350216440856457,-0.0110996421426535,0,
00:00:01.144,-0.0234014801681042,0.0249129682779312,-0.0313425585627556,0,
00:00:01.148,0.0163535829633474,-0.00185555650386959,0.0109457019716501,0,
00:00:01.152,0.016389848664403,-0.0154429040849209,0.0476767830550671,0,
00:00:01.156,-0.0413995236158371,-0.0361679829657078,0.00669624144211411,0,
00:00:01.16,0.000525495270267129,0.0139729650691152,-0.0281898248940706,0,
00:00:01.164,0.00704067572951317,0.0045173829421401,0.00314998510293663,0,
00:00:01.168,0.0141916247084737,0.00499537028372288,-0.0173947513103485,0,
00:00:01.172,0.00120752409566194,0.0383658744394779,-0.0270074978470802,0,
00:00:01.176,-0.0203005168586969,-0.0223274230957031,0.0202561542391777,0,
00:00:01.18,-0.000418025389080867,-0.0342037416994572,0.0356938876211643,0,
00:00:01.184,0.0231542959809303,0.000420761003624648,0.00658759288489819,0,
00:00:01.188,0.0113983126357198,0.00812345091253519,-0.0183104500174522,0,
00:00:01.192,0.00173112167976797,0.00864904001355171,-0.0140000870451331,0,
00:00:01.196,-0.00342689431272447,0.0179670881479979,0.00965197756886482,0,
00:00:01.2,-0.0188689269125462,0.00434114225208759,0.0137556968256831,0,
00:00:01.204,-0.0470163114368916,-0.0122741581872106,-0.0292795728892088,0,
00:00:01.208,-0.0208733752369881,-0.0430521033704281,-0.00533902132883668,0,
00:00:01.212,0.0793432295322418,0.0392384193837643,0.0171940438449383,0,
00:00:01.216,0.0317420922219753,0.0124916201457381,0.00995375774800777,0,
00:00:01.22,-0.00614692829549313,-0.00402233190834522,-0.00952464621514082,0,
00:00:01.224,-0.0166024304926395,-0.00525426957756281,0.013677466660738,0,
00:00:01.228,-0.0332080610096455,-0.0153537858277559,-0.00911431107670069,0,
00:00:01.232,-0.0194493904709816,-0.0203381795436144,-0.00695669697597623,0,
00:00:01.236,0.0174442417919636,0.0120971901342273,-0.00834102556109428,0,
00:00:01.24,0.0103931734338403,0.0488410852849483,0.013779710046947,0,
00:00:01.244,0.021907027810812,0.00782773550599813,0.00198161276057363,0,
00:00:01.248,0.0149572920054197,-0.020261449739337,-0.0290062185376883,0,
00:00:01.252,-0.055769145488739,-0.0587380304932594,0.0401485674083233,0,
00:00:01.256,-0.026375574991107,-0.0272620804607868,0.0170798841863871,0,
00:00:01.26,0.0678845793008804,0.0582888126373291,-0.0266270227730274,0,
00:00:01.264,0.0216317474842072,0.053666178137064,-0.0258573815226555,0,
00:00:01.268,-0.0213597677648067,0.00558399315923452,-0.0124539071694016,0,
00:00:01.272,-0.0332328602671623,-0.0402817688882351,0.0550761558115482,0,
00:00:01.276,-0.00414121709764004,-0.0439519807696342,-0.00759301101788878,0,
00:00:01.28,-4.8738373152446E-05,0.000143727462273091,0.00121531507465988,0,
00:00:01.284,0.00301936571486294,0.0240818113088608,-0.0218233242630959,0,
00:00:01.288,0.0343956351280212,0.0345093496143818,-0.0269222054630518,0,
00:00:01.292,0.00935594458132982,0.00109862932004035,0.00567936198785901,0,
00:00:01.296,-0.00860334746539593,-0.0134238330647349,0.0273767951875925,0,
00:00:01.3,-0.031173350289464,-0.0326755084097385,0.035730142146349,0,
00:00:01.304,-0.022385012358427,-0.0272111091762781,-0.00453210715204477,0,
00:00:01.308,0.0222797058522701,0.0415371134877205,-0.0295086167752743,0,
00:00:01.312,0.0345467329025269,0.051204863935709,-0.0152917560189962,0,
00:00:01.316,-0.0168915688991547,-0.0218154788017273,-0.00390809867531061,0,
00:00:01.32,-0.0342567004263401,-0.0510171353816986,0.0225762352347374,0,
00:00:01.324,0.0659917593002319,0.0429235957562923,-0.0127580780535936,0,
00:00:01.328,-8.79437502590008E-05,-0.0162904039025307,-0.012712337076664,0,
00:00:01.332,-0.0632711499929428,-0.0436056442558765,0.0384705141186714,0,
00:00:01.336,-0.01725073158741,0.0266521200537682,-0.00622495822608471,0,
00:00:01.34,0.0309213362634182,0.029325095936656,-0.0088410647585988,0,
00:00:01.344,0.0352380648255348,0.0267511531710625,-0.00808259472250938,0,
00:00:01.348,-0.00238975533284247,-0.0203608442097902,-0.00605792086571455,0,
00:00:01.352,-0.0184210874140263,-0.0175711084157228,-0.0098478440195322,0,
00:00:01.356,-0.0160596556961536,-0.0084077725186944,0.0377196706831455,0,
00:00:01.36,-0.00132727960590273,-0.0105413151904941,0.0169986877590418,0,
00:00:01.364,0.0314429625868797,0.0181135907769203,-0.0187255814671516,0,
00:00:01.368,0.00274187885224819,-0.00379222887568176,-0.0243247170001268,0,
00:00:01.372,-0.0346122831106186,-0.000527202384546399,-0.0236108619719744,0,
00:00:01.376,-0.00965697132050991,-0.00136813847348094,0.0169105418026447,0,
00:00:01.38,0.0212142430245876,-0.0113354567438364,0.0179674066603184,0,
00:00:01.384,0.0234192330390215,0.037509024143219,0.0028424400370568,0,
00:00:01.388,-0.00240159942768514,0.0199058596044779,0.00775292981415987,0,
00:00:01.392,-0.0239547863602638,-0.0598312616348267,-0.00243183691054583,0,
00:00:01.396,0.00409748638048768,0.0106980931013823,-0.0256298612803221,0,
00:00:01.4,0.0101858470588923,0.0181994177401066,0.00748947029933333,0,
00:00:01.404,-0.00303321424871683,-0.00902601517736912,0.0326372906565666,0,
00:00:01.408,-0.0206887293606997,-0.0295316930860281,-0.00611335877329111,0,
00:00:01.412,0.0204568170011044,0.0229329131543636,-0.0156555138528347,0,
00:00:01.416,0.00156518025323749,0.0234071519225836,-0.0336227118968964,0,
00:00:01.42,0.0016352595994249,0.00247337180189788,-0.00760393869131804,0,
00:00:01.424,-0.00986345019191504,-0.00998479127883911,0.0286781378090382,0,
00:00:01.428,-0.0184578094631433,-0.0138649074360728,0.033972293138504,0,
00:00:01.432,0.008416005410254,-0.00908218789845705,-0.0117376130074263,0,
00:00:01.436,0.0225439444184303,-0.00950903445482254,0.0219342429190874,0,
00:00:01.44,-0.00529845803976059,0.0271553490310907,-0.0165116917341948,0,
00:00:01.444,0.00230826600454748,0.00558456312865019,-0.0152258183807135,0,
00:00:01.448,-0.00427033519372344,-0.0199098866432905,-0.025661027058959,0,
00:00:01.452,0.00687214685603976,0.00671896710991859,-0.0112680299207568,0,
00:00:01.456,-0.0108425617218018,0.0200898963958025,0.00406281743198633,0,
00:00:01.46,0.00507927313446999,0.00623613502830267,0.0213811844587326,0,
00:00:01.464,-0.0010506430407986,-0.012196721509099,0.0329525582492352,0,
00:00:01.468,-0.0250472091138363,-0.0237107276916504,0.00372207001782954,0,
00:00:01.472,0.0120765222236514,-0.00934077892452478,-0.0119634233415127,0,
00:00:01.476,0.0174836758524179,0.01832365244627,-0.00631737941876054,0,
00:00:01.48,-0.00173692195676267,-0.00995129719376564,-0.0172427073121071,0,
00:00:01.484,0.0102007808163762,0.0205608569085598,0.0121317580342293,0,
00:00:01.488,-0.0115589890629053,-0.00701912632212043,-0.0235634744167328,0,
00:00:01.492,-0.0212169699370861,0.00397915858775377,-0.00231549167074263,0,
00:00:01.496,0.00472068367525935,0.00733994832262397,0.00890313647687435,0,
00:00:01.5,0.0321321375668049,0.00573418196290731,0.000391474401112646,0,
00:00:01.504,-0.0056970277801156,-0.0205685868859291,0.0458929687738419,0,
00:00:01.508,-0.0373776219785213,-0.012186374515295,-0.0011562267318368,0,
00:00:01.512,-3.59808946086559E-05,0.0288952253758907,-0.0337892137467861,0,
00:00:01.516,0.0123361628502607,-0.0307011194527149,-0.00631782598793507,0,
00:00:01.52,0.0279767457395792,0.00784068088978529,-0.0137028703466058,0,
00:00:01.524,0.0291017182171345,0.0303942319005728,0.00294856913387775,0,
00:00:01.528,-0.0133950114250183,-0.0132206715643406,0.0141774136573076,0,
00:00:01.532,-0.0441654734313488,-0.00645825313404202,-0.000809887249488384,0,
00:00:01.536,-0.0218018870800734,-0.0159489326179028,0.0261594746261835,0,
00:00:01.54,-0.0108409430831671,-0.0060607916675508,0.00765944598242641,0,
00:00:01.544,0.0349736176431179,0.0344051346182823,-0.0204606987535954,0,
00:00:01.548,0.028469055891037,0.00150858762208372,-0.0229891054332256,0,
00:00:01.552,0.00282091833651066,0.00350622017867863,-0.00478240754455328,0,
00:00:01.556,-0.0157874617725611,-0.00939392764121294,0.00722375605255365,0,
00:00:01.56,0.00296907150186598,-0.0062167146243155,0.00831195898354054,0,
00:00:01.564,-0.0162013918161392,-0.0364793129265308,0.0133857391774654,0,
00:00:01.568,-0.016091188415885,-0.0316462516784668,0.0225439015775919,0,
00:00:01.572,0.032417107373476,0.0672365874052048,-0.0206654071807861,0,
00:00:01.576,-0.00213500228710473,0.0478932112455368,-0.0454120226204395,0,
00:00:01.58,-0.00811071693897247,0.00828144140541554,0.00658325850963593,0,
00:00:01.584,0.0293320696800947,-0.0373031571507454,0.0219402331858873,0,
00:00:01.588,-0.0284790117293596,-0.0464381948113441,0.0290672816336155,0,
00:00:01.592,-0.05199970677495,-0.0283220093697309,-0.00294951815158129,0,
00:00:01.596,0.0363798663020134,0.0553583949804306,-0.0245954375714064,0,
00:00:01.6,0.0465854145586491,0.0261953771114349,-0.00848825089633465,0,
00:00:01.604,-0.0105908857658505,-0.0435872822999954,0.0113979140296578,0,
00:00:01.608,-0.0368939898908138,-0.00122761982493103,-0.0234664715826511,0,
00:00:01.612,0.00880492478609085,0.0203939471393824,0.0458555370569229,0,
00:00:01.616,0.019671157002449,0.0106335720047355,0.0143364761024714,0,
00:00:01.62,0.00698369555175304,0.0139089003205299,-0.0334357060492039,0,
00:00:01.624,-0.0371622778475285,-0.0414001047611237,-0.0185609217733145,0,
00:00:01.628,-0.0041769165545702,-0.00930046290159225,-0.00239624758251011,0,
00:00:01.632,0.0295505132526159,0.0313934907317162,0.00330328475683928,0,
00:00:01.636,0.0133178774267435,0.0181501731276512,0.00728717632591724,0,
00:00:01.64,-0.00476227235049009,-0.0141636971384287,0.00318492855876684,0,
00:00:01.644,-0.0334457494318485,-0.0325018018484116,0.0229878760874271,0,
00:00:01.648,0.00491202808916569,0.00694150943309069,-0.00332962279208004,0,
00:00:01.652,0.024666178971529,0.0149408802390099,-0.00403531268239021,0,
00:00:01.656,-0.0276544019579887,-0.00574557576328516,-0.0032482398673892,0,
00:00:01.66,0.0141111332923174,-0.0150454742833972,-0.00900534819811583,0,
00:00:01.664,0.00508154509589076,0.0196002461016178,-0.0234860125929117,0,
00:00:01.668,0.0197309777140617,0.0364872328937054,0.00798271037638187,0,
00:00:01.672,-0.00407833466306329,-0.0242692846804857,0.023928614333272,0,
00:00:01.676,-0.0405006557703018,-0.0310967974364758,0.017122246325016,0,
00:00:01.68,0.00366842420771718,0.013195738196373,-0.0287205297499895,0,
00:00:01.684,0.0119694899767637,0.0106910793110728,-4.26632868766319E-05,0,
00:00:01.688,0.00321573577821255,-0.00900929421186447,0.000782466435339302,0,
00:00:01.692,0.00312423799186945,-0.000891968316864222,-0.0105907060205936,0,
00:00:01.696,0.00728354556486011,0.00686313165351748,0.00967439264059067,0,
00:00:01.7,0.0121811516582966,-0.00936206337064505,0.0295617431402206,0,
00:00:01.704,-0.00719964131712914,0.0184895377606153,-0.0175481606274843,0,
00:00:01.708,-0.0485014878213406,-0.0203511845320463,-0.0129269994795322,0,
00:00:01.712,0.0262709092348814,0.00944007188081741,0.0193935930728912,0,
00:00:01.716,0.0196615606546402,-0.000133023248054087,-0.0101346513256431,0,
00:00:01.72,0.0026307434309274,0.00549822859466076,-0.0310699827969074,0,
00:00:01.724,0.00857322197407484,0.0257252547889948,0.00718707730993629,0,
00:00:01.728,-0.0106475604698062,-0.0314305350184441,0.0137197682633996,0,
00:00:01.732,-0.0236006379127502,-0.0306391492486,0.00434526661410928,0,
00:00:01.736,-0.0285986308008432,1.22857522910635E-06,0.0327865444123745,0,
00:00:01.74,-0.0100435232743621,0.0118469968438148,0.0191265251487494,0,
00:00:01.744,0.0669299438595772,0.0272641442716122,-0.0362200736999512,0,
00:00:01.748,0.0387663617730141,0.023533197119832,-0.0594293028116226,0,
00:00:01.752,-0.0251207835972309,-0.00727048749104142,-0.00493725249543786,0,
00:00:01.756,-0.0151951340958476,-0.00940247904509306,0.0498019531369209,0,
00:00:01.76,-0.017309844493866,-0.00972817745059729,0.017482552677393,0,
00:00:01.764,0.00305675202980638,-0.00101848738268018,-0.0062836054712534,0,
00:00:01.768,-0.00987871829420328,-0.0341599211096764,-0.0137563589960337,0,
00:00:01.772,-0.0560904331505299,-0.0246520489454269,0.0216523911803961,0,
00:00:01.776,0.0262896772474051,0.0295084696263075,0.00642419839277864,0,
00:00:01.78,0.0576918683946133,0.0418907813727856,-0.0262769684195518,0,
00:00:01.784,0.0250934381037951,0.0125184841454029,-0.00123730290215462,0,
00:00:01.788,8.64784378791228E-05,0.00180890283081681,-0.0142359919846058,0,
00:00:01.792,-0.014739909209311,0.00331297214142978,0.00775787606835365,0,
00:00:01.796,-0.0328456871211529,-0.0400095209479332,-0.0135189443826675,0,
00:00:01.8,-0.0267636086791754,-0.0322441160678864,0.0196959357708693,0,
00:00:01.804,0.00658247387036681,0.0141458418220282,0.0150668947026134,0,
00:00:01.808,0.0141081605106592,0.040015485137701,-0.0211636275053024,0,
00:00:01.812,0.0188418235629797,-0.0034865194465965,0.0270450320094824,0,
00:00:01.816,-0.0098507683724165,-0.0468454957008362,0.0226177256554365,0,
00:00:01.82,-0.0177237242460251,0.00218372046947479,-0.0220244079828262,0,
00:00:01.824,0.0320866815745831,0.043315414339304,-0.0399901568889618,0,
00:00:01.828,0.0196800269186497,0.0339799895882607,-0.0189125724136829,0,
00:00:01.832,-0.0189002454280853,-0.0105991130694747,0.00224710279144347,0,
00:00:01.836,-0.0163850821554661,-0.0257815103977919,0.0463344119489193,0,
00:00:01.84,-0.018716374412179,-0.0580730848014355,0.043876439332962,0,
00:00:01.844,0.0138993123546243,0.00294248014688492,-0.00781937781721354,0,
00:00:01.848,0.00694412831217051,0.0713751763105392,-0.0670975148677826,0,
00:00:01.852,0.00727462116628885,-0.0050476398319006,-0.00970428716391325,0,
00:00:01.856,-0.0136092556640506,-0.0322104878723621,0.0212286431342363,0,
00:00:01.86,0.00384326814673841,-0.00952692143619061,0.0202666409313679,0,
00:00:01.864,0.0148818325251341,0.0472195111215115,-0.0108725596219301,0,
00:00:01.868,-0.00688297906890512,-0.00367743894457817,-0.0147249605506659,0,
00:00:01.872,0.000655035953968763,-0.0209099557250738,0.0195306595414877,0,
00:00:01.876,-0.00182833685539663,-0.012388308532536,0.0331172980368137,0,
00:00:01.88,-0.00606942130252719,-0.0063386638648808,-0.0135119343176484,0,
00:00:01.884,0.00480839423835278,0.0147137828171253,-0.0403154864907265,0,
00:00:01.888,-0.0240801349282265,-0.00664117000997067,-0.00737032294273376,0,
00:00:01.892,-0.0149469254538417,-0.000440319505287334,0.0255399476736784,0,
00:00:01.896,0.0349009893834591,0.00707075791433454,0.00706434715539217,0,
00:00:01.9,0.0587878189980984,0.0289186406880617,-0.0226477030664682,0,
00:00:01.904,-0.0125812776386738,0.00937993172556162,0.00721871200948954,0,
00:00:01.908,-0.0487237796187401,-0.0388366132974625,0.0358297228813171,0,
00:00:01.912,-0.0227766931056976,-0.0211622472852468,-6.82051759213209E-05,0,
00:00:01.916,-0.00148736196570098,0.0109534822404385,-0.0242874287068844,0,
00:00:01.92,0.0107394810765982,-0.00134579103905708,-0.024616364389658,0,
00:00:01.924,0.0320147052407265,0.0195954423397779,-0.0104632498696446,0,
00:00:01.928,-0.00426007714122534,0.0166109316051006,0.023592745885253,0,
00:00:01.932,-0.0279549956321716,-0.0502273850142956,0.0245505440980196,0,
00:00:01.936,0.0136585021391511,0.0211074333637953,-0.0084878345951438,0,
00:00:01.94,0.0158700868487358,0.0153870210051537,0.00912893656641245,0,
00:00:01.944,0.00887361541390419,0.00927790999412537,-0.00976256001740694,0,
00:00:01.948,-0.000836098392028362,0.0158702880144119,-0.0238515995442867,0,
00:00:01.952,-0.0136644672602415,-0.0396685041487217,0.00021715450566262,0,
00:00:01.956,-0.0236728060990572,-0.0222220048308373,0.0147758321836591,0,
00:00:01.96,-0.00231333961710334,0.0200552511960268,0.0207930039614439,0,
00:00:01.964,0.013749617151916,0.0218960698693991,-0.0103718442842364,0,
00:00:01.968,0.00739899789914489,-0.00632526306435466,-0.0023421267978847,0,
00:00:01.972,0.00359410420060158,-0.0139084672555327,-0.0128868976607919,0,
00:00:01.976,0.00272186985239387,-0.00650034425780177,-0.00595200667157769,0,
00:00:01.98,0.0070861685089767,0.0169233959168196,-0.0159090980887413,0,
00:00:01.984,-0.00526620354503393,0.0137548362836242,0.0267212316393852,0,
00:00:01.988,0.00895465724170208,-2.12452814594144E-05,0.00219701603055,0,
00:00:01.992,-0.0311212036758661,-0.0424161665141582,0.0225010626018047,0,
00:00:01.996,-0.0645368844270706,-0.0201902501285076,0.0276832785457373,0,
00:00:02,0.0449136234819889,0.0473906956613064,-0.0384299866855145,0,
00:00:02.004,0.0773937627673149,0.0346507169306278,-0.0293588358908892,0,
00:00:02.008,-0.00172315060626715,-0.00368384714238346,-0.0329345390200615,0,
00:00:02.012,-0.00902184285223484,-0.0170956626534462,0.0234717391431332,0,
00:00:02.016,-0.0146351810544729,-0.0198168270289898,0.0368564426898956,0,
00:00:02.02,-0.0249018594622612,-0.0207029227167368,0.00828754995018244,0,
00:00:02.024,-0.0308861248195171,-0.025027995929122,-0.00744562456384301,0,
00:00:02.028,-0.00483266450464725,0.0504126772284508,-0.0151471896097064,0,
00:00:02.032,0.0169746987521648,0.0112251825630665,0.0154537465423346,0,
00:00:02.036,0.0331630744040012,0.000470286555355415,-0.0179403312504292,0,
00:00:02.04,0.0307258181273937,0.00227175396867096,0.00694850319996476,0,
00:00:02.044,-0.00290463212877512,-0.000295401870971546,-0.00506321247667074,0,
00:00:02.048,-0.0263726506382227,-0.0100509133189917,-0.008104607462883,0,
00:00:02.052,-0.0352250672876835,-0.0245559308677912,0.0212808977812529,0,
00:00:02.056,-0.0091429753229022,0.00919670052826405,0.00797483325004578,0,
00:00:02.06,0.0175929442048073,0.0126485228538513,-0.0202307682484388,0,
00:00:02.064,0.0287879705429077,-0.00476765399798751,0.00518108671531081,0,
00:00:02.068,0.0365060158073902,0.000201081071281806,-0.010962201282382,0,
00:00:02.072,-0.0276223383843899,0.0116512347012758,0.00716919451951981,0,
00:00:02.076,-0.0683212503790855,-0.000582007167395204,0.0083807809278369,0,
00:00:02.08,0.00212342501617968,-0.00525987660512328,-0.0115238260477781,0,
00:00:02.084,0.0477166995406151,0.00769066158682108,-0.00707861501723528,0,
00:00:02.088,0.0253297854214907,-0.022215710952878,-0.0021924281027168,0,
00:00:02.092,0.0182508919388056,-0.003512381343171,0.0295627452433109,0,
00:00:02.096,-0.0407118983566761,0.015522581525147,0.0252847783267498,0,
00:00:02.1,-0.0453507788479328,-0.00711488164961338,-0.0158930364996195,0,
00:00:02.104,0.0158646535128355,0.00683251535519958,-0.0328710041940212,0,
00:00:02.108,0.0319468639791012,0.0127226412296295,-0.0346249379217625,0,
00:00:02.112,0.006097212433815,-0.00451292702928185,0.00498763239011168,0,
00:00:02.116,0.00317188259214163,0.00681876949965954,0.0358311161398888,0,
00:00:02.12,-0.00258285226300359,-0.0143327880650759,0.0165373086929321,0,
00:00:02.124,-0.018871832638979,-0.0180634278804064,0.00540458224713802,0,
00:00:02.128,-0.0218420866876841,-0.0025977857876569,0.0100672468543053,0,
00:00:02.132,-0.0165735129266977,0.00338054355233908,-0.0143236797302961,0,
00:00:02.136,0.0437478758394718,0.0222966372966766,-0.0229975692927837,0,
00:00:02.14,0.0391077697277069,0.01488271728158,-0.0177131798118353,0,
00:00:02.144,-0.000178753078216687,0.00486188754439354,0.0142977209761739,0,
00:00:02.148,-0.0318302288651466,-0.0108299814164639,-0.00609130179509521,0,
00:00:02.152,-0.0421087071299553,-0.0265813991427422,0.0313135236501694,0,
00:00:02.156,0.000292075390461832,-0.0119005320593715,0.0120770735666156,0,
00:00:02.16,0.0428928956389427,0.00508732255548239,-0.0292040966451168,0,
00:00:02.164,-0.00163007865194231,0.00881526619195938,0.00758733181282878,0,
00:00:02.168,0.00231450749561191,0.0215582139790058,-0.020830137655139,0,
00:00:02.172,-0.0044012195430696,0.0106379231438041,-0.0105068450793624,0,
00:00:02.176,-0.0222776494920254,-0.0137632079422474,0.0203973911702633,0,
00:00:02.18,0.0205443501472473,0.00113442807924002,0.0417600572109222,0,
00:00:02.184,0.00463705649599433,-0.0332675874233246,-0.00317174359224737,0,
00:00:02.188,-0.00367553764954209,0.000626969034783542,-0.0453089773654938,0,
00:00:02.192,-0.0115916188806295,0.0258162021636963,-0.00508571323007345,0,
00:00:02.196,-0.00982439797371626,0.000638402882032096,0.0173082463443279,0,
00:00:02.2,0.026799451559782,0.020904453471303,-0.00681922258809209,0,
00:00:02.204,0.0145858330652118,0.00571578834205866,-0.00441966997459531,0,
00:00:02.208,-0.019414572045207,-0.0379964374005795,-0.00719068804755807,0,
00:00:02.212,-0.0194606855511665,-0.0284951757639647,0.0439177602529526,0,
00:00:02.216,-0.0211314801126719,0.0174830295145512,0.0300679486244917,0,
00:00:02.22,0.00450630160048604,0.0245990864932537,-0.0617044121026993,0,
00:00:02.224,0.0417073927819729,-0.00117949687410146,-0.0177654810249805,0,
00:00:02.228,0.0299495737999678,0.000846064765937626,0.0119676301255822,0,
00:00:02.232,0.00744723854586482,0.0187748093158007,0.0153741724789143,0,
00:00:02.236,-0.0306992530822754,-0.00877775438129902,-0.00670347595587373,0,
00:00:02.24,-0.0607345104217529,-0.0268328152596951,-0.00128305470570922,0,
00:00:02.244,0.000441374373622239,-0.0200671497732401,0.00148960633669049,0,
00:00:02.248,0.029641242697835,0.0218080803751946,0.0105995442718267,0,
00:00:02.252,0.0330316834151745,0.0327308252453804,-0.00606203638017178,0,
00:00:02.256,0.00895735248923302,-0.00812170654535294,0.00468320585787296,0,
00:00:02.26,-0.0235062744468451,-0.0260769631713629,0.00602180417627096,0,
00:00:02.264,-0.0115688275545835,0.000886969093699008,-0.00242936378344893,0,
00:00:02.268,-0.0171848721802235,-0.0189415663480759,-0.0116045894101262,0,
00:00:02.272,0.0225801933556795,0.0398698337376118,-0.00274672266095877,0,
00:00:02.276,0.00967401918023825,0.0148185342550278,-0.00147745304275304,0,
00:00:02.28,0.00366963306441903,-0.00196885946206748,-0.00672752829268575,0,
00:00:02.284,-0.00697628874331713,0.00444020750001073,0.00284993113018572,0,
00:00:02.288,-0.0309833697974682,-0.0598136000335217,0.00913100317120552,0,
00:00:02.292,0.0111776534467936,-0.0241752807050943,0.0249918438494205,0,
00:00:02.296,0.00967005360871553,0.0498463064432144,-0.00402399571612477,0,
00:00:02.3,0.0236401986330748,0.0431993119418621,-0.0184422545135021,0,
00:00:02.304,0.0164549183100462,-0.0164321511983871,-0.0182407833635807,0,
00:00:02.308,-0.0265732351690531,-0.0295226518064737,0.00884489435702562,0,
00:00:02.312,-0.0280754193663597,0.00948220398277044,0.00460089510306716,0,
00:00:02.316,0.0219524875283241,0.00335751054808497,0.0207300409674644,0,
00:00:02.32,-0.0176168065518141,-0.0169921293854713,-0.00235515017993748,0,
00:00:02.324,-0.00365178915672004,-0.00269844871945679,-0.0218873303383589,0,
00:00:02.328,0.00639975443482399,0.0126163400709629,-0.0145031539723277,0,
00:00:02.332,0.017690684646368,0.0191515535116196,0.0267888773232698,0,
00:00:02.336,0.0052310018800199,0.00366483069956303,-0.00995757151395082,0,
00:00:02.34,0.00645458186045289,-0.0071602719835937,0.000677517615258694,0,
00:00:02.344,-0.0270050559192896,-0.0537604466080666,0.0280675552785397,0,
00:00:02.348,0.00928652379661798,0.0238059125840664,-0.0152708040550351,0,
00:00:02.352,0.0066965389996767,0.0420566312968731,-0.0209361054003239,0,
00:00:02.356,0.00369450822472572,0.00948486849665642,-0.00534258270636201,0,
00:00:02.36,-0.0126256048679352,-0.0177941769361496,0.0119716571643949,0,
00:00:02.364,-0.0120436958968639,-0.0449043847620487,0.00961329881101847,0,
00:00:02.368,0.0109712397679687,-0.00543106719851494,0.0190528184175491,0,
00:00:02.372,0.00107758573722094,0.00451293727383018,-0.0163502618670464,0,
00:00:02.376,0.00952798686921597,0.0508044809103012,-0.00451576849445701,0,
00:00:02.38,0.000717519491445273,0.0143881421536207,0.00129292206838727,0,
00:00:02.384,-0.0125287426635623,-0.0307911839336157,-0.014715394936502,0,
00:00:02.388,0.00731299072504044,0.00147931289393455,-0.00484361220151186,0,
00:00:02.392,-0.0186841432005167,-0.0187223311513662,0.0104841273277998,0,
00:00:02.396,0.0213922578841448,0.018044775351882,0.00625768397003412,0,
00:00:02.4,0.0191787965595722,-0.00637377006933093,0.0103386100381613,0,
00:00:02.404,-0.0156964082270861,-0.0279220286756754,-0.00434032455086708,0,
00:00:02.408,-0.0275193769484758,0.0250983778387308,-0.0119618186727166,0,
00:00:02.412,-0.0131960464641452,0.0124433487653732,0.0239692237228155,0,
00:00:02.416,0.0254533458501101,-0.00230513419955969,-5.28502350789495E-05,0,
00:00:02.42,0.0341438725590706,-0.000173478445503861,-0.0198298245668411,0,
00:00:02.424,-0.0147775178775191,0.004094073548913,-0.0222681351006031,0,
00:00:02.428,0.00322557077743113,0.00111205177381635,-0.00606194557622075,0,
00:00:02.432,-0.0320704579353333,-0.0279282610863447,0.0234660860151052,0,
00:00:02.436,-0.0108885271474719,-0.0248933620750904,0.00913208443671465,0,
00:00:02.44,0.0453841984272003,0.0422930382192135,0.0172671675682068,0,
00:00:02.444,0.00239416351541877,0.0357543863356113,0.00242142635397613,0,
00:00:02.448,-0.0269342754036188,-0.00800088047981262,-0.0082566486671567,0,
00:00:02.452,-0.00603111134842038,-0.0292648989707232,-0.0215193033218384,0,
00:00:02.456,-0.00628968607634306,-0.0207279026508331,-0.0209490694105625,0,
00:00:02.46,0.0287290327250957,0.0150028308853507,0.0107005890458822,0,
00:00:02.464,0.00906278379261494,-0.0131340082734823,0.028146168217063,0,
00:00:02.468,-0.0260210037231445,0.0119792828336358,0.00570654682815075,0,
00:00:02.472,-0.0197008866816759,0.013377895578742,-0.00618521403521299,0,
00:00:02.476,0.0191810633987188,0.00554246455430985,0.00158519158139825,0,
00:00:02.48,0.0249610189348459,-0.0146381743252277,-0.00536013953387737,0,
00:00:02.484,-0.0127919223159552,-0.00639347638934851,-0.0319449491798878,0,
00:00:02.488,0.00147256092168391,0.016439052298665,-0.00161435652989894,0,
00:00:02.492,0.00414127204567194,0.00420483853667974,0.0199894867837429,0,
00:00:02.496,-0.00544919818639755,0.00432192999869585,0.0217062644660473,0,
00:00:02.5,-0.00972546637058258,-0.00802050065249205,0.00436270795762539,0,
00:00:02.504,-0.0068389531224966,-0.0191123355180025,0.00141765689477324,0,
00:00:02.508,-0.000905648455955088,0.00335974479094148,-0.0260678920894861,0,
00:00:02.512,0.0142276212573051,0.00617731735110283,-0.0118617210537195,0,
00:00:02.516,0.00805936381220818,-0.017811356112361,0.0180213898420334,0,
00:00:02.52,-0.00327618513256311,0.0133295953273773,0.000814393395558,0,
00:00:02.524,-0.0165303684771061,0.0146812275052071,0.00206803297623992,0,
00:00:02.528,0.0160455945879221,0.00945496279746294,0.00386836775578558,0,
00:00:02.532,-0.00466074841096997,-0.00942761544138193,-0.0204543638974428,0,
00:00:02.536,-0.0246170740574598,-0.00623576669022441,0.0147609487175941,0,
00:00:02.54,0.0268603339791298,0.00175192090682685,0.00423829816281796,0,
00:00:02.544,0.0157206617295742,-0.00185112725012004,-0.0184122603386641,0,
00:00:02.548,-0.00270402990281582,-0.010656182654202,0.0185401011258364,0,
00:00:02.552,-0.0247652772814035,-0.0183025691658258,0.0172153171151876,0,
00:00:02.556,-0.0120759820565581,0.013668904080987,-0.0242266207933426,0,
00:00:02.56,-0.0165223758667707,0.0183263998478651,-0.0270375180989504,0,
00:00:02.564,0.0337249226868153,0.00567440548911691,0.0397051274776459,0,
00:00:02.568,0.0518094226717949,0.0179604552686214,-0.000110039007267915,0,
00:00:02.572,-0.0129926754161716,-0.0150918327271938,-0.0248938445001841,0,
00:00:02.576,-0.0353507399559021,-0.0162995383143425,0.00251946435309947,0,
00:00:02.58,-0.0206888318061829,-0.00474088219925761,0.00625566812232137,0,
00:00:02.584,-0.0170922819525003,-0.0270769223570824,0.0239985752850771,0,
00:00:02.588,0.0207350794225931,0.0172294285148382,-0.00485660787671804,0,
00:00:02.592,0.02713293582201,0.0317049436271191,-0.00599418627098203,0,
00:00:02.596,0.00466425297781825,0.0126495501026511,-0.0206681955605745,0,
00:00:02.6,-0.00118634302634746,-0.00505703594535589,-0.00919585581868887,0,
00:00:02.604,0.00332727306522429,-0.00281501328572631,0.0110275130718946,0,
00:00:02.608,-0.0158321876078844,-0.0280937384814024,0.0199916344136,0,
00:00:02.612,-0.0442526936531067,-0.064212292432785,0.0265457462519407,0,
00:00:02.616,0.00977284740656614,0.0349175147712231,-0.024499349296093,0,
00:00:02.62,0.0513327233493328,0.072693295776844,-0.0392186194658279,0,
00:00:02.624,0.0172458756715059,0.0214448980987072,0.0119861913844943,0,
00:00:02.628,-0.0187584776431322,-0.010590092279017,0.00977073330432177,0,
00:00:02.632,-0.00224917847663164,-0.058728139847517,0.00576645880937576,0,
00:00:02.636,-0.0131424935534596,-0.0292375255376101,0.0104349805042148,0,
00:00:02.64,-0.0168932694941759,0.0267857555299997,0.000214803556445986,0,
00:00:02.644,-0.0221428293734789,0.0101900510489941,-0.0114021450281143,0,
00:00:02.648,0.000678839744068682,0.00413931719958782,0.0106388367712498,0,
00:00:02.652,0.0369128622114658,0.0103677734732628,-0.00823188666254282,0,
00:00:02.656,0.0426546931266785,0.00768059771507978,-0.0204970352351666,0,
00:00:02.66,-0.0166048109531403,-0.00976850558072329,0.0203650817275047,0,
00:00:02.664,-0.0339625887572765,-0.0182855613529682,0.00104847270995378,0,
00:00:02.668,-0.00424492172896862,-0.00859284773468971,0.00780768832191825,0,
00:00:02.672,0.00826232321560383,0.0323312431573868,-0.010895692743361,0,
00:00:02.676,0.0107344826683402,0.00468313368037343,0.00295550678856671,0,
00:00:02.68,-0.00660860678181052,-0.0189815908670425,-0.0218777190893888,0,
00:00:02.684,0.0152316922321916,0.0225130282342434,0.00246242946013808,0,
00:00:02.688,-0.0178174786269665,-0.0233065318316221,0.0345549024641514,0,
00:00:02.692,-0.00678593292832375,-0.00918791443109512,-0.00523064658045769,0,
00:00:02.696,-0.0264180209487677,-0.0408872179687023,0.00517850136384368,0,
00:00:02.7,0.0316954031586647,0.0302879624068737,-0.0090918280184269,0,
00:00:02.704,0.0192833542823792,0.0584991574287415,-0.0243495479226112,0,
00:00:02.708,-0.00128911528736353,0.0166572798043489,-0.00348229287192225,0,
00:00:02.712,0.006728311534971,-0.0279334113001823,0.0133115816861391,0,
00:00:02.716,-0.00614156946539879,-0.0295078214257956,0.00544727127999067,0,
00:00:02.72,-0.032671932131052,-0.0119693223387003,0.0120321232825518,0,
00:00:02.724,-0.0190426167100668,-0.0191298387944698,-0.0201792605221272,0,
00:00:02.728,0.0258553996682167,-0.0012620915658772,0.0137416748329997,0,
00:00:02.732,0.0445973724126816,0.0624563992023468,0.0117379687726498,0,
00:00:02.736,-0.0125316744670272,0.00685171922668815,0.00211911555379629,0,
00:00:02.74,-0.0248731598258018,-0.0392671413719654,-0.00802034139633179,0,
00:00:02.744,-0.0212886445224285,0.00995084457099438,-0.0399421826004982,0,
00:00:02.748,-0.00101974164135754,-0.00149263930507004,-0.010887143202126,0,
00:00:02.752,0.0317633934319019,-0.00734410341829062,0.0592397525906563,0,
00:00:02.756,0.00789319165050983,0.00896528083831072,0.00533718336373568,0,
00:00:02.76,0.0177942644804716,0.0148820085451007,-0.0267051178961992,0,
00:00:02.764,-0.0382076315581799,-0.0559268444776535,0.0164650846272707,0,
00:00:02.768,-0.00733100529760122,0.0175440665334463,-0.0245016049593687,0,
00:00:02.772,-0.000263698166236281,0.0331624932587147,-0.0107777612283826,0,
00:00:02.776,0.0263908002525568,0.0355655588209629,0.0145397232845426,0,
00:00:02.78,0.0123239979147911,-0.0252560656517744,0.0137637946754694,0,
00:00:02.784,-0.032981663942337,-0.0292519144713879,0.00243541039526463,0,
00:00:02.788,-0.00314873433671892,-0.0190030783414841,-0.0158687140792608,0,
00:00:02.792,0.00441687507554889,0.00295997457578778,0.0092278840020299,0,
00:00:02.796,0.00194825243670493,0.0090459818020463,0.0170855615288019,0,
00:00:02.8,0.0101898862048984,0.0145159289240837,-0.0154926218092442,0,
00:00:02.804,0.0087005365639925,0.0220435000956059,-0.0227563846856356,0,
00:00:02.808,-0.00415423745289445,-0.00395418936386704,-0.00592668121680617,0,
00:00:02.812,-0.0188933964818716,-0.0302293635904789,0.038233894854784,0,
00:00:02.816,0.00555261177942157,-0.00401439983397722,0.00289184995926917,0,
00:00:02.82,-0.00596754252910614,0.00824383553117514,0.000289272837108001,0,
00:00:02.824,0.0131321959197521,0.026057681068778,-0.0155530627816916,0,
00:00:02.828,0.00943508371710777,-0.00455873506143689,-0.0247846636921167,0,
00:00:02.832,-0.00818455126136541,-0.0129877924919128,0.000555744336452335,0,
00:00:02.836,-0.029308969154954,-0.00513223651796579,0.0221243146806955,0,
00:00:02.84,0.00843391101807356,-0.0101965880021453,0.0124208405613899,0,
00:00:02.844,0.020019106566906,-0.0106171322986484,-0.00330384215340018,0,
00:00:02.848,0.0223008375614882,0.01963578350842,-0.00410321122035384,0,
00:00:02.852,-0.0097924442961812,0.0171856638044119,0.00656096963211894,0,
00:00:02.856,0.0032397280447185,0.0232102479785681,-0.0247395504266024,0,
00:00:02.86,-0.0144855147227645,-0.0171653814613819,-0.00533811841160059,0,
00:00:02.864,-0.0420859754085541,-0.0566697865724564,0.0216222368180752,0,
00:00:02.868,0.0065682833082974,0.0103100873529911,0.0172951463609934,0,
00:00:02.872,0.0397673100233078,0.0425805598497391,-0.00946683436632156,0,
00:00:02.876,0.0175817050039768,0.019925132393837,-0.0149427177384496,0,
00:00:02.88,-0.0182442739605904,-0.0428381823003292,-0.00663908617570996,0,
00:00:02.884,-0.02912369184196,-0.0239875130355358,0.00631292723119259,0,
00:00:02.888,0.00529883941635489,0.0231397971510887,0.0064108413644135,0,
00:00:02.892,0.0105394553393126,0.0139216408133507,0.00450519705191255,0,
00:00:02.896,0.0371116809546947,0.0371198244392872,-0.00714414613321424,0,
00:00:02.9,0.000239833068917505,0.00108305993489921,-0.0145952738821507,0,
00:00:02.904,-0.0416297353804111,-0.0520751066505909,0.0212302226573229,0,
00:00:02.908,-0.0414598025381565,-0.0606965273618698,0.00606429856270552,0,
00:00:02.912,0.0430938228964806,0.0360409244894981,-0.0122492648661137,0,
00:00:02.916,0.0323914550244808,0.0533934682607651,-0.0031967198010534,0,
00:00:02.92,-0.0150677124038339,0.00650870706886053,0.0117343766614795,0,
00:00:02.924,-0.00360201764851809,-0.0156020233407617,-0.00536791421473026,0,
00:00:02.928,-0.00562427053228021,-0.00691545568406582,-0.00858670752495527,0,
00:00:02.932,-0.000183694326551631,0.00640444178134203,-0.0043273689225316,0,
00:00:02.936,-0.0095338337123394,-0.0141942445188761,-0.00917344726622105,0,
00:00:02.94,-0.00028349069179967,-0.0110149951651692,0.0267588905990124,0,
00:00:02.944,0.00304499664343894,0.00950142089277506,0.0320890620350838,0,
00:00:02.948,-0.0131306601688266,-0.00126048270612955,-0.0109187113121152,0,
00:00:02.952,0.0328777767717838,0.00845724623650312,-0.0468671396374702,0,
00:00:02.956,0.0233738794922829,0.00777227664366364,-0.0210958700627089,0,
00:00:02.96,-0.0171224661171436,0.00225841044448316,0.017883125692606,0,
00:00:02.964,-0.0423661917448044,-0.0153601625934243,0.0319497175514698,0,
00:00:02.968,0.00230388971976936,-0.0119734844192863,-0.00273536052554846,0,
00:00:02.972,0.0143790319561958,0.0314924530684948,-0.00408585928380489,0,
00:00:02.976,0.0109225995838642,0.0119723863899708,-0.00559699023142457,0,
00:00:02.98,0.00742372963577509,-0.0491271950304508,0.0312286149710417,0,
00:00:02.984,-0.0167965870350599,-0.00928208138793707,-0.0178182907402515,0,
00:00:02.988,-0.0040620849467814,0.0164915081113577,-0.0189769566059113,0,
00:00:02.992,0.00415170704945922,0.0170884486287832,-0.00994421541690826,0,
00:00:02.996,0.0184721816331148,0.0287458635866642,0.00275519536808133,0,
00:00:03,-0.0019114789320156,-0.00620742980390787,0.0114568378776312,0,
00:00:03.004,-0.0133961075916886,-0.0253989975899458,0.00896023772656918,0,
00:00:03.008,0.00244137085974216,-0.00374649069271982,-0.00966059882193804,0,
00:00:03.012,-0.0116184363141656,-0.00897681713104248,0.0200528632849455,0,
00:00:03.016,-0.0136162163689733,-0.0160131696611643,-0.00412959698587656,0,
00:00:03.02,0.0200150962918997,-0.00755165191367269,0.00814254675060511,0,
00:00:03.024,0.0234522875398397,0.051084965467453,-0.0417839400470257,0,
00:00:03.028,-0.00832682009786367,0.0283238012343645,-0.0130484774708748,0,
00:00:03.032,0.000794280786067247,-0.0108083942905068,0.030158331617713,0,
00:00:03.036,0.0160713866353035,-0.0250377878546715,0.0312852337956429,0,
00:00:03.04,-0.0528738796710968,-0.0221731010824442,-0.000319741055136546,0,
00:00:03.044,-0.022020785138011,-0.00941586960107088,-0.0433392338454723,0,
00:00:03.048,0.0356844738125801,0.00545915029942989,0.0215791091322899,0,
00:00:03.052,0.0265751611441374,0.00409348262473941,-0.0111198518425226,0,
00:00:03.056,0.0137340547516942,0.0146407000720501,-0.00920743774622679,0,
00:00:03.06,-0.00452276738360524,0.0258861873298883,0.00760497618466616,0,
00:00:03.064,-0.0226166490465403,-0.00259255478158593,0.0023119340185076,0,
00:00:03.068,-0.0328270047903061,-0.0130100306123495,0.00367103889584541,0,
00:00:03.072,0.000201743067009374,-0.0471396408975124,0.0560916922986507,0,
00:00:03.076,0.0479245111346245,0.0216012913733721,-0.0322088412940502,0,
00:00:03.08,0.0107405949383974,0.0444270595908165,-0.048397921025753,0,
00:00:03.084,-0.0389515869319439,-0.0213155932724476,-0.000562858418561518,0,
00:00:03.088,0.00847790203988552,-0.0234991498291492,0.0159581489861012,0,
00:00:03.092,0.0206231866031885,0.0271918158978224,-0.00197771470993757,0,
00:00:03.096,-0.0197921153157949,-0.00450380053371191,0.020232979208231,0,
00:00:03.1,-0.0293989032506943,-0.031295508146286,0.0306629352271557,0,
00:00:03.104,0.00578276114538312,0.00177230301778764,-0.0279225539416075,0,
00:00:03.108,0.0436384826898575,0.0209529269486666,-0.0166240371763706,0,
00:00:03.112,0.00229554437100887,0.032368116080761,-0.00696477945894003,0,
00:00:03.116,-0.000849661766551435,0.00415870081633329,0.0070720948278904,0,
00:00:03.12,-0.0182524845004082,-0.039087001234293,0.00345316412858665,0,
00:00:03.124,-0.0210916064679623,-0.0257182251662016,0.0115455044433475,0,
00:00:03.128,0.00812815595418215,0.0099973576143384,-0.00116897805128247,0,
00:00:03.132,0.0164169445633888,0.0304878018796444,-0.0239640194922686,0,
00:00:03.136,0.000407088955398649,0.00415274780243635,0.0135386791080236,0,
00:00:03.14,0.00671967584639788,-0.00529990624636412,0.027918579056859,0,
00:00:03.144,0.0081834951415658,-0.0125725939869881,-0.0299349259585142,0,
00:00:03.148,-0.0161384660750628,0.0102274129167199,-0.0325648337602615,0,
00:00:03.152,-0.0408502817153931,-0.00833082851022482,0.0645359754562378,0,
00:00:03.156,-0.0256020966917276,-0.047116719186306,0.0197693891823292,0,
00:00:03.16,0.046453308314085,0.00321593135595322,-0.0251760147511959,0,
00:00:03.164,0.0543486960232258,0.0605919174849987,-0.0435766130685806,0,
00:00:03.168,0.0235723257064819,0.0471358709037304,-0.0276199579238892,0,
00:00:03.172,-0.0141707677394152,-0.00424803327769041,0.0117591340094805,0,
00:00:03.176,-0.0464138127863407,-0.0526813194155693,0.0358733832836151,0,
00:00:03.18,-0.0348534733057022,-0.0317461565136909,0.0276491772383451,0,
00:00:03.184,-0.00632851524278522,0.0120894117280841,-0.00282415840774775,0,
00:00:03.188,0.0167793184518814,-0.00724579626694322,0.000948169326875359,0,
00:00:03.192,-0.00626920675858855,-0.0134951137006283,-0.0133103290572762,0,
00:00:03.196,0.0389233268797398,0.0284023992717266,-0.00580081483349204,0,
00:00:03.2,0.0180562790483236,0.00934813730418682,-0.0236178543418646,0,
00:00:03.204,0.0080018937587738,0.0132786203175783,0.00158449204172939,0,
00:00:03.208,-0.022948095574975,-0.00545700686052442,0.0252765975892544,0,
00:00:03.212,-0.0236811134964228,0.00737965106964111,-0.0145246973261237,0,
00:00:03.216,-0.0044352444820106,-0.00718976743519306,-0.0055316505022347,0,
00:00:03.22,0.00721808290109038,-0.00112505920697004,0.0121555710211396,0,
00:00:03.224,-0.0050076562911272,-0.0303127784281969,0.024545943364501,0,
00:00:03.228,0.00100557238329202,-0.0271779280155897,-0.00358465267345309,0,
00:00:03.232,0.032045055180788,0.0417405739426613,-0.0194781571626663,0,
00:00:03.236,0.015328829176724,0.0621686056256294,-0.0177675019949675,0,
00:00:03.24,-0.0157955158501863,-0.0290782246738672,-0.00448149628937244,0,
00:00:03.244,-0.0439500771462917,-0.0381891988217831,0.000472477899165824,0,
00:00:03.248,-0.00126649055164307,-0.0085090659558773,0.0144909098744392,0,
00:00:03.252,0.00792873837053776,-0.0174718014895916,0.0442522801458836,0,
00:00:03.256,0.00702325720340014,0.0202559679746628,-0.00773548474535346,0,
00:00:03.26,0.0357164926826954,0.0326026678085327,-0.0341779999434948,0,
00:00:03.264,-0.0164345130324364,0.00239537213928998,-0.00436433590948582,0,
00:00:03.268,-0.011964088305831,0.00452491967007518,-0.0139171155169606,0,
00:00:03.272,-0.00250539928674698,-0.0241951271891594,0.0223075393587351,0,
00:00:03.276,0.00971994549036026,0.00611094199120998,0.00391201069578528,0,
00:00:03.28,0.00902450457215309,0.00425885803997517,-0.014326055534184,0,
00:00:03.284,-0.00810431316494942,-0.0179067440330982,0.0138731217011809,0,
00:00:03.288,0.00792562868446112,-0.024101834744215,0.00718366075307131,0,
00:00:03.292,-0.0191036276519299,0.00481993705034256,0.000272820994723588,0,
00:00:03.296,-0.00936408061534166,0.0604495890438557,-0.0248399283736944,0,
00:00:03.3,-0.00994051527231932,-0.0136450408026576,0.0105313370004296,0,
00:00:03.304,0.0120301311835647,-0.0347789078950882,0.0292256437242031,0,
00:00:03.308,0.0422910712659359,0.0150842443108559,-0.0288212038576603,0,
00:00:03.312,-0.00227051298134029,0.0223470404744148,-0.0141707491129637,0,
00:00:03.316,-0.0240772310644388,-0.00949778221547604,0.00194435357116163,0,
00:00:03.32,-0.0157075691968203,-0.0130947437137365,0.0161376502364874,0,
00:00:03.324,-0.00140300579369068,-0.0104376524686813,-0.00895406678318977,0,
00:00:03.328,0.00959184113889933,-0.0117884036153555,0.0238245371729136,0,
00:00:03.332,0.000657510594464839,0.000611895404290408,0.00501194503158331,0,
00:00:03.336,0.0157880429178476,0.0269015058875084,-0.0323653891682625,0,
00:00:03.34,0.0263642631471157,0.0295224096626043,0.0086415009573102,0,
00:00:03.344,-0.0214895214885473,-0.00157263409346342,0.00751911336556077,0,
00:00:03.348,-0.0637034997344017,-0.0407786518335342,-0.0015882714651525,0,
00:00:03.352,0.023124510422349,-0.0195616260170937,-0.0185333304107189,0,
00:00:03.356,0.0406214147806168,0.0236902385950089,-0.00123207014985383,0,
00:00:03.36,-0.00639611156657338,0.00511258700862527,0.0335293710231781,0,
00:00:03.364,-0.00746535789221525,0.00464715529233217,0.00061246904078871,0,
00:00:03.368,0.00239345477893949,-0.00161857879720628,-0.00920415669679642,0,
00:00:03.372,-0.00830753985792398,-0.0130695886909962,-0.00603950442746282,0,
00:00:03.376,-0.00151494576130062,0.00615742616355419,-0.0242645163089037,0,
00:00:03.38,0.0129775004461408,0.0244269426912069,0.00395652465522289,0,
00:00:03.384,0.00387591007165611,-0.00245436443947256,0.0305990092456341,0,
00:00:03.388,-0.0264326930046082,-0.0268716365098953,-0.0126171773299575,0,
00:00:03.392,0.00719225080683827,-0.00316058774478734,0.00296876998618245,0,
00:00:03.396,0.0107694314792752,-0.00778644625097513,0.00707308435812593,0,
00:00:03.4,-0.0103031368926167,0.00653319526463747,0.00549804838374257,0,
00:00:03.404,-0.00484655937179923,-0.00234766351059079,-0.0226899683475494,0,
00:00:03.408,0.0186036378145218,0.0252250134944916,-0.00994531158357859,0,
00:00:03.412,0.0105690704658628,0.0226920247077942,-0.00219650194048882,0,
00:00:03.416,0.00155653804540634,-0.00267403991892934,0.00779498275369406,0,
00:00:03.42,-0.00108312792144716,-0.0230735763907433,0.0484313927590847,0,
00:00:03.424,-0.01794758066535,-0.0237537305802107,0.00140971166547388,0,
00:00:03.428,-0.0141848912462592,-0.00293769803829491,-0.034257099032402,0,
00:00:03.432,-0.0240382514894009,0.0034239066299051,-0.0400518104434013,0,
00:00:03.436,0.0107283545657992,0.0280132982879877,-0.00554013624787331,0,
00:00:03.44,0.0388317257165909,0.00623837579041719,0.0250498075038195,0,
00:00:03.444,0.00547872623428702,-0.046128898859024,0.0492189675569534,0,
00:00:03.448,0.00108126667328179,-0.00355667481198907,0.00580401532351971,0,
00:00:03.452,-0.0141932591795921,0.0331992581486702,-0.0355987958610058,0,
00:00:03.456,0.0158514641225338,0.0272623598575592,-0.00480645475909114,0,
00:00:03.46,0.00891686603426933,0.0062926821410656,-0.0167965777218342,0,
00:00:03.464,-0.0408595129847527,-0.00257363193668425,0.00395007291808724,0,
00:00:03.468,-0.0318773053586483,-0.0310388281941414,0.0150445587933064,0,
00:00:03.472,0.0106951771304011,-0.0450513027608395,-0.00142206519376487,0,
00:00:03.476,0.037095919251442,0.0035572643391788,0.0120447147637606,0,
00:00:03.48,0.0284240785986185,0.0185714699327946,0.0198607724159956,0,
00:00:03.484,-0.0182908307760954,0.0335397385060787,-0.0406408980488777,0,
00:00:03.488,-0.0248368866741657,0.0100012198090553,-0.00642737559974194,0,
00:00:03.492,0.00224313582293689,0.00183699571061879,-0.00116402981802821,0,
00:00:03.496,0.0239815525710583,-0.0136934611946344,0.0227820500731468,0,
00:00:03.5,-0.00109342730138451,-0.0176452528685331,0.00139017659239471,0,
00:00:03.504,0.000132604196551256,0.0058025848120451,-0.00388818536885083,0,
00:00:03.508,-0.00623090518638492,0.0126707525923848,-0.013303879648447,0,
00:00:03.512,-0.0211725942790508,-0.00711449980735779,0.00705829774960876,0,
00:00:03.516,-0.0316461063921452,-0.0268948450684547,0.00459904642775655,0,
00:00:03.52,0.0253249406814575,0.00245039351284504,0.0363420248031616,0,
00:00:03.524,0.015535400249064,-0.0170304272323847,-0.0118600577116013,0,
00:00:03.528,0.0358586609363556,0.0588145554065704,-0.0491194501519203,0,
00:00:03.532,0.00447307666763663,0.0161476247012615,-0.0135784652084112,0,
00:00:03.536,-0.023151271045208,-0.0245458763092756,0.0174514167010784,0,
00:00:03.54,-0.0171951781958342,-0.00477353530004621,0.017657395452261,0,
00:00:03.544,0.00411940366029739,0.00295592774637043,0.00609863875433803,0,
00:00:03.548,-0.0138837592676282,-0.0147883919999003,0.0161717925220728,0,
00:00:03.552,-0.0194469653069973,-0.0237847622483969,0.0168054345995188,0,
00:00:03.556,0.0223600044846535,0.00636723916977644,-0.00952036958187819,0,
00:00:03.56,0.0266222320497036,0.0179036501795053,-0.0406788848340511,0,
00:00:03.564,0.00618998752906919,0.0103596318513155,-0.0277870707213879,0,
00:00:03.568,-0.0245998743921518,-0.0140189910307527,0.00626503909006715,0,
00:00:03.572,-0.00238937209360301,-0.0138687649741769,0.0396633110940456,0,
00:00:03.576,0.00646272022277117,0.0425993166863918,0.00765501381829381,0,
00:00:03.58,0.00587900681421161,0.0153633588925004,0.00308471266180277,0,
00:00:03.584,-0.00886952970176935,-0.0165542121976614,-0.00248036766424775,0,
00:00:03.588,0.00543607352301478,-0.0187448039650917,-0.0203743558377028,0,
00:00:03.592,0.0146137159317732,0.00473129004240036,-0.0170788206160069,0,
00:00:03.596,-0.0293070487678051,-0.0309578943997622,0.0251034516841173,0,
00:00:03.6,-0.0254803393036127,-0.0410234592854977,0.0278224013745785,0,
00:00:03.604,0.0353356152772903,0.0310503430664539,-0.0082272756844759,0,
00:00:03.608,0.0197271928191185,0.0561922341585159,-0.0399773791432381,0,
00:00:03.612,0.000766386045143008,0.0278181973844767,0.00777319865301251,0,
00:00:03.616,-0.00168435124214739,-0.0085112489759922,-0.00773143768310547,0,
00:00:03.62,-0.0231403298676014,-0.0225638970732689,0.0185295064002275,0,
00:00:03.624,-0.0110081024467945,-0.0244803596287966,-0.0111863669008017,0,
00:00:03.628,-3.02550633932697E-05,-0.0355164855718613,0.0355229936540127,0,
00:00:03.632,0.0168589279055595,0.0180750526487827,0.00924688670784235,0,
00:00:03.636,0.00411406299099326,0.0198304653167725,-0.014085728675127,0,
00:00:03.64,-0.0108185261487961,-0.00893255975097418,-0.0228436198085546,0,
00:00:03.644,0.0125181674957275,0.0324993431568146,-0.0328228808939457,0,
00:00:03.648,0.000899412087164819,-0.0034780700225383,-0.00211179186590016,0,
00:00:03.652,0.00921979732811451,-0.0184599328786135,0.0442595519125462,0,
00:00:03.656,-0.015142809599638,0.00972812063992023,0.0075274589471519,0,
00:00:03.66,-0.0178073141723871,-0.0132722640410066,0.00507312919944525,0,
00:00:03.664,0.0130393607541919,0.00318365008570254,0.00237541436217725,0,
00:00:03.668,0.0111563503742218,0.01402338873595,-0.0147950742393732,0,
00:00:03.672,-0.00687489658594131,-0.0365468598902225,-0.00679360330104828,0,
00:00:03.676,-0.0283100549131632,-0.0113447876647115,-0.00415806006640196,0,
00:00:03.68,0.0260332357138395,0.0587776750326157,-0.0120456032454967,0,
00:00:03.684,0.0135121550410986,0.00913901347666979,-0.00170124066062272,0,
00:00:03.688,0.0207583624869585,-0.00226535741239786,0.00803864281624556,0,
00:00:03.692,0.00229234434664249,-0.0175799336284399,0.0190253295004368,0,
00:00:03.696,-0.0513018146157265,-0.0365790650248528,0.00366319017484784,0,
00:00:03.7,-0.00766274472698569,-0.0040102400816977,0.00596199510619044,0,
00:00:03.704,-0.007256212644279,-0.00411941716447473,0.0109902368858457,0,
00:00:03.708,0.0190047137439251,0.0100058615207672,-0.0130167743191123,0,
00:00:03.712,0.0385229103267193,0.042216707020998,-0.0385710671544075,0,
00:00:03.716,-0.0168070457875729,0.032140240073204,-0.00985651090741158,0,
00:00:03.72,-0.0127490069717169,-0.0263803731650114,0.0163839869201183,0,
00:00:03.724,0.0158730503171682,-0.0420785769820213,0.0149458479136229,0,
00:00:03.728,-0.0141225131228566,-0.0034874074626714,0.0144123854115605,0,
00:00:03.732,-0.0057277949526906,0.0268008057028055,0.00158214895054698,0,
00:00:03.736,0.0242248065769672,0.0131894974038005,-0.0199942253530025,0,
00:00:03.74,-0.0256211496889591,-0.0444411523640156,0.0214847568422556,0,
00:00:03.744,-0.0229172762483358,-0.0191679392009974,0.00544637255370617,0,
00:00:03.748,0.028256855905056,0.0348479561507702,-0.0297361575067043,0,
00:00:03.752,0.024958461523056,0.0452669151127338,-0.00790768396109343,0,
00:00:03.756,0.0115092732012272,0.00901744049042463,0.000562085071578622,0,
00:00:03.76,-0.0325538031756878,-0.0392617620527744,0.0187168288975954,0,
00:00:03.764,-0.0243301093578339,-0.0163832232356071,0.00182012852746993,0,
00:00:03.768,0.00753510510548949,-0.00997145567089319,-0.0147324996069074,0,
00:00:03.772,0.0104251923039556,-0.00347647094167769,0.0142529960721731,0,
00:00:03.776,0.0114087387919426,0.00982256606221199,0.036607351154089,0,
00:00:03.78,0.0132682081311941,0.0208786986768246,-0.0419112630188465,0,
00:00:03.784,-0.0115784211084247,0.0149665605276823,-0.0301652811467648,0,
00:00:03.788,-0.00946381967514753,-0.00172908906824887,0.015182226896286,0,
00:00:03.792,-0.00578764453530312,-0.0181399472057819,0.0241342931985855,0,
00:00:03.796,0.0155261596664786,-0.00840581394731998,0.00754209747537971,0,
00:00:03.8,0.00129483279306442,-0.00166270497720689,-0.0152254151180387,0,
00:00:03.804,-0.0229984745383263,-0.0101930238306522,-0.00536058098077774,0,
00:00:03.808,0.00700702518224716,0.0070555629208684,0.00525412335991859,0,
00:00:03.812,0.0203917920589447,0.0371834225952625,-0.00472524110227823,0,
00:00:03.816,-0.00590666476637125,-0.0151614975184202,0.00959112960845232,0,
00:00:03.82,-0.0307665653526783,-0.0283286795020103,0.00202952697873116,0,
00:00:03.824,0.000253437523497269,0.00636374298483133,-0.00959349889308214,0,
00:00:03.828,0.0291199460625649,0.0318452753126621,-0.00280784186907113,0,
00:00:03.832,0.025508277118206,0.0125842401757836,-0.00851518381386995,0,
00:00:03.836,-0.00335935107432306,-0.0137861957773566,0.0193952154368162,0,
00:00:03.84,-0.0269592609256506,-0.0584747120738029,0.00673558004200459,0,
00:00:03.844,-0.028760289773345,-0.0202343482524157,0.00499489391222596,0,
00:00:03.848,0.00343532906845212,0.0371997393667698,-0.0149380210787058,0,
00:00:03.852,0.0269008800387383,0.0425443798303604,-0.0121729206293821,0,
00:00:03.856,-0.00131339952349663,0.0167289115488529,-0.00893151760101318,0,
00:00:03.86,0.00613359641283751,0.000135508336825296,8.19181077531539E-05,0,
00:00:03.864,0.0127454092726111,-0.0291287004947662,0.0256664529442787,0,
00:00:03.868,-0.00636536115780473,-0.0254444256424904,0.0242051407694817,0,
00:00:03.872,-0.0170105062425137,-0.000568258634302765,-0.0275869127362967,0,
00:00:03.876,-0.00357686472125351,0.00835939683020115,-0.0187445059418678,0,
00:00:03.88,-0.0117168808355927,0.0187031477689743,-0.00524015491828322,0,
00:00:03.884,0.013706891797483,-0.0198460295796394,0.0529872812330723,0,
00:00:03.888,-0.00694767432287335,0.00209237285889685,-0.00493577774614096,0,
00:00:03.892,0.0182514693588018,0.0170074235647917,-0.0491358451545238,0,
00:00:03.896,0.00847977492958307,-0.00153741170652211,-0.0141213173046708,0,
00:00:03.9,-0.00480441935360432,-0.011540743522346,0.0237471722066402,0,
00:00:03.904,-0.00818794220685959,0.00467802677303553,0.0285530034452677,0,
00:00:03.908,-0.00784344039857388,0.00663774134591222,-0.00228289258666337,0,
00:00:03.912,0.00244129844941199,0.00238064164295793,-0.0119151789695024,0,
00:00:03.916,-0.000857704726513475,-0.00424461485818028,-0.00513998419046402,0,
00:00:03.92,0.0115214856341481,-0.00227431068196893,-0.0107358591631055,0,
00:00:03.924,-0.00301343761384487,-0.010382829234004,0.0137414298951626,0,
00:00:03.928,-0.018006494268775,-0.0248655453324318,0.0184831600636244,0,
00:00:03.932,0.0027028676122427,0.012635069899261,-0.0180048681795597,0,
00:00:03.936,0.0265225358307362,0.0368690229952335,0.00766740925610065,0,
00:00:03.94,-0.00378148443996906,0.0154806356877089,0.00339763564988971,0,
00:00:03.944,-0.010593262501061,-0.01888233050704,-0.0299109723418951,0,
00:00:03.948,-0.0171717032790184,-0.0213244594633579,-0.00518674217164516,0,
00:00:03.952,0.0131730558350682,-0.00372176105156541,0.0129014225676656,0,
00:00:03.956,0.00100085767917335,0.00238397717475891,0.0287353731691837,0,
00:00:03.96,0.0114144645631313,0.018297141417861,-0.0169143788516521,0,
00:00:03.964,0.002969577210024,0.0143029429018497,0.00208549434319139,0,
00:00:03.968,-0.0117400987073779,-0.0331826321780682,-0.00191242375876755,0,
00:00:03.972,-0.00203632400371134,-0.0138866472989321,-0.00817057490348816,0,
00:00:03.976,-0.000410017964895815,0.0206939782947302,0.0114025808870792,0,
00:00:03.98,-0.00874214619398117,0.00690634874626994,0.00757354404777288,0,
00:00:03.984,-0.000593320990446955,-0.00555354123935103,-0.00955287832766771,0,
00:00:03.988,0.0127573553472757,0.00845500081777573,-0.0152160506695509,0,
00:00:03.992,0.0142113203182817,-0.000910278467927128,-0.00499822432175279,0,
00:00:03.996,-0.0123810041695833,-0.0226916577666998,0.0279965437948704,0,
00:00:04,-0.0061871400102973,0.0289668459445238,-0.00221591582521796,0,
00:00:04.004,-0.00534030143171549,-0.000334323121933267,-0.00403957953676581,0,
00:00:04.008,0.00757960928604007,-0.00524558639153838,-0.010690544731915,0,
00:00:04.012,0.0179994385689497,0.0113720325753093,-0.00327260536141694,0,
00:00:04.016,-0.0240451749414206,-0.0499999411404133,0.0225718505680561,0,
00:00:04.02,-0.0114221423864365,-0.00702957576140761,-0.0136911123991013,0,
00:00:04.024,0.0235954951494932,0.0540660321712494,-0.0105725787580013,0,
00:00:04.028,-0.00578433321788907,4.49301951448433E-05,0.00089353701332584,0,
00:00:04.032,-0.0071070222184062,-0.0215983483940363,0.0346031300723553,0,
00:00:04.036,0.0181374307721853,0.00513172708451748,-0.0161140151321888,0,
00:00:04.04,0.00939678959548473,0.018297677859664,-0.017844220623374,0,
00:00:04.044,-0.00857715774327517,0.00489666219800711,-0.000674035167321563,0,
00:00:04.048,-0.023900531232357,-0.0168107505887747,-0.00021073390962556,0,
00:00:04.052,-0.0219690296798944,-0.0028274345677346,0.00142431329004467,0,
00:00:04.056,0.0429644212126732,-0.029454069212079,0.023810051381588,0,
00:00:04.06,0.0154131865128875,-0.000423501624027267,-0.00582151720300317,0,
00:00:04.064,-0.0283886939287186,0.00979056023061275,0.00556202791631222,0,
00:00:04.068,-0.0188923683017492,0.0251463502645493,0.00734512275084853,0,
00:00:04.072,0.013761829584837,0.0162669140845537,-0.0319495834410191,0,
00:00:04.076,0.00760658783838153,0.00717784976586699,-0.0136573603376746,0,
00:00:04.08,0.0248582139611244,-0.0114012751728296,0.000595068617258221,0,
00:00:04.084,-0.00380497681908309,-0.0250820014625788,0.0107859214767814,0,
00:00:04.088,-0.0141498083248734,-0.0206776037812233,0.0352767184376717,0,
00:00:04.092,-0.0159827042371035,-0.0101777883246541,-0.00138674466870725,0,
00:00:04.096,-0.00462537026032805,0.0323242321610451,-0.0220877416431904,0,
00:00:04.1,0.00731601612642407,0.0181116536259651,-0.00405403366312385,0,
00:00:04.104,0.0107870018109679,0.00761310337111354,0.00588851748034358,0,
00:00:04.108,-0.00742341438308358,-0.0118889501318336,0.000353165349224582,0,
00:00:04.112,0.016927145421505,0.0109796542674303,-0.0124612553045154,0,
00:00:04.116,-0.000223437178647146,-0.0163897704333067,-0.000276978156762198,0,
00:00:04.12,-0.00772597873583436,-0.0350388661026955,0.0343392081558704,0,
00:00:04.124,-0.0136470170691609,-0.0148242898285389,-0.00537124928086996,0,
00:00:04.128,-0.00367400981485844,0.0344287231564522,-0.0271565597504377,0,
00:00:04.132,0.0219722669571638,0.0518114008009434,-0.0188298281282187,0,
00:00:04.136,-0.0243109501898289,-0.00162933499086648,0.00687270704656839,0,
00:00:04.14,0.0311267394572496,-0.0283569358289242,0.0240658801048994,0,
00:00:04.144,-0.006638721562922,-0.0336100645363331,0.0317084975540638,0,
00:00:04.148,0.00264318566769362,0.00226843077689409,-0.0234101582318544,0,
00:00:04.152,-0.0170759186148643,0.0155152110382915,-0.0157761070877314,0,
00:00:04.156,-0.0221544615924358,0.0133426385000348,0.00338086346164346,0,
00:00:04.16,0.00769343879073858,0.000804448674898595,0.00103443011175841,0,
00:00:04.164,0.0387024767696857,-0.00278231943957508,-0.0050659766420722,0,
00:00:04.168,0.000203607327421196,-0.0050114905461669,0.00489509152248502,0,
00:00:04.172,-0.0183362551033497,-0.0394810922443867,0.0114185912534595,0,
00:00:04.176,-0.0107413828372955,0.0277875084429979,-0.0146353226155043,0,
00:00:04.18,-0.00147132202982903,0.0534284003078938,-0.0153756150975823,0,
00:00:04.184,0.0231534466147423,-0.0197107810527086,0.00997691042721272,0,
00:00:04.188,0.00885904859751463,-0.0308827571570873,0.00673945154994726,0,
00:00:04.192,-0.0221578665077686,-0.00749362725764513,0.00608422048389912,0,
00:00:04.196,-0.00603056466206908,0.0149199590086937,0.0223359484225512,0,
00:00:04.2,0.00950629636645317,0.00826478842645884,-0.0154638150706887,0,
00:00:04.204,0.00169699126854539,-0.0206495858728886,-0.0149706723168492,0,
00:00:04.208,-0.0199848059564829,-0.0116472616791725,0.00203587021678686,0,
00:00:04.212,-0.00884491670876741,-6.06837966188323E-06,-0.0082070454955101,0,
00:00:04.216,0.02706896699965,0.0540126748383045,0.00297420495189726,0,
00:00:04.22,0.00605928665027022,0.00877046305686235,0.012317581102252,0,
00:00:04.224,0.0122378505766392,-0.0280909333378077,-0.00146664131898433,0,
00:00:04.228,-0.00318722566589713,-0.00859858375042677,-0.00982808042317629,0,
00:00:04.232,-0.0112853888422251,-0.00556570012122393,-0.00403286935761571,0,
00:00:04.236,-0.0209239348769188,-0.0124710369855165,0.0216012243181467,0,
00:00:04.24,0.00910774152725935,0.000358394521754235,-0.0035641745198518,0,
00:00:04.244,0.0134949553757906,0.00179853267036378,0.000871745985932648,0,
00:00:04.248,-0.0164718478918076,0.0106053166091442,-0.00950541999191046,0,
00:00:04.252,-0.00512274680659175,-0.0087269376963377,-0.00180028239265084,0,
00:00:04.256,0.0458101257681847,0.0303760748356581,0.00874334014952183,0,
00:00:04.26,-0.021409360691905,0.0199315845966339,-0.0195391457527876,0,
00:00:04.264,-0.0511868484318256,-0.019191725179553,-0.0023139005061239,0,
00:00:04.268,0.0167659763246775,-0.0282717365771532,0.0134159801527858,0,
00:00:04.272,0.0228035002946854,-0.0192724335938692,0.0173791777342558,0,
00:00:04.276,0.0284185204654932,0.00948240514844656,-0.00702952081337571,0,
00:00:04.28,0.0173898674547672,0.0207951869815588,0.0266673415899277,0,
00:00:04.284,-0.0322215929627419,0.0158512983471155,-0.0409915819764137,0,
00:00:04.288,-0.0144487740471959,-2.48973265115637E-05,-0.0308548249304295,0,
00:00:04.292,-0.0288879089057446,-0.022526478394866,0.0133282896131277,0,
00:00:04.296,-0.00401761988177896,0.00508269527927041,0.0319383107125759,0,
00:00:04.3,0.0358375497162342,-0.0145556563511491,0.0159028340131044,0,
00:00:04.304,0.00198678532615304,-0.00698059191927314,0.000698013231158257,0,
00:00:04.308,0.0051500229164958,0.0256799384951591,-0.0316102132201195,0,
00:00:04.312,0.000171567749930546,0.00150669366121292,-0.0142070585861802,0,
00:00:04.316,0.0167625471949577,0.0165933426469564,0.0379485301673412,0,
00:00:04.32,-0.0120304310694337,-0.00381912407465279,-0.0164109542965889,0,
00:00:04.324,-0.0186959728598595,-0.0177535321563482,-0.0129012363031507,0,
00:00:04.328,0.00940851401537657,-0.0103200068697333,0.00630095927044749,0,
00:00:04.332,-0.0305663645267487,-0.0122965266928077,0.0022242502309382,0,
00:00:04.336,0.0066526778973639,0.0157191883772612,0.00577548751607537,0,
00:00:04.34,0.0237014479935169,0.0200487654656172,-0.0022433849517256,0,
00:00:04.344,-0.00131282769143581,-0.0148279536515474,0.0105874380096793,0,
00:00:04.348,0.00440374342724681,-0.00148600048851222,-0.00731886690482497,0,
00:00:04.352,0.00834968686103821,0.00259478180669248,-0.00171929923817515,0,
00:00:04.356,-0.00761020695790648,0.00211313203908503,0.0143858678638935,0,
00:00:04.36,-0.0107422657310963,-0.0121153341606259,0.00475598638877273,0,
00:00:04.364,-0.0041105723939836,0.00880527216941118,-0.0150592643767595,0,
00:00:04.368,0.0188413131982088,0.0209044422954321,-0.030200133100152,0,
00:00:04.372,-0.023511216044426,-0.0059882290661335,-0.0115411328151822,0,
00:00:04.376,0.0149737922474742,-0.0215250123292208,0.0195721331983805,0,
00:00:04.38,0.0166060477495193,0.00496787717565894,0.0251705180853605,0,
00:00:04.384,-0.0165157075971365,-0.00536044733598828,0.00215489626862109,0,
00:00:04.388,-0.0288456100970507,-0.0133499968796968,0.0081016244366765,0,
00:00:04.392,0.0155651513487101,0.0203849226236343,0.00898582022637129,0,
00:00:04.396,0.0221588239073753,0.028283329680562,-0.0272042639553547,0,
00:00:04.4,0.00670609157532454,0.00234794546850026,-0.0226283762603998,0,
00:00:04.404,-0.00902209430932999,-0.0316501781344414,0.0242470689117908,0,
00:00:04.408,-0.0529077164828777,-0.0600896701216698,0.0315111950039864,0,
00:00:04.412,0.0351168848574162,0.0350314378738403,-0.0399007648229599,0,
00:00:04.416,0.034813042730093,0.0577195435762405,-0.043089721351862,0,
00:00:04.42,0.0037880465388298,0.0129389539361,0.0212170984596014,0,
00:00:04.424,-0.0239907503128052,-0.00919203273952007,0.0604685246944427,0,
00:00:04.428,-0.0272770617157221,-0.0353230573236942,0.00650639366358519,0,
00:00:04.432,0.00122179766185582,-0.0466750785708427,-0.0321758314967155,0,
00:00:04.436,0.00233439123257995,0.0041438601911068,-0.00846372451633215,0,
00:00:04.44,0.0217119604349136,0.0451924167573452,-0.0252969190478325,0,
00:00:04.444,0.0281168296933174,0.019858255982399,0.01454171910882,0,
00:00:04.448,-0.0035623493604362,0.0187258329242468,0.0241745486855507,0,
00:00:04.452,-0.0299466829746962,-0.0360543616116047,-0.00216985703445971,0,
00:00:04.456,-0.0335650891065598,-0.0364822186529636,-0.00104744557756931,0,
00:00:04.46,0.0172750875353813,0.0223933216184378,-0.0122855985537171,0,
00:00:04.464,0.0306521337479353,0.0408709980547428,-0.0177387949079275,0,
00:00:04.468,0.0107271792367101,0.00414830027148128,0.0210458058863878,0,
00:00:04.472,-0.0269234664738178,-0.0776653066277504,0.0247907713055611,0,
00:00:04.476,-0.0137585829943419,-0.000697697745636106,-0.00231812195852399,0,
00:00:04.48,0.0153824267908931,0.0439916960895061,-0.0316047817468643,0,
00:00:04.484,0.0073859472759068,0.0217795614153147,0.00182353367563337,0,
00:00:04.488,-0.00589130260050297,0.00440768478438258,-0.00125554541591555,0,
00:00:04.492,0.0130858803167939,0.00135235069319606,-0.00544464634731412,0,
00:00:04.496,-0.022940119728446,-0.0335393399000168,0.00920288451015949,0,
00:00:04.5,-0.00817325338721275,-0.0290961563587189,0.00897448323667049,0,
00:00:04.504,0.0219929628074169,-0.00150198047049344,0.0492332689464092,0,
00:00:04.508,0.00929453130811453,0.0137127377092838,-0.00739967124536633,0,
00:00:04.512,0.0083707170560956,0.0498699583113194,-0.0834181904792786,0,
00:00:04.516,-0.0169758256524801,0.0193560216575861,-0.00781237101182342,0,
00:00:04.52,-0.0312834419310093,-0.0101371202617884,0.015346409752965,0,
00:00:04.524,0.00987470149993896,-0.0441092848777771,0.0147413602098823,0,
00:00:04.528,0.0427020601928234,-0.0215892232954502,0.0275609865784645,0,
00:00:04.532,0.0117533169686794,0.00370251294225454,0.0215839464217424,0,
00:00:04.536,-0.0551815070211887,0.0120931435376406,0.00504020135849714,0,
00:00:04.54,-0.027841042727232,0.0193230491131544,-0.0139565747231245,0,
00:00:04.544,0.0211911499500275,-0.00393700134009123,-0.0308399964123964,0,
00:00:04.548,0.0333549343049526,-0.00354214222170413,-0.0176839902997017,0,
00:00:04.552,0.0313831605017185,0.0135221024975181,-0.00553747313097119,0,
00:00:04.556,-0.0184161998331547,-0.000463386531919241,0.0217681340873241,0,
00:00:04.56,-0.0244740024209023,-0.0094250813126564,0.0138762462884188,0,
00:00:04.564,-0.00850516930222511,-0.0094819450750947,0.00500971544533968,0,
00:00:04.568,-0.0137217873707414,-0.00628274120390415,-0.0120642185211182,0,
00:00:04.572,0.0164998378604651,0.015962652862072,-0.00311464047990739,0,
00:00:04.576,0.0161989256739616,-0.0034242682158947,0.0179322604089975,0,
00:00:04.58,0.0118581466376781,-0.0089446222409606,0.0261423047631979,0,
00:00:04.584,-0.0115855550393462,0.0116806849837303,-0.0363720692694187,0,
00:00:04.588,-0.0163879618048668,0.0169374570250511,-0.0459384396672249,0,
00:00:04.592,0.01774787530303,0.0190882440656424,-0.000713935529347509,0,
00:00:04.596,0.00609256234019995,-0.0274447929114103,0.034638699144125,0,
00:00:04.6,-0.0356563739478588,-0.0568262338638306,0.0328109636902809,0,
00:00:04.604,-0.0246235299855471,-0.0137102557346225,0.0649494081735611,0,
00:00:04.608,0.0342689417302608,0.0422113686800003,-0.0537997223436832,0,
00:00:04.612,0.0328760668635368,0.0604888461530209,-0.0883193835616112,0,
00:00:04.616,0.00626218598335981,0.00762795750051737,-0.0104176122695208,0,
00:00:04.62,-0.0135158449411392,-0.0215093623846769,0.0284049529582262,0,
00:00:04.624,-0.0283873025327921,-0.0350202806293964,0.0340333580970764,0,
00:00:04.628,0.00260378187522292,-0.0258134119212627,0.0271040666848421,0,
00:00:04.632,0.0213075969368219,0.00624423148110509,-0.00224736472591758,0,
00:00:04.636,-0.000262838875642046,0.0212340634316206,0.00988090224564075,0,
00:00:04.64,-0.017400823533535,0.0143334828317165,-0.0273958127945662,0,
00:00:04.644,-0.0105274999514222,-0.0118419956415892,-0.0152942854911089,0,
00:00:04.648,0.0178515575826168,0.00249988678842783,0.0105493888258934,0,
00:00:04.652,0.000860349740833044,0.0291228108108044,-0.0227773133665323,0,
00:00:04.656,0.000301847234368324,-0.0183757282793522,0.0106609677895904,0,
00:00:04.66,-0.0146731557324529,-0.0379446409642696,0.0221625342965126,0,
00:00:04.664,0.00299836881458759,0.00140979164279997,0.00447559170424938,0,
00:00:04.668,0.0229106396436691,0.0192726291716099,-0.0140826180577278,0,
00:00:04.672,0.000826156639959663,-0.00284293340519071,-0.0107739362865686,0,
00:00:04.676,0.00321383960545063,0.0312051102519035,-0.0142306294292212,0,
00:00:04.68,-0.0106194950640202,0.0217771045863628,-0.000157021029735915,0,
00:00:04.684,-0.0134363574907184,-0.0197030548006296,0.0442219413816929,0,
00:00:04.688,0.00482061551883817,-0.0266169924288988,0.000201887989533134,0,
00:00:04.692,-0.0114749427884817,-0.0343640670180321,-0.008706234395504,0,
00:00:04.696,0.0228506606072187,-0.0064399866387248,-0.0167964268475771,0,
00:00:04.7,-0.0427609607577324,0.00280700041912496,0.0133281284943223,0,
00:00:04.704,0.014317118562758,0.0440467670559883,0.00365506228990853,0,
00:00:04.708,0.0361396297812462,0.0554805472493172,-0.0332078598439693,0,
00:00:04.712,0.0194954108446836,-0.00179833674337715,-0.0102199343964458,0,
00:00:04.716,-0.0139456307515502,-0.0406359620392323,0.00811963342130184,0,
00:00:04.72,-0.0256260465830565,-0.0506193786859512,0.0276727061718702,0,
00:00:04.724,-0.0163123030215502,-0.0313312187790871,0.0484852567315102,0,
00:00:04.728,0.0127595346421003,0.0493874400854111,-0.0186794176697731,0,
00:00:04.732,-0.00354973808862269,0.0498866438865662,-0.0488574132323265,0,
00:00:04.736,0.0117339612916112,-0.00247117225080729,-0.0168524906039238,0,
00:00:04.74,-0.000886148132849485,-0.0354920029640198,-0.0112029295414686,0,
00:00:04.744,0.0115555543452501,-0.0169383157044649,0.036671556532383,0,
00:00:04.748,-0.0148677313700318,0.00556340999901295,0.0433315858244896,0,
00:00:04.752,-0.00830917805433273,0.0255267508327961,-0.00193365756422281,0,
00:00:04.756,0.0215966962277889,0.0147806387394667,-0.026614747941494,0,
00:00:04.76,0.0048719379119575,-0.0122305173426867,-0.0322596058249474,0,
00:00:04.764,-0.0364162549376488,-0.0371867008507252,0.00685604522004724,0,
00:00:04.768,0.0153797566890717,0.0147541388869286,-0.00108093081507832,0,
00:00:04.772,0.0206632502377033,0.00624085264280438,0.00908906199038029,0,
00:00:04.776,-0.0130590163171291,-0.0086635947227478,0.038524366915226,0,
00:00:04.78,0.00806781277060509,0.0328673832118511,-0.0163794159889221,0,
00:00:04.784,-0.00547710480168462,-0.000960629200562835,-0.0204473026096821,0,
00:00:04.788,-0.00995638594031334,-0.0306631531566381,-0.00560420285910368,0,
00:00:04.792,-0.00227475864812732,-0.000970912864431739,0.00413954071700573,0,
00:00:04.796,-0.0124277556315064,0.0141182532534003,0.00703500118106604,0,
00:00:04.8,0.0297854598611593,0.0151455095037818,-0.0239670444279909,0,
00:00:04.804,0.00040165294194594,-0.00207964610308409,0.0540180914103985,0,
00:00:04.808,-0.0385507643222809,-0.0707989037036896,0.0123715391382575,0,
00:00:04.812,0.0012809376930818,0.007874745875597,0.00165878073312342,0,
00:00:04.816,0.0679424405097961,0.0827078223228455,-0.0736034139990807,0,
00:00:04.82,0.0111113088205457,0.0271403472870588,-0.0370892435312271,0,
00:00:04.824,-0.0360987968742847,-0.0418117493391037,0.0322719663381577,0,
00:00:04.828,-0.0289623588323593,-0.0200622268021107,0.0330161042511463,0,
00:00:04.832,-0.0449873767793179,-0.0118642505258322,0.0386827401816845,0,
00:00:04.836,0.0331954695284367,-0.0443991981446743,0.000820818298961967,0,
00:00:04.84,0.0540671125054359,0.0265774019062519,-0.0459046512842178,0,
00:00:04.844,-0.00668363785371184,0.0403150320053101,0.00925634615123272,0,
00:00:04.848,-0.0294788368046284,0.000453817017842084,0.0326307006180286,0,
00:00:04.852,0.00646483944728971,0.0114415232092142,-0.0319005250930786,0,
00:00:04.856,0.0074441647157073,0.00912969373166561,-0.0249735880643129,0,
00:00:04.86,-0.0126162357628345,-0.0260072648525238,-0.0137563152238727,0,
00:00:04.864,-0.00155252870172262,-0.0238315053284168,0.0238488093018532,0,
00:00:04.868,0.00634751003235579,-0.0118859577924013,0.0214842762798071,0,
00:00:04.872,0.00085837219376117,0.0208276398479939,0.0071393963880837,0,
00:00:04.876,0.00504454597830772,0.0285747535526752,-0.00239764479920268,0,
00:00:04.88,0.00769593007862568,-0.00674736592918634,-0.00854239240288734,0,
00:00:04.884,-0.00822134781628847,-0.0299062971025705,-0.00202204147353768,0,
00:00:04.888,-0.0105745596811175,0.018525667488575,-0.00160371675156057,0,
00:00:04.892,-0.00323735969141126,0.0175617653876543,0.0127529557794333,0,
00:00:04.896,0.0137016847729683,-0.0185824856162071,-0.010820284485817,0,
00:00:04.9,-0.0084506394341588,-0.0208392757922411,-0.0175800584256649,0,
00:00:04.904,0.0102838883176446,0.0069910055026412,-0.00174109719227999,0,
00:00:04.908,-0.0165724009275436,0.00886445492506027,-0.00416687550023198,0,
00:00:04.912,-0.0114851901307702,0.0142570231109858,0.0280079618096352,0,
00:00:04.916,0.0327621586620808,0.00448552146553993,0.00372511404566467,0,
00:00:04.92,0.0386537462472916,-0.00690337782725692,-0.00131806277204305,0,
00:00:04.924,-0.0294825453311205,4.04538513976149E-05,0.010826694779098,0,
00:00:04.928,-0.0525425188243389,-0.0187827963382006,-0.0114567540585995,0,
00:00:04.932,0.0099668363109231,0.00320171099156141,-0.0158693213015795,0,
00:00:04.936,0.0163775011897087,0.00265312939882278,0.00139061058871448,0,
00:00:04.94,-0.00958359334617853,-0.0151639487594366,-0.00322284083813429,0,
00:00:04.944,0.0292716342955828,0.0188489463180304,-0.00969211757183075,0,
00:00:04.948,0.0102331321686506,0.0246017668396235,-0.00451241061091423,0,
00:00:04.952,-0.0239237528294325,-0.00276317331008613,0.0474184118211269,0,
00:00:04.956,-0.00632322020828724,-0.00931692216545343,-0.00758136482909322,0,
00:00:04.96,0.012428698129952,-0.00968287978321314,-0.00755694974213839,0,
00:00:04.964,0.000432251981692389,-0.0143035249784589,-0.00533570675179362,0,
00:00:04.968,-0.021727042272687,-0.00801265612244606,0.00741883367300034,0,
00:00:04.972,-0.00775918317958713,0.0015057495329529,-0.0193304307758808,0,
00:00:04.976,0.0332031771540642,0.0141527028754354,-0.0170002076774836,0,
00:00:04.98,0.0133524490520358,0.0218311361968517,0.0114383334293962,0,
00:00:04.984,-0.0121027510613203,0.0125826941803098,0.00957822613418102,0,
00:00:04.988,-0.00162453623488545,-0.0077101425267756,0.0106304120272398,0,
00:00:04.992,-0.0268562454730272,-0.0341290272772312,0.0111710941419005,0,
00:00:04.996,0.00732843205332756,-0.00099589885212481,0.00514049222692847,0,
00:00:05,0.0129030700773001,0.0116131436079741,-0.0112917311489582,0,
00:00:05.004,-0.00371473911218345,-0.00629344489425421,-0.0314840599894524,0,
00:00:05.008,-0.00549719575792551,-0.0222623609006405,0.00452342396602035,0,
00:00:05.012,0.000560630927793682,0.0271012969315052,0.0120734889060259,0,
00:00:05.016,-0.00163571571465582,0.0319413542747498,0.00985884945839643,0,
00:00:05.02,0.0125625794753432,-0.0031522901263088,-0.0109630497172475,0,
00:00:05.024,0.0153778390958905,-0.00793712213635445,-0.0110056130215526,0,
00:00:05.028,-0.0179007239639759,-0.0201657433062792,0.0120749799534678,0,
00:00:05.032,-0.00305108400061727,-0.0333614684641361,0.0517344027757645,0,
00:00:05.036,0.0018092030659318,0.0169785656034946,-0.0376025438308716,0,
00:00:05.04,-0.00878158397972584,0.0212925486266613,-0.0327130146324635,0,
00:00:05.044,-0.00474418746307492,0.0179576799273491,-0.00453148502856493,0,
00:00:05.048,0.0124247474595904,-0.00136035575997084,0.0105823781341314,0,
00:00:05.052,0.00632146932184696,-0.00690589379519224,0.0197573713958263,0,
00:00:05.056,-0.00418741442263126,-0.0190755445510149,0.0155151458457112,0,
00:00:05.06,0.00880808755755425,-0.00487479148432612,-0.00195825099945068,0,
00:00:05.064,-0.0103749856352806,-0.00291032763198018,-0.0102182626724243,0,
00:00:05.068,-6.78965297993273E-05,0.0159858632832766,0.000516766798682511,0,
00:00:05.072,0.00565482536330819,-0.000560826389119029,-0.0148335667327046,0,
00:00:05.076,-0.0162513144314289,-0.00524143176153302,-0.0162405129522085,0,
00:00:05.08,-0.0237090084701777,0.00733917392790318,0.00825783237814903,0,
00:00:05.084,0.0335424691438675,0.0159159395843744,0.0143946250900626,0,
00:00:05.088,0.0117320688441396,-0.0119274510070682,0.0222048070281744,0,
00:00:05.092,-0.00226252223365009,-0.00994918309152126,-0.0118675976991653,0,
00:00:05.096,0.00312449410557747,0.0109990127384663,-0.0218180119991302,0,
00:00:05.1,-0.00957933627068996,-0.00793778989464045,0.0113261202350259,0,
00:00:05.104,-0.0100100701674819,-0.0261253416538239,0.00965924561023712,0,
00:00:05.108,0.0019569480791688,0.00838491413742304,0.0104022501036525,0,
00:00:05.112,0.00831097457557917,0.0327243357896805,-0.0158840212970972,0,
00:00:05.116,-0.00352988508529961,0.0155866527929902,-0.0248713195323944,0,
00:00:05.12,-0.00515784742310643,-0.0349489375948906,0.00593367777764797,0,
00:00:05.124,0.00633269129320979,0.00308383302763104,0.00264848861843348,0,
00:00:05.128,0.00616050465032458,0.00799530278891325,0.00618880987167358,0,
00:00:05.132,-0.0026152019854635,-0.0124727915972471,0.00948965921998024,0,
00:00:05.136,0.00138552370481193,0.0144831156358123,0.0280130635946989,0,
00:00:05.14,-0.0153440665453672,-0.0224663037806749,-0.00542120123282075,0,
00:00:05.144,-0.0098548661917448,-0.0108544016256928,-0.0249519813805819,0,
00:00:05.148,0.0053507243283093,0.0258912723511457,-0.00800320599228144,0,
00:00:05.152,0.0273015927523375,0.0244804359972477,-0.0115805491805077,0,
00:00:05.156,0.0133940940722823,-0.00930245500057936,0.00334578892216086,0,
00:00:05.16,-0.0318934321403503,-0.034152016043663,0.0148271545767784,0,
00:00:05.164,-0.00499294837936759,0.0106643391773105,0.00582352560013533,0,
00:00:05.168,0.0221858434379101,0.014045643620193,0.00329371355473995,0,
00:00:05.172,-0.00944117177277803,0.00231466768309474,0.000954583869315684,0,
00:00:05.176,-0.0142405927181244,-0.014513686299324,-0.00358262052759528,0,
00:00:05.18,0.0373715236783028,0.015032522380352,-0.0238927137106657,0,
00:00:05.184,-0.0341514125466347,-0.00686398660764098,0.0243948474526405,0,
00:00:05.188,-0.0116836372762918,-0.00774056883528829,0.00386390229687095,0,
00:00:05.192,0.0140370111912489,0.00630791019648314,-0.00334364175796509,0,
00:00:05.196,0.00617487821727991,-0.000930389622226357,-0.010413883253932,0,
00:00:05.2,0.00290855951607227,-0.00622162176296115,-0.0112109743058681,0,
00:00:05.204,-0.00119641446508467,0.00530298473313451,-0.000682023586705327,0,
00:00:05.208,-0.00482460437342525,-0.00829802267253399,0.0323010161519051,0,
00:00:05.212,0.00208662427030504,0.00377813843078911,-0.00640418892726302,0,
00:00:05.216,0.00976521521806717,0.0217634961009026,-0.00939383171498775,0,
00:00:05.22,0.00631514517590404,0.00344556965865195,0.00131004373542964,0,
00:00:05.224,-0.0110846776515245,-0.024825394153595,-0.00380986277014017,0,
00:00:05.228,-0.012440555728972,-0.00745461136102676,-0.0125721665099263,0,
00:00:05.232,-0.00141223939135671,-0.0236870944499969,0.0208902452141047,0,
00:00:05.236,-0.0102424649521708,0.0179834719747305,0.0108987167477608,0,
00:00:05.24,0.0273163579404354,0.0654453709721565,-0.0171826425939798,0,
00:00:05.244,0.00892734713852406,0.00450452836230397,-0.0206628236919641,0,
00:00:05.248,-0.00248825503513217,-0.038073118776083,0.0075525501742959,0,
00:00:05.252,-0.0154232839122415,-0.0415977202355862,0.015813983976841,0,
00:00:05.256,-0.0111673884093761,-0.0098005086183548,0.0128814270719886,0,
00:00:05.26,-0.00381864910013974,-0.000829455093480647,-0.000336743833031505,0,
00:00:05.264,0.0362939573824406,0.0531663373112679,-0.0213387664407492,0,
00:00:05.268,-0.0145879089832306,0.0106809912249446,-0.00810832437127829,0,
00:00:05.272,-0.0193651877343655,-0.0193545185029507,0.0124295465648174,0,
00:00:05.276,0.014025155454874,-0.00100285978987813,0.0216666758060455,0,
00:00:05.28,0.0108381696045399,-0.00449094269424677,-0.0111059434711933,0,
00:00:05.284,-0.0147858522832394,-0.00106882327236235,-0.0269522927701473,0,
00:00:05.288,-0.00351250800304115,-0.00460875919088721,-0.00490756891667843,0,
00:00:05.292,0.00798872392624617,0.00367660820484161,0.0280448906123638,0,
00:00:05.296,0.00776134943589568,-0.000831666809972376,0.0177986714988947,0,
00:00:05.3,0.00245925621129572,0.0171204786747694,-0.0154847512021661,0,
00:00:05.304,-0.0108471075072885,0.00894816778600216,-0.0190769713371992,0,
00:00:05.308,-0.0175761952996254,-0.0371713228523731,-0.0127788353711367,0,
00:00:05.312,-0.0047438433393836,-0.0438286364078522,0.0256366580724716,0,
00:00:05.316,0.0781924575567245,0.0540067367255688,0.0278740804642439,0,
00:00:05.32,-0.0385411009192467,0.0261617619544268,-0.0100613888353109,0,
00:00:05.324,-0.0499929636716843,-0.00470123207196593,-0.0107660889625549,0,
00:00:05.328,0.0117026744410396,0.00266876025125384,-0.0328312776982784,0,
00:00:05.332,0.0216252114623785,-0.00780455721542239,-0.00707101123407483,0,
00:00:05.336,0.00323223951272666,-0.0259497538208961,0.0160514488816261,0,
00:00:05.34,-0.000862114422488958,0.00129022100009024,0.013329055160284,0,
00:00:05.344,-0.000642747501842678,-0.001688412274234,0.0172882452607155,0,
00:00:05.348,-4.73602594865952E-05,-0.0168081447482109,0.0264300853013992,0,
00:00:05.352,0.00413817446678877,0.0270768571645021,-0.0233567487448454,0,
00:00:05.356,-0.00428022444248199,0.0288840644061565,-0.0224771667271852,0,
00:00:05.36,-0.0101143009960651,-0.0057086106389761,-0.00952992215752602,0,
00:00:05.364,0.0111670829355717,-0.0145072815939784,-0.00403006747364998,0,
00:00:05.368,0.0106238964945078,0.00190772244241089,-0.00313871842809021,0,
00:00:05.372,-0.010307208634913,-0.00462818518280983,0.0193299818783998,0,
00:00:05.376,-0.0119287269189954,-0.0152902128174901,0.00611386867240071,0,
00:00:05.38,-0.00276056071743369,0.00344031630083919,0.00613345485180616,0,
00:00:05.384,0.00270014442503452,-0.00395232392475009,0.00853804405778646,0,
00:00:05.388,0.0109421908855438,0.00327444076538086,-0.018554013222456,0,
00:00:05.392,0.00439697317779064,0.00831305049359798,0.0104604056105018,0,
00:00:05.396,-0.00451866071671247,0.00122477253898978,-0.0111798895522952,0,
00:00:05.4,0.0157611276954412,0.0214171595871449,-0.0245958771556616,0,
00:00:05.404,-0.00928758643567562,0.01240005902946,0.00367031502537429,0,
00:00:05.408,-0.0231069251894951,-0.037015538662672,0.0219357647001743,0,
00:00:05.412,0.0200648307800293,-0.0197909362614155,0.0307794567197561,0,
00:00:05.416,-0.0107906889170408,0.00545619567856193,-0.0148332715034485,0,
00:00:05.42,-0.0115663232281804,0.0149560384452343,-0.0309536326676607,0,
00:00:05.424,0.00246932241134346,0.0037484026979655,0.00171524286270142,0,
00:00:05.428,0.0152756189927459,0.0056896423920989,0.00750020844861865,0,
00:00:05.432,0.0108103910461068,-0.00709897186607122,0.0148475337773561,0,
00:00:05.436,0.00369203253649175,0.0133069176226854,-0.000815670995507389,0,
00:00:05.44,-0.00902370922267437,0.00277522206306458,-0.0171468537300825,0,
00:00:05.444,0.00399650447070599,-0.0230516977608204,-0.00638532871380448,0,
00:00:05.448,-0.00278948666527867,0.00053191528422758,0.00552891008555889,0,
00:00:05.452,-0.0123182367533445,0.0107525624334812,0.0284588430076838,0,
00:00:05.456,-0.0220070462673903,-0.0222655553370714,-0.0044450624845922,0,
00:00:05.46,0.00188469979912043,-0.00799063313752413,-0.0189894307404757,0,
00:00:05.464,0.0247430149465799,0.0226047020405531,-0.000868595438078046,0,
00:00:05.468,0.0150088965892792,0.025576788932085,0.0135150821879506,0,
00:00:05.472,0.0082274042069912,0.0157412216067314,-0.0140496892854571,0,
00:00:05.476,-0.0124362492933869,-0.0189572684466839,-0.00825890246778727,0,
00:00:05.48,-0.0134600652381778,-0.0341819934546947,0.00511768227443099,0,
00:00:05.484,-0.00850867480039597,-0.0261544063687325,0.00876988843083382,0,
00:00:05.488,0.0276841204613447,0.0339912101626396,-0.0106039615347981,0,
00:00:05.492,-0.0174703318625689,0.0271242279559374,0.0232645217329264,0,
00:00:05.496,-0.027310274541378,-0.000172959029441699,0.0277060084044933,0,
00:00:05.5,0.019773768261075,-0.0119680715724826,-0.0204565636813641,0,
00:00:05.504,0.0132915936410427,-0.0261317081749439,-0.0484228655695915,0,
00:00:05.508,0.000800161913502961,-0.00198002741672099,0.00484518939629197,0,
00:00:05.512,0.000378365104552358,0.0243527088314295,0.0192574076354504,0,
00:00:05.516,0.00294580589979887,0.00352352228946984,-0.00051971833454445,0,
00:00:05.52,-0.00616576103493571,-0.00253063719719648,0.000619959551841021,0,
00:00:05.524,0.00704458449035883,0.0159450694918633,0.0145811019465327,0,
00:00:05.528,-0.0113986246287823,-0.00879430491477251,-0.00742893293499947,0,
00:00:05.532,-0.0145506057888269,-0.0249163042753935,-3.53805967279186E-06,0,
00:00:05.536,0.0078912116587162,-0.0199561342597008,0.010471997782588,0,
00:00:05.54,0.0165108032524586,0.0209411364048719,-0.0298668202012777,0,
00:00:05.544,-0.0196581929922104,0.0218733493238688,-0.000611105584539473,0,
00:00:05.548,0.0121414065361023,0.0146604916080832,0.0370413176715374,0,
00:00:05.552,0.00653121154755354,-0.0182276628911495,0.00658565992489457,0,
00:00:05.556,0.00874937977641821,0.00191260175779462,-0.0305196084082127,0,
00:00:05.56,-0.00692773843184114,-0.00996618811041117,-0.0102942483499646,0,
00:00:05.564,-0.0122632766142488,-0.00899315159767866,-0.00611644983291626,0,
00:00:05.568,-0.00637479452416301,0.00175500416662544,0.00659328559413552,0,
00:00:05.572,-0.00119599374011159,0.0100328233093023,0.0145077155902982,0,
00:00:05.576,-0.00354345189407468,0.00536725670099258,0.0120681328698993,0,
00:00:05.58,0.0102533381432295,-0.00285085919313133,0.0164191480726004,0,
00:00:05.584,0.0295085906982422,-0.0205607209354639,-0.0196264032274485,0,
00:00:05.588,-0.000494069303385913,0.00130088056903332,-0.00271335709840059,0,
00:00:05.592,-0.0261135268956423,0.0272168703377247,-0.0162743795663118,0,
00:00:05.596,-0.0121602918952703,0.0106576913967729,-0.0250997040420771,0,
00:00:05.6,-0.0122225526720285,-0.00796493049710989,0.0101578878238797,0,
00:00:05.604,0.0205842070281506,-0.0106686810031533,0.0152193978428841,0,
00:00:05.608,0.0378420613706112,-0.0107320295646787,0.0219558328390121,0,
00:00:05.612,-0.0327075310051441,-0.0141210649162531,0.0302722174674273,0,
00:00:05.616,-0.00896318908780813,0.0188300646841526,-0.0280554331839085,0,
00:00:05.62,0.0023537534289062,0.0181472562253475,-0.025396229699254,0,
00:00:05.624,0.00528539903461933,-0.00506809819489717,0.0162940658628941,0,
00:00:05.628,0.00378526840358973,-0.0292877405881882,-0.0122118266299367,0,
00:00:05.632,0.00311688263900578,0.00880401488393545,-0.011003871448338,0,
00:00:05.636,0.00116273784078658,0.0178777761757374,-0.00678896484896541,0,
00:00:05.64,-0.00732046365737915,-0.00599445030093193,0.0257963575422764,0,
00:00:05.644,-0.0151963885873556,-0.0137029932811856,0.0168275404721498,0,
00:00:05.648,0.00983899738639593,0.0248612407594919,-0.00860175210982561,0,
00:00:05.652,0.0111250132322311,0.00476998370140791,-0.0130039732903242,0,
00:00:05.656,0.0228017177432776,0.00594381522387266,-0.00517659028992057,0,
00:00:05.66,-0.0305084306746721,-0.0542327985167503,0.0168552938848734,0,
00:00:05.664,-0.0202762857079506,-0.00118370947893709,-0.00857305526733398,0,
00:00:05.668,0.0123501559719443,0.037133876234293,-0.00527568301185966,0,
00:00:05.672,0.023314330726862,0.010119030252099,0.0105498423799872,0,
00:00:05.676,0.00485988985747099,-0.00616138428449631,-0.0149645358324051,0,
00:00:05.68,-0.0185759942978621,-0.00412290962412953,-0.00118833163287491,0,
00:00:05.684,-0.0137798236683011,-0.0127516984939575,0.0112430425360799,0,
00:00:05.688,0.000491665268782526,-0.00392259564250708,0.0162723418325186,0,
00:00:05.692,0.0257425121963024,0.0192636176943779,-0.0029405876994133,0,
00:00:05.696,-0.00840499345213175,0.00818862859159708,-0.0042065866291523,0,
00:00:05.7,0.0122983762994409,-0.00971705466508865,-0.0251616593450308,0,
00:00:05.704,-0.00775137962773442,-0.0235484708100557,-0.00672137411311269,0,
00:00:05.708,-0.0256614796817303,0.00259154685772955,0.0151397138834,0,
00:00:05.712,0.0077293124049902,0.00263441214337945,0.026333661749959,0,
00:00:05.716,0.00559246307238936,0.00838688481599092,-0.0132521726191044,0,
00:00:05.72,0.00722289411351085,0.0195320211350918,-0.0110211567953229,0,
00:00:05.724,0.00146738765761256,0.00552466278895736,0.00383664527907968,0,
00:00:05.728,-0.0048634884878993,-0.00391131266951561,0.00809356849640608,0,
00:00:05.732,0.00678056292235851,-0.0143878143280745,-0.0077446922659874,0,
00:00:05.736,0.000210222715395503,-0.0225931815803051,-0.0055597904138267,0,
00:00:05.74,-0.00567744020372629,-0.00281054945662618,0.000399817421566695,0,
00:00:05.744,0.00845944602042437,0.016809007152915,0.00393340224400163,0,
00:00:05.748,-0.00200438615866005,0.0196731463074684,0.0122935278341174,0,
00:00:05.752,-0.0158530827611685,0.0121915638446808,-0.0204573534429073,0,
00:00:05.756,-0.00896042678505182,-0.0309509262442589,0.0298125389963388,0,
00:00:05.76,-0.000141889962833375,-0.0436134189367294,-0.00216942513361573,0,
00:00:05.764,0.00614817161113024,0.034813679754734,-0.0313104651868343,0,
00:00:05.768,0.0224622245877981,0.0365575663745403,-0.0092108603566885,0,
00:00:05.772,0.014998990111053,-0.00890534929931164,0.0124187050387263,0,
00:00:05.776,-0.00374170811846852,0.0138347465544939,0.0161141771823168,0,
00:00:05.78,-0.0164478942751884,0.00233562616631389,0.000824303191620857,0,
00:00:05.784,-0.0180223938077688,-0.0387055240571499,-0.00668167788535357,0,
00:00:05.788,-0.00529888272285461,-0.0238454639911652,0.0144501887261868,0,
00:00:05.792,0.0182655211538076,-0.00246129115112126,0.00514069572091103,0,
00:00:05.796,0.00825369916856289,0.0269662514328957,-0.0214205347001553,0,
00:00:05.8,-0.0205829795449972,0.0213004741817713,-0.0183259416371584,0,
00:00:05.804,-0.00293436087667942,-0.0110474405810237,0.00610852055251598,0,
00:00:05.808,0.0151937156915665,-0.00307281082496047,0.00807010848075151,0,
00:00:05.812,0.00272915582172573,0.00641029747202992,0.0082923648878932,0,
00:00:05.816,0.0091579407453537,0.0197961404919624,0.0238458123058081,0,
00:00:05.82,0.0114766703918576,-0.00956967566162348,-0.0148873934522271,0,
00:00:05.824,0.00470069237053394,-0.0153541611507535,-0.0253971610218287,0,
00:00:05.828,-0.0420665703713894,-0.0220144968479872,0.00541662471368909,0,
00:00:05.832,-0.0247793458402157,-0.0103035382926464,0.0140220718458295,0,
00:00:05.836,0.0143560199066997,0.0211413819342852,-0.0033164550550282,0,
00:00:05.84,0.0166021250188351,0.0180187150835991,-0.0125818811357021,0,
00:00:05.844,0.0227789208292961,0.017717894166708,0.000972601235844195,0,
00:00:05.848,0.0139721194282174,-0.00182830356061459,0.0331787206232548,0,
00:00:05.852,-0.0084610553458333,-0.012608322314918,-0.00550945335999131,0,
00:00:05.856,-0.0315798334777355,-0.056636169552803,-0.00562665704637766,0,
00:00:05.86,-0.0162623655050993,0.0113854948431253,-0.0149859180673957,0,
00:00:05.864,0.0163914151489735,0.041205320507288,-0.0331653580069542,0,
00:00:05.868,0.0274780374020338,0.0290841180831194,0.00165522017050534,0,
00:00:05.872,0.000924289110116661,0.00627808924764395,0.0244284514337778,0,
00:00:05.876,-0.01921814866364,-0.03279884532094,0.0416960306465626,0,
00:00:05.88,0.00733370007947087,-0.0344321168959141,0.00664049666374922,0,
00:00:05.884,-0.0438114181160927,-0.0297975186258554,-0.0131602557376027,0,
00:00:05.888,0.0248198602348566,0.0402388386428356,-0.0367650277912617,0,
00:00:05.892,0.0463908687233925,0.0378797315061092,-0.0140016619116068,0,
00:00:05.896,-0.0191440340131521,-0.00907205045223236,0.00502725271508098,0,
00:00:05.9,-0.0102088777348399,-0.00312253716401756,0.0111281629651785,0,
00:00:05.904,-0.0190477874130011,-0.00478729512542486,0.00326997553929687,0,
00:00:05.908,0.00644027162343264,-0.00161113298963755,0.0189649220556021,0,
00:00:05.912,0.00129162811208516,-0.0102621093392372,0.0138850482180715,0,
00:00:05.916,0.0208161044865847,-0.000630285881925374,-0.024076085537672,0,
00:00:05.92,0.0062924581579864,0.00244885194115341,-0.008587796241045,0,
00:00:05.924,-0.0315141454339027,-0.00164026278071105,0.00813355576246977,0,
00:00:05.928,0.000172112238942645,-0.00908778607845306,0.00350800971500576,0,
00:00:05.932,0.0128343114629388,0.0175414141267538,-0.0134193375706673,0,
00:00:05.936,0.00463778059929609,0.015775365754962,-0.00984800141304731,0,
00:00:05.94,-0.00362623296678066,0.00141512008849531,0.00829250365495682,0,
00:00:05.944,-0.0059503405354917,-0.00708276964724064,0.0200109090656042,0,
00:00:05.948,-0.0118742696940899,-0.0444452874362469,0.0135514875873923,0,
00:00:05.952,0.0143247405067086,-8.6987143731676E-05,-0.00753916660323739,0,
00:00:05.956,0.00551870977506042,0.028209388256073,-0.0299883168190718,0,
00:00:05.96,0.00755073502659798,0.00749483332037926,-0.00843751337379217,0,
00:00:05.964,-0.00268332939594984,0.0127726346254349,0.00535591831430793,0,
00:00:05.968,-0.00866846740245819,0.00745799578726292,0.022721853107214,0,
00:00:05.972,0.00274586142040789,-0.00402213027700782,-0.00126235047355294,0,
00:00:05.976,0.0101931197568774,-0.010892266407609,-0.00592035381123424,0,
00:00:05.98,-0.0238194484263659,-0.0398111566901207,0.0114225326105952,0,
00:00:05.984,-0.0186080802232027,-0.0220255292952061,-0.00289034051820636,0,
00:00:05.988,-0.00116291141603142,0.0347441919147968,0.00593952788040042,0,
00:00:05.992,0.0368198305368423,0.034277655184269,-0.00392976868897676,0,
00:00:05.996,0.0267004240304232,0.0232924446463585,-0.0269062630832195,0,
00:00:06,0.000873877725098282,-0.0247742012143135,-0.005484898108989,0,
00:00:06.004,-0.0288028735667467,-0.0215832572430372,0.00955404527485371,0,
00:00:06.008,-0.0134294396266341,0.0130531927570701,-0.00954461842775345,0,
00:00:06.012,-0.0105047291144729,0.00252273678779602,0.0513623207807541,0,
00:00:06.016,0.00339830061420798,-0.0138169238343835,0.0230466295033693,0,
00:00:06.02,0.00506311375647783,-0.0261207614094019,-0.0374339446425438,0,
00:00:06.024,0.00804029311984777,0.00956125371158123,-0.0403176434338093,0,
00:00:06.028,0.00703520281240344,0.0233384799212217,-0.00859931763261557,0,
00:00:06.032,0.00726802973076701,0.019881259649992,0.011862370185554,0,
00:00:06.036,-0.00282410671934485,-0.0162484589964151,0.0322021283209324,0,
00:00:06.04,-0.0105736078694463,-0.015534314326942,0.0053313048556447,0,
00:00:06.044,0.0111364517360926,0.0209673345088959,-0.000610808085184544,0,
00:00:06.048,-0.0148508613929152,-0.00604456150904298,-0.004042346496135,0,
00:00:06.052,-0.0152413444593549,-0.0111953280866146,-0.0155274383723736,0,
00:00:06.056,0.0186924375593662,-0.00165153678972274,0.0118228979408741,0,
00:00:06.06,0.00345570431090891,-0.00270878383889794,-0.0104639017954469,0,
00:00:06.064,0.00419691437855363,0.00821141619235277,0.00121961929835379,0,
00:00:06.068,0.00433451542630792,0.0178396459668875,-0.00637392001226544,0,
00:00:06.072,-0.000684348924551159,0.00498652597889304,-0.00428900681436062,0,
00:00:06.076,-0.0127836223691702,-0.0158607941120863,0.00943754799664021,0,
00:00:06.08,-0.00963195879012346,-0.0204929988831282,0.00962876714766026,0,
00:00:06.084,0.00478418311104178,-0.00498571014031768,0.0122796911746264,0,
00:00:06.088,-0.00520598189905286,0.0103126978501678,-0.0095407348126173,0,
00:00:06.092,0.0244902987033129,0.014285328797996,-0.0171865429729223,0,
00:00:06.096,-0.00581072922796011,0.000762608367949724,0.0114651583135128,0,
00:00:06.1,-0.0264236479997635,0.00265921908430755,0.00661723362281919,0,
00:00:06.104,0.0553034096956253,0.00555888004601002,-0.0218285471200943,0,
00:00:06.108,0.0130254421383142,0.00312888389453292,-0.0020756998565048,0,
00:00:06.112,-0.0743277445435524,-0.0226066187024117,0.0126343639567494,0,
00:00:06.116,-0.0153236696496606,-0.00655509578064084,0.0242069512605667,0,
00:00:06.12,0.0191575493663549,-0.00536297215148807,-0.00564658408984542,0,
00:00:06.124,0.0221234001219273,0.0016692791832611,-0.0335368141531944,0,
00:00:06.128,0.0099068209528923,0.0152962356805801,-0.00365601666271687,0,
00:00:06.132,0.0152360051870346,0.033228375017643,0.0342182777822018,0,
00:00:06.136,0.00491709122434258,-0.00376239838078618,-0.00886847078800201,0,
00:00:06.14,-0.0318330638110638,-0.0301727131009102,-0.00698103103786707,0,
00:00:06.144,-0.0179790370166302,-0.0122090904042125,-0.0122265079990029,0,
00:00:06.148,0.0091120945289731,-0.00581767596304417,0.0137319508939981,0,
00:00:06.152,0.00131439452525228,-8.85932240635157E-05,0.0193674992769957,0,
00:00:06.156,0.00509507395327091,0.0153326215222478,-0.00464516691863537,0,
00:00:06.16,0.0195888318121433,0.0286261569708586,-0.0266041569411755,0,
00:00:06.164,0.00358504056930542,0.00410988973453641,0.000617732293903828,0,
00:00:06.168,-0.014542443677783,-0.0281444862484932,0.00671558734029531,0,
00:00:06.172,-0.0155080435797572,-0.00955306366086006,0.0069444258697331,0,
00:00:06.176,0.00977353565394878,0.0151076577603817,-0.0107633927837014,0,
00:00:06.18,0.0201256442815065,-0.00308233965188265,0.0305329971015453,0,
00:00:06.184,-0.0285102445632219,-0.0275286324322224,0.0121887074783444,0,
00:00:06.188,-0.00897419359534979,-0.00234545581042767,-0.0343767702579498,0,
00:00:06.192,0.00914737395942211,0.0311173927038908,-0.0218914598226547,0,
00:00:06.196,0.0123840402811766,0.0199417807161808,0.00115503033157438,0,
00:00:06.2,0.0197828467935324,0.00193312449846417,0.0100309997797012,0,
00:00:06.204,-0.0154622662812471,-0.0122638987377286,0.00789391435682774,0,
00:00:06.208,-0.00150151702109724,-0.0171760227531195,0.0180875677615404,0,
00:00:06.212,-0.00641652662307024,-0.0261638816446066,0.00322300661355257,0,
00:00:06.216,-0.0105509646236897,0.0014027472352609,-0.0135526889935136,0,
00:00:06.22,-0.000630321446806192,0.0392373576760292,0.000173412743606605,0,
00:00:06.224,0.0174702033400536,0.0263676531612873,-0.0119076473638415,0,
00:00:06.228,0.000475310022011399,-0.0178641546517611,0.00162451062351465,0,
00:00:06.232,0.00290590105578303,-0.0235035493969917,0.0022699274122715,0,
00:00:06.236,-0.0060799578204751,-0.0246876627206802,0.000620972248725593,0,
00:00:06.24,-0.00935589056462049,0.00640537403523922,-0.00422119395807385,0,
00:00:06.244,0.010850764811039,0.03632503002882,0.0229084957391024,0,
00:00:06.248,0.00318164541386068,0.0111007718369365,-0.0115378089249134,0,
00:00:06.252,-0.0179115496575832,-0.0338256657123566,0.00966850761324167,0,
00:00:06.256,-0.00791841372847557,-0.0164877194911242,-0.0193441696465015,0,
00:00:06.26,0.00745090609416366,0.0116708539426327,-0.0155057953670621,0,
00:00:06.264,0.0403221100568771,0.0221934914588928,0.0295564010739326,0,
00:00:06.268,0.000686375831719488,0.0300498213618994,-0.00618691369891167,0,
00:00:06.272,-0.0120158474892378,0.00914752949029207,-0.0123457228764892,0,
00:00:06.276,-0.0472033694386482,-0.0436129122972488,-0.00325648160651326,0,
00:00:06.28,-0.00252926605753601,-0.052382055670023,0.0280925203114748,0,
00:00:06.284,0.0245225541293621,-0.000939508900046349,-0.00965195149183273,0,
00:00:06.288,0.0319933742284775,0.0426167547702789,-0.012236101552844,0,
00:00:06.292,-0.00653014704585075,0.033025685697794,0.0234251078218222,0,
00:00:06.296,-0.0257956404238939,0.0036244373768568,-0.0030045653693378,0,
00:00:06.3,-0.000326757784932852,-0.0157816279679537,-0.0347680263221264,0,
00:00:06.304,0.00430587399750948,-0.0146220717579126,-0.0042292894795537,0,
00:00:06.308,0.000477201509056613,-0.0210803616791964,0.045784916728735,0,
00:00:06.312,0.0148701397702098,-0.00831783376634121,0.0228722915053368,0,
00:00:06.316,-0.00437090639024973,0.0311065651476383,-0.0382811911404133,0,
00:00:06.32,-0.00747365364804864,0.0229539256542921,-0.0343412756919861,0,
00:00:06.324,-0.0102170277386904,-0.0119294691830873,-0.00250199600122869,0,
00:00:06.328,0.00821607746183872,-0.00806567911058664,0.0189322773367167,0,
00:00:06.332,0.00961742643266916,0.00478330627083778,0.0194840487092733,0,
00:00:06.336,-0.00244204071350396,-0.0146884704008698,0.0200609341263771,0,
00:00:06.34,-0.0107899708673358,-0.022879846394062,-0.0149381505325437,0,
00:00:06.344,0.0116723347455263,0.0244306176900864,-0.0215826109051704,0,
00:00:06.348,-0.00713775306940079,0.0136356549337506,0.0213433243334293,0,
00:00:06.352,-0.00479999417439103,0.000179804526851512,0.000639520469121635,0,
00:00:06.356,0.0055645415559411,-0.00261731655336916,-0.0155558343976736,0,
00:00:06.36,0.0131170554086566,-0.00239197770133615,-0.0114246886223555,0,
00:00:06.364,-0.00487760547548532,0.000341734383255243,-0.00536499917507172,0,
00:00:06.368,-0.0229367427527905,-0.00734495278447866,0.026857390999794,0,
00:00:06.372,0.0130461612716317,-0.0130501361563802,-0.00219262391328812,0,
00:00:06.376,0.00115116138476878,-0.0167732015252113,-0.00890736095607281,0,
00:00:06.38,0.00876839924603701,0.017097907140851,0.0344984568655491,0,
