Elapsed Time,EMG1,EMG2,EMG3,BioRadio Event,
00:00:00,0.282306104898453,1.68345761299133,0.616506695747375,0,
00:00:00.004,-0.25826495885849,-1.60613799095154,-0.584594964981079,0,
00:00:00.008,-0.239421799778938,-1.32774615287781,-0.483434736728668,0,
00:00:00.012,-0.032588817179203,-0.140294089913368,-0.0622242093086243,0,
00:00:00.016,0.126654654741287,0.68588799238205,0.245088696479797,0,
00:00:00.02,0.155756801366806,0.831825315952301,0.304984420537949,0,
00:00:00.024,0.0793544799089432,0.507790744304657,0.196603149175644,0,
00:00:00.028,0.00397901888936758,0.0570249632000923,0.0326627753674984,0,
00:00:00.032,-0.0577203221619129,-0.241290643811226,-0.0867602527141571,0,
00:00:00.036,-0.048694308847189,-0.326036334037781,-0.132510617375374,0,
00:00:00.04,-0.023606400936842,-0.245693147182465,-0.0995177999138832,0,
00:00:00.044,-0.0147363068535924,-0.0783343389630318,-0.0299055743962526,0,
00:00:00.048,0.0160049125552177,0.0334356538951397,0.0214719530194998,0,
00:00:00.052,-0.0040274909697473,0.0821390524506569,0.0324177406728268,0,
00:00:00.056,0.00366943934932351,0.0839603841304779,0.0393964387476444,0,
00:00:00.06,0.00241246889345348,0.0592537969350815,0.0168220829218626,0,
00:00:00.064,0.0199097003787756,0.00792217813432217,-0.00726091302931309,0,
00:00:00.068,0.0106802210211754,-0.0297240894287825,-0.00684465002268553,0,
00:00:00.072,-0.0216907951980829,-0.0297921504825354,-0.0134307807311416,0,
00:00:00.076,-0.00109858287032694,-0.0161877647042274,-0.0103468596935272,0,
00:00:00.08,0.0122976740822196,-0.0150433732196689,-0.000857240986078978,0,
00:00:00.084,-0.0202251970767975,-0.00171484111342579,0.00976903736591339,0,
00:00:00.088,-0.00603613117709756,0.0133753148838878,0.00488358037546277,0,
00:00:00.092,0.00144047383219004,0.0188415981829166,-0.00106989068444818,0,
00:00:00.096,0.0194571297615767,0.0104481736198068,0.00279784132726491,0,
00:00:00.1,0.0123096220195293,-0.0109121259301901,0.00400896882638335,0,
00:00:00.104,-0.00454740924760699,-0.0057809129357338,-0.0108759514987469,0,
00:00:00.108,-0.0169522222131491,-0.000580260180868208,-0.0065740798600018,0,
00:00:00.112,0.00147771718911827,-0.00460686674341559,0.00103009585291147,0,
00:00:00.116,9.37647564569488E-06,0.00515197077766061,0.0031046262010932,0,
00:00:00.12,-0.0112161645665765,-0.00348823121748865,0.0132052944973111,0,
00:00:00.124,-0.000921879895031452,0.00267128995619714,0.0022454725112766,0,
00:00:00.128,0.0123548088595271,0.00200371560640633,-0.0153523897752166,0,
00:00:00.132,0.02445556409657,-0.0062990696169436,0.00962835364043713,0,
00:00:00.136,-0.00304131861776114,0.00256229867227376,0.0023493911139667,0,
00:00:00.14,-0.0373318828642368,0.00353570724837482,-0.0169257745146751,0,
00:00:00.144,-0.00354214059188962,0.00148238486144692,0.00584573438391089,0,
00:00:00.148,0.028916509822011,-0.000641194521449506,-0.00402452563866973,0,
00:00:00.152,-0.000417217263020575,0.00461275922134519,0.0027250770945102,0,
00:00:00.156,-0.00214954582042992,-0.00528225162997842,0.00111506343819201,0,
00:00:00.16,0.00907827354967594,-0.0179369710385799,0.0141041623428464,0,
00:00:00.164,-0.0376253612339497,0.0119686750695109,0.00666577043011785,0,
00:00:00.168,0.0166733283549547,0.0112965758889914,-0.00973330438137054,0,
00:00:00.172,0.0174275804311037,-0.00186401978135109,-0.0150984050706029,0,
00:00:00.176,0.00341576477512717,-0.000442717020632699,-0.00133939657825977,0,
00:00:00.18,-0.000873278360813856,-0.0171960256993771,-0.00418686727061868,0,
00:00:00.184,-0.0506097264587879,0.00831227283924818,0.016571095213294,0,
00:00:00.188,0.0207884535193443,0.0112332282587886,0.0031558140181005,0,
00:00:00.192,0.0350247211754322,0.000531442870851606,-0.000170514176716097,0,
00:00:00.196,0.000199847170733847,-0.00460501573979855,-0.00925063528120518,0,
00:00:00.2,-0.00795614719390869,-0.00894427392631769,-0.0017415233887732,0,
00:00:00.204,-0.0376652590930462,-0.0026002109516412,0.0129213845357299,0,
00:00:00.208,0.00569677259773016,0.0074740475974977,-0.00660092197358608,0,
00:00:00.212,0.033273458480835,-0.000823592999950051,-0.00632752571254969,0,
00:00:00.216,0.0064082364551723,0.0023726609069854,0.00538418628275394,0,
00:00:00.22,-0.0117536727339029,0.0104916412383318,0.00128610455431044,0,
00:00:00.224,-0.000215530933928676,0.000962032761890441,-0.00513642374426126,0,
00:00:00.228,-0.00514629762619734,-0.0174635965377092,0.00045898265670985,0,
00:00:00.232,-0.00773039413616061,-0.00681397691369057,0.0065461159683764,0,
00:00:00.236,-0.00082587223732844,0.00719877379015088,-0.00407929485663772,0,
00:00:00.24,-0.0101342909038067,-0.00102554052136838,-0.00069503637496382,0,
00:00:00.244,0.00237628631293774,0.0148212593048811,-0.00130369781982154,0,
00:00:00.248,0.0176771748811007,0.00349023891612887,0.000783159164711833,0,
00:00:00.252,0.0260882843285799,-0.00944388005882502,0.00607447186484933,0,
00:00:00.256,-0.0236676055938005,-0.00781393982470036,0.00592040410265327,0,
00:00:00.26,1.99830501514953E-05,-0.00821210164576769,-0.0086550023406744,0,
00:00:00.264,-0.00886015314608812,0.0104789063334465,-0.00737695721909404,0,
00:00:00.268,0.00552745582535863,0.00473436992615461,-0.00779247237369418,0,
00:00:00.272,0.00586375966668129,0.00783500727266073,0.0170582309365273,0,
00:00:00.276,-0.0403925254940987,-0.00622359337285161,-0.0030812113545835,0,
00:00:00.28,0.0157409776002169,0.00628240779042244,0.00903961714357138,0,
00:00:00.284,0.0336944386363029,-0.0137530025094748,-0.00917814113199711,0,
00:00:00.288,0.00349958287551999,-0.00827970076352358,-0.00481834029778838,0,
00:00:00.292,-0.0123447645455599,0.0058020013384521,0.00205832021310925,0,
00:00:00.296,-0.00951712112873793,0.00309137417934835,-0.00150842522270977,0,
00:00:00.3,-0.0129875652492046,0.00758518744260073,0.00301236612722278,0,
00:00:00.304,0.0098658874630928,-0.00113243306986988,0.000814806611742824,0,
00:00:00.308,-0.00528284162282944,0.00404686294496059,0.00297273951582611,0,
00:00:00.312,0.0181450918316841,-0.00693042716011405,-0.00115884770639241,0,
00:00:00.316,0.00858491845428944,-0.000701010751072317,0.00484661944210529,0,
00:00:00.32,-0.0150393834337592,0.000113502144813538,-0.00232540303841233,0,
00:00:00.324,-0.00681572360917926,-0.00235614879056811,-0.00876062083989382,0,
00:00:00.328,-0.0109950676560402,0.0057076346129179,-0.00349019072018564,0,
00:00:00.332,0.035254817456007,-0.00662145018577576,0.00237664231099188,0,
00:00:00.336,-0.0146751450374722,-0.00725205754861236,0.0151269361376762,0,
00:00:00.34,-0.0404243990778923,0.00834369566291571,-0.00195372430607677,0,
00:00:00.344,0.0334535725414753,0.0162123292684555,-0.00878560543060303,0,
00:00:00.348,0.0292927585542202,-0.00979400984942913,-0.00910242553800344,0,
00:00:00.352,-0.00847482867538929,-0.00714997947216034,0.00854570139199495,0,
00:00:00.356,-0.0128271151334047,0.000448496750323102,0.00274338899180293,0,
00:00:00.36,-0.0232882425189018,0.00636513298377395,-0.00155455491039902,0,
00:00:00.364,0.0048727598041296,-0.0086987167596817,0.00172381580341607,0,
00:00:00.368,-0.00171434611547738,0.00288751628249884,-0.000887673639226705,0,
00:00:00.372,0.0145725719630718,0.0102509846910834,0.00588387716561556,0,
00:00:00.376,0.0232808589935303,-0.00649497099220753,-0.00551690347492695,0,
00:00:00.38,-0.0164224430918694,-0.00594604201614857,-0.00437716348096728,0,
00:00:00.384,-0.00884403381496668,-0.000880067411344498,-0.00238765543326736,0,
00:00:00.388,0.00559391640126705,0.00894416775554419,0.00430683651939034,0,
00:00:00.392,-0.00062253134092316,-0.00461287470534444,0.0146728148683906,0,
00:00:00.396,-0.0163353942334652,0.0011572886724025,-0.0103050582110882,0,
00:00:00.4,0.00436342274770141,0.0034502143971622,-0.0112362829968333,0,
00:00:00.404,0.0108154658228159,0.00430041225627065,0.000649493769742548,0,
00:00:00.408,0.0367066264152527,-0.0167904775589705,0.012030029669404,0,
00:00:00.412,-0.0595601685345173,0.00174882402643561,0.00563238468021154,0,
00:00:00.416,-0.0260371211916208,0.00835631415247917,0.00382308266125619,0,
00:00:00.42,0.0421437062323093,0.000192248742678203,-0.0264276918023825,0,
00:00:00.424,0.0330272279679775,-0.00103850639425218,0.00599640887230635,0,
00:00:00.428,0.0024129250086844,0.00175089598633349,0.00716075766831636,0,
00:00:00.432,-0.00495248008519411,-0.00375382928177714,-0.000951311551034451,0,
00:00:00.436,-0.0461909174919128,0.0131573751568794,-0.00488961534574628,0,
00:00:00.44,0.00337740313261747,-0.00614362582564354,0.00277684023603797,0,
00:00:00.444,0.00476807402446866,-0.0130002060905099,0.0130064124241471,0,
00:00:00.448,0.0116483494639397,-0.0107524897903204,0.00329690496437252,0,
00:00:00.452,0.00512169767171144,0.0119848949834704,-0.00815774314105511,0,
00:00:00.456,-0.00352494954131544,0.0163086783140898,-0.0150471720844507,0,
00:00:00.46,0.000135832146042958,0.00463170511648059,-0.00247612013481557,0,
00:00:00.464,0.0113197788596153,-0.0139077333733439,0.00752139091491699,0,
00:00:00.468,-0.00540464511141181,-0.00923051685094833,0.0113437501713634,0,
00:00:00.472,-0.0085154278203845,0.00195647357031703,-0.000951201829593629,0,
00:00:00.476,-0.0318620800971985,0.00744061172008514,-0.00417542038485408,0,
00:00:00.48,0.027729257941246,0.00417118100449443,-0.00514295790344477,0,
00:00:00.484,0.02857705950737,0.0100411986932158,0.00322052882984281,0,
00:00:00.488,-0.00181263731792569,-0.0147623578086495,-0.00160307937767357,0,
00:00:00.492,-0.022150594741106,-0.00493336375802755,0.00599252246320248,0,
00:00:00.496,0.00573466811329126,-0.00466992519795895,-0.00440889922901988,0,
00:00:00.5,-0.00868387147784233,-0.00920098554342985,-0.00306448503397405,0,
00:00:00.504,-0.026760833337903,0.016898525878787,0.00259129656478763,0,
00:00:00.508,0.0204754117876291,0.0153443133458495,0.00256176455877721,0,
00:00:00.512,0.0255578625947237,-4.9189413402928E-05,-0.0013423158088699,0,
00:00:00.516,0.00730070611461997,-0.00977646093815565,-0.000885186949744821,0,
00:00:00.52,-0.0250273887068033,-0.0101546635851264,0.00647380948066711,0,
00:00:00.524,-0.00174387777224183,-0.00277787307277322,0.00727628730237484,0,
00:00:00.528,-0.00910045485943556,0.00744529580697417,-0.0162165276706219,0,
00:00:00.532,0.0179970096796751,0.00540598994120955,-0.0103005887940526,0,
00:00:00.536,0.0119658382609487,-0.00347538269124925,0.00115379807539284,0,
00:00:00.54,-0.0155267985537648,-0.000505441916175187,0.0159914251416922,0,
00:00:00.544,-0.0157300122082233,0.000311906856950372,-0.00020184250024613,0,
00:00:00.548,0.0095957899466157,0.00436602113768458,-0.00269770575687289,0,
00:00:00.552,0.0203723628073931,-0.0081752073019743,-0.00732427788898349,0,
00:00:00.556,-0.0194184351712465,0.00873575638979673,0.0188385900110006,0,
00:00:00.56,-0.00129372486844659,-0.00934082176536322,-0.00605164840817451,0,
00:00:00.564,0.00212395098060369,-0.000679016404319555,-0.00472544739022851,0,
00:00:00.568,0.0096148457378149,-0.00118473742622882,-0.00358700891956687,0,
00:00:00.572,-0.00965722929686308,0.00904684886336327,-0.00170852104201913,0,
00:00:00.576,0.00793329626321793,0.00688180886209011,-0.00809683836996555,0,
00:00:00.58,-0.000235170024097897,-0.00755482632666826,0.00513463700190187,0,
00:00:00.584,0.0051454734057188,-0.00430922256782651,0.00795969180762768,0,
00:00:00.588,0.00184585549868643,-0.0052497717551887,0.0194194000214338,0,
00:00:00.592,-0.0463643074035645,0.0111234588548541,-0.0133890798315406,0,
00:00:00.596,0.0157012399286032,0.00101638922933489,-0.0140492720529437,0,
00:00:00.6,0.0352909825742245,-0.00533901201561093,-0.00657850364223123,0,
00:00:00.604,0.00269963382743299,-0.00756520358845592,0.0138975223526359,0,
00:00:00.608,-0.0203201472759247,0.00197042943909764,0.000217480715946294,0,
00:00:00.612,0.00178327213507146,0.0115826269611716,-0.00561445951461792,0,
00:00:00.616,0.00740666361525655,0.0148804141208529,0.00399061664938927,0,
00:00:00.62,-0.000215858890442178,-0.0236020777374506,0.0127035612240434,0,
00:00:00.624,-0.0100125772878528,-0.0254340711981058,-0.000280024483799934,0,
00:00:00.628,-0.0290821623057127,0.0201707892119884,-0.0138817653059959,0,
00:00:00.632,0.0179226752370596,0.0262195821851492,-0.00812640693038702,0,
00:00:00.636,0.0326512977480888,-0.00438646879047155,0.00495345005765557,0,
00:00:00.64,0.00828487891703844,-0.00285620405338705,-0.0002415121125523,0,
00:00:00.644,-0.00663098786026239,-0.0152008114382625,-0.00169369217474014,0,
00:00:00.648,-0.0388667248189449,-0.0161552727222443,0.0164517927914858,0,
00:00:00.652,-0.00709683308377862,0.01608064211905,0.0172959268093109,0,
00:00:00.656,0.00510059436783195,0.0138124022632837,-0.0231503378599882,0,
00:00:00.66,0.0354967713356018,-0.0015838195104152,-0.0163621418178082,0,
00:00:00.664,-0.00146682339254767,-0.00774695817381144,-0.000269324256805703,0,
00:00:00.668,-0.00118325336370617,-0.00011034792260034,0.0050410246476531,0,
00:00:00.672,-0.00375645095482469,-0.00354632968083024,0.011447005905211,0,
00:00:00.676,-0.0113373380154371,0.00784378126263618,0.00365267158485949,0,
00:00:00.68,0.00164457818027586,-0.0117557337507606,-0.00546949403360486,0,
00:00:00.684,-0.0179735124111176,0.00645572878420353,0.0028163471724838,0,
00:00:00.688,0.00367254880256951,0.0186461191624403,-0.00564030511304736,0,
00:00:00.692,0.0309512056410313,-0.0233663041144609,0.00340814096853137,0,
00:00:00.696,-0.00538644893094897,-0.00918139517307281,0.00991440284997225,0,
00:00:00.7,-0.0254347119480371,0.0172101799398661,-0.0239649917930365,0,
00:00:00.704,0.0043877880088985,0.00859176181256771,0.00456014880910516,0,
00:00:00.708,0.0288609433919191,-0.0119778010994196,0.00681772688403726,0,
00:00:00.712,-0.00344285811297596,-0.000775146356318146,0.00211611553095281,0,
00:00:00.716,-0.00568262627348304,-0.0082834530621767,0.0109562985599041,0,
00:00:00.72,-0.0185833461582661,0.0133964093402028,0.00252157635986805,0,
00:00:00.724,0.00119414716027677,0.0208346452564001,-0.0225591212511063,0,
00:00:00.728,0.00569453043863177,-0.013284326530993,-0.0114235011860728,0,
00:00:00.732,0.00190056266728789,-0.0166478045284748,-0.002078325022012,0,
00:00:00.736,0.00508953537791967,-0.00339970272034407,0.0237085688859224,0,
00:00:00.74,0.00914755184203386,-0.0185008775442839,0.0194396004080772,0,
00:00:00.744,-0.0438690967857838,0.0069065191783011,0.000183527590706944,0,
00:00:00.748,0.0132665950804949,0.0373751670122147,-0.0332096740603447,0,
00:00:00.752,0.0418076254427433,0.00829502288252115,0.0101487701758742,0,
00:00:00.756,0.000765454140491784,0.00788908172398806,-0.00141784455627203,0,
00:00:00.76,-0.0136085506528616,-0.0268293879926205,-0.00816509407013655,0,
00:00:00.764,-0.023229843005538,-0.0305543746799231,-0.00180009403266013,0,
00:00:00.768,-0.0108199575915933,-0.016396127641201,0.0234357360750437,0,
00:00:00.772,0.018175296485424,0.0234912186861038,0.0139823388308287,0,
00:00:00.776,0.0117133352905512,0.03510981798172,-0.0190070923417807,0,
00:00:00.78,-0.0211158506572247,0.0343778803944588,-0.031581949442625,0,
00:00:00.784,0.0338500030338764,-0.0339033789932728,0.00307834870181978,0,
00:00:00.788,-0.0178492236882448,-0.0357339158654213,0.0394566282629967,0,
00:00:00.792,-0.0111062405630946,-0.00716109527274966,-0.00102529453579336,0,
00:00:00.796,0.00617814436554909,0.0117880841717124,-0.0142332259565592,0,
00:00:00.8,0.0146872578188777,0.0117648486047983,-0.00925449095666409,0,
00:00:00.804,-0.0021635415032506,0.011869172565639,-0.00704332813620567,0,
00:00:00.808,-0.0251860655844212,0.00243197125382721,0.0206765569746494,0,
00:00:00.812,0.00458772387355566,-0.00299846986308694,-0.00816262513399124,0,
00:00:00.816,0.00856655929237604,-0.0153381889685988,0.0177094470709562,0,
00:00:00.82,0.00628264201804996,-0.00479840021580458,-0.00216113193891943,0,
00:00:00.824,0.00399770494550467,0.0136784920468926,-0.0212439689785242,0,
00:00:00.828,0.00271630263887346,0.00241662818007171,-0.0142253590747714,0,
00:00:00.832,-0.00216267514042556,-0.0115984603762627,0.0184194166213274,0,
00:00:00.836,-0.0154353193938732,-0.0106473434716463,0.00607715407386422,0,
00:00:00.84,-0.00735350418835878,0.0245509464293718,0.00340320146642625,0,
00:00:00.844,0.00301270140334964,0.00446078181266785,-0.000391098932595924,0,
00:00:00.848,0.0141496928408742,-0.0117470575496554,0.00356355379335582,0,
00:00:00.852,-0.00104353227652609,-0.00543938390910625,-0.00464801676571369,0,
00:00:00.856,-0.00411489652469754,0.00244784401729703,-0.016838425770402,0,
00:00:00.86,0.0124707221984863,0.00732934474945068,-0.000257748062722385,0,
00:00:00.864,0.00138305977452546,-0.00258304225280881,0.00354517577216029,0,
00:00:00.868,0.00169176794588566,-0.00162816047668457,0.0180072132498026,0,
00:00:00.872,-0.0240707062184811,-0.0097715063020587,0.00746269710361958,0,
00:00:00.876,-0.0176939237862825,0.00905752833932638,-0.00884371064603329,0,
00:00:00.88,-0.00114837568253279,0.000328356545651332,-0.020313149318099,0,
00:00:00.884,0.0423161312937737,0.00354449660517275,0.000980357290245593,0,
00:00:00.888,0.0179228112101555,-0.00572834117338061,0.0169878005981445,0,
00:00:00.892,-0.0148834781721234,0.0057114684022963,0.00165660469792783,0,
00:00:00.896,-0.00947836693376303,0.00837359949946404,-0.00369478925131261,0,
00:00:00.9,-0.00430975388735533,-0.00869458727538586,-0.00575977703556418,0,
00:00:00.904,-0.0053764758631587,-0.0321606956422329,0.012747960165143,0,
00:00:00.908,-0.0313654728233814,0.00575423100963235,0.000399560085497797,0,
00:00:00.912,0.0120301740244031,0.042356614023447,-0.0287564843893051,0,
00:00:00.916,0.0331046096980572,0.000251610006671399,-0.00116463715676218,0,
00:00:00.92,0.00729023478925228,-0.0127130672335625,0.018074918538332,0,
00:00:00.924,-0.00758584309369326,-0.0107272462919354,0.0103894053027034,0,
00:00:00.928,-0.00257184193469584,0.00228776969015598,-0.00705732498317957,0,
00:00:00.932,0.0183514039963484,-0.00629460066556931,0.0159929133951664,0,
00:00:00.936,-0.047598946839571,-0.00099319196306169,-0.00661498727276921,0,
00:00:00.94,-0.0285252053290606,0.0106856906786561,-0.0187589451670647,0,
00:00:00.944,0.0480852723121643,0.00811246037483215,-0.00864797178655863,0,
00:00:00.948,0.026268120855093,-0.00508724525570869,-0.000825194350909442,0,
00:00:00.952,0.00316359917633235,-0.000264165282715112,0.0191127248108387,0,
00:00:00.956,-0.0150503469631076,-0.0132162244990468,0.00316143315285444,0,
00:00:00.96,-0.0224344022572041,0.0078055877238512,-0.00124743417836726,0,
00:00:00.964,0.0036148983053863,-0.00279779988341033,0.00253374315798283,0,
00:00:00.968,-0.00498407706618309,-0.00550397811457515,-0.00501021137461066,0,
00:00:00.972,0.00492507824674249,0.00380213302560151,0.00236017280258238,0,
00:00:00.976,0.00636870786547661,0.0043295631185174,0.0016786081250757,0,
00:00:00.98,-0.0128557439893484,0.0124582843855023,-0.00931387580931187,0,
00:00:00.984,0.0162651687860489,-0.00158850965090096,-0.00513323210179806,0,
00:00:00.988,0.0115108909085393,-0.000478850910440087,-0.000661222205962986,0,
00:00:00.992,0.00763377267867327,-0.0200141407549381,0.0151217402890325,0,
00:00:00.996,-0.0326598435640335,0.00682036438956857,0.00241799862124026,0,
00:00:01,0.0110117215663195,0.00499990489333868,-0.0102847283706069,0,
00:00:01.004,0.00828635506331921,-0.00961356051266193,-0.00322279729880393,0,
00:00:01.008,-0.040245994925499,0.00398023938760161,0.00601406255736947,0,
00:00:01.012,0.0127769578248262,0.0122669972479343,-0.00256538949906826,0,
00:00:01.016,0.0368295609951019,-0.00906553771346807,0.0198651496320963,0,
00:00:01.02,-0.0118088573217392,-0.00979762431234121,-0.0200299248099327,0,
00:00:01.024,-0.00199646432884037,0.0223076827824116,-0.00983922928571701,0,
00:00:01.028,0.0115818046033382,0.00313700549304485,0.0118595045059919,0,
00:00:01.032,-0.00952187459915876,-0.0162230841815472,-0.00493429088965058,0,
00:00:01.036,-0.0200850814580917,-0.00158237409777939,-0.00587439583614469,0,
00:00:01.04,0.010629397816956,-0.00498155504465103,0.0117813711985946,0,
00:00:01.044,-0.00418005464598536,-0.00379023305140436,0.0170751474797726,0,
00:00:01.048,-0.0197674222290516,0.0106123378500342,-0.00935074593871832,0,
00:00:01.052,0.0279876794666052,0.0125749772414565,-0.0177774447947741,0,
00:00:01.056,0.0226418953388929,-0.00439990684390068,-0.00115691951941699,0,
00:00:01.06,-0.00762947648763657,-0.000536962528713048,0.0208075530827045,0,
00:00:01.064,-0.00584289105609059,-0.00738808000460267,0.00508927274495363,0,
00:00:01.068,-0.0129471207037568,-0.0109401624649763,-0.0223109275102615,0,
00:00:01.072,-0.0226347930729389,0.0121145285665989,-0.007505236659199,0,
00:00:01.076,0.0237324871122837,0.00604227324947715,0.0124298967421055,0,
00:00:01.08,0.00206135911867023,-0.011295217089355,0.00870257522910833,0,
00:00:01.084,-0.00567444181069732,-0.00466411979869008,-0.0121529353782535,0,
00:00:01.088,-9.76064402493648E-05,0.0164576582610607,-0.0011474268976599,0,
00:00:01.092,0.0191178489476442,0.00568347424268723,0.00444738566875458,0,
00:00:01.096,0.00764418765902519,-0.00422527268528938,0.00264419219456613,0,
00:00:01.1,-0.0168060455471277,-0.0118588041514158,0.00415507378056645,0,
00:00:01.104,-0.0314571708440781,-0.00800230726599693,0.00727210333570838,0,
00:00:01.108,0.00734412577003241,-0.00898383650928736,-0.0120311276987195,0,
00:00:01.112,0.0131575679406524,0.0187503732740879,-0.00607433309778571,0,
00:00:01.116,0.0221619717776775,0.0211938042193651,0.00655584875494242,0,
00:00:01.12,0.0040665534324944,0.00290355016477406,-0.00443666381761432,0,
00:00:01.124,-0.00240196799859405,-0.0193085689097643,0.00472987629473209,0,
00:00:01.128,-0.0279387831687927,-0.0162550173699856,0.000955891329795122,0,
00:00:01.132,-0.00272350572049618,0.00382237159647048,0.00344238174147904,0,
00:00:01.136,0.00402373587712646,0.0118989460170269,-0.00910614151507616,0,
00:00:01.14,0.00832042377442122,0.000930402078665793,4.13485831813887E-05,0,
00:00:01.144,0.00287755508907139,-0.00657510943710804,0.00489338580518961,0,
00:00:01.148,-0.00384732382372022,0.00400375621393323,0.00236912677064538,0,
00:00:01.152,0.0156332869082689,-0.00751279992982745,-0.000852425000630319,0,
00:00:01.156,-0.0240842141211033,0.0155609911307693,0.00186536938417703,0,
00:00:01.16,0.0015148336533457,-0.00218395958654583,-0.0141574675217271,0,
00:00:01.164,0.0207598470151424,-0.0146297980099916,0.00394940283149481,0,
00:00:01.168,-0.0143811656162143,-0.00240148673765361,0.0149789480492473,0,
00:00:01.172,0.00308815180324018,0.00166162068489939,0.00585850607603788,0,
00:00:01.176,-0.000962076243013144,0.017425125464797,-0.031390842050314,0,
00:00:01.18,0.0053406422957778,0.00984705425798893,0.00253406818956137,0,
00:00:01.184,-0.00581188127398491,-0.0103063425049186,0.011647192761302,0,
00:00:01.188,-0.00421874457970262,-0.0113018536940217,0.00838839542120695,0,
00:00:01.192,-0.00608667638152838,0.00124159164261073,-0.00645568082109094,0,
00:00:01.196,0.0149607583880425,0.00569498026743531,0.00293971039354801,0,
00:00:01.2,0.012335155159235,-0.00641017267480493,0.000107795218355022,0,
00:00:01.204,-0.00649417284876108,-0.00870511308312416,0.0135600781068206,0,
00:00:01.208,-0.023513950407505,0.00034292132477276,-0.0128632839769125,0,
00:00:01.212,0.000537409971002489,0.00059099675854668,-0.00595944561064243,0,
00:00:01.216,-0.00173693429678679,0.0319759137928486,-0.01113261282444,0,
00:00:01.22,0.029803678393364,0.00355202844366431,-0.00499629601836205,0,
00:00:01.224,0.00341641460545361,-0.0366691052913666,0.00730043696239591,0,
00:00:01.228,-0.0181869398802519,-0.0110463174059987,0.0307608880102634,0,
00:00:01.232,-0.0137706873938441,-0.000113325571874157,0.00145410001277924,0,
00:00:01.236,-0.0104932524263859,0.0386966429650784,-0.0182454064488411,0,
00:00:01.24,0.0348554253578186,0.0113110896199942,-0.0169447157531977,0,
00:00:01.244,0.0159191749989986,-0.00729561317712069,0.00843646749854088,0,
00:00:01.248,-0.00892355293035507,-0.0200146343559027,-0.00541747873649001,0,
00:00:01.252,-0.0313993133604527,-0.0175789333879948,0.0268582217395306,0,
00:00:01.256,-0.00888021290302277,-0.000116425231681205,-0.00297745340503752,0,
00:00:01.26,0.0222591124475002,0.0153628056868911,-0.0214760452508926,0,
00:00:01.264,0.0032696237321943,0.00188258453272283,0.00813009310513735,0,
00:00:01.268,-0.0101274456828833,-0.0159876700490713,-0.00985609088093042,0,
00:00:01.272,0.000121937584481202,0.0297897048294544,0.0231533758342266,0,
00:00:01.276,0.00399909121915698,0.017264673486352,-0.0186407379806042,0,
00:00:01.28,0.0286733899265528,-0.032258678227663,0.0121036879718304,0,
00:00:01.284,-0.0136269992217422,-0.0122648011893034,-0.0107191726565361,0,
00:00:01.288,-0.0174131095409393,0.0106637803837657,-0.00583755504339933,0,
00:00:01.292,-0.00319276796653867,0.0148430839180946,0.00102781783789396,0,
00:00:01.296,0.0193962454795837,-0.00288764457218349,-0.00127559038810432,0,
00:00:01.3,0.00264456681907177,-0.025369793176651,0.029702078551054,0,
00:00:01.304,-0.0720273926854134,0.0113036157563329,0.00871779676526785,0,
00:00:01.308,0.0583088658750057,-0.0132136046886444,-0.00684409309178591,0,
00:00:01.312,0.0128990244120359,0.0156755857169628,-0.0232738927006722,0,
00:00:01.316,-0.000674017937853932,0.0333432741463184,-0.034234594553709,0,
00:00:01.32,0.00921211671084166,0.000616668781731278,-0.00470258481800556,0,
00:00:01.324,0.00591977220028639,-0.0399154685437679,0.0464897453784943,0,
00:00:01.328,-0.0568853653967381,-0.0235852170735598,0.0386531241238117,0,
00:00:01.332,-0.0101136332377791,0.0316746421158314,-0.0409069992601871,0,
00:00:01.336,0.0418055951595306,0.00850768946111202,-0.0308070294559002,0,
00:00:01.34,0.0257601290941238,-0.0208962354809046,0.0405104719102383,0,
00:00:01.344,-0.0308799762278795,0.0067801782861352,0.0195930544286966,0,
00:00:01.348,-0.0185350459069014,0.00711775291711092,-0.0303617063909769,0,
00:00:01.352,0.0377095304429531,0.0157586820423603,-0.0168581120669842,0,
00:00:01.356,0.000796558277215809,0.000242206791881472,-0.0122077520936728,0,
00:00:01.36,-0.0284387581050396,-0.0176242478191853,0.0108431903645396,0,
00:00:01.364,0.00128617545124143,0.00390636082738638,0.0251238904893398,0,
00:00:01.368,0.0278367567807436,-0.00501512456685305,0.00340307340957224,0,
00:00:01.372,-0.0029929589945823,-0.0105316480621696,-0.0043009533546865,0,
00:00:01.376,-0.0235879961401224,0.00549575639888644,-0.000999243813566864,0,
00:00:01.38,-0.00251189456321299,0.0158371925354004,0.00107739761006087,0,
00:00:01.384,0.00738194771111012,-0.0163978654891253,-0.00806914828717709,0,
00:00:01.388,-0.000390341592719778,0.00105072965379804,-4.66155470348895E-05,0,
00:00:01.392,0.00127559737302363,0.0149607164785266,-0.0236990842968225,0,
00:00:01.396,0.00528699299320579,0.00341553776524961,0.0198133513331413,0,
00:00:01.4,0.00305143394507468,0.00110537221189588,0.0146837653592229,0,
00:00:01.404,0.00794141367077827,-0.0318987667560577,0.00411014910787344,0,
00:00:01.408,-0.0227481927722692,-0.00440132198855281,-0.0186836887151003,0,
00:00:01.412,-0.00348623935133219,0.0231650397181511,-0.0079005416482687,0,
00:00:01.416,0.0260375086218119,0.0159225538372993,0.0195103008300066,0,
00:00:01.42,-0.000604418222792447,0.00938934274017811,-0.0166902467608452,0,
00:00:01.424,0.0154233044013381,-0.030827846378088,0.0216424483805895,0,
00:00:01.428,-0.0855391696095467,0.0036953694652766,-0.0124108660966158,0,
00:00:01.432,0.0457191616296768,0.0052485903725028,-0.0103348400443792,0,
00:00:01.436,0.0329315587878227,-0.0110333310440183,0.00836534518748522,0,
00:00:01.44,-0.00890442728996277,-0.0170134417712688,0.00700320024043322,0,
00:00:01.444,-0.0110984994098544,0.0181518010795116,-0.00543819321319461,0,
00:00:01.448,-0.00319366320036352,0.0197532959282398,0.000474556669360027,0,
00:00:01.452,-0.00155601836740971,0.00762638496235013,0.0132903177291155,0,
00:00:01.456,0.00971379410475492,-0.0063922330737114,-0.0182672794908285,0,
00:00:01.46,0.000968349282629788,-0.0119986776262522,-0.0026872637681663,0,
00:00:01.464,-0.00632521416991949,-0.0198177471756935,-0.000963596918154508,0,
00:00:01.468,-0.00278310966677964,-0.0120466900989413,0.0139175485819578,0,
00:00:01.472,-0.0132546834647655,0.0385654121637344,-0.0109293991699815,0,
00:00:01.476,0.0247929506003857,0.00837878044694662,-0.0110569251701236,0,
00:00:01.48,-0.00295052258297801,-0.023318337276578,0.0500127971172333,0,
00:00:01.484,-0.0243476144969463,0.00800417829304934,-0.0162721797823906,0,
00:00:01.488,0.00784178171306849,0.0110019519925117,-0.0288679022341967,0,
00:00:01.492,0.0366507768630981,-0.00740260211750865,-0.0051812375895679,0,
00:00:01.496,-0.0140756918117404,-0.00948708783835173,0.0128586431965232,0,
00:00:01.5,-0.0164171047508717,-0.0127753848209977,0.00505873980000615,0,
00:00:01.504,-0.00496924156323075,0.00274533126503229,0.00510879000648856,0,
00:00:01.508,-0.00200910540297627,0.0185531880706549,-0.000563588051591069,0,
00:00:01.512,0.01272695325315,0.00759499939158559,-0.00414726277813315,0,
00:00:01.516,0.00105871283449233,-0.000252648576861247,-0.00205026008188725,0,
00:00:01.52,0.00687160901725292,-0.0211084373295307,-0.0184328779578209,0,
00:00:01.524,-0.0108639933168888,0.0126209426671267,0.0105904946103692,0,
00:00:01.528,0.00783408246934414,-0.0111959828063846,0.0213723573833704,0,
00:00:01.532,-0.0251313056796789,0.00376327405683696,0.00804518815129995,0,
00:00:01.536,0.00564259383827448,0.0181504003703594,-0.0183972399681807,0,
00:00:01.54,0.0363441035151482,-0.00923499651253223,-0.0101891634985805,0,
00:00:01.544,-0.00853520818054676,-0.0230178777128458,-0.00634068762883544,0,
00:00:01.548,-0.0227269493043423,0.0126261468976736,0.00693013006821275,0,
00:00:01.552,-0.0197459254413843,0.0275047495961189,-0.00873693637549877,0,
00:00:01.556,0.0480684526264668,-0.0293752644211054,0.017614496871829,0,
00:00:01.56,-0.0209048707038164,-0.0211159307509661,0.0127632115036249,0,
00:00:01.564,-0.0130363879725337,0.0265558157116175,-0.00159204413648695,0,
00:00:01.568,0.0125696426257491,0.0334691144526005,-0.0159870218485594,0,
00:00:01.572,0.0187682118266821,-0.0096121896058321,0.00691234460100532,0,
00:00:01.576,-0.00253220181912184,-0.0245611257851124,-0.000838064355775714,0,
00:00:01.58,-0.0157476607710123,-0.0182197298854589,-0.00391341047361493,0,
00:00:01.584,-0.0166396182030439,0.00844161119312048,-0.00518633844330907,0,
00:00:01.588,0.00499705923721194,0.00591158354654908,-0.00290618347935379,0,
00:00:01.592,0.00606082519516349,0.0187524799257517,0.00895057991147041,0,
00:00:01.596,0.019250750541687,-0.000835181446745992,0.00146219343878329,0,
00:00:01.6,-0.00299262185581028,-0.0119771705940366,0.00567692518234253,0,
00:00:01.604,-0.0146680353209376,-0.00287416088394821,-0.00443628104403615,0,
00:00:01.608,0.0084123220294714,-0.0139359952881932,0.0115592246875167,0,
00:00:01.612,-0.00837230123579502,0.0152286654338241,-0.0012661914806813,0,
00:00:01.616,-0.000134884830913506,0.0125983636826277,-0.0405566245317459,0,
00:00:01.62,-0.00747937662526965,-0.000312441872665659,-0.021296638995409,0,
00:00:01.624,0.0187847465276718,-0.0121686523780227,0.0223324932157993,0,
00:00:01.628,-0.00071935640880838,0.000107626474346034,0.0284938663244247,0,
00:00:01.632,-0.00246558827348053,0.0207290854305029,0.0183668844401836,0,
00:00:01.636,0.0161087904125452,-0.0232630297541618,0.0303305964916945,0,
00:00:01.64,-0.0111653497442603,-0.00941574014723301,-0.0125424601137638,0,
00:00:01.644,-0.0398439802229404,0.00655097467824817,-0.0273441020399332,0,
00:00:01.648,0.00792286451905966,0.00567765440791845,-0.0240523684769869,0,
00:00:01.652,0.028937079012394,-0.0130424937233329,-0.0168660152703524,0,
00:00:01.656,0.00874974578619003,0.0107080144807696,0.00246220827102661,0,
00:00:01.66,0.00305802538059652,0.0225503705441952,0.0188125353306532,0,
00:00:01.664,0.0096713500097394,0.00098713266197592,0.0156681127846241,0,
00:00:01.668,-0.0741201117634773,-0.00865729060024023,0.0036690637934953,0,
00:00:01.672,0.0184209290891886,-0.0219993833452463,0.00343274115584791,0,
00:00:01.676,0.0402582325041294,-0.00433049164712429,-0.0065501481294632,0,
00:00:01.68,0.0100270882248878,0.00398599728941917,-0.0168562512844801,0,
00:00:01.684,-0.00660056294873357,0.0187495537102222,-0.00365528324618936,0,
00:00:01.688,-0.00499011436477304,0.0118916658684611,0.00345055595971644,0,
00:00:01.692,-0.00589944049715996,-0.0168636869639158,0.0139285521581769,0,
00:00:01.696,-0.0156059227883816,-0.0194662902504206,0.0111566968262196,0,
00:00:01.7,-0.0116822076961398,0.0042475457303226,-0.00792202446609735,0,
00:00:01.704,0.0174603722989559,0.0131864221766591,-0.00972555484622717,0,
00:00:01.708,0.0105597488582134,0.0124046895653009,-0.00466312235221267,0,
00:00:01.712,0.0010686635505408,-0.00129319471307099,0.00484440103173256,0,
00:00:01.716,0.00416760612279177,-0.00951015017926693,-0.00466100685298443,0,
00:00:01.72,0.00215293141081929,-0.0091292280703783,-8.00778943812475E-05,0,
00:00:01.724,-0.0121232541278005,-0.00175413209944963,0.0169766023755074,0,
00:00:01.728,-0.0319056138396263,0.00595009280368686,-0.00465085869655013,0,
00:00:01.732,0.0286854021251202,-0.00292657408863306,0.00334842875599861,0,
00:00:01.736,0.0081156836822629,0.00778542412444949,-0.01072131190449,0,
00:00:01.74,0.0130762280896306,0.0075423032976687,-0.0153210600838065,0,
00:00:01.744,-0.025865288451314,-0.00196284777484834,0.0123529490083456,0,
00:00:01.748,0.00646220333874226,0.00517124682664871,-0.0051265973597765,0,
00:00:01.752,0.0222952105104923,-0.00997680891305208,0.0184445977210999,0,
00:00:01.756,-0.0234807785600424,-0.00965618155896664,0.0111639061942697,0,
00:00:01.76,-0.0121979294344783,-0.011630330234766,-0.00636190641671419,0,
00:00:01.764,0.0120205273851752,0.0124590378254652,-0.0164105761796236,0,
00:00:01.768,0.00917436927556992,0.00541171943768859,-0.00521288486197591,0,
00:00:01.772,-0.00772290676832199,0.00106775655876845,0.00271993689239025,0,
00:00:01.776,-0.0279325526207685,0.00972724054008722,-0.0113604897633195,0,
00:00:01.78,0.0352548584342003,-0.000205416086828336,0.000938573270104826,0,
00:00:01.784,0.0167734194546938,-0.0140618709847331,0.031888123601675,0,
00:00:01.788,-0.00574473803862929,0.00395380612462759,-0.00377808278426528,0,
00:00:01.792,-0.0197006687521935,0.00141959439497441,-0.00611792365089059,0,
00:00:01.796,-0.00676190294325352,0.00333232479169965,0.00264720874838531,0,
00:00:01.8,0.00535081280395389,-0.0136769581586123,-0.015374100767076,0,
00:00:01.804,-0.00162246637046337,0.00172512559220195,-0.00744475238025188,0,
00:00:01.808,0.0131858317181468,0.0103863775730133,0.00556400185450912,0,
00:00:01.812,-0.0105920294299722,-0.00549679109826684,0.0251856949180365,0,
00:00:01.816,-0.014743740670383,0.00182263762690127,-0.00812520738691092,0,
00:00:01.82,0.00814113486558199,0.0155296055600047,-0.020332420244813,0,
00:00:01.824,0.0275797843933105,-0.00835143588483334,0.0026685856282711,0,
00:00:01.828,0.00437360210344195,-0.0186499617993832,0.00833096355199814,0,
00:00:01.832,-0.0231468752026558,0.00569628737866879,0.00769007438793778,0,
00:00:01.836,-0.00382498535327613,0.00837711244821548,0.00724963610991836,0,
00:00:01.84,0.00760172167792916,-0.00474867969751358,-0.0139040732756257,0,
00:00:01.844,-0.0230559706687927,0.00874196644872427,-0.00992817617952824,0,
00:00:01.848,0.0156305562704802,0.00547240814194083,-0.00252341153100133,0,
00:00:01.852,0.0165841039270163,-0.00763405719771981,0.00751022854819894,0,
00:00:01.856,-0.00555513799190521,-0.0140996342524886,0.00994263403117657,0,
00:00:01.86,-0.00174812180921435,0.0111429402604699,0.010018702596426,0,
00:00:01.864,-0.00734100630506873,-0.00979465432465076,-0.0123391542583704,0,
00:00:01.868,-0.0038175240624696,-0.00702171074226499,0.000426837592385709,0,
00:00:01.872,-0.00739021319895983,0.0204590912908316,-0.00308228866197169,0,
00:00:01.876,0.0154402023181319,0.0208003874868155,-0.0180738065391779,0,
00:00:01.88,0.0162333697080612,-0.0117328315973282,0.0142048019915819,0,
00:00:01.884,-0.0149953560903668,-0.0288044586777687,0.00802271440625191,0,
00:00:01.888,-0.0164239220321178,-0.00928209722042084,-0.00478228600695729,0,
00:00:01.892,0.0191744770854712,0.022118991240859,0.0138316061347723,0,
00:00:01.896,-0.00246618152596056,0.0165019333362579,-0.0124229462817311,0,
00:00:01.9,-0.0263337679207325,0.00204902235418558,-0.00382574554532766,0,
00:00:01.904,0.0238118711858988,-0.00559098087251186,-0.0191712565720081,0,
00:00:01.908,0.0160188712179661,-0.0176819488406181,0.0205835122615099,0,
00:00:01.912,-0.0105654364451766,-0.00158261728938669,0.0200688969343901,0,
00:00:01.916,0.00209019496105611,-0.000229247321840376,-0.0216768719255924,0,
00:00:01.92,-0.012528101913631,0.0101042119786143,0.00368940131738782,0,
00:00:01.924,-0.00252435146830976,0.00560347130522132,-0.0038754150737077,0,
00:00:01.928,0.00432368787005544,-0.00917842425405979,0.0113301519304514,0,
00:00:01.932,0.0013524282258004,-0.00665484368801117,-0.00335234729573131,0,
00:00:01.936,-0.00136688409838825,0.00840257201343775,-0.0104949474334717,0,
00:00:01.94,0.00257619353942573,0.00909446831792593,-0.00179645081516355,0,
00:00:01.944,0.00620763748884201,0.00745805166661739,-0.00507160974666476,0,
00:00:01.948,-0.00365559593774378,-0.0085526630282402,0.0162864904850721,0,
00:00:01.952,-0.00634663412347436,-0.0210943873971701,0.00531431147828698,0,
00:00:01.956,-0.00174972030799836,-0.00413753278553486,0.00414305133745074,0,
00:00:01.96,-0.00180002872366458,0.0102473329752684,-0.00864798203110695,0,
00:00:01.964,0.0116571905091405,0.0111563820391893,-0.0108769042417407,0,
00:00:01.968,0.0121300183236599,0.0138985393568873,0.0044925520196557,0,
00:00:01.972,-0.0144072296097875,-0.00634878966957331,-0.0112891206517816,0,
00:00:01.976,-0.00513047119602561,-0.00631377706304193,-0.00763395009562373,0,
00:00:01.98,0.00529976468533278,-0.000137425900902599,0.0287842489778996,0,
00:00:01.984,-0.0174742043018341,-0.0307388547807932,0.0117024695500731,0,
00:00:01.988,-0.00615663593634963,0.0182906314730644,0.00175857404246926,0,
00:00:01.992,0.0326979719102383,0.00969771947711706,-0.0276364758610725,0,
00:00:01.996,0.00374955264851451,-0.00256761815398932,-0.00881602708250284,0,
00:00:02,-0.00523955607786775,0.0056173182092607,0.0015400517731905,0,
00:00:02.004,-0.00369832036085427,0.0151875112205744,0.00583953084424138,0,
00:00:02.008,-0.00760049372911453,-0.0219617038965225,0.0183210801333189,0,
00:00:02.012,-0.0154264625161886,-0.0163305681198835,7.86229720688425E-05,0,
00:00:02.016,0.00510458555072546,0.0181409232318401,-0.00845836568623781,0,
00:00:02.02,0.0271811746060848,0.00446218810975552,0.00232265284284949,0,
00:00:02.024,-0.0083845928311348,0.00943425111472607,-0.0173030681908131,0,
00:00:02.028,-0.0155443008989096,-0.00783697608858347,0.00762041518464684,0,
00:00:02.032,4.56599955214188E-05,-0.0177960470318794,0.0192726068198681,0,
00:00:02.036,0.0102800047025084,0.0034568679984659,-0.0195384249091148,0,
00:00:02.04,-0.00461544096469879,0.011725464835763,0.00745065556839108,0,
00:00:02.044,0.0152103994041681,-0.0118470285087824,0.000974495313130319,0,
00:00:02.048,-0.00835102517157793,0.0090037202462554,-0.0150213772431016,0,
00:00:02.052,-0.00234254007227719,0.0116180954501033,0.00489891925826669,0,
00:00:02.056,0.00440932251513004,-0.00359808234497905,0.0042699771001935,0,
00:00:02.06,-0.00972106214612722,-0.0118603203445673,0.00237265066243708,0,
00:00:02.064,-0.00385747128166258,-0.0139144379645586,0.0235646795481443,0,
00:00:02.068,-0.0173757132142782,0.0118303205817938,-0.00114717171527445,0,
00:00:02.072,0.0110684782266617,0.0223723724484444,-0.0340778715908527,0,
00:00:02.076,0.0404821150004864,-0.00396891590207815,-0.0184298828244209,0,
00:00:02.08,0.00170716166030616,-0.0195642281323671,0.0293149743229151,0,
00:00:02.084,-0.0289772786200047,0.00601542321965098,-0.00102103012613952,0,
00:00:02.088,-0.00529867550358176,-0.0012877507833764,0.0149391666054726,0,
00:00:02.092,0.00323293684050441,-0.0201990287750959,-0.000275936967227608,0,
00:00:02.096,-0.0168953277170658,0.0180978290736675,-0.0202844031155109,0,
00:00:02.1,0.00685010943561792,0.0288827065378428,-0.00638522394001484,0,
00:00:02.104,0.0276188179850578,-0.014713448472321,0.0200211815536022,0,
00:00:02.108,0.0033273808658123,-0.0208472665399313,0.00579981040209532,0,
00:00:02.112,-0.0219371095299721,0.00461143674328923,-0.00448583625257015,0,
00:00:02.116,-0.00544678512960672,0.0117687545716763,-0.0178950466215611,0,
00:00:02.12,0.011606658808887,-0.00706359837204218,0.0025683434214443,0,
00:00:02.124,-0.00662937248125672,-0.00280606932938099,0.00280950427986681,0,
00:00:02.128,0.0051859593950212,0.00548390438780189,0.0125228930264711,0,
00:00:02.132,0.00564638897776604,0.0155521612614393,-0.0125207062810659,0,
00:00:02.136,0.0139811700209975,-0.0106453476473689,-0.0032603912986815,0,
00:00:02.14,-0.014193857088685,-0.0271072778850794,0.0237345658242702,0,
00:00:02.144,-0.0635445564985275,-0.0140945529565215,0.0078887240961194,0,
00:00:02.148,0.0348719507455826,0.0335109010338783,-0.0222297478467226,0,
00:00:02.152,0.0343670658767223,0.0270517356693745,-0.014079300686717,0,
00:00:02.156,0.0164417531341314,0.00284034758806229,-0.0035324867349118,0,
00:00:02.16,-0.000192102568689734,-0.0138533180579543,0.00441444898024201,0,
00:00:02.164,-0.0146048236638308,-0.0251578781753778,0.00330807897262275,0,
00:00:02.168,-0.0253749899566174,-0.00867619831115007,0.0288724973797798,0,
00:00:02.172,-0.00663661956787109,0.0173497293144464,0.00507421139627695,0,
00:00:02.176,0.00928409490734339,-0.00370555813424289,-0.0220938716083765,0,
00:00:02.18,0.00500637013465166,0.000570650212466717,-0.0075378380715847,0,
00:00:02.184,-0.00246831076219678,0.00402935268357396,-0.00571667775511742,0,
00:00:02.188,0.00839188601821661,0.0103218099102378,0.0028997827321291,0,
00:00:02.192,0.00990018714219332,0.00220170943066478,-0.00312601355835795,0,
00:00:02.196,0.000157109476276673,-0.00727144861593843,0.00968490075320005,0,
00:00:02.2,-0.00894524436444044,-0.00725270668044686,0.0057840533554554,0,
00:00:02.204,-0.0036683832295239,-0.0114793367683887,0.00363742979243398,0,
00:00:02.208,-0.0192049499601126,0.00254634069278836,0.0047873966395855,0,
00:00:02.212,0.00191284599713981,0.0133379716426134,-0.0040214266628027,0,
00:00:02.216,0.0168394949287176,0.0125289913266897,-0.0274250879883766,0,
00:00:02.22,0.0268061179667711,-0.00785207748413086,0.00846634432673454,0,
00:00:02.224,-0.0177467726171017,-0.00830121524631977,0.0163336805999279,0,
00:00:02.228,-0.0146776791661978,0.00758028822019696,-0.00929164420813322,0,
00:00:02.232,0.00892213359475136,0.00226507824845612,-0.00774363754317164,0,
00:00:02.236,0.0133630996569991,-0.00855538807809353,0.0232953615486622,0,
00:00:02.24,-0.0210408288985491,-0.0146723734214902,-0.00556259928271174,0,
00:00:02.244,-0.0255856141448021,-0.00314461486414075,-0.00724036991596222,0,
00:00:02.248,0.0143062239512801,0.0260442905128002,-0.00609690928831697,0,
00:00:02.252,0.0353715904057026,0.00727142998948693,0.00172950094565749,0,
00:00:02.256,-0.000203466304810718,-0.00661650719121099,0.00776345375925303,0,
00:00:02.26,-0.00740939797833562,-0.0165323559194803,-0.00563025893643498,0,
00:00:02.264,-0.0201470367610455,0.00133912079036236,0.00330960261635482,0,
00:00:02.268,-0.00130282389000058,0.020830238237977,-0.00191355997230858,0,
00:00:02.272,0.0265914313495159,-0.00715038599446416,0.00323907705023885,0,
00:00:02.276,-0.011889174580574,-0.00204393966123462,-0.00104022095911205,0,
00:00:02.28,-0.00942245312035084,-0.0164108388125896,-0.00795374624431133,0,
00:00:02.284,-0.0220929961651564,-0.0195070542395115,0.0195465125143528,0,
00:00:02.288,0.00703775091096759,0.0311250071972609,-0.0150530990213156,0,
00:00:02.292,0.0326934903860092,0.0227635949850082,-0.00442079408094287,0,
00:00:02.296,0.0109763275831938,-0.00304107018746436,-0.000277880695648491,0,
00:00:02.3,-0.00855691358447075,-0.0108539229258895,0.00359980040229857,0,
00:00:02.304,-0.00893846154212952,-0.0174499973654747,0.00640880642458797,0,
00:00:02.308,-0.0169483032077551,-0.012827749364078,0.01101397536695,0,
00:00:02.312,-0.00148537172935903,0.0143770053982735,-0.0092230373993516,0,
00:00:02.316,0.00777502544224262,0.00971472728997469,-0.0097279641777277,0,
00:00:02.32,0.00450227176770568,0.00436313962563872,-0.00762067548930645,0,
00:00:02.324,0.00219939067028463,0.00190751906484365,0.00401876913383603,0,
00:00:02.328,-0.00581103330478072,-0.000496378226671368,0.0158706270158291,0,
00:00:02.332,0.00522685889154673,-0.00447114696726203,0.00174384540878236,0,
00:00:02.336,0.008006920106709,0.00305242463946342,-0.0173587091267109,0,
00:00:02.34,0.00608973810449243,-0.00898568332195282,0.00425603566691279,0,
00:00:02.344,-0.0119483973830938,-0.021233843639493,0.0171300861984491,0,
00:00:02.348,-0.0301143731921911,0.00924398750066757,-0.00939488224685192,0,
00:00:02.352,0.00347057264298201,0.0111710047349334,-0.00989022012799978,0,
00:00:02.356,0.0254373829811811,0.000805117597337812,0.00158398994244635,0,
00:00:02.36,0.00296664005145431,0.0284675974398851,-0.000601009582169354,0,
00:00:02.364,0.0219536982476711,0.00415579695254564,0.00595638481900096,0,
00:00:02.368,-0.00747280800715089,-0.0240017510950565,-0.00283233146183193,0,
00:00:02.372,-0.0194056276232004,-0.0242720860987902,-0.00084471347508952,0,
00:00:02.376,-0.0154276164248586,-0.00808549020439386,0.0165290161967278,0,
00:00:02.38,-0.00667452858760953,0.0150418756529689,-0.0153296729549766,0,
00:00:02.384,0.0109214782714844,0.0111905392259359,-0.00193448946811259,0,
00:00:02.388,0.00854247529059649,0.000391607522033155,0.0103304330259562,0,
00:00:02.392,0.00664712209254503,0.0117076802998781,0.000173720691236667,0,
00:00:02.396,0.0114583922550082,0.00927809905260801,-0.018165597692132,0,
00:00:02.4,0.00401988578960299,-0.00995233561843634,-0.00428323587402701,0,
00:00:02.404,-0.0191723946481943,-0.0200624763965607,0.00685274647548795,0,
00:00:02.408,-0.0116010596975684,0.00370987504720688,0.00976534839719534,0,
00:00:02.412,0.0235632620751858,-0.0163532812148333,0.0188773646950722,0,
00:00:02.416,-0.0393071584403515,-0.0111265508458018,-0.00245241611264646,0,
00:00:02.42,-0.0266785677522421,0.041933186352253,-0.01644691452384,0,
00:00:02.424,0.0667725130915642,0.0246037356555462,-0.00946111418306828,0,
00:00:02.428,0.0295833572745323,-0.0147042060270905,-0.00387196103110909,0,
00:00:02.432,-0.0137314749881625,-0.0224774535745382,0.00109981128480285,0,
00:00:02.436,-0.028930926695466,0.00514734722673893,0.00414715707302094,0,
00:00:02.44,-0.00301074027083814,-0.00846970174461603,0.0109130088239908,0,
00:00:02.444,-0.0152651714161038,-0.00719234673306346,0.00778325740247965,0,
00:00:02.448,-0.00296112895011902,-0.000449173443485051,-0.00105616031214595,0,
00:00:02.452,0.0131246354430914,0.0154007375240326,-0.0105816321447492,0,
00:00:02.456,0.014563238248229,0.0071039916947484,-0.013001462444663,0,
00:00:02.46,0.00742750195786357,-0.00491431541740894,0.00761192152276635,0,
00:00:02.464,0.00320281716994941,-0.0110411895439029,0.0230945944786072,0,
00:00:02.468,-0.0389682352542877,0.0127984471619129,-0.0107804043218493,0,
00:00:02.472,0.0157342981547117,-0.00182021514046937,-0.0154343089088798,0,
00:00:02.476,0.00796748977154493,-0.00415576575323939,-0.00507147377356887,0,
00:00:02.48,-0.00205509550869465,-0.00199539470486343,0.00656217569485307,0,
00:00:02.484,0.00271001295186579,0.000457156216725707,-0.000329033675370738,0,
00:00:02.488,0.0176499634981155,0.00575113575905561,0.0143650835379958,0,
00:00:02.492,-0.0233888197690248,-0.00668166903778911,0.00262122112326324,0,
00:00:02.496,-0.0240556765347719,-0.000825024791993201,0.00892702862620354,0,
00:00:02.5,0.0217853095382452,0.00675282627344131,-0.0146983228623867,0,
00:00:02.504,0.0143355345353484,-0.0010122440289706,-0.0152536015957594,0,
00:00:02.508,-0.0015919441357255,-0.00182174076326191,-0.00168610108084977,0,
00:00:02.512,0.00300413370132446,0.00144923373591155,0.00573665229603648,0,
00:00:02.516,-0.0199303757399321,0.000491062121000141,0.0090083833783865,0,
00:00:02.52,0.00240293075330555,-0.000879618746694177,-0.00387830450199544,0,
00:00:02.524,0.00890155788511038,0.00281914882361889,-0.00114317843690515,0,
00:00:02.528,0.00404565269127488,0.00758819049224257,0.0152459992095828,0,
00:00:02.532,0.00470004742965102,-0.013235148973763,-0.0103252725675702,0,
00:00:02.536,-0.0140087362378836,-0.030461871996522,0.0188868679106236,0,
00:00:02.54,-0.0166765693575144,0.0132115976884961,-0.0194742176681757,0,
00:00:02.544,0.011391899548471,0.0323720648884773,-0.020413788035512,0,
00:00:02.548,0.0196362975984812,0.0157345123589039,-0.000189584156032652,0,
00:00:02.552,0.00803772173821926,-0.0130433887243271,0.013257697224617,0,
00:00:02.556,-0.0127435242757201,-0.0238050073385239,0.0224011093378067,0,
00:00:02.56,-0.0311949625611305,-0.0125388335436583,-0.00505267409607768,0,
00:00:02.564,0.00271437037736177,0.0100331958383322,-0.00799711793661118,0,
00:00:02.568,0.0291515029966831,0.0163584668189287,-0.00582403177395463,0,
00:00:02.572,0.0236812755465508,0.00420181918889284,-0.00825570896267891,0,
00:00:02.576,-0.0134810693562031,-0.0120203094556928,0.0110573200508952,0,
00:00:02.58,-0.0321722775697708,0.00195072940550745,0.00529019767418504,0,
00:00:02.584,-0.00147244846448302,0.00443469593301415,-0.00276680500246584,0,
00:00:02.588,0.00935931503772736,0.0100631741806865,-0.00152055267244577,0,
00:00:02.592,0.0171678457409143,-0.0363397337496281,-0.00571450358256698,0,
00:00:02.596,-0.0059720971621573,-0.00257657142356038,0.00691551528871059,0,
00:00:02.6,-0.0114263519644737,0.0357295572757721,-0.00311994785442948,0,
00:00:02.604,0.00602134922519326,0.00665934989228845,-0.00886835251003504,0,
00:00:02.608,0.00983927305787802,-0.0120319407433271,0.00827431213110685,0,
00:00:02.612,-0.00739246280863881,-0.00446418207138777,0.000869933573994786,0,
00:00:02.616,-0.00421496294438839,0.0052183773368597,-0.00337942014448345,0,
00:00:02.62,0.00150827004108578,-0.0287438556551933,0.0240266863256693,0,
00:00:02.624,-0.00453033065423369,0.00017803386435844,-0.00724198343232274,0,
00:00:02.628,0.0084512522444129,0.020611584186554,-0.0224053803831339,0,
00:00:02.632,-0.00997347850352526,0.0187152624130249,0.00329379946924746,0,
00:00:02.636,0.0100803785026073,0.000146881109685637,-0.00233295722864568,0,
00:00:02.64,0.00886272359639406,-0.0118374079465866,0.00371417193673551,0,
00:00:02.644,-0.0010249346960336,-0.0167403481900692,0.00497777573764324,0,
00:00:02.648,-0.0196010023355484,-0.000307932001305744,-0.00305494666099548,0,
00:00:02.652,0.00263253133744001,0.0105410665273666,0.0168485082685947,0,
00:00:02.656,0.00423605274409056,0.00646829279139638,-0.00834981445223093,0,
00:00:02.66,0.0114604849368334,0.00825335457921028,-0.0117410328239202,0,
00:00:02.664,-0.00667056860402226,-0.0137039171531796,-0.00338959787040949,0,
00:00:02.668,-0.00274299457669258,-0.0250684916973114,0.0100809382274747,0,
00:00:02.672,-0.0285150222480297,0.0168595518916845,0.00842661317437887,0,
00:00:02.676,0.0229447316378355,0.0211535729467869,-0.0024119857698679,0,
00:00:02.68,0.0318256355822086,-0.00760663999244571,-0.0142024224624038,0,
00:00:02.684,-0.0135483611375093,-0.00276086665689945,-0.00277771521359682,0,
00:00:02.688,-0.00653880555182695,-0.00222357991151512,0.0112437643110752,0,
00:00:02.692,-0.00600042287260294,0.00217179791070521,0.00904957577586174,0,
00:00:02.696,-0.00673664128407836,-0.0154480878263712,-0.00455048959702253,0,
00:00:02.7,-0.0143830953165889,-0.00380755844525993,-0.00644633732736111,0,
00:00:02.704,0.0123237324878573,0.0143416691571474,-0.0075265746563673,0,
00:00:02.708,0.00988953467458487,0.0177895855158567,0.00830947421491146,0,
00:00:02.712,0.0141783161088824,0.000777725013904274,0.00360518274828792,0,
00:00:02.716,-0.00254441448487341,-0.00699395826086402,0.00572235276922584,0,
00:00:02.72,-0.00652819639071822,-0.00995536986738443,-0.0185622666031122,0,
00:00:02.724,0.0011053632479161,-0.0196240805089474,0.000907380308490247,0,
00:00:02.728,-0.0248583648353815,0.00785128492861986,0.00891235657036304,0,
00:00:02.732,0.00454493565484881,0.00799333490431309,-0.000768338155467063,0,
00:00:02.736,0.0173783041536808,0.0127787459641695,0.00799933262169361,0,
00:00:02.74,-0.0172782614827156,-0.00265239691361785,-0.00440611224621534,0,
00:00:02.744,0.010006207972765,0.00323671312071383,0.00145186029840261,0,
00:00:02.748,0.0300302654504776,-0.0210543517023325,-0.00746008800342679,0,
00:00:02.752,-0.0266933161765337,0.00942638237029314,-0.00377407995983958,0,
00:00:02.756,-0.000245860836002976,0.00907386373728514,0.00149793096352369,0,
00:00:02.76,-0.00181329215411097,0.00715908082202077,0.00191536755301058,0,
00:00:02.764,0.00718641793355346,-0.0230361577123404,0.0137243801727891,0,
00:00:02.768,-0.00560219818726182,-0.00884700287133455,-0.000730869418475777,0,
00:00:02.772,-0.0198704358190298,0.014181749895215,-0.013018386438489,0,
00:00:02.776,0.0107655245810747,0.0118465246632695,-0.00653128512203693,0,
00:00:02.78,0.0180311761796474,-0.00781799387186766,0.0165224485099316,0,
00:00:02.784,-0.00392988137900829,0.00556494761258364,-0.0119590749964118,0,
00:00:02.788,0.00506867794319987,0.0124422153457999,0.00602538976818323,0,
00:00:02.792,0.00540199736133218,-0.019425081089139,0.000413363130064681,0,
00:00:02.796,-0.0265528298914433,-0.00750369811430573,-0.00102589337620884,0,
00:00:02.8,0.00241681886836886,0.00449943169951439,-0.00280081550590694,0,
00:00:02.804,0.0055200164206326,-0.0021036637481302,-0.000166136596817523,0,
00:00:02.808,0.00405059522017837,-0.00553050963208079,0.0122641772031784,0,
00:00:02.812,0.00351804262027144,0.00535757746547461,-0.0160683318972588,0,
00:00:02.816,-0.0128593938425183,0.00439151050522923,0.0132372817024589,0,
00:00:02.82,-0.0116961123421788,0.0137597778812051,-0.00840061064809561,0,
00:00:02.824,0.0330819636583328,0.0125628057867289,0.00234637060202658,0,
00:00:02.828,0.0165083017200232,-0.0114088309928775,-0.00668813195079565,0,
00:00:02.832,-0.028345201164484,-0.0155620658770204,-0.00142815767321736,0,
00:00:02.836,-0.0070718377828598,-0.00284689082764089,0.00818320829421282,0,
00:00:02.84,0.0151436701416969,-0.0168114919215441,-0.00067969027440995,0,
00:00:02.844,-0.0155954761430621,-0.0025032355915755,0.0185875203460455,0,
00:00:02.848,-0.034652728587389,0.0256572552025318,-0.0142802614718676,0,
00:00:02.852,0.0348704718053341,0.0194781553000212,-0.00489761494100094,0,
00:00:02.856,0.0338719859719276,-0.00710109481588006,-0.0126893250271678,0,
00:00:02.86,-0.0136734461411834,-0.00925774313509464,0.0171494800597429,0,
00:00:02.864,-0.0108034731820226,-0.00232601747848094,-0.00987668707966805,0,
00:00:02.868,0.00213122786954045,0.00208931928500533,-0.0029788997489959,0,
00:00:02.872,-0.00750189879909158,-0.00812367536127567,0.0105719175189734,0,
00:00:02.876,-0.00726264016702771,-0.00655901851132512,0.00470110820606351,0,
00:00:02.88,0.00410608248785138,0.00969500746577978,-0.00672016246244311,0,
00:00:02.884,0.00733355805277824,-0.00582859944552183,0.00284641375765204,0,
00:00:02.888,-0.00138678518123925,0.00558211142197251,0.00596343819051981,0,
00:00:02.892,0.000276266160653904,-0.000517841021064669,-0.00305573758669198,0,
00:00:02.896,-0.0103645790368319,0.00980616919696331,-0.00997910927981138,0,
00:00:02.9,0.00734636001288891,0.00334226270206273,-0.00429458916187286,0,
00:00:02.904,0.00962699670344591,-0.00197592470794916,0.0043303850106895,0,
00:00:02.908,0.0021949908696115,-0.00661383708938956,0.00729859946295619,0,
00:00:02.912,0.000105583800177556,-0.000281564221950248,-0.00752610899507999,0,
00:00:02.916,-0.00971593149006367,-0.0111394384875894,0.0124589204788208,0,
00:00:02.92,-0.0134194307029247,-0.0251383502036333,-0.00322017981670797,0,
00:00:02.924,-0.0035727156791836,0.0174167342483997,-0.0114833172410727,0,
00:00:02.928,0.0305391475558281,0.0151751032099128,0.0180572737008333,0,
00:00:02.932,-0.035569965839386,0.0326988101005554,0.00415932340547442,0,
00:00:02.936,0.0213956758379936,0.00407407945021987,-0.0291471052914858,0,
00:00:02.94,0.0257640052586794,-0.0236166995018721,0.000169996768818237,0,
00:00:02.944,-0.00602949410676956,-0.013611301779747,0.00716463150456548,0,
00:00:02.948,-0.0134684918448329,-0.0166392009705305,0.00553979212418199,0,
00:00:02.952,-0.0115970438346267,-0.00934766698628664,0.00212309067137539,0,
00:00:02.956,-0.00498381117358804,0.00810952577739954,0.00388088752515614,0,
00:00:02.96,-0.00897276401519775,0.035055760294199,0.00950620509684086,0,
00:00:02.964,0.0187871567904949,0.00193039327859879,-0.00542561337351799,0,
00:00:02.968,0.0111214015632868,-0.0135950511321425,-0.0175620820373297,0,
00:00:02.972,-0.0036548119969666,-0.00504224142059684,0.0100066550076008,0,
00:00:02.976,-0.00170947413425893,-0.00500132143497467,-0.0107756676152349,0,
00:00:02.98,-0.019603293389082,0.00475677801296115,0.000440513715147972,0,
00:00:02.984,0.00433620903640985,0.00849695783108473,0.00598165253177285,0,
00:00:02.988,0.0233732461929321,0.00331911235116422,0.00791979860514402,0,
00:00:02.992,0.0060959542170167,-0.0169249325990677,0.00489379651844502,0,
00:00:02.996,-0.0266631692647934,-0.00362335727550089,-0.00201564561575651,0,
00:00:03,0.00169174198526889,0.0148492539301515,-0.011884625069797,0,
00:00:03.004,0.0148252965882421,0.00680453842505813,-0.00954268127679825,0,
00:00:03.008,-0.0130948349833488,-0.020244475454092,0.0188022311776876,0,
00:00:03.012,-0.00155076361261308,-0.00661714840680361,0.00969234760850668,0,
00:00:03.016,-0.000894039345439523,0.0125697767361999,-0.0123744057491422,0,
00:00:03.02,0.00750871933996677,0.00251710298471153,-0.0147760137915611,0,
00:00:03.024,-0.00114360952284187,0.0147817311808467,-0.000292539363726974,0,
00:00:03.028,0.0103177968412638,0.00728838797658682,0.00527758989483118,0,
00:00:03.032,0.00432469882071018,-0.00782943889498711,0.0159479696303606,0,
00:00:03.036,-0.00580069934949279,-0.0265301894396544,0.00183079391717911,0,
00:00:03.04,-0.00539630372077227,-0.0195616632699966,-0.0048483950085938,0,
00:00:03.044,-0.0543910153210163,0.0183133464306593,0.00678313570097089,0,
00:00:03.048,0.0407967492938042,0.0247531440109015,-0.0172831285744905,0,
00:00:03.052,0.0349814184010029,0.00931420177221298,-0.0145663758739829,0,
00:00:03.056,-0.00173885247204453,-0.0158331729471684,0.00586418434977531,0,
00:00:03.06,-0.0268310941755772,-0.00149432115722448,0.016120970249176,0,
00:00:03.064,0.0117562292143703,-0.00515961414203048,0.00272118370048702,0,
00:00:03.068,0.00318242586217821,0.0055534215644002,-0.00308037153445184,0,
00:00:03.072,-0.0317467823624611,-0.0093424879014492,0.00882295798510313,0,
00:00:03.076,0.00826534349471331,-0.0103720556944609,-0.00115672871470451,0,
00:00:03.08,0.00576693052425981,0.00721277575939894,-0.00685751065611839,0,
00:00:03.084,0.00661920150741935,0.0175333842635155,-0.0108347227796912,0,
00:00:03.088,0.0135848633944988,0.0136698428541422,-0.00125171174295247,0,
00:00:03.092,0.00660522887483239,-0.00766103388741612,0.00179906596895307,0,
00:00:03.096,-0.0132978968322277,-0.0218733679503202,0.00464340345934033,0,
00:00:03.1,-0.0296470429748297,-0.00777783244848251,0.0149484854191542,0,
00:00:03.104,0.0107337329536676,0.00825651083141565,-0.00334440241567791,0,
00:00:03.108,0.021724458783865,0.00267722806893289,-0.0206073839217424,0,
00:00:03.112,0.00120930036064237,0.00367814907804132,0.0103207174688578,0,
00:00:03.116,-0.000322868349030614,0.01008783839643,0.000539791071787477,0,
00:00:03.12,-0.0391984730958939,0.000366602034773678,0.00792910624295473,0,
00:00:03.124,0.0159478671848774,-0.00284861866384745,-0.00925156101584435,0,
00:00:03.128,0.0255712196230888,-0.00948041211813688,-0.0012787712039426,0,
00:00:03.132,0.00690992223098874,0.00139162689447403,0.00394669454544783,0,
00:00:03.136,-0.00492362398654222,-0.000647678272798657,0.00215671048499644,0,
00:00:03.14,-0.00490420311689377,-0.00470518600195646,-0.00886082090437412,0,
00:00:03.144,-0.0363021641969681,0.00219517713412642,0.0060431407764554,0,
00:00:03.148,0.00878861732780933,-0.00413372553884983,0.00703268777579069,0,
00:00:03.152,0.0110979480668902,0.0191814731806517,-0.0122446278110147,0,
00:00:03.156,0.0203033555299044,0.00149890722241253,-0.0010026436066255,0,
00:00:03.16,0.00166941015049815,-0.0108719039708376,0.00859882216900587,0,
00:00:03.164,-0.0139939514920115,-0.00740215694531798,0.0193325839936733,0,
00:00:03.168,0.00759429624304175,-0.00271918764337897,-0.0127725871279836,0,
00:00:03.172,-0.0243865475058556,0.0118139060214162,-0.0237729903310537,0,
00:00:03.176,-0.000381528952857479,0.00408978434279561,-0.00495047867298126,0,
00:00:03.18,0.0207813903689384,-0.00207939045503736,0.0148773677647114,0,
00:00:03.184,0.0128112593665719,-0.0063417418859899,0.00399139150977135,0,
00:00:03.188,-0.00704385619610548,-0.00544047355651855,0.0194718334823847,0,
00:00:03.192,-0.0258653219789267,0.000446126738097519,-0.00914302840828896,0,
00:00:03.196,-0.00781223177909851,0.002094253199175,-0.0119119193404913,0,
00:00:03.2,0.0223616771399975,0.0166526697576046,-0.00530554307624698,0,
00:00:03.204,0.0159741211682558,0.000182852614670992,0.00342919840477407,0,
00:00:03.208,0.00751127302646637,-0.0245646554976702,0.00867962464690208,0,
00:00:03.212,-0.0266461614519358,0.00153887062333524,0.000577632163185626,0,
00:00:03.216,-0.00904311239719391,0.0172843635082245,-0.00726945092901587,0,
00:00:03.22,0.0156442727893591,0.00917492527514696,-0.00961485505104065,0,
00:00:03.224,0.00610521342605352,-0.00237411633133888,0.00960901286453009,0,
00:00:03.228,-0.00326817878521979,-0.0312736183404922,0.0129455653950572,0,
00:00:03.232,-0.0190379675477743,-0.0194970387965441,0.0105572091415524,0,
00:00:03.236,-0.00950327981263399,0.0291263610124588,-0.0287213176488876,0,
00:00:03.24,0.020539416000247,0.0361263006925583,-0.00921529531478882,0,
00:00:03.244,0.0202007703483105,0.00299194385297596,0.00113783124834299,0,
00:00:03.248,-0.00137885962612927,-0.02467230707407,0.0265771374106407,0,
00:00:03.252,-0.014404559507966,-0.0253905281424522,0.0177797637879848,0,
00:00:03.256,-0.0117896385490894,0.0076213926076889,-0.035335011780262,0,
00:00:03.26,0.00279290927574039,0.00531291356310248,-0.00560175580903888,0,
00:00:03.264,0.00804271455854177,0.00721341324970126,0.0100465388968587,0,
00:00:03.268,0.00400283373892307,0.0018427181057632,0.000907733454369009,0,
00:00:03.272,-0.0174062810838223,0.0102487383410335,0.00438352534547448,0,
00:00:03.276,0.0168681479990482,-0.0106684509664774,0.00137533887755126,0,
00:00:03.28,0.0188654605299234,-0.0132520953193307,-0.00379318534396589,0,
00:00:03.284,-0.0314794294536114,0.00650718901306391,-0.00284114712849259,0,
00:00:03.288,-0.000706856488250196,0.00520624918863177,-0.00871356297284365,0,
00:00:03.292,0.0109484856948256,0.0104732662439346,0.0112200602889061,0,
00:00:03.296,-0.00753784133121371,-0.00413245754316449,0.00201983377337456,0,
00:00:03.3,0.00742673827335238,-0.0245377141982317,0.00816545449197292,0,
00:00:03.304,0.000391556270187721,0.00222135172225535,0.00425038812682033,0,
00:00:03.308,-0.00983711238950491,0.0264488700777292,-0.0186842903494835,0,
00:00:03.312,0.0129172503948212,0.000294656754704192,-0.00884140841662884,0,
00:00:03.316,0.0044660777784884,-0.00992788281291723,0.0040217456407845,0,
00:00:03.32,-0.00993634853512049,-0.0108556738123298,0.00726729165762663,0,
00:00:03.324,-0.00887367408722639,0.0073265302926302,0.0030215794686228,0,
00:00:03.328,0.00814466178417206,0.0105884401127696,0.00541873183101416,0,
00:00:03.332,-0.000245162664214149,-0.00314275408163667,-0.00591500476002693,0,
00:00:03.336,0.00377175561152399,-9.51670008362271E-05,-0.00408292701467872,0,
00:00:03.34,0.0115672247484326,-0.0244506429880857,0.00844845362007618,0,
00:00:03.344,-0.0239566620439291,-0.00601967005059123,0.000801948015578091,0,
00:00:03.348,-0.0154991010203958,0.0247384421527386,-0.0038786088116467,0,
00:00:03.352,0.0209287498146296,0.0239603966474533,-0.00227388832718134,0,
00:00:03.356,0.0241634007543325,0.00617865286767483,-0.0104539580643177,0,
00:00:03.36,0.0102805476635695,-0.0237792525440454,-0.0016841801116243,0,
00:00:03.364,-0.0278623383492231,-0.0342201627790928,0.0124598611146212,0,
00:00:03.368,-0.0307962242513895,0.0168947838246822,0.0165928900241852,0,
00:00:03.372,0.015929264947772,0.00971320923417807,-0.01588592864573,0,
00:00:03.376,0.0163763947784901,0.00250000017695129,-0.00538739562034607,0,
00:00:03.38,0.00453756563365459,0.00495662912726402,-0.00157152069732547,0,
00:00:03.384,-0.00227233930490911,0.000545056711416692,0.000391703797504306,0,
00:00:03.388,-0.00229590246453881,-0.00318393972702324,0.00364910438656807,0,
00:00:03.392,-0.00119961518794298,-0.0102041205391288,0.0124605093151331,0,
00:00:03.396,-0.0130588850006461,0.00134208588860929,0.00478614028543234,0,
00:00:03.4,0.00094763602828607,0.00652523152530193,-0.0186451766639948,0,
00:00:03.404,0.0108260409906507,-0.000821992463897914,-0.00660194922238588,0,
00:00:03.408,0.00206771749071777,0.00114662398118526,0.00839062128216028,0,
00:00:03.412,0.00128778582438827,0.00671576894819736,0.00374880782328546,0,
00:00:03.416,0.00302398460917175,0.00183918524999171,-0.00840932782739401,0,
00:00:03.42,0.00401477375999093,-0.00967200472950935,-0.00216515851207078,0,
00:00:03.424,-0.00906503293663263,-0.0326262339949608,0.0211845356971025,0,
00:00:03.428,-0.0299939513206482,0.00965889729559422,-0.00120698474347591,0,
00:00:03.432,-0.00671223597601056,0.04092912748456,-0.00678825844079256,0,
00:00:03.436,0.0463262908160686,0.0106582418084145,-0.0155790895223618,0,
00:00:03.44,0.018557308241725,-0.0147114973515272,-0.00238579954020679,0,
00:00:03.444,-0.0133244441822171,-0.0210882406681776,0.00827491655945778,0,
00:00:03.448,-0.0264166742563248,0.00553025910630822,-0.0003302916593384,0,
00:00:03.452,0.00790960993617773,-0.00426177401095629,0.0154042299836874,0,
00:00:03.456,-0.00405941810458899,-0.0168721731752157,0.0140417059883475,0,
00:00:03.46,-0.0127370720729232,0.00737754860892892,-0.0217142123728991,0,
00:00:03.464,0.00765962572768331,0.0275937933474779,-0.0105017796158791,0,
00:00:03.468,0.0245522037148476,0.00123393442481756,-0.00992455333471298,0,
00:00:03.472,-0.00438292510807514,0.00121555908117443,0.0113102318719029,0,
00:00:03.476,-0.000860277097672224,-0.00407304940745234,0.00495235295966268,0,
00:00:03.48,0.0016786449123174,-0.00702276406809688,-0.00669023487716913,0,
00:00:03.484,-0.00163945381063968,-0.0185497757047415,0.0267708543688059,0,
00:00:03.488,-0.0625919848680496,-0.00972780399024487,0.00934722553938627,0,
00:00:03.492,0.0402197539806366,0.000976656912826002,-0.0173641853034496,0,
00:00:03.496,0.0238734129816294,0.0229340251535177,-0.0268051754683256,0,
00:00:03.5,-0.0012802827404812,0.0254799164831638,-0.00875914189964533,0,
00:00:03.504,0.0138772688806057,0.00577117409557104,0.0145341455936432,0,
00:00:03.508,-0.00980279687792063,-0.0131394509226084,0.00438363943248987,0,
00:00:03.512,-0.00619298871606588,-0.0247790738940239,0.0183266848325729,0,
00:00:03.516,-0.0188925769180059,-0.0129422154277563,0.00255225342698395,0,
00:00:03.52,-0.00772985303774476,-0.00229270965792239,-0.00625193538144231,0,
00:00:03.524,0.00710436375811696,0.0160129461437464,-0.00789640564471483,0,
00:00:03.528,0.0127466851845384,0.00940213724970818,-0.00507651921361685,0,
00:00:03.532,0.00531361252069473,5.61081287742127E-05,0.00722004426643252,0,
00:00:03.536,-0.0080914543941617,0.0163870863616467,-0.00820098165422678,0,
00:00:03.54,0.0200410187244415,-0.000727920967619866,-0.0101953130215406,0,
00:00:03.544,-0.010067000053823,-0.0224878508597612,0.0129928346723318,0,
00:00:03.548,-0.00644139479845762,-0.0277572441846132,0.0110393837094307,0,
00:00:03.552,-0.0339529402554035,0.0150450635701418,0.00216459087096155,0,
00:00:03.556,0.0210573337972164,0.0250017698854208,-0.00646538240835071,0,
00:00:03.56,0.0230737682431936,0.0151254553347826,-0.0123793995007873,0,
00:00:03.564,0.00767251988872886,-0.00586538249626756,0.00962351728230715,0,
00:00:03.568,-0.00375775643624365,-0.0243670083582401,0.0018808979075402,0,
00:00:03.572,-0.0169264115393162,-0.0015070493100211,-0.00817594770342112,0,
00:00:03.576,-0.0102556208148599,-0.00422908458858728,-0.000672927591949701,0,
00:00:03.58,0.00414094096049666,0.00903194025158882,0.00350548047572374,0,
00:00:03.584,0.00631874008104205,0.0117132989689708,0.00800247024744749,0,
00:00:03.588,0.00782414339482784,-0.00820667110383511,0.00218284665606916,0,
00:00:03.592,-0.00555078312754631,-0.00792647153139114,0.000867055496200919,0,
00:00:03.596,-0.0193060599267483,0.00685400748625398,-0.0109748747199774,0,
00:00:03.6,0.0112550426274538,0.0144475940614939,-0.0130447335541248,0,
00:00:03.604,0.0241780374199152,-0.00475680222734809,0.0104898195713758,0,
00:00:03.608,-0.000108568543510046,-0.0216434504836798,0.00567484414204955,0,
00:00:03.612,-0.0209498461335897,0.0163441114127636,-0.0123056611046195,0,
00:00:03.616,0.0120862340554595,0.00336823193356395,0.0137065118178725,0,
00:00:03.62,-0.0167300812900066,-0.016677625477314,0.0268145240843296,0,
00:00:03.624,0.00389608880504966,-0.0164244938641787,-0.0159816928207874,0,
00:00:03.628,-0.00918822176754475,0.0307684745639563,-0.0282628852874041,0,
00:00:03.632,0.0132916020229459,0.00920710060745478,0.00317185232415795,0,
00:00:03.636,-0.000418047275161371,-0.00279706250876188,0.0113790156319737,0,
00:00:03.64,0.00224937801249325,-0.000601278268732131,-0.00254268618300557,0,
00:00:03.644,0.0107600223273039,-0.00123079586774111,-0.00958377495408058,0,
00:00:03.648,0.00544166006147861,-0.0214209035038948,0.01014369353652,0,
00:00:03.652,-0.0276137348264456,-0.0022739339619875,0.024562755599618,0,
00:00:03.656,0.00173428165726364,0.00277425162494183,-0.00666888989508152,0,
00:00:03.66,0.00535746477544308,0.0140301622450352,-0.0227158851921558,0,
00:00:03.664,0.00829095486551523,0.0101407812908292,-0.00806216523051262,0,
00:00:03.668,-0.00242144428193569,-0.00467388890683651,0.00649194698780775,0,
00:00:03.672,-0.00381203321740031,-0.0134871117770672,0.0112511990591884,0,
00:00:03.676,-0.00587018812075257,0.00782622117549181,0.00569742824882269,0,
00:00:03.68,0.0148436706513166,0.00059091963339597,-0.00291052390821278,0,
00:00:03.684,-0.0133409993723035,-0.0023833813611418,0.00394786009564996,0,
00:00:03.688,0.00144002144224942,-0.00844981241971254,-0.00433413125574589,0,
00:00:03.692,0.00669578975066543,-0.00725974049419165,-0.00464621745049953,0,
00:00:03.696,-0.00755708618089557,0.0132797230035067,-0.0146687645465136,0,
00:00:03.7,0.00413229409605265,0.0197449196130037,-0.000491782906465232,0,
00:00:03.704,0.0108262971043587,0.00726779736578465,0.00841423124074936,0,
00:00:03.708,0.00984683912247419,-0.0205109380185604,0.0135031575337052,0,
00:00:03.712,-0.00592000829055905,-0.020941898226738,-0.0070484085008502,0,
00:00:03.716,-0.0451690815389156,0.00211762543767691,0.00885614193975925,0,
00:00:03.72,0.00976519379764795,0.00306903384625912,0.0115190362557769,0,
00:00:03.724,0.00800751335918903,0.00530773680657148,-0.0207664426416159,0,
00:00:03.728,0.0157491099089384,0.015861738473177,-0.012304556556046,0,
00:00:03.732,0.0186461694538593,-7.1483023930341E-05,0.0146621791645885,0,
00:00:03.736,-0.00659005250781775,0.00967676471918821,-0.0107362000271678,0,
00:00:03.74,0.00494261877611279,-0.00985017418861389,0.0105353500694036,0,
00:00:03.744,-0.000510702782776207,-0.0256137326359749,-0.00367495068348944,0,
00:00:03.748,-0.0655039697885513,0.00646824901923537,0.00425283145159483,0,
00:00:03.752,0.0230296216905117,-0.000451376807177439,0.00437918165698648,0,
00:00:03.756,0.0235387831926346,0.00578218046575785,-0.00520102120935917,0,
00:00:03.76,0.0106614772230387,0.0148820411413908,-0.0128319757059216,0,
00:00:03.764,0.00928198918700218,-0.010431076399982,0.0110700028017163,0,
00:00:03.768,-0.0205261074006557,-0.00267725111916661,0.018829770386219,0,
00:00:03.772,0.00214741216041148,0.0059286248870194,-0.020234065130353,0,
00:00:03.776,-0.00798393040895462,0.00487793935462832,-0.00973036512732506,0,
00:00:03.78,0.00599935511127114,0.00665459269657731,-0.00675339670851827,0,
00:00:03.784,0.0147706139832735,-0.0131951291114092,0.0106855221092701,0,
00:00:03.788,-0.0122325550764799,-0.0237944815307856,0.0273017100989819,0,
00:00:03.792,-0.0216065868735313,0.0050359508022666,0.00525627983734012,0,
00:00:03.796,0.00564428046345711,0.0180299170315266,-0.0178122129291296,0,
00:00:03.8,0.014930815435946,0.0190801583230495,-0.0179093945771456,0,
00:00:03.804,0.0235756058245897,-0.0161108579486609,-0.0054374011233449,0,
00:00:03.808,-0.019688667729497,-0.006955835968256,0.017597084864974,0,
00:00:03.812,-0.0167660992592573,0.00514575885608792,-0.00712279556319118,0,
00:00:03.816,0.0100959902629256,-0.0104485843330622,0.000922242936212569,0,
00:00:03.82,-0.000161994350492023,0.00731435138732195,0.00665886653587222,0,
00:00:03.824,0.00791171006858349,0.00803223252296448,0.00405105808749795,0,
00:00:03.828,0.00792992673814297,-0.0224775113165379,0.0101481769233942,0,
00:00:03.832,-0.0475271940231323,0.0064600626938045,-0.0210248045623302,0,
00:00:03.836,0.0229504387825727,0.0246648453176022,-0.0117220673710108,0,
00:00:03.84,0.0276172272861004,-0.00285328133031726,0.0179670955985785,0,
00:00:03.844,0.000979160307906568,0.000333838775986806,0.00116645731031895,0,
00:00:03.848,-0.0038857504259795,-0.0150527562946081,0.012713291682303,0,
00:00:03.852,-0.0160856209695339,-0.0182472374290228,-0.0165508352220058,0,
00:00:03.856,-0.0099814897403121,0.00136223121080548,-0.0110281072556973,0,
00:00:03.86,-0.0147468699142337,0.0245760530233383,0.015611182898283,0,
00:00:03.864,0.0217691548168659,0.0106279533356428,-0.00177467172034085,0,
00:00:03.868,0.022469274699688,-0.00134288216941059,-0.0077003906480968,0,
00:00:03.872,0.00401077792048454,-0.0178057197481394,0.00738946720957756,0,
00:00:03.876,-0.0183445550501347,-0.00816250126808882,0.0092685129493475,0,
00:00:03.88,-0.0094918068498373,-0.000906388449948281,-0.0149461049586535,0,
00:00:03.884,-0.00623460719361901,-0.00265391962602735,0.0151557261124253,0,
00:00:03.888,-0.00809494033455849,0.0129488995298743,-0.00572507595643401,0,
00:00:03.892,0.0210267286747694,0.0193233843892813,-0.0193432550877333,0,
00:00:03.896,0.0211393963545561,0.00339674530550838,-0.0007212437922135,0,
00:00:03.9,-0.0133924037218094,-0.00984732899814844,0.00483991485089064,0,
00:00:03.904,-0.00110613089054823,-0.0192403681576252,0.0176191795617342,0,
00:00:03.908,-0.0136470785364509,-0.0149346338585019,0.00425039604306221,0,
00:00:03.912,0.000260064407484606,0.0236775185912848,0.000895454955752939,0,
00:00:03.916,0.0369446501135826,0.00412773434072733,-0.00114856555592269,0,
00:00:03.92,-0.0619566887617111,-0.00694151548668742,-0.0175268389284611,0,
00:00:03.924,-0.00613516848534346,0.011126154102385,-0.010811953805387,0,
00:00:03.928,0.0432336740195751,-0.0265860259532928,0.0153442723676562,0,
00:00:03.932,0.0133045334368944,0.00210566190071404,0.00664527714252472,0,
00:00:03.936,-0.0054247435182333,0.0213830042630434,-0.00834578927606344,0,
00:00:03.94,-0.00513203768059611,0.0135040311142802,0.00070128939114511,0,
00:00:03.944,-0.00203160522505641,-0.00864868238568306,0.0158351007848978,0,
00:00:03.948,-0.013160583563149,-0.00330022536218166,-0.0115484790876508,0,
00:00:03.952,0.00254344847053289,-0.0142174810171127,-0.0117331929504871,0,
00:00:03.956,0.00362578500062227,-0.0129079855978489,0.0116090597584844,0,
00:00:03.96,-0.0114388531073928,0.0169835574924946,0.00313209975138307,0,
00:00:03.964,0.00890214275568724,0.00428164750337601,-0.00601919274777174,0,
00:00:03.968,0.00444101775065064,0.00455113500356674,-0.00124257255811244,0,
00:00:03.972,0.00818281713873148,-0.00225702673196793,-0.00299190497025847,0,
00:00:03.976,0.0045992280356586,-0.00981599278748035,0.00971987470984459,0,
00:00:03.98,-0.0324082933366299,0.00365334888920188,-0.00174417556263506,0,
00:00:03.984,0.0139931915327907,0.0128182731568813,-0.00289425137452781,0,
00:00:03.988,0.0119941756129265,-0.0023854780010879,0.00113146333023906,0,
00:00:03.992,-0.0022574660833925,-0.0284953713417053,0.00915520265698433,0,
00:00:03.996,-0.0198016241192818,0.0136940563097596,-0.0102747064083815,0,
00:00:04,0.0209570303559303,0.0147053943946958,-0.0117327999323606,0,
00:00:04.004,0.0117037137970328,-0.000474619126180187,-0.00224675657227635,0,
00:00:04.008,-0.0215177312493324,0.00301691493950784,0.0222926139831543,0,
00:00:04.012,-0.00926339440047741,-0.0123040927574039,0.0108381938189268,0,
00:00:04.016,0.0104475365951657,-0.0206132531166077,-0.00869138725101948,0,
00:00:04.02,-0.00274919765070081,0.0160729512572289,-0.0200265366584063,0,
00:00:04.024,0.00184855214320123,0.0131215266883373,-0.00286361575126648,0,
00:00:04.028,0.00786548014730215,0.00144873315002769,0.0186395440250635,0,
00:00:04.032,-0.00119874801021069,-0.0017574141966179,-0.00428224075585604,0,
00:00:04.036,0.00147259887307882,-0.00226938398554921,-0.0177959073334932,0,
00:00:04.04,0.000756249413825572,-0.0144608002156019,0.0154562518000603,0,
00:00:04.044,-0.0135156949982047,-0.00209819409064949,0.0212676525115967,0,
00:00:04.048,0.00129266001749784,0.00626106653362513,-0.00241445051506162,0,
00:00:04.052,0.00925668049603701,0.0181283671408892,-0.0276034623384476,0,
00:00:04.056,0.00175417109858245,0.000955651223193854,-0.00427804188802838,0,
00:00:04.06,-0.0148159628733993,-0.00757379597052932,0.00625014258548617,0,
00:00:04.064,0.00878108851611614,-0.00806589238345623,0.00562921911478043,0,
00:00:04.068,0.00806453451514244,-0.00836380105465651,0.0127616534009576,0,
00:00:04.072,0.000977555639110506,-0.00210126582533121,-0.00160678965039551,0,
00:00:04.076,-0.00818063318729401,0.00786213390529156,-0.0149109493941069,0,
00:00:04.08,-0.00302500138059258,0.0124170063063502,0.000341836828738451,0,
00:00:04.084,-0.00180538941640407,3.29058420902584E-05,0.00861907191574574,0,
00:00:04.088,0.00157101335935295,0.00853564310818911,-0.00896012783050537,0,
00:00:04.092,0.0156324468553066,-0.0133357848972082,0.00744240591302514,0,
00:00:04.096,-0.00925035867840052,-0.0176619756966829,0.00315825780853629,0,
00:00:04.1,-0.0089090084657073,-0.000791188911534846,-0.00292900647036731,0,
00:00:04.104,0.000433690584031865,0.0131231369450688,0.00348963611759245,0,
00:00:04.108,-0.00237838830798864,0.0100478567183018,-0.00257235812023282,0,
00:00:04.112,0.00725870486348867,0.00849755853414536,-0.00817668158560991,0,
00:00:04.116,0.0207616593688726,-0.00733363162726164,-0.0088952174410224,0,
00:00:04.12,0.00025590558652766,-0.0183117352426052,0.0151243433356285,0,
00:00:04.124,-0.0421005450189114,5.0512849156803E-06,0.00186486158054322,0,
00:00:04.128,-0.000844428490381688,0.00404596887528896,0.00536917010322213,0,
00:00:04.132,0.0213822834193707,0.0115225426852703,0.00811404641717672,0,
00:00:04.136,0.0165313277393579,0.0019599252846092,-0.0104067698121071,0,
00:00:04.14,-0.00686311861500144,-0.00573917012661695,-0.0240029059350491,0,
00:00:04.144,-0.00275463331490755,-0.00480714812874794,0.00262648751959205,0,
00:00:04.148,-0.00571662420406938,-0.00548772886395454,0.0154677964746952,0,
00:00:04.152,-0.00172861595638096,0.00531873945146799,0.00528470706194639,0,
00:00:04.156,-0.00256680697202683,0.00969341304153204,-0.0103716319426894,0,
00:00:04.16,0.00834618229418993,-0.00605552876368165,0.0098391892388463,0,
00:00:04.164,-0.00991268269717693,0.0078393965959549,0.00814254675060511,0,
00:00:04.168,-0.00216945703141391,-0.00326873175799847,-0.00402626069262624,0,
00:00:04.172,0.0082268388941884,-0.0126182083040476,-0.00795253925025463,0,
00:00:04.176,0.00991660077124834,-0.0108197368681431,-0.0121021308004856,0,
00:00:04.18,-0.0139131406322122,0.00994173623621464,0.00224064639769495,0,
00:00:04.184,-0.00475291861221194,0.0163192190229893,0.0108081558719277,0,
00:00:04.188,0.0101103195920587,0.00416187848895788,-0.000788312871009111,0,
00:00:04.192,0.00896864291280508,-0.0123277716338634,-0.00156805571168661,0,
00:00:04.196,-0.00628806091845036,0.0200578421354294,-0.00605308962985873,0,
00:00:04.2,0.0123503161594272,-0.0139806475490332,0.0112824505195022,0,
00:00:04.204,-0.0155561622232199,-0.0321825407445431,0.0103027271106839,0,
00:00:04.208,-0.0275003500282764,0.00412933062762022,-0.0104328393936157,0,
00:00:04.212,0.0160234142094851,0.020939115434885,0.00249140383675694,0,
00:00:04.216,0.013627914711833,0.0160978715866804,-0.0168489199131727,0,
00:00:04.22,0.0100714275613427,-0.000197569854208268,-0.00503024039790034,0,
00:00:04.224,-0.00699283042922616,-0.00798634346574545,0.00536934100091457,0,
00:00:04.228,-0.0118657592684031,-0.00408118311315775,0.0109033770859241,0,
00:00:04.232,0.0112655274569988,0.00199911347590387,0.000349163135979325,0,
00:00:04.236,0.00492027495056391,-0.0278236623853445,0.00210335338488221,0,
00:00:04.24,-0.0231850072741508,0.00983487721532583,0.0218685157597065,0,
00:00:04.244,-0.00466145481914282,0.0174464788287878,-0.0204387530684471,0,
00:00:04.248,0.0189134441316128,0.00389307015575469,-0.0120432507246733,0,
00:00:04.252,0.00778102176263928,-0.00864752847701311,-0.00340418098494411,0,
00:00:04.256,-0.000808175536803901,-7.33151027816348E-05,-0.0140426801517606,0,
00:00:04.26,-0.00472553819417953,0.00822232570499182,0.0205918028950691,0,
00:00:04.264,-0.00251785549335182,-0.00068011274561286,0.0129957739263773,0,
00:00:04.268,-0.00433843350037932,-0.00507665425539017,0.0134437577798963,0,
00:00:04.272,0.000462615775177255,0.00144831975921988,-0.0137245627120137,0,
00:00:04.276,0.00343871582299471,-0.0100558288395405,-0.0163560565561056,0,
00:00:04.28,0.00312879867851734,-0.0250726453959942,0.0068090190179646,0,
00:00:04.284,-0.0197489056736231,0.0229340009391308,-0.0016494964947924,0,
00:00:04.288,0.00830803345888853,0.0290514770895243,-0.00615214975550771,0,
00:00:04.292,0.0180226340889931,0.0031272629275918,0.00206897268071771,0,
00:00:04.296,-0.0150062805041671,-0.0113242035731673,0.00300286686979234,0,
00:00:04.3,0.0178207661956549,-0.0133966766297817,-0.00225602858699858,0,
00:00:04.304,-0.0100328139960766,-0.0121151125058532,0.0234137922525406,0,
00:00:04.308,0.0010127923451364,-0.00733926054090261,-0.00600468274205923,0,
00:00:04.312,-0.00711876899003983,0.0211224015802145,-0.0222955197095871,0,
00:00:04.316,0.00241679605096579,0.00755350198596716,0.00683985184878111,0,
00:00:04.32,-0.0109613230451941,0.00563489366322756,0.00162568059749901,0,
00:00:04.324,0.0172110050916672,-0.0222400333732367,0.0176696684211493,0,
00:00:04.328,-0.00815321132540703,0.00116438954137266,-0.0207854323089123,0,
00:00:04.332,-0.00540030561387539,0.0156241226941347,-0.00417267763987184,0,
00:00:04.336,0.0167887043207884,0.0013374196132645,0.0101339258253574,0,
00:00:04.34,-0.00582525180652738,-0.0118181752040982,-0.00882866699248552,0,
00:00:04.344,-0.000338248384650797,0.00200632051564753,0.00631443131715059,0,
00:00:04.348,0.00104969053063542,-0.00419558165594935,0.0106884753331542,0,
00:00:04.352,-0.0102228373289108,0.00319681293331087,-0.00628107599914074,0,
00:00:04.356,0.00461384002119303,0.00702284974977374,-0.00153941730968654,0,
00:00:04.36,0.00423574401065707,-0.00750393886119127,-0.00273535610176623,0,
00:00:04.364,-0.0100339893251657,-0.000342464511049911,0.00336483563296497,0,
00:00:04.368,0.00981377623975277,-0.00879199430346489,0.00117414747364819,0,
00:00:04.372,-0.00437754765152931,0.00488603208214045,0.00257339072413743,0,
00:00:04.376,-0.00638966215774417,0.0186185408383608,-0.00635291123762727,0,
00:00:04.38,0.0185043886303902,-0.000528589880559593,-0.0131257316097617,0,
00:00:04.384,-0.00278770830482244,-0.0075597814284265,0.0032791702542454,0,
00:00:04.388,-0.00477471528574824,-0.00889049377292395,0.00897594355046749,0,
00:00:04.392,-0.00800819229334593,0.00530164176598191,0.0112163266167045,0,
00:00:04.396,0.00645419582724571,-0.00767214875668287,0.00243474403396249,0,
00:00:04.4,-0.0023838640190661,0.00177159812301397,-0.013230980373919,0,
00:00:04.404,0.00457760645076633,0.00232051126658916,0.000916954013518989,0,
00:00:04.408,-0.00503750098869205,0.00309241912327707,0.00799296237528324,0,
00:00:04.412,-0.00693442672491074,0.00653283484280109,-0.0105196060612798,0,
00:00:04.416,0.00934806372970343,0.0113444095477462,-0.00890054740011692,0,
00:00:04.42,0.0149212526157498,-0.0219684448093176,0.00104895199183375,0,
00:00:04.424,-0.012172743678093,-0.0175983067601919,0.0113338697701693,0,
00:00:04.428,-0.0109764290973544,0.00827739760279655,0.0260842833667994,0,
00:00:04.432,-0.0103782508522272,0.0244575198739767,-0.0173453707247972,0,
00:00:04.436,0.0186048895120621,0.00944621115922928,-0.0291747283190489,0,
00:00:04.44,0.0149509375914931,-0.0148262362927198,-0.000594855344388634,0,
00:00:04.444,-0.00823999010026455,-0.0151908565312624,0.0189023520797491,0,
00:00:04.448,-0.00980933383107185,0.00451194634661078,0.0130443135276437,0,
00:00:04.452,0.000179654583916999,-0.00260911346413195,-0.000566303613595665,0,
00:00:04.456,-0.000360254489351064,0.00754856131970882,-0.00616499688476324,0,
00:00:04.46,-0.00143165653571486,0.00504073407500982,-0.012171140871942,0,
00:00:04.464,0.0116178626194596,0.00416587106883526,-0.00328280497342348,0,
00:00:04.468,-0.00915901735424995,-0.0111069763079286,0.0192461051046848,0,
00:00:04.472,-0.0038676077965647,-0.0129435854032636,0.00354599137790501,0,
00:00:04.476,0.00369490263983607,0.00484199170023203,-0.00839170347899199,0,
00:00:04.48,-0.000231645361054689,0.0162153951823711,-0.010305056348443,0,
00:00:04.484,0.00958219449967146,0.00940527953207493,-0.0157918203622103,0,
00:00:04.488,0.000621510378550738,-0.000955007155425847,0.0169629137963057,0,
00:00:04.492,-0.00666414713487029,-0.00722876470535994,0.0153582384809852,0,
00:00:04.496,-0.00104015867691487,-0.0285824351012707,0.00790052954107523,0,
00:00:04.5,-0.00931424088776112,-0.00570441316813231,-0.0133574781939387,0,
00:00:04.504,0.00452550873160362,0.0271243918687105,-0.0113714626058936,0,
00:00:04.508,0.00365496310405433,0.0052158054895699,0.0033918924164027,0,
00:00:04.512,-0.0121506359428167,0.00984582304954529,0.00394528033211827,0,
00:00:04.516,0.0229652058333158,-0.00482792686671019,-0.0177588928490877,0,
00:00:04.52,0.00110802752897143,-0.0171352047473192,0.0207053869962692,0,
00:00:04.524,-0.00642436230555177,0.00364286568947136,0.0154877854511142,0,
00:00:04.528,-0.00393460039049387,0.00696219503879547,-0.0249761287122965,0,
00:00:04.532,-0.000460206181742251,-0.00314379809424281,-0.00302509590983391,0,
00:00:04.536,-0.0030201377812773,-0.00170123216230422,0.00975603237748146,0,
00:00:04.54,0.000731661624740809,-0.00102990784216672,0.00189824064727873,0,
00:00:04.544,-0.00108391395770013,-0.00442875362932682,0.00552376313135028,0,
00:00:04.548,-0.00171876465901732,0.00643835822120309,-0.00698302639648318,0,
00:00:04.552,0.00567314401268959,5.49506376046338E-06,0.000632353650871664,0,
00:00:04.556,0.00553887290880084,-0.000645976106170565,-0.00875653978437185,0,
00:00:04.56,0.00177076435647905,-0.00609142426401377,-0.00245910603553057,0,
00:00:04.564,-0.0268183294683695,0.00862639863044024,0.0145805394276977,0,
00:00:04.568,0.0118158496916294,0.00347384973429143,-0.0036755851469934,0,
00:00:04.572,0.0140556814149022,0.00315296673215926,0.0042855036444962,0,
00:00:04.576,0.00657021347433329,-0.000690922664944083,-0.0100837796926498,0,
00:00:04.58,0.0044990498572588,-0.0139433434233069,0.00401959428563714,0,
00:00:04.584,-0.0328831076622009,-0.0149004757404327,0.00158211321104318,0,
00:00:04.588,-0.00800476316362619,0.0128848198801279,-0.00431359047070146,0,
00:00:04.592,0.0177608672529459,0.013956917449832,0.00310197984799743,0,
00:00:04.596,0.0144239347428083,0.00126288214232773,0.00878005567938089,0,
00:00:04.6,-0.00509897340089083,-0.00484772538766265,-0.00584207894280553,0,
00:00:04.604,0.0028497374150902,0.0218771155923605,-0.00853649899363518,0,
00:00:04.608,0.0200241468846798,-0.013533242046833,-0.00441642664372921,0,
00:00:04.612,-0.0240905191749334,-0.0283823572099209,0.0175548139959574,0,
00:00:04.616,-0.0418103039264679,-0.00715394644066691,-0.0137112019583583,0,
00:00:04.62,0.00515469303354621,0.0116956904530525,0.0078268563374877,0,
00:00:04.624,0.0307900309562683,0.0208595637232065,0.0037082398775965,0,
00:00:04.628,0.0281860679388046,0.00894864741712809,-0.00740459747612476,0,
00:00:04.632,0.00433907052502036,-0.00584371015429497,-0.00576465716585517,0,
00:00:04.636,-0.0237635504454374,-0.00536733632907271,0.012003337033093,0,
00:00:04.64,0.000770500744692981,-0.0208859462291002,0.00608930177986622,0,
00:00:04.644,-0.0130926817655563,0.00286769797094166,-0.000715054979082197,0,
00:00:04.648,-0.0245694294571877,0.00147168163675815,-0.012907818891108,0,
00:00:04.652,0.0169579107314348,0.0153101542964578,-0.0136363096535206,0,
00:00:04.656,0.0239752680063248,0.0170385595411062,0.00485845701768994,0,
00:00:04.66,0.00452948873862624,-0.013280238956213,0.0146828657016158,0,
00:00:04.664,-0.010072136297822,-0.0135865891352296,0.00800662767142057,0,
00:00:04.668,-0.0145236616954207,0.00379269407130778,-0.00296908570453525,0,
00:00:04.672,0.0140968533232808,0.00147586164530367,-0.00997965689748526,0,
00:00:04.676,-0.000594830082263798,-0.00246522319503129,-0.00026370317209512,0,
00:00:04.68,-0.00608272105455399,0.00321601610630751,-0.00421924889087677,0,
00:00:04.684,0.00157816370483488,-0.000671247311402112,0.00725906435400248,0,
00:00:04.688,0.00173516885843128,-0.00526986410841346,0.00921772047877312,0,
00:00:04.692,-0.00818492565304041,-0.00256594805978239,-0.0143609326332808,0,
00:00:04.696,0.00905916560441256,0.00557696772739291,-0.0110976351425052,0,
00:00:04.7,0.0119479019194841,0.00173589726909995,0.0348832197487354,0,
00:00:04.704,-0.0133741814643145,0.010652482509613,0.00886719208210707,0,
00:00:04.708,-0.00594677263870835,0.0108701912686229,-0.0383456200361252,0,
00:00:04.712,0.0351370982825756,-0.0174870882183313,-0.0225316938012838,0,
00:00:04.716,-0.0370510257780552,-0.0165979862213135,0.0434214435517788,0,
00:00:04.72,-0.0459403581917286,-0.00299233384430408,0.0162408426403999,0,
00:00:04.724,0.00863913912326097,0.0176295787096024,-0.0364520847797394,0,
00:00:04.728,0.0479337833821774,0.0101815639063716,-0.0302747115492821,0,
00:00:04.732,0.0262998510152102,-0.0138455098494887,0.0515518970787525,0,
00:00:04.736,0.0240649525076151,-0.0121674127876759,0.0103027727454901,0,
00:00:04.74,-0.0312771946191788,0.0207522436976433,-0.0180034376680851,0,
00:00:04.744,-0.0152448005974293,0.00915318448096514,-0.0239854659885168,0,
00:00:04.748,-0.00807399861514568,-0.0147142549976707,0.0122848162427545,0,
00:00:04.752,-0.00987516436725855,-0.00424985121935606,0.0103055806830525,0,
00:00:04.756,-0.00693986192345619,-0.00623664120212197,0.0194514561444521,0,
00:00:04.76,-0.00241339579224586,0.00309169013053179,-0.0203361287713051,0,
00:00:04.764,0.00947773735970259,0.00190142949577421,-0.00668683648109436,0,
00:00:04.768,-0.00725569017231464,0.0250171739608049,0.000256023049587384,0,
00:00:04.772,0.0331319905817509,-0.00713850231841207,0.00682165334001184,0,
00:00:04.776,0.0142363086342812,-0.0201782900840044,-0.00565851246938109,0,
00:00:04.78,-0.0201035998761654,-0.0109372409060597,-0.00439202226698399,0,
00:00:04.784,-0.0239148773252964,0.0121079087257385,0.0108805522322655,0,
00:00:04.788,0.00934608466923237,0.0134912962093949,0.00429330766201019,0,
00:00:04.792,0.00407044356688857,0.00773780606687069,-0.00563351437449455,0,
00:00:04.796,0.0311057511717081,-0.0146902967244387,0.00209938897751272,0,
00:00:04.8,-0.0267282407730818,-0.012547580525279,0.00414792215451598,0,
00:00:04.804,-0.0415852069854736,-0.0130502171814442,-0.00241905497387052,0,
00:00:04.808,0.00860494561493397,0.0295319203287363,-0.0185134131461382,0,
00:00:04.812,0.0401471816003323,0.0185236018151045,-0.00143743271473795,0,
00:00:04.816,0.0269915815442801,-0.00217297277413309,0.00380498520098627,0,
00:00:04.82,-0.008520039729774,-0.0303484350442886,0.0108049223199487,0,
00:00:04.824,-0.0576432645320892,-0.00811879150569439,0.0330441780388355,0,
00:00:04.828,0.0110102584585547,0.016443382948637,-0.030001787468791,0,
00:00:04.832,0.0271648913621902,0.0085696866735816,-0.0271798893809319,0,
00:00:04.836,0.0121432179585099,-0.00678412988781929,0.026089783757925,0,
00:00:04.84,-0.0359375700354576,0.000861184438690543,0.0217055566608906,0,
00:00:04.844,0.000629372370894998,-0.00611040974035859,-0.0250577758997679,0,
00:00:04.848,0.0194324795156717,-0.00393304834142327,-0.0174937304109335,0,
00:00:04.852,-0.00145069870632142,0.00476479344069958,0.00933429971337318,0,
00:00:04.856,-0.00862797629088163,0.0162611417472363,0.0122693870216608,0,
00:00:04.86,0.0416358485817909,-0.000572818273212761,0.00585572142153978,0,
00:00:04.864,-0.0146085396409035,-0.0185737051069736,0.00730748567730188,0,
00:00:04.868,-0.0799557417631149,0.0062413583509624,-0.0123548144474626,0,
00:00:04.872,-0.026357589289546,-0.015793539583683,0.00571534596383572,0,
00:00:04.876,0.0742818638682365,0.00604514311999083,-0.0228646099567413,0,
00:00:04.88,0.0777933299541473,0.0238910876214504,-0.0160968527197838,0,
00:00:04.884,0.00621824618428946,-0.00235997908748686,0.0214651450514793,0,
00:00:04.888,-0.0481915324926376,-0.0067385071888566,0.0196850057691336,0,
00:00:04.892,-0.0424746051430702,0.000137646391522139,-0.00464396551251411,0,
00:00:04.896,-0.00570054911077023,-0.0192848369479179,-0.00401982525363564,0,
00:00:04.9,-0.0176408234983683,0.00717630470171571,-0.00786300841718912,0,
00:00:04.904,0.0159766189754009,0.0159252192825079,0.0224353894591331,0,
00:00:04.908,0.0352130904793739,-0.0060823317617178,-0.00436863396316767,0,
00:00:04.912,-0.00978723913431168,-0.00872603058815002,-0.0102257085964084,0,
00:00:04.916,0.00464867847040296,0.00276776263490319,-0.0192198101431131,0,
00:00:04.92,0.0156326107680798,0.000354386196704581,-0.00407512160018086,0,
00:00:04.924,-0.0261989627033472,0.00620786705985665,0.0300044752657413,0,
00:00:04.928,-0.00695512164384127,0.00707499915733933,-0.00492292083799839,0,
00:00:04.932,0.0144887799397111,-0.0053314627148211,-0.0161848440766335,0,
00:00:04.936,0.00124893710017204,-0.00253471708856523,0.0144577911123633,0,
00:00:04.94,0.00501772109419107,-0.0155637431889772,0.00595422182232141,0,
00:00:04.944,-0.0109062427654862,0.00297277956269681,0.00261394819244742,0,
00:00:04.948,-0.0242094174027443,0.0210186149924994,-0.019153555855155,0,
00:00:04.952,0.0220010597258806,0.00290170218795538,-0.0184597950428724,0,
00:00:04.956,0.047248724848032,-0.0200893692672253,0.0443921610713005,0,
00:00:04.96,-0.0463504418730736,-0.00345578836277127,0.0203424114733934,0,
00:00:04.964,-0.0411683842539787,0.00451479572802782,-0.0291795041412115,0,
00:00:04.968,0.0288833137601614,-0.00256369821727276,-0.0330873727798462,0,
00:00:04.972,0.0156957302242517,0.00713248178362846,0.0022648514714092,0,
00:00:04.976,0.0192708093672991,0.0170922018587589,0.00270520593039691,0,
00:00:04.98,0.0302834808826447,0.000592606840655208,-0.00822186935693026,0,
00:00:04.984,-0.0127255162224174,-0.0139690525829792,0.02997219376266,0,
00:00:04.988,-0.0792100429534912,-0.00274072028696537,0.034764863550663,0,
00:00:04.992,-0.0304756127297878,-0.0107340291142464,0.0154478074982762,0,
00:00:04.996,0.042531993240118,-0.0113414553925395,-0.041064590215683,0,
00:00:05,0.0497379899024963,0.0169908069074154,-0.0353431142866611,0,
00:00:05.004,0.030891127884388,0.00613898318260908,-0.0203920621424913,0,
00:00:05.008,0.0089622987434268,0.000806230178568512,0.0078407060354948,0,
00:00:05.012,-0.0861755833029747,0.0175872072577477,0.0583573617041111,0,
00:00:05.016,-0.0114207286387682,-0.014787832275033,-0.00168940972071141,0,
00:00:05.02,0.0240995939821005,-0.00266312761232257,-0.0128636732697487,0,
00:00:05.024,0.0183988753706217,-0.0247619692236185,0.000632513838354498,0,
00:00:05.028,-0.0167411789298058,0.0212515462189913,-0.00892799161374569,0,
00:00:05.032,0.0269091222435236,0.024652162566781,-0.0106135802343488,0,
00:00:05.036,0.00791820697486401,-0.00974328443408012,-0.0072601162828505,0,
00:00:05.04,-0.0239536110311747,-0.0267913416028023,0.0308199282735586,0,
00:00:05.044,-0.00925413426011801,-0.0162922311574221,-0.0115812998265028,0,
00:00:05.048,0.000828268064651638,0.0196316987276077,0.0169434361159801,0,
00:00:05.052,0.00310737243853509,0.0214797370135784,-0.0351357907056808,0,
00:00:05.056,0.0111319571733475,0.00484915217384696,0.0207032542675734,0,
00:00:05.06,0.0044157337397337,-0.00174319348298013,-0.000567717535886914,0,
00:00:05.064,-0.0195141490548849,-0.0107350386679173,-0.00466746371239424,0,
00:00:05.068,-0.000364792853360996,-0.0032828466501087,-0.014674574136734,0,
00:00:05.072,0.0351070463657379,-0.00971321109682322,0.0168823190033436,0,
00:00:05.076,-0.00553854927420616,-0.013717052526772,-0.00631735241040587,0,
00:00:05.08,-0.0342807695269585,-0.0051359822973609,0.0385086946189404,0,
00:00:05.084,-0.0221236385405064,0.0345607735216618,-0.0209645926952362,0,
00:00:05.088,0.0316969566047192,0.033435732126236,-0.0255486778914928,0,
00:00:05.092,0.0359901860356331,-0.0160583034157753,-0.00766823953017592,0,
00:00:05.096,-0.0140594309195876,-0.0376962423324585,0.0244036801159382,0,
00:00:05.1,-0.0196283143013716,-0.00734834978356957,-0.00916410610079765,0,
00:00:05.104,-0.00900781899690628,0.0228781159967184,0.00422278977930546,0,
00:00:05.108,0.0164901651442051,-0.0064227944239974,0.0269504208117723,0,
00:00:05.112,-0.00257759960368276,-0.00418428517878056,-0.0190022848546505,0,
00:00:05.116,-0.000674881157465279,-0.000706846651155502,-0.0176253132522106,0,
00:00:05.12,-0.0157587956637144,0.0189783982932568,0.00697088427841663,0,
00:00:05.124,0.0042143133468926,0.012839563190937,0.0137937162071466,0,
00:00:05.128,0.0167104713618755,0.00587473856285214,-0.0166302137076855,0,
00:00:05.132,0.0204536803066731,-0.0236565414816141,-0.00810372363775969,0,
00:00:05.136,-0.0104924533516169,-0.041351955384016,0.0218287091702223,0,
00:00:05.14,-0.0300377495586872,-0.00916803255677223,0.00329502997919917,0,
00:00:05.144,-0.0221736561506987,0.0422498360276222,-0.0126957213506103,0,
00:00:05.148,0.0218332037329674,0.0305982138961554,-0.00147315266076475,0,
00:00:05.152,0.0323043651878834,0.00596748013049364,0.0159173849970102,0,
00:00:05.156,0.00426273420453072,-0.0306241810321808,0.00419299164786935,0,
00:00:05.16,-0.0141567010432482,-0.00344896037131548,-0.0222841631621122,0,
00:00:05.164,-0.00406944146379828,-0.00399193214252591,-0.00750849628821015,0,
00:00:05.168,-0.00393854128196836,0.00456450413912535,0.00816502049565315,0,
00:00:05.172,-0.00390761950984597,-0.0110247200354934,0.00426295027136803,0,
00:00:05.176,-0.00829766876995564,-0.0108255269005895,-0.00301922555081546,0,
00:00:05.18,-0.00611837161704898,0.0209093485027552,0.00787181593477726,0,
00:00:05.184,0.0188928581774235,0.0244807489216328,0.0135667826980352,0,
00:00:05.188,0.0149299781769514,-0.00161021889653057,-0.014541138894856,0,
00:00:05.192,-0.00375716108828783,-0.0285250544548035,0.0140570932999253,0,
00:00:05.196,-0.0237573310732841,-0.00792684312909842,-0.0261795483529568,0,
00:00:05.2,0.000661954225506634,0.00898261275142431,-0.0034217273350805,0,
00:00:05.204,0.0235998760908842,-0.00363808521069586,0.0167576540261507,0,
00:00:05.208,-0.00625951169058681,0.0213005766272545,-0.000388613785617054,0,
00:00:05.212,-0.000747046375181526,0.000282897584838793,-0.010132197290659,0,
00:00:05.216,-0.00483572483062744,-0.00739277340471745,-0.00855234451591969,0,
00:00:05.22,-0.00823179725557566,-0.00889776740223169,0.0090109296143055,0,
00:00:05.224,0.00681459531188011,0.0052609178237617,0.0263328682631254,0,
00:00:05.228,-0.00570180406793952,-0.00356679502874613,-0.00745338900014758,0,
00:00:05.232,0.00732935266569257,0.00607674708589911,-0.00784735474735498,0,
00:00:05.236,0.00702153285965323,-0.021362291648984,0.0149946082383394,0,
00:00:05.24,-0.0148537959903479,0.00383935472927988,-0.026404732838273,0,
00:00:05.244,-0.00988786481320858,0.0129938302561641,-0.0245894007384777,0,
00:00:05.248,0.0178593918681145,0.0227881260216236,0.0317865870893002,0,
00:00:05.252,0.0111109130084515,-0.00464818021282554,0.00680984975770116,0,
00:00:05.256,0.00899502262473106,-0.00446679163724184,-0.006387276109308,0,
00:00:05.26,-0.0137477563694119,-0.0114546362310648,0.00248309853486717,0,
00:00:05.264,-0.00309759587980807,-0.0156470853835344,-0.0152195002883673,0,
00:00:05.268,-0.0128137450665236,0.00276889093220234,0.0206301286816597,0,
00:00:05.272,0.000728710147086531,-0.000869153183884919,0.00249715126119554,0,
00:00:05.276,-0.010808770544827,0.0176736358553171,0.0130053907632828,0,
00:00:05.28,0.0146420868113637,-0.00986420921981335,-0.0262380465865135,0,
00:00:05.284,0.00856633391231298,0.000168763785040937,-0.0265672467648983,0,
00:00:05.288,-0.00344306440092623,0.0158502254635096,-0.0107787065207958,0,
00:00:05.292,0.0108075551688671,0.00135346897877753,0.0565043725073338,0,
00:00:05.296,-0.00826150830835104,0.00407161191105843,0.014474113471806,0,
00:00:05.3,0.00501711340621114,-0.00460648071020842,-0.0336883887648582,0,
00:00:05.304,-0.00296143186278641,-0.0345693305134773,0.0122386915609241,0,
00:00:05.308,-0.0231939125806093,-0.0240316726267338,0.0141971986740828,0,
00:00:05.312,-0.014208922162652,0.0331360772252083,-0.0383309237658978,0,
00:00:05.316,0.0313927344977856,0.042103748768568,-0.0159248393028975,0,
00:00:05.32,0.0270494688302279,0.00058542046463117,0.00803402345627546,0,
00:00:05.324,-0.00217101071029902,-0.011967146769166,0.0284563116729259,0,
00:00:05.328,-0.0195293221622705,-0.00531450752168894,0.0153222279623151,0,
00:00:05.332,-0.00444399891421199,-0.00431038485839963,-0.0292475577443838,0,
00:00:05.336,0.000847382878419012,-0.0354669913649559,0.0285624992102385,0,
00:00:05.34,-0.0196044351905584,-0.0299300085753202,-0.00600598519667983,0,
00:00:05.344,-0.0177144967019558,0.0262506809085608,-0.0109310979023576,0,
00:00:05.348,0.0197511222213507,0.054728090763092,-0.0141906058415771,0,
00:00:05.352,0.0389515087008476,0.0284022614359856,-0.0132441213354468,0,
00:00:05.356,0.00514659518375993,-0.00775867886841297,0.00577526725828648,0,
00:00:05.36,-0.00397152546793222,-0.0350663177669048,0.0141042992472649,0,
00:00:05.364,-0.0229502804577351,-0.0404476337134838,0.0139118311926723,0,
00:00:05.368,-0.0200410038232803,-0.00316946324892342,0.00670684361830354,0,
00:00:05.372,-0.00256758066825569,0.0229059234261513,-0.00160906929522753,0,
00:00:05.376,0.0162933506071568,0.00704554002732039,-0.000393328751670197,0,
00:00:05.38,0.00676335813477635,0.0186818838119507,-0.029714610427618,0,
00:00:05.384,0.011460343375802,0.00626733433455229,0.0103673059493303,0,
00:00:05.388,0.00334752560593188,-0.0149220488965511,-0.00301122921518981,0,
00:00:05.392,-0.0152556002140045,-0.00351028423756361,-0.00902083143591881,0,
00:00:05.396,-0.00858069397509098,-9.70425535342656E-05,0.0115471286699176,0,
00:00:05.4,0.00332790892571211,-0.0166133865714073,-0.000817799067590386,0,
00:00:05.404,-0.0125903058797121,0.0151850320398808,0.00568400742486119,0,
00:00:05.408,0.0194218344986439,-0.00225962908007205,0.0358267910778522,0,
00:00:05.412,0.0168873183429241,-0.0248245913535357,-0.00359089625999331,0,
00:00:05.416,-0.0301503632217646,0.0234262831509113,-0.0293459445238113,0,
00:00:05.42,0.000795507105067372,0.0318184234201908,-0.0282903648912907,0,
00:00:05.424,0.0179971344769001,0.0049800812266767,-0.0114282593131065,0,
00:00:05.428,0.00958550348877907,-0.0288787446916103,0.0207370705902576,0,
00:00:05.432,-0.0151466522365808,-0.00707628112286329,0.0244970992207527,0,
00:00:05.436,-0.00149136444088072,-0.00726697593927383,0.00676986388862133,0,
00:00:05.44,0.000911271141376346,-0.014725411310792,-0.0135206589475274,0,
00:00:05.444,-0.016803277656436,0.00639611994847655,0.00325769162736833,0,
00:00:05.448,-0.00205801706761122,0.00640775123611093,0.023267513141036,0,
00:00:05.452,0.0110355634242296,0.0260687526315451,-0.0258555356413126,0,
00:00:05.456,0.0152038475498557,0.00910121202468872,-0.0209102500230074,0,
00:00:05.46,0.00519339414313436,-0.010668283328414,0.00595812452957034,0,
00:00:05.464,-0.00638265861198306,-0.0128345442935824,0.0170436054468155,0,
00:00:05.468,-0.00596905732527375,-0.00710468227043748,0.00475476542487741,0,
00:00:05.472,-0.0150162726640701,-0.000460462557384744,-0.0163114611059427,0,
00:00:05.476,0.00569324987009168,0.00973198004066944,-0.00678496435284615,0,
00:00:05.48,0.0126552451401949,0.00238362629897892,0.0155441528186202,0,
00:00:05.484,0.00239809136837721,0.00206411187537014,-0.00641587376594543,0,
00:00:05.488,0.000490648846607655,-0.0153202684596181,0.0173412337899208,0,
00:00:05.492,-0.0212445892393589,0.0027639577165246,0.0064238989725709,0,
00:00:05.496,0.00145608955062926,0.014421695843339,-0.0196197163313627,0,
00:00:05.5,0.029724070802331,-0.0251723248511553,0.003908546641469,0,
00:00:05.504,-0.02905891276896,0.0132382372394204,-0.00916168745607138,0,
00:00:05.508,0.00591098051518202,0.0158985815942287,-0.0131016978994012,0,
00:00:05.512,0.00981424190104008,-0.00303141539916396,0.0164359547197819,0,
00:00:05.516,-0.000828020041808486,-0.00521224131807685,0.00444753793999553,0,
00:00:05.52,0.00113432295620441,-0.00685172481462359,-0.00114514876622707,0,
00:00:05.524,-0.00378118897788227,0.00562981562688947,-0.0125579796731472,0,
00:00:05.528,-0.00347165111452341,-0.00236117211170495,0.0358228906989098,0,
00:00:05.532,-0.00122637918684632,-0.0115771200507879,-0.00253478460945189,0,
00:00:05.536,-0.00337755354121327,0.00877507030963898,-0.0310266856104136,0,
00:00:05.54,0.0138795142993331,-0.00480702705681324,0.00193323160056025,0,
00:00:05.544,-0.00736655946820974,0.0109111880883574,0.0108126485720277,0,
00:00:05.548,-0.00369413965381682,0.00845768768340349,-0.0198852233588696,0,
00:00:05.552,0.00277475430630147,-0.00561232306063175,0.00307271908968687,0,
00:00:05.556,0.00282027130015194,-0.013751600869,0.0220632255077362,0,
00:00:05.56,0.000821897585410625,0.0060308463871479,0.00387007766403258,0,
00:00:05.564,-0.000853238627314568,0.00311511848121881,-0.0048519866541028,0,
00:00:05.568,0.006882902700454,-0.00436840346083045,-0.00643544690683484,0,
00:00:05.572,-0.0172703843563795,-0.00400444027036428,-0.00412321416661143,0,
00:00:05.576,-0.00108629686292261,0.0118651352822781,-0.0154297221451998,0,
00:00:05.58,0.0226263161748648,-0.00120932899881154,0.0214101932942867,0,
00:00:05.584,-0.0158897452056408,-0.00613042153418064,0.0138499746099114,0,
00:00:05.588,-0.00429634982720017,-0.00467069540172815,-0.0059864167124033,0,
00:00:05.592,0.0030234067235142,0.0158210974186659,-0.0169114619493485,0,
00:00:05.596,0.0132243242114782,-0.00514276418834925,-0.00106773339211941,0,
00:00:05.6,0.00364467082545161,-0.00930828601121902,0.00169456412550062,0,
00:00:05.604,-0.0118834869936109,-0.01528309751302,0.00544844288378954,0,
00:00:05.608,-0.0314845629036427,0.0295495316386223,-0.0092510050162673,0,
00:00:05.612,0.031156662851572,0.00941903237253428,0.0139975184574723,0,
00:00:05.616,0.016545046120882,-0.0188772547990084,0.00615937449038029,0,
00:00:05.62,-0.00919902510941029,-0.0142764477059245,-0.000361608515959233,0,
00:00:05.624,-0.0062610786408186,0.00277543836273253,-0.00614190800115466,0,
00:00:05.628,-0.00779755273833871,0.0242718476802111,-0.0151662509888411,0,
00:00:05.632,0.00901632849127054,0.00270939711481333,-0.00631794240325689,0,
00:00:05.636,0.00215769861824811,-0.0122685031965375,0.0143848452717066,0,
00:00:05.64,-0.00915986020117998,-0.013570855371654,0.0134379910305142,0,
00:00:05.644,-0.00842816755175591,0.00825174804776907,-0.00606535701081157,0,
00:00:05.648,0.0125619573518634,0.0153350653126836,-0.00432911841198802,0,
00:00:05.652,0.00889420136809349,-0.00939477607607841,-0.00360690010711551,0,
00:00:05.656,0.00214872532524168,-0.020562581717968,0.0127516696229577,0,
00:00:05.66,-0.0238745510578156,-0.00145027099642903,-0.000961690151598305,0,
00:00:05.664,0.00641328934580088,0.0130762802436948,-0.025632107630372,0,
00:00:05.668,0.0119516523554921,0.0229077208787203,0.00953764002770185,0,
00:00:05.672,-0.00421777041628957,0.00780706061050296,0.0186469350010157,0,
00:00:05.676,0.00449492875486612,-0.032383032143116,-0.00345051474869251,0,
00:00:05.68,-0.0160330347716808,0.00399058731272817,-0.0160433296114206,0,
00:00:05.684,0.0183545388281345,-0.00174333923496306,0.00965979695320129,0,
00:00:05.688,-0.00352890440262854,0.0021531437523663,0.00058881426230073,0,
00:00:05.692,-0.0105791250243783,0.0108564030379057,-0.00792593043297529,0,
00:00:05.696,0.0116807278245687,-0.00437476951628923,0.000654023024253547,0,
00:00:05.7,0.0050206515006721,-0.0166632551699877,0.0151262665167451,0,
00:00:05.704,-0.0211177431046963,-0.00125834392383695,0.0048188790678978,0,
00:00:05.708,-0.0025320895947516,0.0128810871392488,-0.0102056097239256,0,
00:00:05.712,0.00496117165312171,0.0183170102536678,-0.0118038477376103,0,
00:00:05.716,0.0163235347718,-0.00160031940322369,-0.0139826517552137,0,
00:00:05.72,0.000189864818821661,-0.00808769650757313,0.0114634735509753,0,
00:00:05.724,-0.000550930097233504,-0.0134382611140609,0.0268123913556337,0,
00:00:05.728,-0.00804133526980877,-0.00384053424932063,-0.00878962129354477,0,
00:00:05.732,0.00329972640611231,-0.00168861972633749,-0.00468207104131579,0,
00:00:05.736,-0.00587165076285601,0.0107710808515549,-0.000917700759600848,0,
00:00:05.74,-0.00564214633777738,-0.000971283589024097,-0.00989180896431208,0,
00:00:05.744,0.00497348560020328,-0.012264215387404,0.0162859000265598,0,
00:00:05.748,-0.0072830175049603,0.0309841819107533,-0.00872057769447565,0,
00:00:05.752,0.0200228914618492,0.0091495094820857,-0.00773429218679667,0,
00:00:05.756,-0.00321043585427105,-0.014580050483346,-0.0106455087661743,0,
00:00:05.76,0.00416272738948464,-0.0353893749415874,0.0229106545448303,0,
00:00:05.764,-0.0146015705540776,-0.00727090844884515,0.0180421508848667,0,
00:00:05.768,-0.00951275881379843,0.0293700061738491,-0.0167016424238682,0,
00:00:05.772,0.0152384731918573,0.0332522206008434,-0.0107492748647928,0,
00:00:05.776,0.0160040743649006,-0.00569055089727044,-0.00714304530993104,0,
00:00:05.78,-0.0132584366947412,-0.0282044522464275,0.00840426702052355,0,
00:00:05.784,-0.00401893304660916,-0.0189153421670198,-0.000749522470869124,0,
00:00:05.788,-0.0127373673021793,0.00229349639266729,0.0182521119713783,0,
00:00:05.792,-0.00418536644428968,0.0223685968667269,-0.0097616296261549,0,
00:00:05.796,0.0217906441539526,-0.00270302500575781,-0.0179412495344877,0,
00:00:05.8,-0.000683993508573622,-0.00508567737415433,0.0246688649058342,0,
00:00:05.804,-0.009919841773808,0.00968521367758513,-0.00326968147419393,0,
00:00:05.808,0.0172230415046215,0.00961494538933039,-0.0109146190807223,0,
00:00:05.812,-0.00590083515271544,-0.00591774424538016,-0.000898313475772738,0,
00:00:05.816,-0.00373706803657115,-0.000824962800834328,-0.00830225460231304,0,
00:00:05.82,0.0117679927498102,-0.0198311302810907,0.0222058817744255,0,
00:00:05.824,-0.027791116386652,-0.00763492844998837,-0.000761636591050774,0,
00:00:05.828,-0.00809601228684187,0.0168675538152456,-0.0156238581985235,0,
00:00:05.832,0.0276950597763062,0.0165990367531776,-0.00382992322556674,0,
00:00:05.836,0.0109830042347312,-0.00665487116202712,0.00703168241307139,0,
00:00:05.84,-0.00835234578698874,-0.0154699934646487,0.00725734233856201,0,
00:00:05.844,-0.0187529940158129,0.00586526887491345,0.00720306718721986,0,
00:00:05.848,0.00267413118854165,0.00197729142382741,-0.000908665882889181,0,
00:00:05.852,0.00920163374394178,0.000701700279023498,-0.0186784360557795,0,
00:00:05.856,0.00242593348957598,-0.0142600871622562,0.0241391304880381,0,
00:00:05.86,-0.0177953131496906,0.00763613590970635,-0.0216003302484751,0,
00:00:05.864,0.00744331395253539,0.0318156182765961,-0.00356277963146567,0,
00:00:05.868,0.0300264526158571,-0.00373461749404669,-0.00844118651002645,0,
00:00:05.872,-0.00173442589584738,-0.0293340068310499,0.0231616497039795,0,
00:00:05.876,-0.0299300383776426,-0.00233584805391729,0.0111532537266612,0,
00:00:05.88,-0.00238786265254021,-0.00768812000751495,-0.00934186205267906,0,
00:00:05.884,-0.0173509567975998,0.013836438767612,-0.0204435847699642,0,
00:00:05.888,0.0307732280343771,0.00302182580344379,-0.00238777790218592,0,
00:00:05.892,0.0161099024116993,0.00821070931851864,0.0302108153700829,0,
00:00:05.896,-0.0141063174232841,0.0106371026486158,0.00377278402447701,0,
00:00:05.9,0.00516073359176517,-0.00524565344676375,-0.0201048254966736,0,
00:00:05.904,-0.00678967218846083,-0.0222341846674681,-0.00757246930152178,0,
00:00:05.908,-0.0116622485220432,-0.00373196019791067,0.00803648959845304,0,
00:00:05.912,-0.00133671541698277,-0.00125995511189103,-0.000349312642356381,0,
00:00:05.916,0.00237026088871062,0.0124957803636789,0.00196319213137031,0,
00:00:05.92,0.00946513283997774,0.00509106041863561,0.00779841188341379,0,
00:00:05.924,0.0030579324811697,0.00352578028105199,-0.0118066985160112,0,
00:00:05.928,0.0012406132882461,0.00571287982165813,0.000398331641918048,0,
00:00:05.932,-0.00430012866854668,-0.00905974116176367,0.00349526479840279,0,
00:00:05.936,-0.00579547323286533,-0.0124610532075167,0.00446422770619392,0,
00:00:05.94,0.00491965236142278,-0.00483334809541702,-0.00580554222688079,0,
00:00:05.944,-0.00561012653633952,0.00728478282690048,0.00125020742416382,0,
00:00:05.948,-0.00583904795348644,0.0152670722454786,0.00175575586035848,0,
00:00:05.952,0.0154391406103969,0.00741194048896432,0.0106939859688282,0,
00:00:05.956,0.00412984285503626,-0.00452394876629114,-0.0252526886761189,0,
00:00:05.96,0.00110336137004197,-0.0160832982510328,0.00658949185162783,0,
00:00:05.964,-0.0111790942028165,-0.00421754410490394,0.0100222900509834,0,
00:00:05.968,-0.000899459235370159,0.00816394574940205,0.00383250904269516,0,
00:00:05.972,0.0024603025522083,-0.0144828427582979,-0.0021272434387356,0,
00:00:05.976,-0.0042717601172626,0.0060095633380115,-0.00859352387487888,0,
00:00:05.98,-0.0208164248615503,0.00648760003969073,0.00667598191648722,0,
00:00:05.984,0.0170896053314209,0.0126474304124713,-0.0100306710228324,0,
00:00:05.988,0.0219363495707512,0.0164158381521702,-0.00607382506132126,0,
00:00:05.992,0.00811272207647562,-0.0206711795181036,0.00616057030856609,0,
00:00:05.996,-0.0118228448554873,-0.0157926976680756,0.013002690859139,0,
00:00:06,-0.022170465439558,0.000294949015369639,0.00562929781153798,0,
00:00:06.004,0.000578200502786785,0.00305220927111804,0.00565761839970946,0,
00:00:06.008,-0.00151380628813058,0.000225613432121463,-0.0164014659821987,0,
00:00:06.012,0.0132564660161734,0.022060364484787,-0.0184908378869295,0,
00:00:06.016,0.0208597369492054,-0.00684813875705004,0.0105473818257451,0,
00:00:06.02,-0.0140838893130422,-0.0299741886556149,0.00471916468814015,0,
00:00:06.024,-0.0234843287616968,0.00580907007679343,0.0215238612145185,0,
00:00:06.028,-0.0138171408325434,0.019402302801609,-0.022415479645133,0,
00:00:06.032,0.0302444342523813,0.0272510796785355,-0.0168295633047819,0,
00:00:06.036,0.0355920009315014,-0.0212403554469347,0.0147275067865849,0,
00:00:06.04,-0.0237284209579229,-0.0336159355938435,0.0179575756192207,0,
00:00:06.044,-0.0367796160280705,0.0160140357911587,0.00982175953686237,0,
00:00:06.048,0.0233661867678165,0.00808371882885695,-0.0262007843703032,0,
00:00:06.052,0.0072435257025063,0.00715009542182088,-0.0160563569515944,0,
00:00:06.056,-0.00818401761353016,-0.00196768413297832,0.00823206175118685,0,
00:00:06.06,0.00339958327822387,-0.00260435277596116,0.0101105449721217,0,
00:00:06.064,-0.00028171471785754,-0.00133219931740314,0.00889037828892469,0,
00:00:06.068,-0.00381680321879685,-0.00664067547768354,-0.00846128538250923,0,
00:00:06.072,0.00266552483662963,-0.00462462520226836,0.0187878254801035,0,
00:00:06.076,-0.00270876265130937,0.00828555971384048,-0.00673137046396732,0,
00:00:06.08,0.00319897476583719,-0.00651597790420055,-0.0208945386111736,0,
00:00:06.084,-0.0190825425088406,0.012239814735949,-5.75300546188373E-05,0,
00:00:06.088,0.0210498850792646,0.00472511909902096,0.00363939069211483,0,
00:00:06.092,0.0105476146563888,-0.0107504967600107,0.00662899576127529,0,
00:00:06.096,0.000696593837346882,0.0108477286994457,-0.0132513623684645,0,
00:00:06.1,-0.00939537119120359,-0.00156123877968639,0.0257753655314446,0,
00:00:06.104,-0.0088200569152832,-0.0239079333841801,0.00510799838230014,0,
00:00:06.108,-0.016137033700943,-0.000905835651792586,-0.021265672519803,0,
00:00:06.112,0.0151864113286138,0.0187699720263481,-0.00407057022675872,0,
00:00:06.116,0.00534603325650096,-0.00536940852180123,0.0044461227953434,0,
00:00:06.12,0.00265254126861691,0.0108407959342003,-0.00278298603370786,0,
00:00:06.124,0.00544303748756647,0.0157644916325808,-0.00389525876380503,0,
00:00:06.128,0.00637149158865213,-0.00265051936730742,0.00116147566586733,0,
00:00:06.132,-0.00182943162508309,-0.0418810471892357,0.0316997654736042,0,
00:00:06.136,-0.0302547812461853,-0.00357503839768469,-0.00423606671392918,0,
00:00:06.14,-0.00244125467725098,0.0199959184974432,-0.0282755605876446,0,
00:00:06.144,0.0152392676100135,0.02135094627738,-0.00263378978706896,0,
00:00:06.148,0.0226595588028431,-0.00283003156073391,0.00805706903338432,0,
00:00:06.152,-0.00656304461881518,-0.0144740613177419,-0.000211187201784924,0,
00:00:06.156,-0.0159473400563002,-0.00621196394786239,-0.00738208694383502,0,
00:00:06.16,-0.0027799226809293,0.00683194538578391,0.00852476432919502,0,
00:00:06.164,0.00933084916323423,-0.00212303479202092,0.0153016466647387,0,
00:00:06.168,0.00431655626744032,-0.00535586848855019,0.00574323674663901,0,
00:00:06.172,-0.0104943597689271,0.0053301639854908,-0.0108515219762921,0,
00:00:06.176,-0.0197040941566229,0.00576718151569366,-0.0178043823689222,0,
00:00:06.18,0.0267825070768595,0.000161142743309028,0.00675237737596035,0,
00:00:06.184,0.00764418253675103,0.00496286945417523,0.00416397582739592,0,
00:00:06.188,0.00211401586420834,-0.00500229885801673,-0.012257331982255,0,
00:00:06.192,0.00342284957878292,-0.00133854895830154,0.0122148552909493,0,
00:00:06.196,-0.0255645420402288,-0.0145761463791132,0.000146412421599962,0,
00:00:06.2,-0.0123557783663273,0.00125258159823716,0.00295208115130663,0,
00:00:06.204,0.01587157510221,0.018644392490387,0.000342574378009886,0,
00:00:06.208,0.0161324869841337,-0.00440552411600947,-0.00415349518880248,0,
00:00:06.212,-0.00456341309472919,-0.00102394470013678,0.00145471899304539,0,
00:00:06.216,-0.00218110391870141,0.0100608682259917,-0.00609724083915353,0,
00:00:06.22,0.00616667093709111,0.00621345452964306,-0.0267669316381216,0,
00:00:06.224,0.000575069861952215,-0.0454632304608822,0.0514958277344704,0,
00:00:06.228,-0.0403463095426559,0.0113769145682454,0.00659165158867836,0,
00:00:06.232,0.0148180276155472,0.0171646792441607,-0.0205271895974875,0,
00:00:06.236,0.0212691575288773,0.00480089895427227,-0.0207500178366899,0,
00:00:06.24,0.00538950972259045,0.00348776113241911,0.00198213895782828,0,
00:00:06.244,0.00745568471029401,0.00193117780145258,0.006665981374681,0,
00:00:06.248,-0.00694868341088295,-0.0155021958053112,0.00892595760524273,0,
00:00:06.252,-0.0286249723285437,-2.17883825825993E-06,0.00613830052316189,0,
00:00:06.256,0.000802265538368374,0.000538100663106889,-0.00721443630754948,0,
00:00:06.26,0.0209605861455202,0.00532865757122636,-0.00959830451756716,0,
00:00:06.264,0.00129362288862467,-0.0108698150143027,0.0180116035044193,0,
00:00:06.268,-0.0149517385289073,-0.00882502365857363,0.00452835904434323,0,
00:00:06.272,-0.00426020380109549,0.0164201352745295,-0.0138515010476112,0,
00:00:06.276,0.0129118366166949,0.0178484860807657,-0.0151293640956283,0,
00:00:06.28,0.0161984022706747,0.00707201333716512,-0.00638380739837885,0,
00:00:06.284,-0.000267730210907757,0.00392616633325815,0.00335422065109015,0,
00:00:06.288,0.00519068259745836,-0.0326194576919079,0.0231449902057648,0,
00:00:06.292,-0.0256432313472033,-0.0397288724780083,0.0195476077497005,0,
00:00:06.296,-0.037444956600666,0.00782351195812225,0.00295398966409266,0,
00:00:06.3,0.0182153098285198,0.036172803491354,-0.0226625856012106,0,
00:00:06.304,0.0377869941294193,0.0349726341664791,-0.0188576653599739,0,
00:00:06.308,0.00547759979963303,-0.0023138509131968,-0.0116815008223057,0,
00:00:06.312,-0.00805539451539516,-0.0190453547984362,0.00721281068399549,0,
00:00:06.316,-0.00357330171391368,-0.0225289631634951,0.00791250076144934,0,
00:00:06.32,-0.0118551682680845,-0.00295596639625728,0.019100172445178,0,
00:00:06.324,0.000182391362613998,-0.00406798068434,0.0109755890443921,0,
00:00:06.328,-0.0023604454472661,0.0172800272703171,-0.00745481485500932,0,
