Elapsed Time,EMG1,EMG2,EMG3,BioRadio Event,
00:00:00,-0.180592864751816,1.45719766616821,1.76441311836243,0,
00:00:00.004,0.163549929857254,-1.39082789421082,-1.67072093486786,0,
00:00:00.008,0.161137923598289,-1.13630878925323,-1.39533472061157,0,
00:00:00.012,0.012093904428184,-0.112091034650803,-0.158724799752235,0,
00:00:00.016,-0.0808200165629387,0.562348604202271,0.69274365901947,0,
00:00:00.02,-0.0791297405958176,0.716760694980621,0.866570830345154,0,
00:00:00.024,-0.0976441204547882,0.417604923248291,0.583649456501007,0,
00:00:00.028,-0.0381476432085037,0.0315801687538624,0.0960132405161858,0,
00:00:00.032,0.141760602593422,-0.151253372430801,-0.305995911359787,0,
00:00:00.036,0.0829311236739159,-0.224881857633591,-0.371817737817764,0,
00:00:00.04,-0.0687675327062607,-0.21650305390358,-0.251675993204117,0,
00:00:00.044,-0.0199026726186275,-0.108213409781456,-0.0703351125121117,0,
00:00:00.048,-0.00489345612004399,0.00444276537746191,0.0729793906211853,0,
00:00:00.052,-0.025639496743679,0.0187996737658978,0.0874812975525856,0,
00:00:00.056,0.00187008990906179,0.0841816514730453,0.081013560295105,0,
00:00:00.06,0.0415419861674309,0.101567842066288,0.0338257029652596,0,
00:00:00.064,0.0207174979150295,0.0401459559798241,-0.00655186083167791,0,
00:00:00.068,-0.0499921590089798,-0.0808797106146812,-0.0197002850472927,0,
00:00:00.072,0.0141679961234331,-0.001014239853248,-0.0249428581446409,0,
00:00:00.076,0.0218200832605362,-0.0177458245307207,-0.0160866379737854,0,
00:00:00.08,0.00374291371554136,0.00488813780248165,-0.00571548426523805,0,
00:00:00.084,0.0100570181384683,0.0193410813808441,0.00514998519793153,0,
00:00:00.088,-0.0333590433001518,-0.0225760359317064,0.0200766865164042,0,
00:00:00.092,-0.00999619252979755,-0.0134319122880697,0.000225171650527045,0,
00:00:00.096,-0.0160089749842882,-0.0191870182752609,-0.0213546417653561,0,
00:00:00.1,0.0017837513005361,0.0316498316824436,0.0248434711247683,0,
00:00:00.104,-0.00557800894603133,0.00337435584515333,0.0275547690689564,0,
00:00:00.108,0.0529586300253868,0.0246343780308962,-0.0454914979636669,0,
00:00:00.112,0.103575430810452,-0.00111554469913244,-0.0490317195653915,0,
00:00:00.116,-0.053961019963026,-0.0201228465884924,0.0390018485486507,0,
00:00:00.12,-0.14495787024498,-0.0141070177778602,0.0583220198750496,0,
00:00:00.124,-0.0383714362978935,-0.0353913158178329,-0.0138014620169997,0,
00:00:00.128,0.0660963803529739,0.0396019071340561,-0.0115316146984696,0,
00:00:00.132,0.0769146606326103,0.0507327057421207,-0.022053450345993,0,
00:00:00.136,0.0061990269459784,0.0342093594372272,-0.019580539315939,0,
00:00:00.14,-0.0431321188807487,-0.128871068358421,0.0244403425604105,0,
00:00:00.144,0.0866343006491661,-0.0164259374141693,-0.0105657987296581,0,
00:00:00.148,-0.00784891750663519,0.0847150906920433,-0.00434530805796385,0,
00:00:00.152,-0.0960361957550049,0.0278679113835096,0.0260331723839045,0,
00:00:00.156,-0.0423732735216618,-0.0200969558209181,0.0270103439688683,0,
00:00:00.16,-0.00842389650642872,-0.0448035672307014,-0.0153861027210951,0,
00:00:00.164,0.0364967286586761,-0.0482630543410778,-0.0291857961565256,0,
00:00:00.168,0.0925998762249947,0.101263925433159,-0.0158160049468279,0,
00:00:00.172,0.0114341918379068,0.0231185257434845,0.00576111115515232,0,
00:00:00.176,-0.121613197028637,-0.141952842473984,0.0304995439946651,0,
00:00:00.18,0.0590250194072723,0.0573730431497097,0.0184231512248516,0,
00:00:00.184,0.0904755890369415,0.0889629945158958,-0.0554367266595364,0,
00:00:00.188,-0.0677853301167488,-0.004338881932199,0.0167706627398729,0,
00:00:00.192,-0.0710004046559334,0.00293702376075089,-0.000526052957866341,0,
00:00:00.196,-0.00116292841266841,-0.121138341724873,0.00941533874720335,0,
00:00:00.2,0.0696608945727348,-0.00918567646294832,0.0199193973094225,0,
00:00:00.204,-0.0616277121007442,0.0244957357645035,0.0208417791873217,0,
00:00:00.208,0.0112978424876928,0.0570317283272743,-0.0509080365300179,0,
00:00:00.212,0.0314710363745689,0.0472594797611237,-0.0141520453616977,0,
00:00:00.216,0.0796740278601646,0.0162934400141239,-0.00872560311108828,0,
00:00:00.22,-0.0272601190954447,-0.0620868653059006,-0.00324869272299111,0,
00:00:00.224,-0.0777322724461555,-0.0280822794884443,0.0569410659372807,0,
00:00:00.228,-0.0362926237285137,-0.0279817432165146,0.0221716053783894,0,
00:00:00.232,0.00586692150682211,-0.0542451255023479,-0.0089554525911808,0,
00:00:00.236,0.0403118208050728,0.0843831524252892,-0.0370324701070786,0,
00:00:00.24,0.0390774980187416,0.080196276307106,-0.0163007155060768,0,
00:00:00.244,0.0193215329200029,0.0302966814488173,-0.0103993620723486,0,
00:00:00.248,-0.0265345871448517,-0.0996597558259964,0.0141364736482501,0,
00:00:00.252,-0.0584445893764496,-0.0816828235983849,0.0277779307216406,0,
00:00:00.256,0.00970212183892727,0.0646665245294571,0.0103429714217782,0,
00:00:00.26,0.0647703781723976,0.0763907805085182,-0.0258472859859467,0,
00:00:00.264,-0.00630884058773518,-0.0134120360016823,-0.00645476765930653,0,
00:00:00.268,-0.0442765094339848,-0.0486930310726166,0.0222119484096766,0,
00:00:00.272,-0.00891709327697754,-0.0549212917685509,-0.0326995179057121,0,
00:00:00.276,0.0768019631505013,0.0562657602131367,0.0150087382644415,0,
00:00:00.28,-0.0821772962808609,-0.00466993125155568,0.0344707407057285,0,
00:00:00.284,-0.0473069921135902,0.0121548129245639,-0.0208317451179028,0,
00:00:00.288,0.121944047510624,0.037012591958046,-0.0527459904551506,0,
00:00:00.292,0.0217163041234016,-0.0261339470744133,0.0217428728938103,0,
00:00:00.296,-0.0983644053339958,-0.034772701561451,0.0481937862932682,0,
00:00:00.3,-0.00906847510486841,0.0291738416999578,0.00146474270150065,0,
00:00:00.304,0.0555838122963905,-0.028141250833869,0.00462082633748651,0,
00:00:00.308,0.0237507857382298,0.0163893550634384,-0.0185844525694847,0,
00:00:00.312,-0.0582442283630371,0.017321826890111,-0.0559305548667908,0,
00:00:00.316,-0.0228800252079964,-0.0184884294867516,0.00196299212984741,0,
00:00:00.32,0.0322304926812649,0.0152553841471672,0.0254584271460772,0,
00:00:00.324,0.0324756093323231,0.0248014107346535,0.0134457545354962,0,
00:00:00.328,0.00730750896036625,-0.0480113811790943,0.0123877273872495,0,
00:00:00.332,-0.0415225252509117,-0.0549260899424553,0.0472571067512035,0,
00:00:00.336,-0.0254528187215328,0.0265256036072969,-0.0247109830379486,0,
00:00:00.34,0.0340825654566288,0.0835284143686295,-0.0487777963280678,0,
00:00:00.344,0.0853178352117538,0.0503022558987141,-0.0315139107406139,0,
00:00:00.348,-0.0519119016826153,-0.0498002953827381,0.008030716329813,0,
00:00:00.352,-0.152498632669449,-0.14939983189106,0.0644895732402802,0,
00:00:00.356,0.154792457818985,0.0444625914096832,-0.0171690657734871,0,
00:00:00.36,0.0105420099571347,0.102692969143391,-0.00235864287242293,0,
00:00:00.364,-0.0521639063954353,0.0181265156716108,0.00146396597847342,0,
00:00:00.368,-0.00998082756996155,-0.0228177104145288,-5.24423739989288E-05,0,
00:00:00.372,0.00329775642603636,-0.061674676835537,-0.00446417648345232,0,
00:00:00.376,0.0036921426653862,-0.0192993655800819,-0.0221222173422575,0,
00:00:00.38,-0.020209014415741,0.0455152988433838,0.0145677085965872,0,
00:00:00.384,0.0262749213725328,-0.0534749589860439,0.0255831629037857,0,
00:00:00.388,0.114254526793957,0.0528986603021622,-0.0430421382188797,0,
00:00:00.392,-0.0652160421013832,0.0602567009627819,0.0139511181041598,0,
00:00:00.396,-0.0862377434968948,0.00930379144847393,0.0117829078808427,0,
00:00:00.4,-0.0224920809268951,-0.0787787064909935,0.0112130949273705,0,
00:00:00.404,0.0321555659174919,-0.0386865362524986,0.0199267715215683,0,
00:00:00.408,0.0753898695111275,0.0319807231426239,-0.0762408971786499,0,
00:00:00.412,0.0142336301505566,0.0199264399707317,0.0177761148661375,0,
00:00:00.416,-0.0649680718779564,-0.0151470974087715,0.0539453811943531,0,
00:00:00.42,-0.040192611515522,-0.0127008454874158,-0.00942560564726591,0,
00:00:00.424,0.0219302549958229,0.0506254024803638,-0.0345173813402653,0,
00:00:00.428,0.0247244909405708,0.000525317154824734,0.0072807683609426,0,
00:00:00.432,0.0205739047378302,-0.0212285201996565,-0.000340204394888133,0,
00:00:00.436,0.0169821940362453,0.0258928053081036,-0.0066606211476028,0,
00:00:00.44,-0.0468464642763138,-0.0781049057841301,0.0200586188584566,0,
00:00:00.444,-0.00645496230572462,-0.0147041389718652,0.0209937877953053,0,
00:00:00.448,0.0400458239018917,0.0911204144358635,-0.032319325953722,0,
00:00:00.452,0.028042409569025,0.0599519535899162,-0.00734164798632264,0,
00:00:00.456,-0.104454286396503,-0.139649301767349,0.0250592511147261,0,
00:00:00.46,-0.0216987449675798,-0.0201792009174824,-0.0192454867064953,0,
00:00:00.464,0.104405447840691,0.0784893929958344,-0.0227155201137066,0,
00:00:00.468,0.0770718529820442,0.0454930700361729,0.0136413816362619,0,
00:00:00.472,-0.0874609351158142,-0.00933294650167227,0.030664000660181,0,
00:00:00.476,-0.0829483568668365,-0.0305324736982584,0.014145091176033,0,
00:00:00.48,0.0584870167076588,-0.0553814806044102,-0.0408221669495106,0,
00:00:00.484,0.00925139058381319,-0.0165316257625818,0.0225406251847744,0,
00:00:00.488,-0.0196842364966869,0.047552440315485,0.016295500099659,0,
00:00:00.492,-0.00275066727772355,0.0345714688301086,-0.0274084582924843,0,
00:00:00.496,0.0156262796372175,0.014956321567297,-0.0340830683708191,0,
00:00:00.5,0.026682311668992,-0.00818341039121151,0.000825903320219368,0,
00:00:00.504,-0.0131243644282222,-0.0401270762085915,0.0201164092868567,0,
00:00:00.508,-0.0406045690178871,-0.0786560103297234,0.0436115674674511,0,
00:00:00.512,0.0241668801754713,0.0331127680838108,0.0200538616627455,0,
00:00:00.516,0.048232264816761,0.11387538164854,-0.0381442606449127,0,
00:00:00.52,0.00141251715831459,0.0371358543634415,-0.0441551245748997,0,
00:00:00.524,-0.0346989892423153,-0.0621106661856174,-0.0143969943746924,0,
00:00:00.528,-0.0328949131071568,-0.0610644035041332,0.025574579834938,0,
00:00:00.532,-0.0128712775185704,-0.0485225915908813,0.0369224697351456,0,
00:00:00.536,-0.0263284426182508,-0.00720135774463415,0.0251542814075947,0,
00:00:00.54,0.052394974976778,0.103517279028893,-0.0298592522740364,0,
00:00:00.544,0.104410424828529,0.0874420627951622,-0.0425305850803852,0,
00:00:00.548,-0.0447608716785908,-0.0626804009079933,0.0345891527831554,0,
00:00:00.552,-0.160647079348564,-0.149377584457397,0.0540083236992359,0,
00:00:00.556,0.162367343902588,0.0801276192069054,-0.0799828320741653,0,
00:00:00.56,0.0898143425583839,0.0735567957162857,-0.0666571855545044,0,
00:00:00.564,-0.147690415382385,0.00656237080693245,0.0796112418174744,0,
00:00:00.568,-0.120475389063358,-0.0749565809965134,0.0542390756309032,0,
00:00:00.572,0.0243078973144293,-0.0480481386184692,0.0121116759255528,0,
00:00:00.576,0.115235395729542,0.0537630766630173,-0.0413828045129776,0,
00:00:00.58,0.0521117076277733,0.0560780242085457,-0.0439831875264645,0,
00:00:00.584,-0.0187152922153473,-0.0326323732733727,0.00298819690942764,0,
00:00:00.588,-0.0494267828762531,-0.0407788828015327,0.0240932609885931,0,
00:00:00.592,0.0169458277523518,0.0382780730724335,-0.00172223523259163,0,
00:00:00.596,-0.00370096298865974,0.0085051916539669,-0.00240857992321253,0,
00:00:00.6,-0.0521670952439308,-0.0557786375284195,0.0166963096708059,0,
00:00:00.604,0.0878633931279182,0.050703264772892,-0.0343841761350632,0,
00:00:00.608,-0.0549651272594929,-0.024280421435833,0.013402490876615,0,
00:00:00.612,-0.0220611449331045,0.0217699203640223,0.0356621704995632,0,
00:00:00.616,0.0444785319268703,0.0366925299167633,0.00265731895342469,0,
00:00:00.62,0.00866393465548754,0.00316331395879388,-0.0306940041482449,0,
00:00:00.624,-0.0264535024762154,-0.0470964871346951,-0.0229469761252403,0,
00:00:00.628,-0.0324375256896019,-0.130425617098808,0.0172893814742565,0,
00:00:00.632,0.035093367099762,0.0663154646754265,0.02632762119174,0,
00:00:00.636,0.0288334768265486,0.106302224099636,-0.00635725306347013,0,
00:00:00.64,0.00781914591789246,0.0350498110055923,-0.0221288446336985,0,
00:00:00.644,-0.0261163357645273,-0.0383214168250561,-0.00491791171953082,0,
00:00:00.648,-0.0208974983543158,-0.0416238494217396,0.00978707708418369,0,
00:00:00.652,-0.0276726968586445,-0.0323925279080868,-0.00605384726077318,0,
00:00:00.656,-0.00229595811106265,0.00269506755284965,0.0350645631551743,0,
00:00:00.66,0.145444259047508,0.0314313434064388,-0.0249623209238052,0,
00:00:00.664,-0.00112633896060288,0.0208738967776299,-0.0241779889911413,0,
00:00:00.668,-0.143790036439896,-0.0481974333524704,0.0205307099968195,0,
00:00:00.672,-0.0538137815892696,0.00538508221507072,0.0167696736752987,0,
00:00:00.676,0.0141698233783245,0.0289625972509384,0.0203467961400747,0,
00:00:00.68,0.0676745846867561,0.0110241593793035,-0.00732408370822668,0,
00:00:00.684,0.0935063883662224,0.0358451716601849,-0.0482866317033768,0,
00:00:00.688,-0.0124924527481198,-0.0743828415870667,-0.0156627409160137,0,
00:00:00.692,-0.0823736190795898,-0.0516618117690086,0.0422128774225712,0,
00:00:00.696,0.00986073166131973,0.0660716146230698,0.00999836437404156,0,
00:00:00.7,0.0190515145659447,0.0513268485665321,-0.0154202720150352,0,
00:00:00.704,-0.0170343741774559,-0.018118666484952,-0.00868278834968805,0,
00:00:00.708,0.0108539117500186,0.00365655799396336,0.00250065582804382,0,
00:00:00.712,-0.0303466934710741,-0.0709082186222076,0.0181110389530659,0,
00:00:00.716,-0.0357162915170193,-0.0379924699664116,0.0152749996632338,0,
00:00:00.72,0.103483006358147,0.0600968599319458,-0.0280283708125353,0,
00:00:00.724,0.0304736662656069,0.103900693356991,-0.0115073192864656,0,
00:00:00.728,-0.112681396305561,-0.0469438210129738,0.012708256021142,0,
00:00:00.732,-0.0704954415559769,-0.115102007985115,0.0170562639832497,0,
00:00:00.736,0.177138581871986,0.0506911277770996,-0.0207660514861345,0,
00:00:00.74,0.0808379501104355,0.0723687186837196,-0.0230525024235249,0,
00:00:00.744,-0.130407243967056,0.0125142941251397,0.0276074204593897,0,
00:00:00.748,-0.129051268100739,-0.088122233748436,0.0161653235554695,0,
00:00:00.752,-0.007074233610183,-0.0352891944348812,-0.0102031202986836,0,
00:00:00.756,0.100134409964085,0.0570657029747963,-0.00112700066529214,0,
00:00:00.76,0.0637647733092308,0.0344861261546612,0.000587090500630438,0,
00:00:00.764,0.0178453344851732,0.00350100942887366,-0.0192883852869272,0,
00:00:00.768,-0.0306669622659683,-0.0444112494587898,0.00761315692216158,0,
00:00:00.772,-0.0444485358893871,-0.00322293885983527,0.0268182344734669,0,
00:00:00.776,0.00421260669827461,-0.00133575161453336,-0.0116208204999566,0,
00:00:00.78,-0.0105792609974742,-0.017479881644249,-0.0231851264834404,0,
00:00:00.784,0.0166345648467541,0.0364057756960392,-0.00610808143392205,0,
00:00:00.788,0.0149650825187564,0.0563281401991844,0.032096691429615,0,
00:00:00.792,-0.0295730624347925,0.00576866278424859,0.0064154714345932,0,
00:00:00.796,-0.0405186787247658,-0.117186836898327,-0.0103359473869205,0,
00:00:00.8,0.130443975329399,0.00864256452769041,-0.0278277713805437,0,
00:00:00.804,-0.0278617143630981,0.0417367555201054,-0.00395998451858759,0,
00:00:00.808,-0.0635826215147972,0.0207156948745251,0.017602888867259,0,
00:00:00.812,-0.0213456153869629,-0.00186380126979202,0.0250143762677908,0,
00:00:00.816,0.0240253396332264,0.0103045785799623,0.0131571656093001,0,
00:00:00.82,0.011309995315969,-0.0560808889567852,-0.0152042917907238,0,
00:00:00.824,-0.0128050092607737,-0.00934244971722364,-0.0173649862408638,0,
00:00:00.828,-0.000541752378921956,0.0426413752138615,-0.0192485433071852,0,
00:00:00.832,0.050993662327528,0.0219522882252932,-0.000317227386403829,0,
00:00:00.836,0.0192164182662964,-0.00443353736773133,0.0128380367532372,0,
00:00:00.84,-0.0470669642090797,-0.0273731872439384,0.0182590000331402,0,
00:00:00.844,-0.0295600388199091,0.00724720815196633,-0.000563059351406991,0,
00:00:00.848,-0.0257401820272207,-0.0282817389816046,-0.00601374637335539,0,
00:00:00.852,0.0308604296296835,0.0116749536246061,0.00131455773953348,0,
00:00:00.856,0.0500997267663479,0.052066370844841,-0.0119097325950861,0,
00:00:00.86,0.00878026895225048,0.00186902971472591,-0.00653886375948787,0,
00:00:00.864,-0.0571304820477962,-0.0833590403199196,0.00828567706048489,0,
00:00:00.868,0.00157657579984516,0.0414481498301029,0.000841752858832479,0,
00:00:00.872,0.0111627690494061,0.00885370746254921,0.0161282941699028,0,
00:00:00.876,-0.0341984480619431,-0.0759293511509895,0.0346793159842491,0,
00:00:00.88,0.0240099802613258,0.070842407643795,-0.0400557816028595,0,
00:00:00.884,0.0584213323891163,0.0497894994914532,-0.0441548228263855,0,
00:00:00.888,0.0223112162202597,0.0105734318494797,0.0145656941458583,0,
00:00:00.892,-0.0261530727148056,-0.00669043511152267,0.0067514325492084,0,
00:00:00.896,-0.118539728224277,-0.0845053493976593,0.0386842079460621,0,
00:00:00.9,-0.0271243285387754,-0.086408942937851,0.0113646658137441,0,
00:00:00.904,0.166347414255142,0.0861818268895149,-0.065361924469471,0,
00:00:00.908,-0.012046723626554,0.0877731814980507,0.0136379720643163,0,
00:00:00.912,-0.0626635700464249,-0.00220392877236009,0.0566309504210949,0,
00:00:00.916,0.0234048198908567,-0.0832118466496468,-0.0344062633812428,0,
00:00:00.92,0.00747780036181211,0.0341660156846046,-0.0600160211324692,0,
00:00:00.924,-0.0378693044185638,0.0272927805781364,0.0825843587517738,0,
00:00:00.928,-0.0315668657422066,-0.0573076978325844,0.0107608595862985,0,
00:00:00.932,0.016157815232873,-0.0635410472750664,-0.0147292222827673,0,
00:00:00.936,0.0481671765446663,0.0960363000631332,-0.0335162617266178,0,
00:00:00.94,0.0346631892025471,0.0618890672922134,-0.0232237130403519,0,
00:00:00.944,-0.000910448376089334,0.00528588844463229,-0.00916219782084227,0,
00:00:00.948,-0.0571320094168186,-0.140044286847115,0.0474633350968361,0,
00:00:00.952,-0.0343752764165401,-0.0324873365461826,0.0442946888506413,0,
00:00:00.956,0.0357612706720829,0.102263994514942,-0.0298559498041868,0,
00:00:00.96,0.0297092236578465,0.0635535791516304,-0.0421210117638111,0,
00:00:00.964,-0.040988028049469,-0.019476629793644,0.00541884964331985,0,
00:00:00.968,0.0495134182274342,-0.0415178127586842,0.0241963155567646,0,
00:00:00.972,0.0439188852906227,-0.0502764694392681,-0.0247307233512402,0,
00:00:00.976,-0.0808040723204613,0.0349797494709492,0.0287316311150789,0,
00:00:00.98,-0.0362068265676498,0.055450689047575,0.00222579459659755,0,
00:00:00.984,-0.034499641507864,-0.115485660731792,0.0142122795805335,0,
00:00:00.988,0.024570370092988,-0.0327713675796986,-0.0032200135756284,0,
00:00:00.992,0.154303282499313,0.140760451555252,-0.0701019465923309,0,
00:00:00.996,-0.0440904162824154,0.0704355910420418,0.0060111740604043,0,
00:00:01,-0.0954194664955139,-0.0818136930465698,0.0581554397940636,0,
00:00:01.004,-0.019587617367506,-0.0666183829307556,-0.00241859583184123,0,
00:00:01.008,0.122317768633366,0.0134346792474389,-0.000567986455280334,0,
00:00:01.012,0.0164264943450689,0.0395629666745663,-0.0391800962388515,0,
00:00:01.016,-0.107213661074638,-0.0265704281628132,0.0440893620252609,0,
00:00:01.02,-0.0477953739464283,-0.0312051940709352,0.0108159007504582,0,
00:00:01.024,0.0111996559426188,-0.00032742804614827,-0.0294315870851278,0,
00:00:01.028,0.0622828900814056,0.074394516646862,-0.0301726441830397,0,
00:00:01.032,0.0421579517424107,0.0386649332940578,-0.00494174193590879,0,
00:00:01.036,0.00745898904278874,-0.0352827571332455,0.0417540110647678,0,
00:00:01.04,-0.0275637898594141,-0.0561722628772259,0.00224532489664853,0,
00:00:01.044,-0.0350358784198761,-0.0254714787006378,-0.00161957170348614,0,
00:00:01.048,-0.0041096587665379,0.0434929169714451,-0.00319310696795583,0,
00:00:01.052,0.0335611589252949,0.0281975753605366,0.00307969376444817,0,
00:00:01.056,0.0110161667689681,-0.0452568680047989,-0.00182811496779323,0,
00:00:01.06,-0.0648341551423073,-0.0221461541950703,-0.00547464704141021,0,
00:00:01.064,0.00655529275536537,0.0543251186609268,-0.00709287729114294,0,
00:00:01.068,0.0228706896305084,0.0423673950135708,-0.0145849352702498,0,
00:00:01.072,-0.0132531356066465,-0.00803241040557623,0.0331152752041817,0,
00:00:01.076,0.093852125108242,-0.115487806499004,-0.0263770315796137,0,
00:00:01.08,0.0281851887702942,0.0221826005727053,0.00112291076220572,0,
00:00:01.084,-0.120199412107468,0.0636100471019745,0.0351209007203579,0,
00:00:01.088,-0.0485825873911381,0.0312750339508057,-0.00494448933750391,0,
00:00:01.092,0.0173920337110758,-0.0122252656146884,-0.0206427685916424,0,
00:00:01.096,0.025268416851759,-0.0648549795150757,-0.00584572041407228,0,
00:00:01.1,0.0183000806719065,-0.0257369317114353,0.0196274816989899,0,
00:00:01.104,0.0337859801948071,0.0551214963197708,-0.00189327425323427,0,
00:00:01.108,0.0218463316559792,0.00946399196982384,-0.0169741027057171,0,
00:00:01.112,-0.00440948409959674,0.0204344522207975,-0.000625105109065771,0,
00:00:01.116,-0.0293944533914328,-0.0017067895969376,-0.00314465630799532,0,
00:00:01.12,-0.0290667451918125,-0.00984879583120346,0.0148903811350465,0,
00:00:01.124,-0.0324865914881229,-0.0832435935735703,0.0131298620253801,0,
00:00:01.128,0.00816197320818901,-0.00279496470466256,-0.0153626194223762,0,
00:00:01.132,0.0659831017255783,0.094443179666996,-0.0166010465472937,0,
00:00:01.136,-0.00110186298843473,0.0309794470667839,0.00882904790341854,0,
00:00:01.14,-0.0363158211112022,-0.00830118171870708,0.0328358896076679,0,
00:00:01.144,0.0114057771861553,-0.0579192712903023,0.00889659952372313,0,
00:00:01.148,0.0557892993092537,-0.0292759370058775,-0.0705227330327034,0,
00:00:01.152,-0.0325599946081638,0.015373831614852,0.0110658388584852,0,
00:00:01.156,-0.041573341935873,0.0370348766446114,0.0368727147579193,0,
00:00:01.16,-0.0515409708023071,-0.0673705115914345,0.00710078235715628,0,
00:00:01.164,0.0398835204541683,0.0504629388451576,-0.014663795940578,0,
00:00:01.168,0.0342156104743481,0.0343705303966999,-0.0115702757611871,0,
00:00:01.172,0.0136713711544871,0.00913088116794825,-0.00844709295779467,0,
00:00:01.176,0.00920730363577604,-0.0107743423432112,0.0102804275229573,0,
00:00:01.18,-0.0034817885607481,-0.0518518351018429,0.0170393250882626,0,
00:00:01.184,-0.0386562682688236,-0.0194013975560665,0.00880738347768784,0,
00:00:01.188,-0.0300026517361403,-0.00576889747753739,-0.0104129891842604,0,
00:00:01.192,0.0576970651745796,0.0366585589945316,-0.0131180332973599,0,
00:00:01.196,0.0357165560126305,0.0566059425473213,-0.0113480389118195,0,
00:00:01.2,-0.0224280934780836,0.0111868344247341,-0.0125435246154666,0,
00:00:01.204,-0.0294160917401314,-0.0269888266921043,0.004995699506253,0,
00:00:01.208,-0.0380393825471401,-0.0737880393862724,0.0427901223301888,0,
00:00:01.212,0.00797691568732262,-0.0150333261117339,0.0140837719663978,0,
00:00:01.216,0.0642615109682083,0.0493048653006554,-0.0174153968691826,0,
00:00:01.22,-0.0251924972981215,0.0288360379636288,-0.0225626956671476,0,
00:00:01.224,-0.0175565704703331,0.00565220275893807,-0.0108325881883502,0,
00:00:01.228,-0.000530855439137667,-0.0757022425532341,0.0163398440927267,0,
00:00:01.232,0.0342111214995384,0.0415634885430336,-0.00760608119890094,0,
00:00:01.236,-0.00163738429546356,0.063280276954174,0.00279074837453663,0,
00:00:01.24,-0.00219366792589426,0.00139833649154752,-0.00757888099178672,0,
00:00:01.244,-0.0369131341576576,-0.0483613312244415,0.018975492566824,0,
00:00:01.248,-0.0254640132188797,-0.0804322138428688,0.00619442854076624,0,
00:00:01.252,0.0330069437623024,-0.00404477631673217,-0.00157252384815365,0,
00:00:01.256,0.0236436668783426,0.0706929340958595,-0.0278457030653954,0,
00:00:01.26,0.020319476723671,0.0604032762348652,0.0187818352133036,0,
00:00:01.264,-0.0163365602493286,-0.0114995716139674,-0.00777353486046195,0,
00:00:01.268,-0.000688417989294976,-0.00215609627775848,0.0130110699683428,0,
00:00:01.272,-0.0353402122855186,-0.0511485226452351,-0.00709355948492885,0,
00:00:01.276,-0.0222316775470972,-0.0845405086874962,0.0172996334731579,0,
00:00:01.28,0.025313962250948,0.0723914578557014,-0.0129469921812415,0,
00:00:01.284,0.0403286814689636,0.0795106589794159,-0.024130767211318,0,
00:00:01.288,0.0045628217048943,-0.0049635679461062,-0.00903796683996916,0,
00:00:01.292,-0.0235141664743423,-0.0576979145407677,0.0363556854426861,0,
00:00:01.296,-0.00343926926143467,-0.0418360717594624,0.0158189535140991,0,
00:00:01.3,-0.0277506988495588,0.0207471437752247,-0.0197680070996284,0,
00:00:01.304,0.0405070818960667,0.0459989532828331,-0.0192337427288294,0,
00:00:01.308,0.0244743488729,0.0101179210469127,0.0191306322813034,0,
00:00:01.312,-0.00214122398756444,-0.00488827982917428,0.00101513473782688,0,
00:00:01.316,-0.0722358301281929,-0.0576621480286121,-0.00616149557754397,0,
00:00:01.32,-0.0451011471450329,-0.0283725615590811,-0.00529267219826579,0,
00:00:01.324,0.0627449154853821,0.0533048883080482,0.00916071888059378,0,
00:00:01.328,0.0370353162288666,0.0443198680877686,0.000724485085811466,0,
00:00:01.332,0.0279334913939238,0.0236687399446964,-0.00833899900317192,0,
00:00:01.336,-0.0203083883970976,-0.0333679355680943,-0.000172354935784824,0,
00:00:01.34,-0.0370432287454605,-0.0531483478844166,0.0164419561624527,0,
00:00:01.344,-0.023571802303195,-0.0368047095835209,0.00246753497049212,0,
00:00:01.348,0.0439643114805222,0.0555455647408962,-0.0159617271274328,0,
00:00:01.352,0.0137505065649748,0.00944846495985985,-0.00359525321982801,0,
00:00:01.356,-0.0497657805681229,-0.0134133892133832,-0.00311016663908958,0,
00:00:01.36,0.0202542655169964,0.0366420596837997,0.00196727411821485,0,
00:00:01.364,0.030175780877471,0.01680938154459,0.000743676850106567,0,
00:00:01.368,-0.00171105563640594,-0.00950566399842501,0.00424307305365801,0,
00:00:01.372,-0.030453959479928,-0.051130834966898,0.000967499625403434,0,
00:00:01.376,-0.0175289008766413,-0.0498405583202839,0.0339296422898769,0,
00:00:01.38,0.0190227515995502,0.0654590129852295,-0.00793823413550854,0,
00:00:01.384,0.0227381456643343,0.0252156108617783,-0.0515683554112911,0,
00:00:01.388,-0.0230736061930656,-0.018143055960536,-0.00854526460170746,0,
00:00:01.392,-0.00760109070688486,-0.0112946424633265,0.0418853536248207,0,
00:00:01.396,0.040137130767107,0.0379959866404533,0.0103379627689719,0,
00:00:01.4,-0.00371124944649637,0.00431298278272152,-0.0309538561850786,0,
00:00:01.404,-0.00347972940653563,-0.0385331474244595,-0.00910819508135319,0,
00:00:01.408,-0.0114780981093645,-0.0681125149130821,0.0409265346825123,0,
00:00:01.412,-0.0605801418423653,0.0128509784117341,0.0169063713401556,0,
00:00:01.416,0.00483049405738711,0.0712360069155693,0.0039453636854887,0,
00:00:01.42,0.0548258572816849,0.0511972717940807,-0.0458803772926331,0,
00:00:01.424,0.013928011059761,-0.0197596848011017,-0.0352868251502514,0,
00:00:01.428,-0.00672032497823238,-0.0288298670202494,0.00270233396440744,0,
00:00:01.432,0.00907091144472361,-0.0438779629766941,0.0278807077556849,0,
00:00:01.436,-0.0193337444216013,-0.0236951671540737,0.0409442186355591,0,
00:00:01.44,0.0030228344257921,0.0476093329489231,-0.0146896261721849,0,
00:00:01.444,0.00411579757928848,0.046279426664114,-0.0113892005756497,0,
00:00:01.448,-0.0113828154280782,0.00265330844558775,-0.00112187117338181,0,
00:00:01.452,-0.0280616339296103,-0.116233982145786,0.00386889581568539,0,
00:00:01.456,0.00574553292244673,0.0360553078353405,-0.00113731273449957,0,
00:00:01.46,0.0353222787380219,0.0701102167367935,-0.00468184240162373,0,
00:00:01.464,-0.00850443262606859,0.00874533783644438,-0.0292300302535295,0,
00:00:01.468,-0.00786083377897739,-0.0593940876424313,0.0262286048382521,0,
00:00:01.472,0.00153287872672081,-0.00255335867404938,0.0417750999331474,0,
00:00:01.476,0.0644342824816704,0.0478011593222618,-0.0472632013261318,0,
00:00:01.48,-0.0273990668356419,-0.00520312786102295,-0.0165332332253456,0,
00:00:01.484,-0.0853810012340546,-0.0658892169594765,0.0201414115726948,0,
00:00:01.488,0.0129660703241825,0.018218457698822,0.0167719647288322,0,
00:00:01.492,0.0770864114165306,0.0299873314797878,-0.00737738888710737,0,
00:00:01.496,-0.0412670150399208,0.0185177940875292,-0.00938359741121531,0,
00:00:01.5,-0.0224509574472904,0.0097842700779438,0.0131401978433132,0,
00:00:01.504,-0.0172400958836079,-0.0469697713851929,0.00508128339424729,0,
00:00:01.508,0.0341720879077911,-0.0372679084539413,-0.00563313625752926,0,
00:00:01.512,0.0771633684635162,0.0423711687326431,-0.0176835879683495,0,
00:00:01.516,-0.0337290540337563,0.0343617647886276,-0.0049204365350306,0,
00:00:01.52,-0.057654220610857,-0.0140207968652248,-0.00541989458724856,0,
00:00:01.524,-0.00632836483418942,-0.0124311782419682,0.016002431511879,0,
00:00:01.528,0.0462929457426071,0.0320447981357574,0.0287855491042137,0,
00:00:01.532,-0.0359009951353073,-0.0639607235789299,-0.00316261034458876,0,
00:00:01.536,-0.0108561301603913,-0.0152482278645039,-0.0109721915796399,0,
00:00:01.54,0.0477266013622284,0.0634589195251465,-0.0232199188321829,0,
00:00:01.544,0.0420557372272015,0.0415343903005123,-0.027392853051424,0,
00:00:01.548,-0.065719835460186,-0.0477620027959347,0.0200017001479864,0,
00:00:01.552,-0.0280005000531673,-0.0645503699779511,0.0373357459902763,0,
00:00:01.556,0.0176548957824707,0.0276275221258402,0.0316427610814571,0,
00:00:01.56,-0.021119138225913,0.0371539667248726,-0.0220543704926968,0,
00:00:01.564,0.0915613099932671,0.0308232847601175,-0.0457394048571587,0,
00:00:01.568,0.0612830482423306,0.033128660172224,-0.0456854626536369,0,
00:00:01.572,-0.132530212402344,-0.133690536022186,0.0564201101660728,0,
00:00:01.576,-0.112723171710968,-0.0437148250639439,0.0547371804714203,0,
00:00:01.58,0.0573872551321983,0.12042460590601,-0.0152861839160323,0,
00:00:01.584,0.0930017232894897,0.0625397861003876,-0.0508283562958241,0,
00:00:01.588,0.0244406834244728,-0.0853805541992188,0.00717938411980867,0,
00:00:01.592,0.00494544254615903,-0.011579473502934,0.0144247263669968,0,
00:00:01.596,-0.00911262352019548,0.0462141521275043,-0.0193568170070648,0,
00:00:01.6,-0.0665650218725204,-0.0566103644669056,0.0166694074869156,0,
00:00:01.604,-0.0234309397637844,-0.00169512757565826,0.0199401210993528,0,
00:00:01.608,0.0502151511609554,0.0471421517431736,-0.00897702015936375,0,
00:00:01.612,0.0204039756208658,0.0243987217545509,-0.010461263358593,0,
00:00:01.616,-0.00836362410336733,-0.0286435857415199,-0.0143217230215669,0,
00:00:01.62,-0.0310180317610502,-0.0685772597789764,-0.00103682943154126,0,
00:00:01.624,-0.00764395715668797,0.00819606147706509,0.0234778393059969,0,
00:00:01.628,0.032239880412817,0.065574161708355,0.00280912267044187,0,
00:00:01.632,0.0154345240443945,0.0299007892608643,-0.0115029579028487,0,
00:00:01.636,-0.0338109768927097,-0.0420059189200401,0.0126037076115608,0,
00:00:01.64,-0.0278616081923246,-0.0306893549859524,-0.0182394329458475,0,
00:00:01.644,0.052472036331892,0.0251111406832933,0.00270712561905384,0,
00:00:01.648,0.0659619048237801,0.0151102263480425,0.00899915304034948,0,
00:00:01.652,-0.0494505167007446,-0.0150968227535486,-0.0294681936502457,0,
00:00:01.656,-0.0638889372348785,-0.00392819801345468,0.0251445919275284,0,
00:00:01.66,-0.0116970790550113,-0.00701345456764102,0.00867597945034504,0,
00:00:01.664,-0.00971454288810492,0.00812740996479988,0.0157195124775171,0,
00:00:01.668,0.0598799288272858,0.0118735674768686,-0.0494835376739502,0,
00:00:01.672,0.0256426371634007,-0.0246784519404173,0.0163923893123865,0,
00:00:01.676,0.0109075615182519,0.0137426033616066,0.0403874032199383,0,
00:00:01.68,-0.0348754152655602,-0.0157388281077147,-0.0193864721804857,0,
00:00:01.684,-0.0316062867641449,0.00875956285744905,-0.0304048303514719,0,
00:00:01.688,-0.0140332663431764,0.0505541376769543,-0.00751211354508996,0,
00:00:01.692,0.0547123812139034,-0.0180370416492224,0.00351817184127867,0,
00:00:01.696,0.0472047179937363,-0.0713118240237236,0.0413207784295082,0,
00:00:01.7,-0.0669388920068741,0.0127304531633854,0.00986255146563053,0,
00:00:01.704,-0.0195661392062902,0.063995897769928,-0.0272503029555082,0,
00:00:01.708,0.0112249907106161,0.0106286313384771,-0.0255100950598717,0,
00:00:01.712,-0.0140922293066978,-0.0767438933253288,0.00643751211464405,0,
00:00:01.716,0.0207686088979244,0.0335299745202065,0.0271713640540838,0,
00:00:01.72,0.0175831504166126,0.00856701843440533,0.000444247212726623,0,
00:00:01.724,0.00186770898289979,0.000211309816222638,-0.0179041028022766,0,
00:00:01.728,0.0289870984852314,0.0313740186393261,-0.004625937435776,0,
00:00:01.732,-0.0222984943538904,-0.0666847974061966,0.02442098967731,0,
00:00:01.736,-0.0874634683132172,-0.0230540633201599,0.0133397318422794,0,
00:00:01.74,0.042103324085474,0.0544485859572887,-0.0230666436254978,0,
00:00:01.744,0.064158096909523,0.022956570610404,-0.0251162797212601,0,
00:00:01.748,0.0174381025135517,0.018439594656229,-0.0287276227027178,0,
00:00:01.752,-0.0898792669177055,-0.0439779609441757,0.0610185377299786,0,
00:00:01.756,-0.0138105480000377,-0.0364498496055603,0.0367388464510441,0,
00:00:01.76,0.111308090388775,0.0426485911011696,-0.0459188148379326,0,
00:00:01.764,-0.0786548927426338,-0.011042638681829,-0.0188644211739302,0,
00:00:01.768,-0.0329677164554596,-0.0201090313494205,0.0251262187957764,0,
00:00:01.772,0.0313193537294865,0.00693774549290538,0.0122336456552148,0,
00:00:01.776,0.0154615323990583,0.032840009778738,-0.0257798712700605,0,
00:00:01.78,0.0187474749982357,0.0132263274863362,-0.0179070141166449,0,
00:00:01.784,0.00140809523873031,-0.000405819853767753,0.00668491655960679,0,
00:00:01.788,0.019920451566577,-0.0128642478957772,0.0207405351102352,0,
00:00:01.792,-0.0114290658384562,-0.00712453713640571,0.00917727220803499,0,
00:00:01.796,-0.057315818965435,-0.0510817021131516,0.0068696322850883,0,
00:00:01.8,-0.0124536696821451,-0.0101913772523403,-0.0289984997361898,0,
00:00:01.804,0.0394268073141575,0.065173476934433,-0.0115571757778525,0,
00:00:01.808,0.0105387438088655,0.00945215206593275,0.0235230661928654,0,
00:00:01.812,-0.0158610455691814,0.0184737369418144,0.0147394919767976,0,
00:00:01.816,0.0221048276871443,-0.0123379621654749,-0.0183564033359289,0,
00:00:01.82,-0.0200154073536396,-0.0936965197324753,-0.00953264534473419,0,
00:00:01.824,-0.0353122688829899,0.00176560634281486,0.0413991957902908,0,
00:00:01.828,0.0752492398023605,0.103901602327824,-0.0260368157178164,0,
00:00:01.832,0.0303922053426504,0.0465581081807613,-0.0246073342859745,0,
00:00:01.836,-0.0390584245324135,-0.0552904531359673,-0.00616768933832645,0,
00:00:01.84,-0.103591755032539,-0.0660479739308357,-0.00351505121216178,0,
00:00:01.844,0.0230677761137486,-0.0439245626330376,0.0547590926289558,0,
00:00:01.848,0.0996938049793243,0.0715376362204552,0.00911613274365664,0,
00:00:01.852,-0.0158979315310717,0.0501891560852528,-0.021845830604434,0,
00:00:01.856,-0.0225788429379463,-0.00687792990356684,-0.0182302817702293,0,
00:00:01.86,-0.0291857216507196,-0.0468442440032959,-0.007564268540591,0,
00:00:01.864,-0.0105529483407736,-0.0223012659698725,0.0122428722679615,0,
00:00:01.868,0.0539281442761421,0.0016196082578972,-0.0118172485381365,0,
00:00:01.872,0.0207809917628765,0.0563875697553158,0.00784868933260441,0,
00:00:01.876,-0.0404124595224857,0.0576487518846989,0.00897761806845665,0,
00:00:01.88,-0.019347820430994,-0.0978062003850937,-0.0110758943483233,0,
00:00:01.884,-0.00378523953258991,-0.0425830818712711,-0.00246450398117304,0,
00:00:01.888,0.00805454887449741,0.0122731681913137,0.0400240942835808,0,
00:00:01.892,0.0281839929521084,0.0692692175507545,0.00402354495599866,0,
00:00:01.896,0.0238011889159679,0.0531794987618923,-0.043110266327858,0,
00:00:01.9,-0.0108844535425305,-0.0241938512772322,-0.0246365610510111,0,
00:00:01.904,-0.0555195994675159,-0.115678735077381,0.00190288561861962,0,
00:00:01.908,-0.0434792637825012,-0.0187544766813517,0.0336941294372082,0,
00:00:01.912,0.0409817285835743,0.0635989457368851,0.0373838767409325,0,
00:00:01.916,0.107488319277763,0.0733401253819466,-0.0284903049468994,0,
00:00:01.92,0.00382201466709375,0.0336523167788982,-0.0305229090154171,0,
00:00:01.924,-0.127440974116325,-0.111473254859447,0.0292942970991135,0,
00:00:01.928,-0.0212439503520727,-0.0441130250692368,-0.0106291761621833,0,
00:00:01.932,0.109462812542915,0.056894313544035,-0.0273565575480461,0,
00:00:01.936,0.0510395616292953,0.0438628755509853,0.0112377386540174,0,
00:00:01.94,-0.101050026714802,-0.014017766341567,0.0259418003261089,0,
00:00:01.944,-0.0672442093491554,-0.0114317741245031,0.0248910207301378,0,
00:00:01.948,0.0219965539872646,0.00431975862011313,-0.0238372273743153,0,
00:00:01.952,0.0333018265664577,-0.0262803249061108,-0.0322625003755093,0,
00:00:01.956,0.0319855138659477,-0.0419022291898727,0.0457709245383739,0,
00:00:01.96,0.0364772267639637,0.0401080064475536,-0.00575280468910933,0,
00:00:01.964,-0.00047034677118063,0.0468660481274128,-0.0330818444490433,0,
00:00:01.968,-0.0329746976494789,-0.0175744500011206,-0.0150321163237095,0,
00:00:01.972,-0.0340464413166046,-0.0127645079046488,-0.011527119204402,0,
00:00:01.976,-0.00172491965349764,-0.00598134100437164,0.0308413207530975,0,
00:00:01.98,0.0251310281455517,0.0349264107644558,0.060393963009119,0,
00:00:01.984,-0.00500600459054112,-0.00191766675561666,-0.0107087679207325,0,
00:00:01.988,-0.00566369062289596,-0.0484207309782505,-0.0348668470978737,0,
00:00:01.992,0.0237365141510963,0.00719067547470331,-0.0292621739208698,0,
00:00:01.996,-0.00837072636932135,-0.00182707491330802,-0.00790335610508919,0,
00:00:02,-0.110303595662117,-0.0753778591752052,0.0595773197710514,0,
00:00:02.004,0.0993991419672966,0.112133182585239,-0.0124845691025257,0,
00:00:02.008,0.104404099285603,0.061006810516119,-0.0421467497944832,0,
00:00:02.012,-0.0295054148882627,-0.0199020709842443,0.0154538089409471,0,
00:00:02.016,-0.0857019275426865,-0.0596170388162136,0.0127875404432416,0,
00:00:02.02,-0.0588350929319859,-0.0732533037662506,0.0286714024841785,0,
00:00:02.024,0.0150233134627342,0.0254030507057905,-0.0053018000908196,0,
00:00:02.028,0.0884186699986458,0.066122479736805,-0.0245595462620258,0,
00:00:02.032,0.0232111252844334,0.00182803475763649,-0.0260204318910837,0,
00:00:02.036,-0.0542848110198975,-0.0200157519429922,0.00684306630864739,0,
00:00:02.04,-0.0286207906901836,-0.00635413127020001,0.0164379980415106,0,
00:00:02.044,0.0416452512145042,-0.00626135105267167,0.00186686031520367,0,
00:00:02.048,-0.000921877566725016,-0.0045699356123805,0.0217692963778973,0,
00:00:02.052,-0.0108045926317573,0.0226685758680105,0.0199019312858582,0,
00:00:02.056,-0.0338991731405258,0.0300308279693127,-0.0311679244041443,0,
00:00:02.06,0.000301712920190766,-0.0597907267510891,-0.031817477196455,0,
00:00:02.064,0.031886912882328,0.000388255575671792,-0.0033677713945508,0,
00:00:02.068,0.0230537485331297,0.0483981221914291,0.00601269723847508,0,
00:00:02.072,0.0181036237627268,0.0144737670198083,0.0101827178150415,0,
00:00:02.076,-0.0510433465242386,-0.126041993498802,0.0362481586635113,0,
00:00:02.08,0.0108650494366884,0.0581157989799976,-0.00785652827471495,0,
00:00:02.084,0.00907663162797689,0.0572258941829205,-0.00925404950976372,0,
00:00:02.088,-0.0250588059425354,0.0134471729397774,-0.00237412098795176,0,
00:00:02.092,-0.00508193112909794,-0.0489957705140114,-0.00289116776548326,0,
00:00:02.096,0.018580773845315,-0.00497520435601473,-0.018134718760848,0,
00:00:02.1,0.0203910227864981,0.0207611918449402,-0.00132448261138052,0,
00:00:02.104,0.00479474011808634,0.0032802764326334,0.00590408220887184,0,
00:00:02.108,-0.00214793859049678,-0.0185804683715105,0.00695202779024839,0,
00:00:02.112,-0.0412382893264294,-0.0272021815180779,0.0109454486519098,0,
00:00:02.116,-0.00679747294634581,0.0136214625090361,0.00610733777284622,0,
00:00:02.12,-0.0046330033801496,0.0215170737355947,0.0198467392474413,0,
00:00:02.124,0.0457736998796463,-0.0123044149950147,-0.0418253764510155,0,
00:00:02.128,0.0318307764828205,0.00337611674331129,-0.0586933940649033,0,
00:00:02.132,-0.0508942194283009,0.0446198582649231,0.0815471261739731,0,
00:00:02.136,0.0188529156148434,-0.0186141617596149,0.00523897260427475,0,
00:00:02.14,-0.00860242825001478,-0.0288647525012493,-0.0283453837037086,0,
00:00:02.144,-0.0278566405177116,-0.0152846835553646,0.03911117836833,0,
00:00:02.148,-0.0176887344568968,-0.000662200734950602,-0.0133949900045991,0,
00:00:02.152,0.0390714816749096,0.0585553534328938,-0.0289309825748205,0,
00:00:02.156,0.0234485734254122,-0.00323796970769763,-0.00855980534106493,0,
00:00:02.16,-0.0361773334443569,-0.106757156550884,0.0014378244522959,0,
00:00:02.164,0.00486617954447865,0.0386882908642292,0.028974361717701,0,
00:00:02.168,0.0337548404932022,0.0746568292379379,-0.002231165766716,0,
00:00:02.172,-0.0065017924644053,0.0193242393434048,-0.00378820509649813,0,
00:00:02.176,-0.00671845348551869,-0.0224523823708296,-0.0206088628619909,0,
00:00:02.18,0.0239832196384668,-0.0386413671076298,-0.0013593299081549,0,
00:00:02.184,-0.0497442856431007,-0.042890015989542,0.0283508654683828,0,
00:00:02.188,-0.0259217265993357,0.0254745557904243,0.0117385210469365,0,
00:00:02.192,0.00627600029110909,0.000109162749140523,-0.00368731678463519,0,
00:00:02.196,0.0164421685039997,-0.0025133085437119,-0.0192657522857189,0,
00:00:02.2,0.0249954126775265,0.0389128178358078,-0.0064633977599442,0,
00:00:02.204,0.0313172973692417,0.0270984284579754,-0.0195510853081942,0,
00:00:02.208,-0.00305989780463278,-0.00153543706983328,-0.0157477613538504,0,
00:00:02.212,0.0260969661176205,-0.0264283400028944,0.046898141503334,0,
00:00:02.216,-0.104439355432987,-0.0580624863505363,0.0608047619462013,0,
00:00:02.22,-0.0401803553104401,-0.0210590213537216,-0.0213900599628687,0,
00:00:02.224,0.0582196228206158,0.0640828683972359,-0.0568383559584618,0,
00:00:02.228,0.0541361123323441,0.0326170399785042,-0.0294036585837603,0,
00:00:02.232,0.0046600210480392,-0.0164546631276608,0.0259378515183926,0,
00:00:02.236,-0.0268625356256962,0.00272620096802711,-0.000794701743870974,0,
00:00:02.24,0.000144937352160923,0.0114571023732424,-0.000572734221350402,0,
00:00:02.244,0.0130769507959485,-0.00910112913697958,0.0369118750095367,0,
00:00:02.248,-0.0490824244916439,-0.101869352161884,0.0124300140887499,0,
00:00:02.252,-0.0379432551562786,0.0076709259301424,-0.0262594297528267,0,
00:00:02.256,0.0644049793481827,0.08676428347826,0.0124712595716119,0,
00:00:02.26,0.0309100169688463,0.0581059679389,-0.00217995140701532,0,
00:00:02.264,0.00242605153471231,-0.0379672162234783,-0.0330117754638195,0,
00:00:02.268,0.0262628979980946,-0.0224269852042198,-0.0441629402339458,0,
00:00:02.272,-0.0408319160342216,-0.0270795729011297,0.045869205147028,0,
00:00:02.276,-0.0573786832392216,-0.0141584277153015,0.0355863496661186,0,
00:00:02.28,-0.0158735495060682,0.022854957729578,0.00387297500856221,0,
00:00:02.284,0.0149235185235739,0.0214453507214785,-0.015903739258647,0,
00:00:02.288,0.0555745959281921,-0.0471932478249073,0.00907890591770411,0,
00:00:02.292,0.0295938681811094,0.0226561259478331,0.000565641326829791,0,
00:00:02.296,-0.0175906661897898,0.0329307988286018,-0.0160617828369141,0,
00:00:02.3,-0.00750395003706217,0.0212659854441881,-0.0309720914810896,0,
00:00:02.304,0.00172781234141439,-0.0408917739987373,-0.00762851303443313,0,
00:00:02.308,-0.0501193962991238,-0.0316461622714996,0.0204727631062269,0,
00:00:02.312,-0.00146106246393174,0.0518539808690548,0.0297160558402538,0,
00:00:02.316,0.010700972750783,-0.0259762965142727,0.0191975720226765,0,
00:00:02.32,-0.00237748050130904,-0.0601496510207653,-0.0108378389850259,0,
00:00:02.324,0.0327721461653709,0.0503277666866779,-0.0183208081871271,0,
00:00:02.328,0.0385587774217129,0.0684014037251472,-0.0189140345901251,0,
00:00:02.332,-0.0386152900755405,-0.0398141741752625,0.0172041561454535,0,
00:00:02.336,-0.0286751929670572,-0.0522963181138039,0.00942577142268419,0,
00:00:02.34,0.0361616648733616,0.0400836020708084,-0.0330683924257755,0,
00:00:02.344,-0.0184210017323494,0.0386288799345493,0.00143097550608218,0,
00:00:02.348,-0.0199740380048752,-0.0428288616240025,0.0108239008113742,0,
00:00:02.352,0.0126284407451749,-0.0417474769055843,0.00902708806097507,0,
00:00:02.356,0.0102683333680034,0.0183128099888563,0.0434696786105633,0,
00:00:02.36,0.0240117441862822,0.0488189421594143,-0.0168639235198498,0,
00:00:02.364,-0.015337179414928,0.0081103453412652,-0.0321641005575657,0,
00:00:02.368,0.0013068625703454,-0.00780766922980547,-0.0352138057351112,0,
00:00:02.372,-0.0388223826885223,-0.0574176572263241,0.030461871996522,0,
00:00:02.376,-0.0285921059548855,-0.00990654807537794,0.0212772041559219,0,
00:00:02.38,0.0657954588532448,0.0616752542555332,0.013981300406158,0,
00:00:02.384,0.0593256913125515,0.00104582961648703,-0.0173655189573765,0,
00:00:02.388,-0.0874946564435959,-0.076352559030056,-0.0237757489085197,0,
00:00:02.392,0.00754766911268234,0.0469187945127487,0.022555872797966,0,
00:00:02.396,0.0524509958922863,0.0529888421297073,-0.0126181300729513,0,
00:00:02.4,-0.0553845092654228,-0.00246304064057767,-0.00482675805687904,0,
00:00:02.404,0.0108005460351706,-0.00813113339245319,0.00507129309698939,0,
00:00:02.408,0.0147199053317308,-0.0183526873588562,0.0085105411708355,0,
00:00:02.412,-0.0981037989258766,-0.112477965652943,0.041265893727541,0,
00:00:02.416,0.045074325054884,0.0402308888733387,-0.0365585088729858,0,
00:00:02.42,0.0796849876642227,0.0583229996263981,-0.0161996502429247,0,
00:00:02.424,0.0409502349793911,0.0531914010643959,-0.0135625656694174,0,
00:00:02.428,-0.0520581230521202,-0.0102938739582896,0.00330428779125214,0,
00:00:02.432,-0.0529915541410446,-0.0517313256859779,0.0280381832271814,0,
00:00:02.436,0.00472883880138397,0.00505382753908634,0.0055047320201993,0,
00:00:02.44,0.011342185549438,-0.0173689257353544,-0.00485642487183213,0,
00:00:02.444,0.00897702295333147,0.0218571331351995,-0.00896222796291113,0,
00:00:02.448,0.0123281739652157,0.0211032591760159,-0.00672287354245782,0,
00:00:02.452,-0.0286960620433092,-0.0403449013829231,-0.00178932619746774,0,
00:00:02.456,-0.0157586708664894,-0.0294686295092106,0.0314048603177071,0,
00:00:02.46,0.0373390950262547,0.0358802638947964,-0.00495572062209249,0,
00:00:02.464,0.0523720607161522,0.0456825569272041,-0.0290672443807125,0,
00:00:02.468,-0.0426957421004772,0.00974737759679556,-0.00899954419583082,0,
00:00:02.472,0.00513413595035672,-0.0259890593588352,-0.012351774610579,0,
00:00:02.476,-0.00555983278900385,-0.000729498919099569,0.0335322953760624,0,
00:00:02.48,-0.0486932843923569,-0.0371237732470036,0.0155704049393535,0,
00:00:02.484,-0.0466512218117714,-0.0734854191541672,0.0114742973819375,0,
00:00:02.488,0.055521123111248,0.041093572974205,-0.0229771137237549,0,
00:00:02.492,0.0398122780025005,0.080552875995636,-0.00231021270155907,0,
00:00:02.496,0.0343104228377342,0.045012217015028,0.00507450196892023,0,
00:00:02.5,-0.0115812104195356,-0.0164042431861162,-0.0172943379729986,0,
00:00:02.504,-0.0485452227294445,-0.098328486084938,3.76387433789205E-05,0,
00:00:02.508,0.0244490746408701,0.013244672678411,0.00714334798976779,0,
00:00:02.512,0.00759218074381351,0.0337842591106892,-0.0100158210843801,0,
00:00:02.516,-0.0327243991196156,0.0136250108480453,0.00392216630280018,0,
00:00:02.52,-0.0305839031934738,-0.00685127405449748,0.015459188260138,0,
00:00:02.524,0.0418599732220173,-0.0185899380594492,0.00736219435930252,0,
00:00:02.528,-0.00907666701823473,-0.0669918805360794,-0.0214587599039078,0,
00:00:02.532,0.00300885946489871,0.0372383631765842,0.0308676715940237,0,
00:00:02.536,0.0389030389487743,0.0884585827589035,-0.0222219359129667,0,
00:00:02.54,0.0117143029347062,0.0128251248970628,-0.0142658157274127,0,
00:00:02.544,-0.0586365349590778,-0.0467980168759823,-0.000755992834456265,0,
00:00:02.548,-0.0327632948756218,-0.0593235529959202,0.0240317955613136,0,
00:00:02.552,0.0137900216504931,-0.0120301898568869,0.0153979016467929,0,
00:00:02.556,0.0785323083400726,0.0587679110467434,-0.0446458980441093,0,
00:00:02.56,0.00130922615062445,0.0275541245937347,-0.0137263284996152,0,
00:00:02.564,-0.0521256327629089,-0.0243363883346319,0.0256306119263172,0,
00:00:02.568,0.027249600738287,-0.0177445579320192,0.0221402086317539,0,
00:00:02.572,-0.0152538828551769,0.00776493921875954,0.00989101175218821,0,
00:00:02.576,-0.0891790091991425,-0.0342803969979286,0.00134508986957371,0,
00:00:02.58,0.0313649363815784,0.021043112501502,-0.0201955419033766,0,
00:00:02.584,0.0759714469313622,0.050304789096117,-0.0390221290290356,0,
00:00:02.588,0.0383865684270859,0.0156845320016146,0.00683183874934912,0,
00:00:02.592,-0.0208563711494207,-0.0665286332368851,0.0200670659542084,0,
00:00:02.596,-0.0622605383396149,-0.0372406356036663,0.015179842710495,0,
00:00:02.6,-0.0171954985707998,0.0228350665420294,0.000467482052044943,0,
00:00:02.604,0.0518464297056198,0.0529413782060146,0.00233168643899262,0,
00:00:02.608,0.0337818004190922,0.00864548608660698,0.00692274468019605,0,
00:00:02.612,-0.0481537207961082,0.00109548028558493,-0.0187322068959475,0,
00:00:02.616,-0.030842887237668,-0.058293841779232,-0.018221627920866,0,
00:00:02.62,-0.00677901832386851,-0.0323747023940086,-0.0122452452778816,0,
00:00:02.624,0.044385451823473,0.0386915132403374,0.013666613958776,0,
00:00:02.628,0.000505665491800755,0.0183990001678467,0.0429086424410343,0,
00:00:02.632,-0.00307581387460232,0.0504850745201111,0.0140255447477102,0,
00:00:02.636,0.0242382530122995,0.0210320763289928,-0.0276140049099922,0,
00:00:02.64,-0.0331657454371452,-0.10079712420702,-0.0298648271709681,0,
00:00:02.644,-0.00503510888665915,-0.0254615247249603,-0.0174466576427221,0,
00:00:02.648,0.00163957418408245,0.0146015239879489,0.0248746909201145,0,
00:00:02.652,0.00217218836769462,0.0408342927694321,0.0280667338520288,0,
00:00:02.656,0.0475245341658592,0.0480270273983479,-0.00841933395713568,0,
00:00:02.66,-0.0188736878335476,-0.0118708051741123,-0.0118904318660498,0,
00:00:02.664,-0.0458274371922016,-0.0412283465266228,0.00360798882320523,0,
00:00:02.668,-0.0222123395651579,-0.0469935238361359,-0.0121299577876925,0,
00:00:02.672,0.0365610979497433,0.0159545559436083,0.0246622059494257,0,
00:00:02.676,0.0243081878870726,0.0574009828269482,-0.00993525888770819,0,
00:00:02.68,-0.0309659596532583,0.0153387812897563,-0.00308760465122759,0,
00:00:02.684,0.101847894489765,-0.0182647686451674,-0.0127991959452629,0,
00:00:02.688,-0.027352737262845,-0.041534312069416,-0.0128703648224473,0,
00:00:02.692,-0.107054531574249,0.00489869108423591,0.0251631215214729,0,
00:00:02.696,-0.0228711981326342,0.0162505675107241,0.0095943845808506,0,
00:00:02.7,0.0366293452680111,0.000399592448957264,0.0126660680398345,0,
00:00:02.704,0.0349175110459328,0.000948458211496472,-0.0160094369202852,0,
00:00:02.708,0.0210209246724844,0.0112011060118675,-0.0145642617717385,0,
00:00:02.712,0.00626898836344481,-0.0117664961144328,0.00414807442575693,0,
00:00:02.716,-0.0158318765461445,-0.0212093982845545,-0.0017067362787202,0,
00:00:02.72,-0.000989717664197087,0.0263052601367235,0.00241011730395257,0,
00:00:02.724,-0.016398511826992,-0.0111449146643281,0.00701642734929919,0,
00:00:02.728,-0.00761674344539642,-0.0157469864934683,-0.000251264980761334,0,
00:00:02.732,0.0200623665004969,0.0531612560153008,0.00112775072921067,0,
00:00:02.736,0.00921105500310659,0.0115458099171519,-0.0107365977019072,0,
00:00:02.74,-0.0094282990321517,-0.0373718328773975,-0.0085841566324234,0,
00:00:02.744,-0.0133497538045049,-0.0105567332357168,-0.00104530702810735,0,
00:00:02.748,-0.034476313740015,-0.0483215190470219,0.0424837693572044,0,
00:00:02.752,0.0180285815149546,0.00801955815404654,-0.018067229539156,0,
00:00:02.756,0.0580113045871258,0.0584948733448982,-0.0236080307513475,0,
00:00:02.76,-0.0143205393105745,0.0229645650833845,0.0265991650521755,0,
00:00:02.764,-0.0428042896091938,-0.00654108775779605,-0.00271970359608531,0,
00:00:02.768,0.114561550319195,-0.00890604872256517,-0.0249865967780352,0,
00:00:02.772,-0.0436924360692501,-0.0146120954304934,-0.0264038946479559,0,
00:00:02.776,-0.112070575356483,-0.034124992787838,0.0506529286503792,0,
00:00:02.78,-0.0392882004380226,-0.0304142087697983,0.0314819291234016,0,
00:00:02.784,0.0475990548729897,0.0442605540156364,-0.0171127133071423,0,
00:00:02.788,0.0692450478672981,0.0388717316091061,-0.0250174384564161,0,
00:00:02.792,0.0423423759639263,-0.000439690193161368,-0.0183711778372526,0,
00:00:02.796,0.00369206280447543,-0.00894850492477417,0.00544055551290512,0,
00:00:02.8,-0.0432683639228344,-0.0116157401353121,0.0193558316677809,0,
00:00:02.804,-0.0215998366475105,-0.0127750840038061,-0.0063613411039114,0,
00:00:02.808,-0.000453279149951413,0.0111150965094566,-0.00671553611755371,0,
00:00:02.812,-0.00794197712093592,-0.00105301919393241,0.00823695864528418,0,
00:00:02.816,0.0065760463476181,-0.00203387415967882,0.00718450685963035,0,
00:00:02.82,-0.0254586804658175,0.00400082720443606,0.00343227642588317,0,
00:00:02.824,0.00431254273280501,-0.058847077190876,-0.00509977154433727,0,
00:00:02.828,0.0494597144424915,0.034623172134161,-0.00600372720509768,0,
00:00:02.832,0.0227657090872526,0.0623086355626583,-0.00116582913324237,0,
00:00:02.836,-0.0211280733346939,0.0131415324285626,-0.00615162961184978,0,
00:00:02.84,-0.02009167522192,-0.019788047298789,-0.010328215546906,0,
00:00:02.844,-0.0262306518852711,-0.0786658972501755,0.0274161417037249,0,
00:00:02.848,-0.00719451252371073,-0.00637219799682498,0.0290060881525278,0,
00:00:02.852,0.00195364537648857,0.0357398688793182,-0.0253350324928761,0,
00:00:02.856,0.0222079418599606,0.0343030653893948,-0.0264615826308727,0,
00:00:02.86,0.0667023807764053,0.0118897492066026,-0.0299723241478205,0,
00:00:02.864,0.00272066541947424,0.0294192265719175,0.00936587806791067,0,
00:00:02.868,-0.0607195533812046,-0.0785795897245407,0.0341855734586716,0,
00:00:02.872,-0.0801222622394562,-0.0795858651399612,0.070172592997551,0,
00:00:02.876,0.0116322245448828,0.0737331435084343,-0.0241899751126766,0,
00:00:02.88,0.123527765274048,0.0516640916466713,-0.0557169951498508,0,
00:00:02.884,0.00877615064382553,0.0115141617134213,-0.0523858778178692,0,
00:00:02.888,-0.0798662528395653,-0.0158516261726618,0.0294176135212183,0,
00:00:02.892,-0.0244424678385258,-0.00220438931137323,0.0540592037141323,0,
00:00:02.896,0.0274316631257534,0.0102795762941241,0.00421968707814813,0,
00:00:02.9,-0.018483592197299,-0.109197735786438,-0.0194905567914248,0,
00:00:02.904,0.0275539327412844,0.0192979462444782,-0.00927176605910063,0,
00:00:02.908,0.0508172139525414,0.0849954709410667,0.00270938943140209,0,
00:00:02.912,-0.0456846579909325,-0.00220297020860016,0.0192753430455923,0,
00:00:02.916,-0.0220283772796392,-0.0464702993631363,-0.0117102693766356,0,
00:00:02.92,0.0315602608025074,0.0392555221915245,-0.0208592023700476,0,
00:00:02.924,0.0129635585471988,0.0119301583617926,-0.00643505482003093,0,
00:00:02.928,-0.00542880641296506,-0.0175077598541975,0.00315697398036718,0,
00:00:02.932,-0.0551446564495564,-0.0272286105901003,0.00976700335741043,0,
00:00:02.936,-0.00148613017518073,0.00969695020467043,0.0285101626068354,0,
00:00:02.94,0.0302922930568457,-0.0013033514842391,0.00636482331901789,0,
00:00:02.944,0.0389614403247833,0.00198679440654814,-0.0343213379383087,0,
00:00:02.948,-0.0176277533173561,-0.00519058108329773,0.0012684689136222,0,
00:00:02.952,-0.0341509133577347,-0.0124367466196418,0.0192937906831503,0,
00:00:02.956,0.0118416463956237,0.0397810228168964,-0.00711369607597589,0,
00:00:02.96,0.0246405266225338,0.0191147141158581,-0.0155338114127517,0,
00:00:02.964,0.0063397279009223,-0.00579710584133863,-0.020394517108798,0,
00:00:02.968,-0.045619048178196,-0.0246949270367622,0.0181670859456062,0,
00:00:02.972,-0.0209768787026405,-0.0758573785424232,0.0324214585125446,0,
00:00:02.976,0.0531462579965591,0.032500121742487,-0.0120966052636504,0,
00:00:02.98,0.0113330194726586,0.0361952558159828,-0.0136215109378099,0,
00:00:02.984,-0.0207263454794884,0.0308342166244984,0.00282225525006652,0,
00:00:02.988,-0.000300704472465441,0.0153088597580791,0.0129832895472646,0,
00:00:02.992,-0.00208900193683803,-0.0179966893047094,-0.0084260106086731,0,
00:00:02.996,-0.00898005161434412,-0.0436244793236256,-0.00395782012492418,0,
00:00:03,0.0273865982890129,-0.00678053172305226,0.00474405661225319,0,
00:00:03.004,0.00254224217496812,0.00261758780106902,-0.00167423847597092,0,
00:00:03.008,-0.0333019830286503,0.00684421649202704,-0.0162300318479538,0,
00:00:03.012,-0.0108471913263202,0.0137893259525299,0.0072836596518755,0,
00:00:03.016,0.0146650709211826,0.0289602801203728,0.00136176287196577,0,
00:00:03.02,-0.0158133301883936,-0.0420198105275631,0.0246388651430607,0,
00:00:03.024,0.0485882088541985,0.0178566500544548,-0.000247795105678961,0,
00:00:03.028,0.0522969774901867,0.0227207355201244,-0.0457807146012783,0,
00:00:03.032,-0.0568659082055092,-0.0022807726636529,0.0212643910199404,0,
00:00:03.036,-0.0502329915761948,-0.0353168174624443,0.00819411873817444,0,
00:00:03.04,-0.0134597839787602,-0.0215791612863541,-0.00419741915538907,0,
00:00:03.044,0.0114910025149584,-0.00053932674927637,0.00935566611588001,0,
00:00:03.048,-0.00632159039378166,0.00715491874143481,0.0118241235613823,0,
00:00:03.052,0.0740622878074646,0.055310070514679,-0.0119043523445725,0,
00:00:03.056,0.0412653312087059,0.0132800750434399,-0.0154557731002569,0,
00:00:03.06,-0.0500354543328285,-0.0212542060762644,-0.00379033503122628,0,
00:00:03.064,-0.0636664852499962,-0.0422676540911198,-0.00054823188111186,0,
00:00:03.068,0.0361700430512428,-0.000736188550945371,-0.00466765323653817,0,
00:00:03.072,0.00146237923763692,0.00399080943316221,0.00712428521364927,0,
00:00:03.076,-0.00305945030413568,0.029076237231493,0.0440181270241737,0,
00:00:03.08,0.0214968491345644,0.0198351796716452,0.00288861570879817,0,
00:00:03.084,-0.0411325432360172,-0.0615969114005566,-0.0399050451815128,0,
00:00:03.088,-0.0122667923569679,0.0048225442878902,-0.0161940567195416,0,
00:00:03.092,0.0512467250227928,0.0457593090832233,-0.00680282944813371,0,
00:00:03.096,-0.0133129116147757,-0.0178512521088123,0.0320303589105606,0,
00:00:03.1,0.00493688462302089,-0.00309600448235869,0.00222329190000892,0,
00:00:03.104,0.0286020711064339,0.0326443053781986,-0.0119620831683278,0,
00:00:03.108,-0.0154120419174433,0.00483451457694173,-0.0088676018640399,0,
00:00:03.112,-0.0308900307863951,-0.0668988302350044,0.00969217624515295,0,
00:00:03.116,-0.0173115525394678,-0.0431856252253056,0.022381691262126,0,
00:00:03.12,-0.0151512213051319,0.0155541701242328,-0.00435269810259342,0,
00:00:03.124,0.00984505657106638,0.0729492753744125,-0.00194726651534438,0,
00:00:03.128,0.06765516102314,0.0791943743824959,-0.01710001565516,0,
00:00:03.132,0.000860344502143562,-0.0373098514974117,-0.0232636407017708,0,
00:00:03.136,-0.00935669429600239,-0.0779956057667732,0.0140276830643415,0,
00:00:03.14,-0.0417633764445782,-0.0345386564731598,0.0293966419994831,0,
00:00:03.144,0.00648062489926815,0.0353570692241192,-0.0147831933572888,0,
00:00:03.148,0.0391683466732502,0.0280296541750431,-0.0267935656011105,0,
00:00:03.152,-0.0129676358774304,0.00252688489854336,0.00802806485444307,0,
00:00:03.156,-0.0175558943301439,0.00237054331228137,0.0358242616057396,0,
00:00:03.16,-0.0175725501030684,-0.0115834111347795,0.0229723304510117,0,
00:00:03.164,-0.00858654268085957,-0.0173525847494602,-0.015341873280704,0,
00:00:03.168,-0.00347994640469551,0.00184173975139856,-0.0322326757013798,0,
00:00:03.172,0.0159305930137634,0.00559907406568527,-0.0286632589995861,0,
00:00:03.176,0.0325611941516399,0.0292374603450298,0.00222913268953562,0,
00:00:03.18,0.00255280546844006,0.0117880273610353,0.0383093804121017,0,
00:00:03.184,-0.00445457687601447,-0.0442462041974068,0.0105171427130699,0,
00:00:03.188,-0.00705326162278652,-0.00302269868552685,-0.0165107101202011,0,
00:00:03.192,-0.0396704562008381,-0.0397214777767658,0.0180060807615519,0,
00:00:03.196,0.000560536864213645,0.0312584489583969,0.00197644555009902,0,
00:00:03.2,0.0443711504340172,0.0742244347929955,-0.0226605478674173,0,
00:00:03.204,0.0161549020558596,0.00981767941266298,-0.00680998479947448,0,
00:00:03.208,0.0400630906224251,-0.0453910119831562,-0.0353116691112518,0,
00:00:03.212,-0.0666526034474373,-0.0321913883090019,0.0197811685502529,0,
00:00:03.216,-0.0499133542180061,-0.0176448244601488,0.0367867648601532,0,
00:00:03.22,-0.0104603944346309,0.00294376676902175,0.0225675385445356,0,
00:00:03.224,0.0379848405718803,0.0400750711560249,-0.00762600637972355,0,
00:00:03.228,0.0128261428326368,-0.0387640222907066,-0.0247796624898911,0,
00:00:03.232,0.0232018008828163,0.0465363971889019,0.0113888308405876,0,
00:00:03.236,0.0114103630185127,0.0378535985946655,-0.031305268406868,0,
00:00:03.24,-0.00602287985384464,-0.0832184180617332,-0.0142272096127272,0,
00:00:03.244,0.00179440237116069,0.0358971506357193,0.0261582769453526,0,
00:00:03.248,-0.0437079854309559,-0.0050286753103137,0.016427731141448,0,
00:00:03.252,-0.0139442170038819,-0.0095121068879962,0.00752382213249803,0,
00:00:03.256,0.0354525744915009,0.0184439197182655,-0.0132616683840752,0,
00:00:03.26,-0.00878433138132095,-0.0197868626564741,-0.0316132307052612,0,
00:00:03.264,-0.00748942233622074,-0.0107050156220794,0.0298174507915974,0,
00:00:03.268,0.0283374805003405,0.0135926445946097,0.0456621199846268,0,
00:00:03.272,0.0250103734433651,0.00889090914279222,-0.0487216338515282,0,
00:00:03.276,0.00263938191346824,0.0330740325152874,-0.0629976764321327,0,
00:00:03.28,-0.069393165409565,-0.0196125954389572,0.0506140142679214,0,
00:00:03.284,-0.0564400926232338,-0.0419526286423206,0.0468727834522724,0,
00:00:03.288,0.0462557710707188,-0.0230298954993486,-0.00479414127767086,0,
00:00:03.292,0.0983899459242821,0.0436050221323967,-0.0254183299839497,0,
00:00:03.296,-0.0266155488789082,0.0641295909881592,-0.0153025249019265,0,
00:00:03.3,-0.0426517650485039,-0.0569294169545174,-0.00690854946151376,0,
00:00:03.304,-0.017272999510169,-0.0418924950063229,0.00307863089255989,0,
00:00:03.308,0.040529053658247,0.0510203540325165,0.0124798957258463,0,
00:00:03.312,0.0185400284826756,0.0477229356765747,0.0310335606336594,0,
00:00:03.316,-0.0715523511171341,-0.0858441814780235,-0.0121437953785062,0,
00:00:03.32,0.0068795564584434,-0.0605421364307404,-0.0145512474700809,0,
00:00:03.324,0.0803176388144493,0.0979268029332161,-0.0283932741731405,0,
00:00:03.328,-0.0186673235148191,0.0372956432402134,0.01109738368541,0,
00:00:03.332,-0.0696478188037872,-0.0320899859070778,0.0195726212114096,0,
00:00:03.336,0.00762308109551668,-0.0103896530345082,0.011808218434453,0,
00:00:03.34,0.0273747760802507,-0.0102418772876263,0.000561207649298012,0,
00:00:03.344,0.0315127596259117,0.0034247562289238,-0.0171244442462921,0,
00:00:03.348,-0.0247022975236177,-0.0133133120834827,-0.00869156420230865,0,
00:00:03.352,0.0217918362468481,0.0220492724329233,-0.00191046274267137,0,
00:00:03.356,-0.0050569367595017,0.00521347438916564,-0.015908595174551,0,
00:00:03.36,-0.0677448511123657,-0.0511775277554989,0.049417108297348,0,
00:00:03.364,0.0506842620670795,5.73252291360404E-05,0.00147731218021363,0,
00:00:03.368,0.0100370198488235,0.0519598536193371,-0.0275332592427731,0,
00:00:03.372,-0.0109622580930591,0.0386137291789055,0.0107018174603581,0,
00:00:03.376,-0.000666105770505965,-0.0305766053497791,-0.00329597853124142,0,
00:00:03.38,-0.0215106923133135,-0.0432845391333103,-0.0191386602818966,0,
00:00:03.384,0.00538727780804038,0.0180076770484447,0.00585122033953667,0,
00:00:03.388,0.0121358698233962,0.00249166204594076,0.00380697334185243,0,
00:00:03.392,0.00857263058423996,-0.00393330445513129,0.00116267369594425,0,
00:00:03.396,0.0250898078083992,0.0133709376677871,0.0232262089848518,0,
00:00:03.4,-0.0158065408468246,-0.0218344796448946,-0.00217543030157685,0,
00:00:03.404,-0.0381903238594532,-0.0187874455004931,-0.0115371635183692,0,
00:00:03.408,0.00674985442310572,0.023089125752449,-0.00575753767043352,0,
00:00:03.412,0.0228260885924101,0.033992312848568,-0.00775999622419477,0,
00:00:03.416,0.00652483757585287,0.0132038136944175,-0.00780472392216325,0,
00:00:03.42,0.00446854718029499,-0.00464123021811247,-0.0129837337881327,0,
00:00:03.424,-0.00665058381855488,-0.0414058156311512,0.0343597382307053,0,
00:00:03.428,-0.00729891052469611,-0.0268208757042885,0.0227857287973166,0,
00:00:03.432,-0.00629226677119732,0.0180265009403229,-0.00705834478139877,0,
00:00:03.436,-0.0280717052519321,0.00471857329830527,-0.0153758870437741,0,
00:00:03.44,-0.0382934622466564,-0.0245383717119694,0.0197173804044724,0,
00:00:03.444,0.0627098381519318,0.0375612117350101,-0.026997858658433,0,
00:00:03.448,0.0699064582586288,0.0445732399821281,-0.0445968955755234,0,
00:00:03.452,0.0221899189054966,0.0106058726087213,0.0048855091445148,0,
00:00:03.456,-0.0748569592833519,-0.0422791764140129,0.0455911941826344,0,
00:00:03.46,-0.0688861235976219,-0.0512990429997444,0.0219147186726332,0,
00:00:03.464,0.029830789193511,0.00220264494419098,-0.0107020242139697,0,
00:00:03.468,0.0434544645249844,0.0416826456785202,-0.0106489015743136,0,
00:00:03.472,-0.00789628364145756,0.0114663885906339,0.0152684934437275,0,
00:00:03.476,-0.0762514248490334,-0.0925472155213356,-0.0143408169969916,0,
00:00:03.48,0.0524092167615891,0.0686500519514084,-0.00422221049666405,0,
00:00:03.484,0.0636033490300179,0.0571608208119869,-0.0124784866347909,0,
00:00:03.488,-0.00410634605214,-0.00024210152332671,0.00219662114977837,0,
00:00:03.492,-0.0143096297979355,-0.0232664290815592,0.00323344930075109,0,
00:00:03.496,-0.0307787396013737,-0.0447403937578201,-0.00247844844125211,0,
00:00:03.5,-0.0212949104607105,-0.0253739319741726,-0.00351870222948492,0,
00:00:03.504,-0.00173980672843754,0.0101778991520405,0.00997670739889145,0,
00:00:03.508,0.0279890969395638,0.0522450096905231,0.00794567260891199,0,
00:00:03.512,-0.0122695676982403,-0.00664464570581913,0.0203834716230631,0,
00:00:03.516,0.0160943139344454,-0.0507871806621552,-0.0123542454093695,0,
00:00:03.52,-0.00118532252963632,-0.00451290374621749,-0.0268083903938532,0,
00:00:03.524,-0.0349772125482559,0.0763677656650543,0.0118031715974212,0,
00:00:03.528,0.038154561072588,0.0241669826209545,0.00515624508261681,0,
00:00:03.532,0.0315888375043869,-0.0111890621483326,-0.00146511080674827,0,
00:00:03.536,-0.020322922617197,-0.0423708222806454,-0.0121870823204517,0,
00:00:03.54,-0.0238341614603996,-0.0386492572724819,-0.00317909615114331,0,
00:00:03.544,-0.00622961856424809,-0.00684072356671095,0.0058054905384779,0,
00:00:03.548,-0.022136889398098,0.00473410030826926,0.0146317584440112,0,
00:00:03.552,0.0103534804657102,0.0349991880357265,0.0142449429258704,0,
00:00:03.556,0.0353342667222023,0.0274216141551733,-0.0218691397458315,0,
00:00:03.56,-0.00678220856934786,-0.0140646686777472,0.00815197173506022,0,
00:00:03.564,0.0441373102366924,-0.00896197929978371,-0.0313658379018307,0,
00:00:03.568,-0.0161189828068018,-0.0150463357567787,0.00138655153568834,0,
00:00:03.572,-0.0474651716649532,0.00220624799840152,0.0387308336794376,0,
00:00:03.576,-0.0466422848403454,0.0146165490150452,0.00342403189279139,0,
00:00:03.58,0.0128945019096136,0.0132085150107741,-0.00928623974323273,0,
00:00:03.584,0.0337106585502625,-0.00861140619963408,-0.0138882668688893,0,
00:00:03.588,0.0420444346964359,-0.0100629646331072,-0.026221077889204,0,
00:00:03.592,0.0236606225371361,0.00780915329232812,0.0118942214176059,0,
00:00:03.596,-0.0188223849982023,0.00737082026898861,0.0298012755811214,0,
00:00:03.6,-0.0536752715706825,-0.074524886906147,0.00176855258177966,0,
00:00:03.604,-0.0249407459050417,-0.00103731406852603,-0.00114150496665388,0,
00:00:03.608,0.023699477314949,0.0859026834368706,-0.00252609583549201,0,
00:00:03.612,0.0466591455042362,0.0314085334539413,-0.0201429612934589,0,
00:00:03.616,0.0124952243641019,-0.0018442056607455,-0.00867334008216858,0,
00:00:03.62,-0.0343618020415306,-0.0648516789078712,0.0341126285493374,0,
00:00:03.624,-0.0517097301781178,-0.0642871558666229,-0.0167602058500052,0,
00:00:03.628,0.0191196147352457,0.0527550466358662,-0.00788350868970156,0,
00:00:03.632,0.0602041818201542,0.0472682826220989,0.00726510863751173,0,
00:00:03.636,0.0168844796717167,0.0201728921383619,0.00556837487965822,0,
00:00:03.64,-0.0275428593158722,-0.0271296594291925,-0.0266937203705311,0,
00:00:03.644,-0.0616097934544086,-0.0398550517857075,0.0206672213971615,0,
00:00:03.648,0.0751148238778114,0.0131761515513062,0.003564671613276,0,
00:00:03.652,-0.0221369732171297,0.0142373144626617,-0.0108666215091944,0,
00:00:03.656,-0.0705105066299438,-0.0413977615535259,0.0344527959823608,0,
00:00:03.66,-0.0305487997829914,-0.051871981471777,0.0117749534547329,0,
00:00:03.664,0.0753654688596725,0.0894126370549202,-0.0109427515417337,0,
00:00:03.668,0.0712046101689339,0.0679821372032166,-0.0323200896382332,0,
00:00:03.672,0.0380975492298603,0.00171332422178239,-0.0351463407278061,0,
00:00:03.676,-0.0627654567360878,-0.0428326241672039,0.00855720788240433,0,
00:00:03.68,-0.0636882707476616,-0.0515514612197876,0.0231247302144766,0,
00:00:03.684,-0.00688012596219778,-0.00733546679839492,0.0104398466646671,0,
00:00:03.688,0.0179433189332485,0.0108929825946689,0.010875528678298,0,
00:00:03.692,-0.000443652999820188,-0.0217057894915342,0.00548585550859571,0,
00:00:03.696,0.0292443260550499,0.0444647595286369,-0.00782128237187862,0,
00:00:03.7,0.00924163870513439,-0.00475674821063876,-0.00861122272908688,0,
00:00:03.704,-0.0189591590315104,0.0124148866161704,-0.00660114549100399,0,
00:00:03.708,-0.00385569175705314,-0.000811554898973554,0.0121024493128061,0,
00:00:03.712,0.00756726320832968,-0.00711982743814588,0.012558619491756,0,
00:00:03.716,0.014853872358799,0.0180085692554712,-0.0192781947553158,0,
00:00:03.72,-0.0068645509891212,-0.0332233570516109,-0.019068481400609,0,
00:00:03.724,-0.016308294609189,0.0074814441613853,-0.00362388952635229,0,
00:00:03.728,0.0168481469154358,0.0230426881462336,0.0275653805583715,0,
00:00:03.732,-0.0507195852696896,-0.0572187565267086,0.00301489979028702,0,
00:00:03.736,0.017205860465765,0.0353267639875412,-0.00755430478602648,0,
00:00:03.74,0.0422759465873241,0.0100478017702699,-0.00520888576284051,0,
00:00:03.744,-0.00567730236798525,-0.00302844913676381,0.0310336258262396,0,
00:00:03.748,0.00745261134579778,0.02914834395051,-0.0348582379519939,0,
00:00:03.752,-0.0534813590347767,-0.0954915955662727,0.00951142143458128,0,
00:00:03.756,0.0265489183366299,0.0376270040869713,-0.0055154818110168,0,
00:00:03.76,0.0245369952172041,0.0685776472091675,0.0124754020944238,0,
00:00:03.764,-0.0269328262656927,0.000921637692954391,0.00207800231873989,0,
00:00:03.768,0.0312434453517199,-0.0242803487926722,-0.0180611126124859,0,
00:00:03.772,-0.00354375620372593,-0.0359425358474255,-0.0137297539040446,0,
00:00:03.776,-0.0517430789768696,-0.0330629795789719,0.0155027844011784,0,
00:00:03.78,0.00948464870452881,0.0187929477542639,0.0135768009349704,0,
00:00:03.784,0.00612781941890717,0.0184186194092035,0.0282574761658907,0,
00:00:03.788,0.0131861306726933,0.0338736660778522,-0.0216858815401793,0,
00:00:03.792,0.0258074495941401,0.0275364723056555,-0.01730733551085,0,
00:00:03.796,-0.011467850767076,-0.0272581465542316,-0.0229324735701084,0,
00:00:03.8,-0.0137690994888544,-0.0679425448179245,0.0119557101279497,0,
00:00:03.804,0.019676310941577,0.0298288520425558,0.0103732226416469,0,
00:00:03.808,-0.0131316175684333,-0.00270362803712487,0.0105494968593121,0,
00:00:03.812,-0.0474923327565193,0.00827141012996435,0.0128028951585293,0,
00:00:03.816,0.0209150835871696,0.0230719335377216,0.000882882275618613,0,
00:00:03.82,0.0385677292943001,0.0176798366010189,-0.0252622030675411,0,
00:00:03.824,0.0112774539738894,-0.00982926972210407,-0.00530489953234792,0,
00:00:03.828,-0.0107837272807956,-0.0108241196721792,-0.00684965588152409,0,
00:00:03.832,-0.0195887256413698,-0.0368647612631321,0.0236002095043659,0,
00:00:03.836,-0.00406414829194546,0.0195101872086525,-0.0104425903409719,0,
00:00:03.84,0.015754833817482,-0.0259359162300825,0.0052101076580584,0,
00:00:03.844,-0.00943784322589636,0.0101428525522351,0.0139848301187158,0,
00:00:03.848,-0.0240405946969986,0.0139368223026395,0.00154482224024832,0,
00:00:03.852,0.0515767559409142,0.0472023636102676,-0.0192167516797781,0,
00:00:03.856,-0.0359732620418072,0.0263258200138807,-0.0153462700545788,0,
00:00:03.86,-0.0181101467460394,-0.0628816708922386,0.0074766743928194,0,
00:00:03.864,0.00417896779254079,-0.0446335598826408,0.0221130065619946,0,
00:00:03.868,0.0381133034825325,0.0200881231576204,-0.00286068161949515,0,
00:00:03.872,-0.00755951926112175,-0.00196617632173002,-0.0158827900886536,0,
00:00:03.876,0.0050801052711904,0.0402722544968128,0.018113024532795,0,
00:00:03.88,0.00793300475925207,0.020527133718133,-0.0010682427091524,0,
00:00:03.884,-0.0372526757419109,-0.0591423995792866,-0.0164624284952879,0,
00:00:03.888,0.00123398681171238,0.0139689892530441,-0.00511137116700411,0,
00:00:03.892,0.020631231367588,0.0154498945921659,0.00417450862005353,0,
00:00:03.896,0.00771978357806802,0.00260834931395948,0.0135280163958669,0,
00:00:03.9,-0.00593526335433126,0.00598424533382058,-0.00671874545514584,0,
00:00:03.904,-0.00416840147227049,0.00109700777102262,-0.00775384204462171,0,
00:00:03.908,-0.0108897564932704,-0.0378290899097919,0.021057179197669,0,
00:00:03.912,-0.00991085637360811,-0.0419580526649952,0.0275423638522625,0,
00:00:03.916,0.0284119863063097,0.0772068500518799,-0.0352903008460999,0,
00:00:03.92,0.00205600215122104,0.0333946831524372,-0.0349420793354511,0,
00:00:03.924,-0.0399075075984001,-0.0497467741370201,0.00804785639047623,0,
00:00:03.928,-0.0184059347957373,-0.00613778177648783,0.0226165298372507,0,
00:00:03.932,0.0814087837934494,0.0036786668933928,0.0150394709780812,0,
00:00:03.936,0.0217807963490486,0.00250367587432265,-0.0331623442471027,0,
00:00:03.94,-0.0584223046898842,0.00425300560891628,0.0268720481544733,0,
00:00:03.944,0.0329562649130821,0.024393405765295,-0.00793809164315462,0,
00:00:03.948,-0.0365258790552616,-0.0269677471369505,-0.00649810023605824,0,
00:00:03.952,-0.0761573165655136,-0.0390481539070606,0.032929539680481,0,
00:00:03.956,0.0319347232580185,0.0338762700557709,-0.0071326601319015,0,
00:00:03.96,0.0482145845890045,0.00282962922938168,-0.0274042412638664,0,
00:00:03.964,0.0432886518537998,0.0305695608258247,-0.0143010374158621,0,
00:00:03.968,0.00997742358595133,0.0143269263207912,0.00088260363554582,0,
00:00:03.972,-0.0610591433942318,-0.074869379401207,0.0200991071760654,0,
00:00:03.976,-0.00175978103652596,0.0160867944359779,0.0215853489935398,0,
00:00:03.98,-0.00320830824784935,-0.0253964401781559,-0.00683541083708405,0,
00:00:03.984,0.0160810425877571,0.0467782281339169,-0.027768187224865,0,
00:00:03.988,0.00607291189953685,0.0363425463438034,0.00731576327234507,0,
00:00:03.992,-0.00492623122408986,-0.00464018294587731,0.00811923108994961,0,
00:00:03.996,-0.0103467274457216,-0.0240400470793247,0.00931561458855867,0,
00:00:04,0.00919502507895231,-0.0267243403941393,-0.00932472478598356,0,
00:00:04.004,2.48523301706882E-05,-0.0105785457417369,-0.0267170611768961,0,
00:00:04.008,-0.0367860458791256,-0.0176325459033251,0.0184855349361897,0,
00:00:04.012,0.00165963626932353,0.0486516132950783,0.0183524359017611,0,
00:00:04.016,0.0616571232676506,0.0152829764410853,0.0150067321956158,0,
00:00:04.02,0.0674701705574989,-0.0146576333791018,-0.0307467561215162,0,
00:00:04.024,-0.0563938356935978,-0.0032532955519855,-0.0122702354565263,0,
00:00:04.028,-0.108726799488068,0.0134290410205722,0.0138347139582038,0,
00:00:04.032,-0.016055915504694,-0.0277242790907621,0.00829827506095171,0,
00:00:04.036,0.0666103512048721,-0.00533521547913551,-0.00573128368705511,0,
00:00:04.04,0.0219446923583746,0.0157811120152473,0.00825059041380882,0,
00:00:04.044,0.011206591501832,9.32212151383283E-06,-0.00316085712984204,0,
00:00:04.048,0.0118616074323654,0.011945535428822,-0.0147929331287742,0,
00:00:04.052,0.00790466647595167,0.0229718666523695,-0.0110425176098943,0,
00:00:04.056,-0.0122305480763316,-0.0434413962066174,0.0197483710944653,0,
00:00:04.06,-0.0359579510986805,-0.0202357396483421,0.0205711387097836,0,
00:00:04.064,-0.0361281596124172,-0.0239195730537176,-0.0154570760205388,0,
00:00:04.068,0.0438849367201328,0.0675016045570374,-0.00697666360065341,0,
00:00:04.072,0.0281963869929314,0.0310587827116251,-0.00346383848227561,0,
00:00:04.076,-0.0113142067566514,-0.00825307238847017,0.00755739351734519,0,
00:00:04.08,-0.0111035937443376,-0.0264465920627117,-0.0147757278755307,0,
00:00:04.084,-0.0292143989354372,-0.069226861000061,0.00384153914637864,0,
00:00:04.088,0.0310734007507563,0.0312833189964294,0.0373004861176014,0,
00:00:04.092,-0.00183288671541959,0.041201401501894,-0.00549884885549545,0,
00:00:04.096,-0.0263353530317545,-0.00314598553813994,-0.0148142445832491,0,
00:00:04.1,0.046091366559267,-0.0155227351933718,-0.0122959865257144,0,
00:00:04.104,0.0481329746544361,0.0124946571886539,-0.0569353699684143,0,
00:00:04.108,-0.066857174038887,0.0234629921615124,0.0217758566141129,0,
00:00:04.112,-0.0407643467187881,-0.021970609202981,0.0816005766391754,0,
00:00:04.116,0.0421660095453262,-0.0265792086720467,0.0135378576815128,0,
00:00:04.12,0.00316448742523789,0.0151881957426667,-0.0482055842876434,0,
00:00:04.124,-0.00708773778751493,-0.000413293862948194,-0.0191064346581697,0,
00:00:04.128,-0.0629419609904289,-0.0384204052388668,0.0038270119111985,0,
00:00:04.132,-0.000632878916803747,-0.000281750544672832,0.0159832183271647,0,
00:00:04.136,0.104515239596367,0.0865436792373657,-0.0244260877370834,0,
00:00:04.14,0.0693774670362473,0.0190889593213797,-0.0116881839931011,0,
00:00:04.144,-0.0695743039250374,-0.0531810075044632,0.0143655491992831,0,
00:00:04.148,-0.0680386051535606,-0.0410528890788555,0.0401157215237617,0,
00:00:04.152,-0.0454359948635101,-0.0158171579241753,0.0165732428431511,0,
00:00:04.156,0.0330174528062344,0.0281471610069275,-0.0375356264412403,0,
00:00:04.16,0.0740291401743889,0.0471393503248692,-0.0364000760018826,0,
00:00:04.164,-0.0208686999976635,-0.01829719170928,0.0209379717707634,0,
00:00:04.168,0.0270895827561617,-0.00470830360427499,0.00572632579132915,0,
00:00:04.172,-0.012333613820374,0.0157167222350836,-0.000552922079805285,0,
00:00:04.176,-0.055566880851984,-0.0294767767190933,0.0136481886729598,0,
00:00:04.18,-0.00488966843113303,-0.0137976398691535,0.00163770618382841,0,
00:00:04.184,0.0106080872938037,0.0181864798069,-0.00428702589124441,0,
00:00:04.188,0.00548786157742143,-0.00605939095839858,0.00102965265978128,0,
00:00:04.192,0.0159524977207184,-0.0113063286989927,0.0115649029612541,0,
00:00:04.196,0.0854839012026787,0.0414110273122787,-0.0357471853494644,0,
00:00:04.2,-0.042350996285677,0.0134070804342628,-0.0205019749701023,0,
00:00:04.204,-0.0871307849884033,-0.0319465063512325,0.0286042150110006,0,
00:00:04.208,0.00374840851873159,-0.0188775192946196,0.0357233732938766,0,
00:00:04.212,0.0282748863101006,0.00237362249754369,-0.0032962856348604,0,
00:00:04.216,0.0299321617931128,0.0273992456495762,-0.0184051785618067,0,
00:00:04.22,-0.0199484191834927,-0.0273117553442717,-0.017824150621891,0,
00:00:04.224,-0.0100118862465024,-0.0065799024887383,-0.00574417039752007,0,
00:00:04.228,0.0110199255868793,0.0164342690259218,0.0216255057603121,0,
00:00:04.232,0.00900829862803221,0.0145775452256203,0.0101419063284993,0,
00:00:04.236,0.0157829131931067,0.0208737999200821,-0.0170507282018662,0,
00:00:04.24,0.0028455110732466,0.00680077029392123,-0.00686787022277713,0,
00:00:04.244,-0.0217942353338003,-0.0796216055750847,0.00581721076741815,0,
00:00:04.248,-0.0262663792818785,-0.015904551371932,0.0264946650713682,0,
00:00:04.252,-0.00106079515535384,0.0626693740487099,-0.00731389876455069,0,
00:00:04.256,0.0204736161977053,0.0363479144871235,-0.0230350084602833,0,
00:00:04.26,0.00545202475041151,-0.00556436646729708,-0.00337078957818449,0,
00:00:04.264,0.000998011790215969,-0.0292895194143057,-0.00275160139426589,0,
00:00:04.268,-0.0105200950056314,-0.054469782859087,0.0104966312646866,0,
00:00:04.272,0.00931916758418083,0.0121089266613126,0.00620713410899043,0,
00:00:04.276,0.013618697412312,0.0385917834937572,0.0331886224448681,0,
00:00:04.28,-0.00800910219550133,0.0304413735866547,-0.00545000378042459,0,
00:00:04.284,-0.00582640338689089,-0.00660516880452633,-0.0397546663880348,0,
00:00:04.288,-0.0313464477658272,-0.0451468005776405,-0.013032297603786,0,
00:00:04.292,0.0235680975019932,0.00692432187497616,-0.00362591631710529,0,
00:00:04.296,0.0734451338648796,0.0134297097101808,-0.0117368130013347,0,
00:00:04.3,-0.0454205982387066,0.0176653824746609,0.0420236438512802,0,
00:00:04.304,-0.0417545586824417,-0.0270048566162586,0.0463791415095329,0,
00:00:04.308,-0.0492250956594944,-0.0284376051276922,-0.0201625563204288,0,
00:00:04.312,0.0284219700843096,0.0346760861575603,-0.0258698686957359,0,
00:00:04.316,0.0578429028391838,0.0148434434086084,-0.0120865469798446,0,
00:00:04.32,0.0289689563214779,-0.0189429055899382,0.0010055024176836,0,
00:00:04.324,-0.0558379217982292,0.0207817051559687,-0.0140239065513015,0,
00:00:04.328,0.014936282299459,-0.00267691072076559,0.0152656445279717,0,
00:00:04.332,-0.00927270390093327,-0.01901950314641,0.0138102527707815,0,
00:00:04.336,0.0326145067811012,0.0220897346735001,0.00567377498373389,0,
00:00:04.34,-0.0465309098362923,-0.057402640581131,-0.0124769443646073,0,
00:00:04.344,-0.00684549566358328,0.0244021322578192,-0.0168331861495972,0,
00:00:04.348,0.0361442230641842,0.0301923714578152,0.00565014919266105,0,
00:00:04.352,0.012730753980577,0.0147466454654932,0.0154610322788358,0,
00:00:04.356,-0.00650878809392452,-0.00290045700967312,0.00766017194837332,0,
00:00:04.36,-0.0511891655623913,-0.045903492718935,0.00630733836442232,0,
00:00:04.364,0.00366803538054228,0.00605890294536948,-0.0126687400043011,0,
00:00:04.368,0.0680387914180756,0.0325465276837349,-0.0336096473038197,0,
00:00:04.372,-0.0311275813728571,-0.0526781529188156,0.00615663034841418,0,
00:00:04.376,-0.038310781121254,0.000695208902470768,0.0450878739356995,0,
00:00:04.38,0.0295322090387344,0.0442341677844524,0.0107221230864525,0,
00:00:04.384,0.00848048087209463,0.0334464758634567,-0.0497603490948677,0,
00:00:04.388,-0.00892733596265316,-0.0117049487307668,-0.00625343713909388,0,
00:00:04.392,0.00254915421828628,-0.0365281030535698,0.0190172102302313,0,
00:00:04.396,0.0306379031389952,-0.00385998305864632,-0.0168592780828476,0,
00:00:04.4,-0.00816012918949127,0.00636767502874136,0.0130548700690269,0,
00:00:04.404,-0.0471399240195751,-0.03179632127285,0.0216014944016933,0,
00:00:04.408,-0.0205312911421061,0.0224921815097332,0.0107358871027827,0,
00:00:04.412,0.0447251163423061,0.0146396150812507,-0.0240413136780262,0,
00:00:04.416,0.0209670122712851,-0.00186702015344054,-0.00194201082922518,0,
00:00:04.42,-0.0181457437574863,0.0138318967074156,-0.0018863087752834,0,
00:00:04.424,-0.0131787406280637,-0.00955404434353113,-0.00390549376606941,0,
00:00:04.428,0.0127897430211306,0.0096874050796032,-0.00287954765371978,0,
00:00:04.432,-0.00385208567604423,-0.0469772629439831,-0.00407712673768401,0,
00:00:04.436,7.11297034285963E-05,0.0385438576340675,0.0190538801252842,0,
00:00:04.44,0.0023767719976604,0.0124021647498012,0.00951201282441616,0,
00:00:04.444,0.0270245149731636,-0.0171925760805607,-0.00388927152380347,0,
00:00:04.448,-0.019034244120121,-0.00926038064062595,-0.0204193573445082,0,
00:00:04.452,-0.032942421734333,-0.00758476788178086,-0.000669233908411115,0,
00:00:04.456,-0.00121110852342099,0.00719155045226216,-0.00127092434559017,0,
00:00:04.46,0.0272856149822474,0.017491552978754,-0.0002293109864695,0,
00:00:04.464,0.00164081272669137,0.0137175414711237,0.0289456117898226,0,
00:00:04.468,0.0333008989691734,-0.0203246045857668,-0.0283746682107449,0,
00:00:04.472,-0.00670989183709025,-0.0209460090845823,-0.0076572117395699,0,
00:00:04.476,-0.064932107925415,0.00710928020998836,0.0509503483772278,0,
00:00:04.48,0.0152078168466687,0.00221907487139106,-0.0154842287302017,0,
00:00:04.484,0.0248637888580561,0.0109516130760312,-0.0447811633348465,0,
00:00:04.488,-0.0332279354333878,-0.0252275597304106,0.0233301855623722,0,
00:00:04.492,0.00622923765331507,0.0327426046133041,0.0159562043845654,0,
00:00:04.496,0.0291371308267117,0.0159455426037312,-0.0121474945917726,0,
00:00:04.5,0.0168627016246319,-0.0052318824455142,-0.00313435215502977,0,
00:00:04.504,-0.00779761280864477,-0.0111441276967525,0.00460753077641129,0,
00:00:04.508,-0.00429448857903481,-0.0340876281261444,-0.0026223030872643,0,
00:00:04.512,-0.0162147209048271,-0.00567446835339069,-0.000179989074240439,0,
00:00:04.516,-0.000413805217249319,0.0244458615779877,-0.00397579791024327,0,
00:00:04.52,0.0080010024830699,0.0249429792165756,0.00405943859368563,0,
00:00:04.524,-0.00742487190291286,0.00196622707881033,-0.00283964211121202,0,
00:00:04.528,0.00300288433209062,-0.00335535500198603,0.00437735300511122,0,
00:00:04.532,-0.0174504686146975,-0.0170307047665119,0.00751746352761984,0,
00:00:04.536,0.0058310623280704,-0.0470580607652664,-0.00787449069321156,0,
00:00:04.54,0.00382025330327451,-0.0284710507839918,-0.00541888270527124,0,
00:00:04.544,0.0120973726734519,0.0984984412789345,0.0128602236509323,0,
00:00:04.548,0.00384665792807937,0.0473340600728989,-0.00196468108333647,0,
00:00:04.552,0.0148051269352436,-0.0320336855947971,-0.00807967409491539,0,
00:00:04.556,0.0155982058495283,-0.0387661457061768,-0.0166863854974508,0,
00:00:04.56,-0.00220291642472148,-0.0254043973982334,0.0127582903951406,0,
00:00:04.564,-0.0553758852183819,-0.00155782827641815,0.0175911374390125,0,
00:00:04.568,-0.0409974381327629,0.0257875639945269,-0.0077597196213901,0,
00:00:04.572,-0.00444808648899198,-0.0296568814665079,0.00124983617570251,0,
00:00:04.576,0.0420408509671688,0.0101258642971516,0.00610230909660459,0,
00:00:04.58,0.0632952526211739,0.0542301535606384,-0.0044172597117722,0,
00:00:04.584,0.010550276376307,0.0201674904674292,-0.0224392730742693,0,
00:00:04.588,-0.0220451727509499,-0.0446654371917248,0.00622108299285173,0,
00:00:04.592,-0.0122966775670648,-0.0231890175491571,0.0145235117524862,0,
00:00:04.596,-0.0448633953928947,-0.0520831942558289,0.00754360994324088,0,
00:00:04.6,-0.000705645128618926,0.0437231510877609,-0.0200807005167007,0,
00:00:04.604,0.0225703343749046,0.0486791282892227,-0.0029667413327843,0,
00:00:04.608,0.00782158505171537,0.0126236835494637,0.00791210774332285,0,
00:00:04.612,-0.00358626479282975,-0.0351838245987892,0.0111932717263699,0,
00:00:04.616,0.0292135626077652,0.00343547714874148,-0.00377590116113424,0,
00:00:04.62,-0.0217404272407293,-0.00564996805042028,-0.0176171734929085,0,
00:00:04.624,-0.0149913374334574,-0.0346376299858093,0.0159477014094591,0,
00:00:04.628,0.00775377172976732,0.0173520874232054,0.0150187406688929,0,
00:00:04.632,0.00187837600242347,0.0342682600021362,-0.00774354673922062,0,
00:00:04.636,-0.00476969871670008,0.00149932503700256,-0.0141947222873569,0,
00:00:04.64,0.021796278655529,-0.0252992659807205,-0.0279967673122883,0,
00:00:04.644,-0.0353776924312115,-0.011374382302165,0.0292594004422426,0,
00:00:04.648,0.00795588176697493,0.0220330413430929,0.0266839358955622,0,
00:00:04.652,-0.00257593882270157,0.00249757943674922,-0.0109638078138232,0,
00:00:04.656,0.0117927556857467,-0.0472598038613796,-0.0180388018488884,0,
00:00:04.66,0.0211020912975073,0.0335742495954037,-0.0101108253002167,0,
00:00:04.664,0.0225940961390734,0.0386249609291554,0.00249614170752466,0,
00:00:04.668,-0.0307605098932981,-0.00756956357508898,0.00691293925046921,0,
00:00:04.672,-0.0377704203128815,-0.0354692973196507,0.0247851200401783,0,
00:00:04.676,-0.0120420260354877,0.00237527582794428,-0.00019355260883458,0,
00:00:04.68,0.0365367569029331,0.00936473999172449,-0.0305861886590719,0,
00:00:04.684,0.00924461893737316,-0.00156899739522487,0.00185361527837813,0,
00:00:04.688,-0.0112891755998135,-0.00562951760366559,0.0131235988810658,0,
00:00:04.692,-0.0286597944796085,-0.0265365112572908,0.0203197803348303,0,
00:00:04.696,0.0537663772702217,0.0178994871675968,-0.0206613466143608,0,
00:00:04.7,0.0407774224877357,0.0377502553164959,-0.0427378006279469,0,
00:00:04.704,-0.0447390004992485,0.0160353686660528,0.0248783826828003,0,
00:00:04.708,-0.0274934209883213,-0.0212572738528252,0.0194983202964067,0,
00:00:04.712,-0.0487292744219303,-0.043820932507515,0.0215223841369152,0,
00:00:04.716,0.0225371159613132,-0.00774724595248699,0.00420728698372841,0,
00:00:04.72,0.0767017379403114,0.0377921424806118,-0.0522536560893059,0,
00:00:04.724,0.00637145340442657,0.0249056648463011,-0.0112540870904922,0,
00:00:04.728,-0.0564233288168907,-0.0271828956902027,0.0591146312654018,0,
00:00:04.732,-0.0474317297339439,-0.0481283813714981,0.00489248521625996,0,
00:00:04.736,0.043161503970623,0.0365663506090641,-0.0343546383082867,0,
00:00:04.74,0.0685106292366982,0.0435100346803665,-0.044101856648922,0,
00:00:04.744,-0.0248860940337181,-0.00607241177931428,0.039556197822094,0,
00:00:04.748,-0.0790194794535637,-0.0493231862783432,0.0330149829387665,0,
00:00:04.752,0.0190764237195253,-0.00249854032881558,-0.00614861259236932,0,
00:00:04.756,0.0730884075164795,0.0337284170091152,-0.032492034137249,0,
00:00:04.76,-0.0124724889174104,-0.00354173732921481,-0.00139616033993661,0,
00:00:04.764,-0.0248139295727015,0.00781685579568148,0.0104610836133361,0,
00:00:04.768,-0.0375309586524963,-0.0337765961885452,0.0325989238917828,0,
00:00:04.772,-0.0152713395655155,0.010915856808424,-0.0157303977757692,0,
00:00:04.776,0.0366754680871964,0.0122721996158361,-0.01954410597682,0,
00:00:04.78,0.0439416915178299,0.00248551252298057,-0.0180695466697216,0,
00:00:04.784,-0.00322723481804132,-0.00659850146621466,0.019745783880353,0,
00:00:04.788,-0.0277736186981201,0.000449633953394368,0.0106879789382219,0,
00:00:04.792,-0.0421529822051525,-0.00527921365574002,0.0196281038224697,0,
00:00:04.796,0.0602847076952457,0.0140044298022985,-0.0239229537546635,0,
00:00:04.8,0.0365886129438877,0.016796912997961,-0.0233457982540131,0,
00:00:04.804,-0.0550296157598495,-0.0308645833283663,0.0267961919307709,0,
00:00:04.808,-0.0568143576383591,-0.0472181178629398,0.0101592661812901,0,
00:00:04.812,0.00981613714247942,0.0357722342014313,-0.00629511009901762,0,
00:00:04.816,0.00214373343624175,0.0383939333260059,-0.0200201403349638,0,
00:00:04.82,0.0653481781482697,0.0130925523117185,0.00199070386588573,0,
00:00:04.824,0.0890264287590981,-0.0138388946652412,-0.0172072686254978,0,
00:00:04.828,-0.0891432464122772,-0.0333581045269966,0.0272060707211494,0,
00:00:04.832,-0.0300196092575789,0.0121648237109184,0.0334929190576077,0,
00:00:04.836,-0.0334556102752686,-0.0341358594596386,-0.00352994073182344,0,
00:00:04.84,-0.00960594695061445,0.00171233352739364,-0.0287582688033581,0,
00:00:04.844,0.0343427546322346,0.0470768623054028,-0.0256316550076008,0,
00:00:04.848,0.0222242381423712,0.0172241851687431,0.00366937648504972,0,
00:00:04.852,-0.00838391575962305,-0.0289824903011322,0.0306117739528418,0,
00:00:04.856,0.0302278287708759,0.00571611570194364,0.000238656823057681,0,
00:00:04.86,0.0113471290096641,0.00594121869653463,-0.0205842852592468,0,
00:00:04.864,-0.041916199028492,-0.0233030524104834,0.00369796925224364,0,
00:00:04.868,-0.0197310522198677,-0.0462357997894287,0.00843002088367939,0,
00:00:04.872,0.0063934363424778,0.0392887555062771,0.00885021034628153,0,
00:00:04.876,0.0109939826652408,0.0324518457055092,-0.00424825353547931,0,
00:00:04.88,0.0153563302010298,0.0253537278622389,-0.00228701764717698,0,
00:00:04.884,0.00842904858291149,0.00408520689234138,-0.00765189528465271,0,
00:00:04.888,-0.0343935079872608,-0.0513224489986897,0.000654926581773907,0,
00:00:04.892,0.0304564982652664,-0.0451937355101109,-0.0148562621325254,0,
00:00:04.896,0.0265165101736784,0.0329448617994785,-0.00826280098408461,0,
00:00:04.9,-0.0339504219591618,0.0166164916008711,0.0430933199822903,0,
00:00:04.904,-0.0630371198058128,0.00702994735911489,0.0274308975785971,0,
00:00:04.908,0.0186422616243362,0.0217519551515579,-0.0318397730588913,0,
00:00:04.912,0.0349731668829918,-0.0427590534090996,-0.0248902179300785,0,
00:00:04.916,0.0111336791887879,-0.0018664161907509,-0.015994306653738,0,
00:00:04.92,0.00411389581859112,0.0308261346071959,0.0115400971844792,0,
00:00:04.924,0.00245171342976391,-0.0154062313959002,0.0378143452107906,0,
00:00:04.928,-0.0192064922302961,-0.0301927216351032,0.0116790486499667,0,
00:00:04.932,-0.00889274943619967,0.0448640137910843,-0.0345870442688465,0,
00:00:04.936,0.0372169986367226,0.0338324271142483,-0.0373052470386028,0,
00:00:04.94,-0.00369253428652883,-0.0494534783065319,0.0142783597111702,0,
00:00:04.944,-0.0244923699647188,-0.0145168006420135,0.0278402008116245,0,
00:00:04.948,-0.0317601375281811,-0.00112051144242287,0.0247773956507444,0,
00:00:04.952,0.0117022609338164,0.00827726721763611,0.00518365390598774,0,
00:00:04.956,0.0305761694908142,0.0266270786523819,-0.0420985221862793,0,
00:00:04.96,0.0153022250160575,0.000892853189725429,-0.00948425568640232,0,
00:00:04.964,-0.013707016594708,-0.0156790837645531,0.0360685735940933,0,
00:00:04.968,0.0055620726197958,-0.0202446058392525,-0.027378486469388,0,
00:00:04.972,-0.025991028174758,0.00951025448739529,-0.00399459945037961,0,
00:00:04.976,-0.00357166677713394,-0.00958880968391895,0.0135913407430053,0,
00:00:04.98,-0.00103228085208684,0.00718876020982862,0.00902607105672359,0,
00:00:04.984,0.00207690661773086,0.0134320631623268,0.00639098603278399,0,
00:00:04.988,0.0545264109969139,0.0511861927807331,-0.0276606660336256,0,
00:00:04.992,0.0369525142014027,-0.0105636660009623,-0.0444761365652084,0,
00:00:04.996,-0.089396595954895,-0.0710611417889595,0.081971786916256,0,
00:00:05,-0.0655591785907745,-0.0172473751008511,0.0301426406949759,0,
00:00:05.004,0.0230304058641195,0.0244982298463583,-0.0290536545217037,0,
00:00:05.008,0.0412134267389774,0.00905595067888498,-0.0491865500807762,0,
00:00:05.012,0.054374486207962,0.0211865194141865,0.0153665505349636,0,
00:00:05.016,0.0226870961487293,0.0253252033144236,-0.0146504361182451,0,
00:00:05.02,-0.0535205639898777,-0.0248008146882057,0.00459016393870115,0,
00:00:05.024,-0.0333428457379341,0.00304620317183435,0.0154459392651916,0,
00:00:05.028,0.00350127276033163,-0.0203153286129236,-0.000680179975461215,0,
00:00:05.032,0.0299456249922514,-0.0118424240499735,0.0130433607846498,0,
00:00:05.036,-0.00151331874076277,0.0125804403796792,0.0166182070970535,0,
00:00:05.04,-0.0241380147635937,-0.016458673402667,-0.00292745442129672,0,
00:00:05.044,-0.0070811347104609,0.0216317884624004,-0.0325358882546425,0,
00:00:05.048,0.0269005298614502,0.0320563800632954,-0.0146811557933688,0,
00:00:05.052,0.0037904093042016,-0.0385302379727364,0.0170693527907133,0,
00:00:05.056,0.00567591143772006,-0.000553805672097951,0.00994729064404964,0,
00:00:05.06,-0.0294201727956533,0.0131840985268354,0.00249291304498911,0,
00:00:05.064,0.0179640781134367,0.0123394448310137,0.00830200407654047,0,
00:00:05.068,0.0388790629804134,-0.00682053761556745,-0.0360204540193081,0,
00:00:05.072,-0.0353350751101971,0.000676062831189483,0.00912771373987198,0,
00:00:05.076,0.00056536664487794,-0.00719532277435064,0.0102512584999204,0,
00:00:05.08,-0.046860296279192,-0.0333244577050209,0.0101985326036811,0,
00:00:05.084,-0.0197805445641279,0.00246376288123429,0.036728672683239,0,
00:00:05.088,0.088247612118721,-0.0327057652175426,-0.0446701943874359,0,
00:00:05.092,0.0185468401759863,0.0714792236685753,-0.0238203406333923,0,
00:00:05.096,-0.0217563174664974,0.0614387057721615,0.0110557721927762,0,
00:00:05.1,-0.0361325778067112,-0.0192587357014418,0.00597254792228341,0,
00:00:05.104,-0.0289762523025274,-0.0757652670145035,0.0164800267666578,0,
00:00:05.108,0.00848617684096098,-0.00633897818624973,-0.00489520840346813,0,
00:00:05.112,0.0349655039608479,0.0182925760746002,0.000201368267880753,0,
00:00:05.116,0.0277003310620785,0.00277858623303473,-0.00960012897849083,0,
00:00:05.12,-0.0200357902795076,-0.0105277299880981,-0.00320246326737106,0,
00:00:05.124,-0.00769650330767035,0.0071470751427114,0.0160751957446337,0,
00:00:05.128,0.00291746039874852,0.0420982763171196,0.00637919967994094,0,
00:00:05.132,-0.0344612449407578,-0.0310185663402081,-0.00325106852687895,0,
00:00:05.136,0.0493510589003563,-0.0095490263774991,-0.0240910332649946,0,
00:00:05.14,0.00387029047124088,0.0280520226806402,-0.00519737368449569,0,
00:00:05.144,-0.0335103645920753,-0.0128866555169225,0.00335532426834106,0,
00:00:05.148,-0.0160123463720083,-0.0129490317776799,0.012554251588881,0,
00:00:05.152,0.000539630884304643,0.024567736312747,0.018641971051693,0,
00:00:05.156,0.0599132552742958,-0.0496195144951344,-0.00445996783673763,0,
00:00:05.16,-0.00677914079278708,-0.0079434160143137,-0.00502825435250998,0,
00:00:05.164,-0.0532022565603256,0.0503780245780945,-0.00160715414676815,0,
00:00:05.168,-0.0164735615253448,0.0363249555230141,-0.00412712479010224,0,
00:00:05.172,0.0178366266191006,-0.0305136665701866,-0.0046894047409296,0,
00:00:05.176,0.0593548156321049,-0.0349727682769299,-0.0337365530431271,0,
00:00:05.18,-0.00641153892502189,-0.0206352658569813,0.036150936037302,0,
00:00:05.184,-0.0191441178321838,0.0350003615021706,0.0105901658535004,0,
00:00:05.188,-0.0289803482592106,0.0220050942152739,0.0144382184371352,0,
00:00:05.192,0.00250344956293702,0.00851115770637989,0.0116620529443026,0,
00:00:05.196,0.0339899025857449,0.0049327164888382,-0.0469207651913166,0,
00:00:05.2,-0.0319444090127945,-0.059387743473053,-0.018430208787322,0,
00:00:05.204,0.00436064694076777,-0.00035016456968151,-0.000156787704327144,0,
00:00:05.208,0.00684972992166877,0.0138393668457866,0.0285874605178833,0,
00:00:05.212,0.0180447772145271,0.0254679061472416,0.00908960774540901,0,
00:00:05.216,-0.0240805577486753,-0.0342753194272518,0.00563539611175656,0,
00:00:05.22,0.0135585023090243,0.043214924633503,0.0109636876732111,0,
00:00:05.224,0.00853751786053181,0.00161558471154422,-0.0136344917118549,0,
00:00:05.228,-0.0245498325675726,-0.0400303304195404,-0.0262271370738745,0,
00:00:05.232,-0.00241365167312324,0.0384599715471268,-0.0020933507476002,0,
00:00:05.236,0.00157474121078849,0.0214594602584839,0.00907130166888237,0,
00:00:05.24,0.024702163413167,-0.0646389946341515,0.0120144691318274,0,
00:00:05.244,0.0137553969398141,-0.0348528660833836,0.00764289172366261,0,
00:00:05.248,-0.0427547767758369,0.0407030321657658,0.0154314478859305,0,
00:00:05.252,0.00376909179612994,0.0547256469726563,-0.0220037214457989,0,
00:00:05.256,0.0296265259385109,-0.0023828896228224,-0.0317316651344299,0,
00:00:05.26,0.0537688583135605,-0.0256455074995756,-0.0175566468387842,0,
00:00:05.264,-0.0956818461418152,-0.0106836212798953,0.0405954085290432,0,
00:00:05.268,-0.0606107115745544,-0.0190097894519567,0.0375142954289913,0,
00:00:05.272,0.0217397008091211,-0.00580242788419127,0.00497215567156672,0,
00:00:05.276,0.103278741240501,-0.00884112156927586,-0.0372876897454262,0,
00:00:05.28,0.0391293317079544,0.0351555868983269,-0.0158633515238762,0,
00:00:05.284,-0.0560127906501293,0.0302130952477455,0.00814689043909311,0,
00:00:05.288,-0.040356706827879,0.00136461376678199,0.0015443671727553,0,
00:00:05.292,-0.004001977853477,0.000729925173800439,0.00764173408970237,0,
00:00:05.296,-0.00568203395232558,-0.0505082681775093,-0.00778867257758975,0,
00:00:05.3,0.0151222152635455,-0.0143059091642499,0.00539513165131211,0,
00:00:05.304,0.00833599269390106,0.00391506776213646,-0.0144948977977037,0,
00:00:05.308,0.0247444789856672,0.04041937738657,0.0134692275896668,0,
00:00:05.312,0.00847397651523352,0.0295259840786457,0.024245522916317,0,
00:00:05.316,-0.0216090865433216,-0.0526072159409523,-0.00587686710059643,0,
00:00:05.32,-0.00839533470571041,-0.0272416993975639,-0.029715184122324,0,
00:00:05.324,-0.0466779470443726,0.0194295011460781,0.00244078622199595,0,
00:00:05.328,0.0180675387382507,0.0407711155712605,0.00627057300880551,0,
00:00:05.332,0.0383014716207981,0.0188122689723969,0.0128578655421734,0,
00:00:05.336,0.0118385944515467,-0.0136155132204294,-0.000146178485010751,0,
00:00:05.34,0.0466426685452461,-0.0165894161909819,-0.0443052835762501,0,
00:00:05.344,-0.0190673246979713,-0.026539258658886,0.0163109619170427,0,
00:00:05.348,-0.058470394462347,-0.0286361500620842,0.0280976463109255,0,
00:00:05.352,-0.0683983787894249,0.00394351501017809,0.0198519434779882,0,
00:00:05.356,-0.0264928080141544,0.0422386601567268,0.00543549889698625,0,
00:00:05.36,0.107348293066025,0.0105282692238688,-0.0284256730228662,0,
00:00:05.364,0.0754872038960457,0.014977065846324,-0.0501776561141014,0,
00:00:05.368,-0.0278220977634192,-0.00600065430626273,0.0197099093347788,0,
00:00:05.372,-0.0358874015510082,-0.0122911743819714,0.0537869855761528,0,
00:00:05.376,-0.0313110053539276,0.000358585006324574,-0.00938527751713991,0,
00:00:05.38,-0.0318255126476288,-0.018583370372653,-0.0194557458162308,0,
00:00:05.384,0.00334909046068788,-0.0413261167705059,-0.00798706617206335,0,
00:00:05.388,0.054005853831768,0.0511108934879303,-0.0157112777233124,0,
00:00:05.392,0.0193293355405331,0.00223494647070766,0.0121318474411964,0,
00:00:05.396,-0.00739466771483421,0.000949837092775851,0.000281448825262487,0,
00:00:05.4,0.0222043376415968,0.0100499335676432,0.0126580251380801,0,
00:00:05.404,-0.0345980562269688,0.00140055036172271,0.0162137839943171,0,
00:00:05.408,-0.0183840822428465,0.024247769266367,0.0209762305021286,0,
00:00:05.412,-0.0178617611527443,-0.0302790906280279,-0.0351494662463665,0,
00:00:05.416,0.0025650707539171,-0.0778493508696556,-0.0124314576387405,0,
00:00:05.42,-0.0277227908372879,0.00434790877625346,-0.0170256718993187,0,
00:00:05.424,0.0141162918880582,0.0838879346847534,0.020029665902257,0,
00:00:05.428,0.0801826938986778,0.00311342626810074,0.00916610471904278,0,
00:00:05.432,0.107914336025715,0.0315895676612854,-0.0277233552187681,0,
00:00:05.436,-0.0904495269060135,0.00779471080750227,0.0127443196251988,0,
00:00:05.44,-0.132180377840996,-0.0736585035920143,0.0443362519145012,0,
00:00:05.444,-0.015760550275445,-0.0495966151356697,0.00915873143821955,0,
00:00:05.448,0.0659849271178246,0.0380846560001373,-0.0513506643474102,0,
00:00:05.452,0.0145561490207911,0.00483420630916953,-0.0143145089969039,0,
00:00:05.456,0.0337558016180992,0.0165163911879063,0.00430968310683966,0,
00:00:05.46,-0.0056726960465312,0.0197428017854691,0.0207924880087376,0,
00:00:05.464,-0.01504444796592,0.000485745404148474,0.019836463034153,0,
00:00:05.468,0.00827760715037584,0.0308897830545902,-0.0131631819531322,0,
00:00:05.472,-0.005734674166888,-0.0447427332401276,-0.043644979596138,0,
00:00:05.476,-0.0255621708929539,-0.0635800808668137,0.0119736529886723,0,
00:00:05.48,-0.014659570530057,-0.0714680925011635,0.0795453190803528,0,
00:00:05.484,0.0280806533992291,0.141283690929413,-0.0409850738942623,0,
00:00:05.488,0.052819661796093,0.121856942772865,-0.0264472085982561,0,
00:00:05.492,-0.00352170737460256,-0.00625585950911045,-0.00313284317962825,0,
00:00:05.496,-0.0536093972623348,-0.117291867733002,-0.0168563947081566,0,
00:00:05.5,-0.0594691187143326,-0.151996716856956,0.0555824972689152,0,
00:00:05.504,0.0564684644341469,0.0871625691652298,-0.003524050116539,0,
00:00:05.508,0.0176542997360229,0.0437170043587685,-0.0227288473397493,0,
00:00:05.512,0.0317657291889191,0.0289581138640642,-0.0151152769103646,0,
00:00:05.516,0.00568781141191721,0.0338023453950882,-0.00332845258526504,0,
00:00:05.52,-0.0716138631105423,-0.0360938608646393,0.0244590062648058,0,
00:00:05.524,-0.0744415447115898,0.00525693781673908,0.0494739376008511,0,
00:00:05.528,0.143665760755539,-0.0142873702570796,-0.075094148516655,0,
00:00:05.532,0.110983029007912,-0.0322009138762951,-0.0593044757843018,0,
00:00:05.536,-0.115141272544861,0.0128115676343441,0.0896819904446602,0,
00:00:05.54,-0.11254720389843,0.0259361490607262,0.049141775816679,0,
00:00:05.544,-0.0211325325071812,-0.0228435192257166,-0.00761689245700836,0,
00:00:05.548,0.0115516493096948,-0.0450085997581482,-0.0447372309863567,0,
00:00:05.552,0.0872460454702377,0.0473635643720627,-0.0343634933233261,0,
00:00:05.556,0.0789202079176903,0.0652164146304131,-0.0149548603221774,0,
00:00:05.56,-0.00796534866094589,0.0037680622190237,0.0277164466679096,0,
00:00:05.564,-0.0430321209132671,-0.0382735691964626,0.0218059383332729,0,
00:00:05.568,-0.0294419471174479,-0.0467756278812885,-0.00317795295268297,0,
00:00:05.572,-0.0246626101434231,-0.00605335179716349,0.0122724147513509,0,
00:00:05.576,-0.0683540031313896,-0.0978449657559395,0.027797743678093,0,
00:00:05.58,0.0478722415864468,0.0946831554174423,-0.0166875403374434,0,
00:00:05.584,0.0985182821750641,0.11403276771307,-0.0670561417937279,0,
00:00:05.588,0.0384892672300339,0.0436349734663963,-0.022139385342598,0,
00:00:05.592,-0.0665291845798492,-0.0731138959527016,0.0510565117001534,0,
00:00:05.596,-0.090719074010849,-0.091103158891201,0.0556501112878323,0,
00:00:05.6,0.0825449451804161,-0.0141472704708576,-0.0113680688664317,0,
00:00:05.604,0.0237254295498133,0.0301930159330368,-0.0621600896120071,0,
00:00:05.608,-0.0722425878047943,-0.0090398658066988,0.0238389484584332,0,
00:00:05.612,-0.019660210236907,0.0222867336124182,0.0163201317191124,0,
00:00:05.616,0.0340526811778545,0.0545762032270432,-0.00156968564260751,0,
00:00:05.62,-0.0138840582221746,-0.0378644168376923,0.00186742888763547,0,
00:00:05.624,0.0565799623727798,-0.0182975120842457,0.00181619287468493,0,
00:00:05.628,0.0295495893806219,0.0367372296750546,-0.0446119569242001,0,
00:00:05.632,-0.00505618145689368,0.00156266707926989,0.0335624814033508,0,
00:00:05.636,-0.0477432981133461,-0.00321532203815877,0.00886122323572636,0,
00:00:05.64,-0.0831933468580246,-0.0883265808224678,0.00214646756649017,0,
00:00:05.644,0.0591289848089218,-0.0104825086891651,-0.00884941779077053,0,
00:00:05.648,0.079894095659256,0.0741355717182159,-0.0320212729275227,0,
00:00:05.652,-0.0434950143098831,0.0630388036370277,0.00103786296676844,0,
00:00:05.656,-0.037869893014431,0.0146975144743919,0.0248345732688904,0,
00:00:05.66,0.0178223736584187,-0.0432169027626514,0.0271458476781845,0,
00:00:05.664,-0.0151011236011982,-0.069805771112442,-0.0120910359546542,0,
00:00:05.668,0.0119759114459157,-0.0228305421769619,0.00472846627235413,0,
00:00:05.672,0.0235331691801548,0.0439755022525787,-0.0123487720265985,0,
00:00:05.676,-0.0295300260186195,0.0499876998364925,-0.00967503990978003,0,
00:00:05.68,0.0258462056517601,-0.0433164238929749,0.00199004495516419,0,
00:00:05.684,0.0701972469687462,-0.020910220220685,-0.0236773323267698,0,
00:00:05.688,-0.0607899725437164,0.0349805727601051,0.0145424883812666,0,
00:00:05.692,-0.0677876770496368,0.0406303405761719,0.00565192336216569,0,
00:00:05.696,-0.0293424371629953,-0.0167661514133215,0.0386573821306229,0,
00:00:05.7,0.0286951493471861,-0.0562188290059567,-0.00391033105552197,0,
00:00:05.704,0.105150602757931,0.0114065632224083,-0.045564491301775,0,
00:00:05.708,0.00735424226149917,0.012953570112586,0.00149258633609861,0,
00:00:05.712,-0.0401922985911369,0.0405493564903736,0.0082508884370327,0,
00:00:05.716,-0.092107281088829,-0.0676975324749947,0.0143037466332316,0,
00:00:05.72,0.0142629286274314,-0.034507192671299,0.0171196199953556,0,
00:00:05.724,0.118698582053185,0.0860974788665771,-0.0286087933927774,0,
00:00:05.728,-0.0221932865679264,0.0363030768930912,-0.0239813812077045,0,
00:00:05.732,-0.0518933646380901,-0.021339999511838,0.0233825948089361,0,
00:00:05.736,-0.0263209547847509,-0.044892530888319,0.0279865488409996,0,
00:00:05.74,0.0107412934303284,-0.0106769697740674,-0.0297959093004465,0,
00:00:05.744,0.0286473948508501,0.00404583010822535,-0.00601867726072669,0,
00:00:05.748,-0.0371365956962109,-0.0188939608633518,0.0489131361246109,0,
00:00:05.752,0.0366453193128109,0.0323589630424976,-0.0215850435197353,0,
00:00:05.756,0.09388567507267,0.0475323013961315,-0.0624356232583523,0,
00:00:05.76,-0.0533119440078735,-0.031519778072834,0.0194270852953196,0,
00:00:05.764,-0.121935710310936,-0.0703320726752281,0.0671082884073257,0,
00:00:05.768,0.00630964664742351,0.0361734665930271,-0.0128267779946327,0,
00:00:05.772,0.0837903320789337,0.0689237490296364,-0.0226623062044382,0,
00:00:05.776,0.0508696623146534,-0.00745750078931451,-0.0185142979025841,0,
00:00:05.78,-0.054038543254137,-0.0444561205804348,0.00362348556518555,0,
00:00:05.784,-0.040015809237957,-0.034390565007925,0.000569482916034758,0,
00:00:05.788,0.00688830437138677,0.0235073529183865,0.00582428183406591,0,
00:00:05.792,0.0388300456106663,0.0403261184692383,0.0203062612563372,0,
00:00:05.796,-0.000933028233703226,-0.0294891707599163,-0.00237587024457753,0,
00:00:05.8,-0.0399352610111237,-0.0121184326708317,-0.00457186345010996,0,
00:00:05.804,0.0261942353099585,0.018506882712245,0.00390500924549997,0,
00:00:05.808,0.046637050807476,-0.0158976558595896,-0.0192502252757549,0,
00:00:05.812,-0.0108222905546427,0.02116091363132,-0.0229034703224897,0,
00:00:05.816,-0.0574003048241138,0.0160499792546034,0.0150304771959782,0,
00:00:05.82,-0.0459227152168751,0.00808778684586287,0.0262585803866386,0,
00:00:05.824,0.024027343839407,-0.0296313408762217,-0.00588692165911198,0,
00:00:05.828,0.102764770388603,-0.0928061455488205,0.027007270604372,0,
00:00:05.832,-0.0178071316331625,0.0534300915896893,-0.0190584491938353,0,
00:00:05.836,-0.0597466044127941,0.0672292411327362,-0.0283440127968788,0,
00:00:05.84,0.000110290900920518,0.0411684140563011,0.00310016889125109,0,
00:00:05.844,0.00599735323339701,-0.0394363403320313,0.00479727983474731,0,
00:00:05.848,0.032027717679739,-0.0321578271687031,-0.00932364445179701,0,
00:00:05.852,-0.00183583283796906,-0.0176225621253252,0.00936068780720234,0,
00:00:05.856,-0.060146439820528,-0.0754211992025375,0.0189340934157372,0,
00:00:05.86,0.0289943758398294,0.0634982213377953,0.0156930014491081,0,
00:00:05.864,0.0358165726065636,0.0809080302715302,-0.00870561692863703,0,
00:00:05.868,0.0146614210680127,0.0336050689220428,-0.029001958668232,0,
00:00:05.872,-0.048918966203928,-0.0828371345996857,-0.000375529722077772,0,
00:00:05.876,-0.0261983834207058,-0.0645401999354362,0.00225247303023934,0,
00:00:05.88,0.0141280274838209,0.0297770109027624,0.0107448073104024,0,
00:00:05.884,0.0701972916722298,0.0587295778095722,-0.00352315371856093,0,
00:00:05.888,-0.0125296814367175,-0.00734476745128632,0.00179057137575001,0,
00:00:05.892,-0.0615703128278255,-0.0187625586986542,-0.00871788803488016,0,
00:00:05.896,-0.0146902902051806,-0.00363212893716991,0.0265674330294132,0,
00:00:05.9,0.0414268746972084,0.00325728696770966,-0.00653761299327016,0,
00:00:05.904,0.0944507345557213,0.0349366627633572,-0.0693801492452621,0,
00:00:05.908,-0.0481245033442974,-0.0468985177576542,0.0371629372239113,0,
00:00:05.912,-0.117792300879955,-0.0411419458687305,0.0624441169202328,0,
00:00:05.916,-0.0115509247407317,0.0144785242155194,0.0288727041333914,0,
00:00:05.92,0.0497853495180607,0.0475303903222084,-0.0425615459680557,0,
00:00:05.924,0.0581838488578796,0.0675127804279327,-0.0673341378569603,0,
00:00:05.928,0.0152806052938104,-0.0259118769317865,-0.0181840565055609,0,
00:00:05.932,-0.0187801402062178,-0.0653348341584206,0.0289052929729223,0,
00:00:05.936,-0.0338704846799374,-0.047844685614109,0.0290139634162188,0,
00:00:05.94,0.0193220488727093,0.045057836920023,0.0174396149814129,0,
00:00:05.944,0.0063752313144505,0.00608482863754034,0.0322062261402607,0,
00:00:05.948,-0.0154200242832303,0.0168886724859476,-0.0365120843052864,0,
00:00:05.952,0.00323546212166548,0.0234274007380009,-0.0412520654499531,0,
00:00:05.956,0.014638202264905,0.0240141432732344,0.00357410591095686,0,
00:00:05.96,-0.0200156476348639,-0.0479696430265903,0.0401102975010872,0,
00:00:05.964,-0.0488678552210331,-0.0661854445934296,-0.00793639663606882,0,
00:00:05.968,0.101399056613445,0.0411328598856926,-0.0486903488636017,0,
00:00:05.972,-0.00841258838772774,0.0180798079818487,0.0558096803724766,0,
00:00:05.976,-0.102586664259434,0.0341266691684723,0.0285193379968405,0,
00:00:05.98,0.0343586355447769,-0.00967765226960182,-0.0440587773919106,0,
00:00:05.984,0.0255827270448208,-0.0428110063076019,-0.0366509221494198,0,
00:00:05.988,0.0490394085645676,0.0208765808492899,0.0334915556013584,0,
00:00:05.992,0.0086194584146142,-0.00669750012457371,0.0106955263763666,0,
00:00:05.996,-0.067550353705883,0.00901809707283974,-0.0107565680518746,0,
00:00:06,-0.0382879376411438,0.00711288442835212,0.0204354859888554,0,
00:00:06.004,0.0255133230239153,0.0086531788110733,-0.015325759537518,0,
00:00:06.008,0.00859280396252871,-0.041407510638237,-0.0186581443995237,0,
00:00:06.012,0.0263523031026125,-0.0154229253530502,0.0240197330713272,0,
00:00:06.016,0.0216426569968462,0.0276719052344561,0.000383018254069611,0,
00:00:06.02,0.00331271276809275,0.0411714650690556,-0.00621668202802539,0,
00:00:06.024,-0.0198151394724846,0.0122243044897914,-0.00671919947490096,0,
00:00:06.028,-0.0228476524353027,-0.0208789687603712,0.00105031486600637,0,
00:00:06.032,-0.0167910363525152,-0.0429399199783802,0.00130904850084335,0,
00:00:06.036,0.00835166499018669,-0.00176865165121853,0.00461135990917683,0,
00:00:06.04,-0.00459868554025888,-0.00683219358325005,0.00458993762731552,0,
00:00:06.044,0.000356972217559814,0.0289904102683067,0.0100979348644614,0,
00:00:06.048,0.0760685876011848,0.0160401277244091,-0.0154700865969062,0,
00:00:06.052,0.0134616289287806,0.0137893278151751,-0.0348482802510262,0,
00:00:06.056,-0.0452174879610538,-0.00262292148545384,0.0163006670773029,0,
00:00:06.06,-0.0641719475388527,-0.0739313066005707,0.0530024506151676,0,
00:00:06.064,-0.0476524271070957,0.0302056614309549,-0.013106913305819,0,
00:00:06.068,0.0726859122514725,0.0260325111448765,-0.0365476384758949,0,
00:00:06.072,0.0408666618168354,0.00661604199558496,-0.00102021754719317,0,
00:00:06.076,0.0144143234938383,0.0135058658197522,0.0147758582606912,0,
00:00:06.08,-0.0469433106482029,-0.0573871470987797,0.0115027483552694,0,
00:00:06.084,-0.0297256428748369,-0.0161309856921434,0.00451412750408053,0,
00:00:06.088,0.0522244572639465,0.0532876066863537,-0.0210011154413223,0,
00:00:06.092,0.0421407520771027,0.0423647090792656,-0.00898986309766769,0,
00:00:06.096,-0.0227907989174128,-0.00397476693615317,0.00567587045952678,0,
00:00:06.1,-0.0587642006576061,-0.0631079152226448,0.00908150896430016,0,
00:00:06.104,-0.0356946289539337,-0.0543027780950069,0.0142590934410691,0,
00:00:06.108,0.0179601479321718,0.0336731299757957,-0.00887825712561607,0,
00:00:06.112,0.0512498654425144,0.0599375739693642,-0.0007259999983944,0,
00:00:06.116,0.00811904668807983,0.0120481057092547,0.0019921597559005,0,
00:00:06.12,0.0115692988038063,-0.0231541357934475,-0.00133070524316281,0,
00:00:06.124,0.0755408182740211,0.0122844306752086,-0.0452337190508842,0,
00:00:06.128,-0.0994540527462959,-0.0199159178882837,0.00278301234357059,0,
00:00:06.132,-0.0816228687763214,-0.0270781237632036,0.0669502094388008,0,
00:00:06.136,0.00713492324575782,0.004253841470927,0.0199934523552656,0,
00:00:06.14,0.0543492995202541,0.0247787777334452,-0.0368554592132568,0,
00:00:06.144,0.0245854333043098,-0.017158005386591,-0.0333150029182434,0,
00:00:06.148,-0.00227157911285758,-0.0323739349842072,0.0147683192044497,0,
00:00:06.152,0.0476974062621593,0.0463879257440567,-0.0166633483022451,0,
00:00:06.156,-0.00642847083508968,0.0466243326663971,0.00255993870086968,0,
00:00:06.16,-0.0416820757091045,-0.0109270736575127,0.0373458936810493,0,
00:00:06.164,-0.0379977896809578,-0.0220290441066027,-0.00339611060917377,0,
00:00:06.168,-0.0414366722106934,-0.0776577070355415,0.0197918508201838,0,
00:00:06.172,0.0654300153255463,0.0328722111880779,-0.0384876355528831,0,
00:00:06.176,0.0677822679281235,0.0534135773777962,-0.0190762188285589,0,
00:00:06.18,-0.0298391468822956,-0.0255994088947773,0.00622788676992059,0,
00:00:06.184,-0.0566590018570423,0.0138308508321643,0.000640547252260149,0,
00:00:06.188,-0.0187587942928076,-0.00537550076842308,0.0214993432164192,0,
00:00:06.192,0.0502616055309772,0.00910414662212133,0.00872871559113264,0,
00:00:06.196,-0.000459392700577155,-0.0672741755843163,-0.00127842917572707,0,
00:00:06.2,0.00721170101314783,0.0199936255812645,-0.00610911240801215,0,
00:00:06.204,0.00552088022232056,0.0564470812678337,0.00836982578039169,0,
00:00:06.208,0.00765484478324652,-0.00202004425227642,-0.00696579273790121,0,
00:00:06.212,-0.0219973959028721,-0.00264333398081362,-0.0425989106297493,0,
00:00:06.216,-0.0267269071191549,-0.0141307003796101,0.0118030766025186,0,
00:00:06.22,-0.0276523306965828,-0.0351661406457424,0.0338095761835575,0,
00:00:06.224,0.0221056416630745,0.00408382806926966,0.0171785727143288,0,
00:00:06.228,0.0698920711874962,0.0188340581953526,-0.00808527506887913,0,
00:00:06.232,0.0573506988584995,0.0178580805659294,-0.062741182744503,0,
00:00:06.236,-0.0484335497021675,0.0138697167858481,0.00537809170782566,0,
00:00:06.24,-0.115699246525764,-0.0214180387556553,0.0806199088692665,0,
00:00:06.244,-0.0436227507889271,-0.0122576979920268,0.00549636548385024,0,
00:00:06.248,0.0720609277486801,-0.0394339114427567,-0.0354974940419197,0,
00:00:06.252,0.114742130041122,0.045686136931181,-0.0536764450371265,0,
00:00:06.256,-0.0432029850780964,0.00998534820973873,0.00723454542458057,0,
00:00:06.26,-0.0301215779036283,0.00878250692039728,0.0270594526082277,0,
00:00:06.264,-0.0139325587078929,-0.00512863742187619,0.0213859397917986,0,
00:00:06.268,-0.0178234055638313,-0.0352629199624062,-0.00160522840451449,0,
00:00:06.272,0.0314697064459324,0.0382562503218651,-0.00377469370141625,0,
00:00:06.276,0.0156262423843145,-0.00301172072067857,-0.0144391478970647,0,
00:00:06.28,-0.0110776964575052,-0.0225893706083298,-0.00178765412420034,0,
00:00:06.284,-0.0120468521490693,0.00423055840656161,0.00773522257804871,0,
00:00:06.288,-0.0252522453665733,-0.0484577864408493,-0.0041181268170476,0,
00:00:06.292,0.0386154800653458,0.0479590259492397,0.0068813725374639,0,
00:00:06.296,0.0117769846692681,0.0401649177074432,0.0113619845360518,0,
00:00:06.3,-0.00704771652817726,0.00113813055213541,-0.00817140843719244,0,
00:00:06.304,-0.0337243601679802,-0.0152831338346004,-0.0130560547113419,0,
00:00:06.308,0.0310606472194195,0.00831551384180784,-0.0244678482413292,0,
00:00:06.312,0.0252622030675411,-0.0277174506336451,-0.000750673585571349,0,
00:00:06.316,-0.103571631014347,-0.136094197630882,0.0572208762168884,0,
00:00:06.32,-0.018209682777524,0.0755545794963837,0.0243642870336771,0,
00:00:06.324,0.15252597630024,0.114864118397236,-0.0507705472409725,0,
00:00:06.328,0.0166646018624306,0.0306600984185934,-0.0147426379844546,0,
00:00:06.332,-0.0751043409109116,-0.0364249460399151,0.00841347221285105,0,
00:00:06.336,-0.0254316478967667,-0.055308360606432,-0.00477366056293249,0,
00:00:06.34,-0.0349815376102924,-0.031114786863327,-0.00521452631801367,0,
00:00:06.344,-0.0172746703028679,-0.00686158519238234,0.0253170300275087,0,
00:00:06.348,0.08961071819067,0.0359092205762863,0.00680160569027066,0,
00:00:06.352,0.0917148664593697,0.0276158303022385,-0.0319960676133633,0,
00:00:06.356,-0.100253373384476,-0.0129163051024079,0.0420654639601707,0,
00:00:06.36,-0.0486427396535873,-0.0192588679492474,-0.0127503825351596,0,
00:00:06.364,0.0121171595528722,0.00744581921026111,-0.025735042989254,0,
00:00:06.368,-0.00517002353444695,0.00169172033201903,-0.000408210267778486,0,
00:00:06.372,0.0169620253145695,0.00959610659629107,0.0102888392284513,0,
00:00:06.376,0.0144861070439219,0.0228269807994366,0.00752185378223658,0,
00:00:06.38,0.00524670351296663,-0.0203908197581768,-0.00254848040640354,0,
00:00:06.384,-0.0040562036447227,-0.0287823136895895,-0.0005908845923841,0,
00:00:06.388,0.0243414081633091,-0.0172595828771591,0.00801394786685705,0,
00:00:06.392,0.00763466954231262,0.0505904443562031,-0.0145414220169187,0,
00:00:06.396,-0.0143754463642836,0.0408542342483997,-0.00730925891548395,0,
00:00:06.4,-0.0654438063502312,-0.0420392453670502,0.0098550571128726,0,
00:00:06.404,-0.0321575962007046,-0.10081896930933,0.0232918467372656,0,
00:00:06.408,0.0776970013976097,0.0685041546821594,-0.00745671382173896,0,
00:00:06.412,0.0611281208693981,0.0573260299861431,-0.0370447263121605,0,
00:00:06.416,-0.0198999438434839,0.000938537530601025,0.00459690485149622,0,
00:00:06.42,-0.0737896040081978,-0.0409350246191025,0.0313791744410992,0,
