Elapsed Time,EMG1,EMG2,EMG3,BioRadio Event,Unnamed: 5
00:00:00,0.5147934556007391,0.0705765262246132,2.25844883918762,0,
00:00:00.004,-0.489879965782166,-0.067160964012146,-2.15122652053833,0,
00:00:00.008,-0.407226651906967,-0.0558294616639614,-1.78456735610962,0,
00:00:00.012,-0.043905533850193,-0.00809508748352528,-0.19097578525543202,0,
00:00:00.016,0.208998307585716,0.0285525359213352,0.917072832584381,0,
00:00:00.02,0.25485298037529,0.042708445340394995,1.11722195148468,0,
00:00:00.024,0.15637993812561,0.0193076208233833,0.6850262880325321,0,
00:00:00.028,0.0223292335867882,-0.0011730995029211,0.0861475095152855,0,
00:00:00.032,-0.076620452105999,-0.0124580515548587,-0.323505967855453,0,
00:00:00.036,-0.105124354362488,-0.0138752358034253,-0.44491255283355696,0,
00:00:00.04,-0.0731871277093887,-0.0110130039975047,-0.330024361610413,0,
00:00:00.044,-0.0254181958734989,-0.000369635410606861,-0.123130455613136,0,
00:00:00.048,0.0147159965708852,0.00408303923904896,0.048020675778389005,0,
00:00:00.052,0.027310011908412004,0.00640611257404089,0.131734684109688,0,
00:00:00.056,0.0248144418001175,0.000535807863343507,0.122289195656776,0,
00:00:00.06,0.0133162783458829,-0.00123039307072759,0.0658082813024521,0,
00:00:00.064,0.0010047493269667,-0.0031839930452406398,9.46126019698568e-05,0,
00:00:00.068,-0.006647997070103879,-0.0005287189269438389,-0.0385223366320133,0,
00:00:00.072,-0.00831665191799402,0.00582372350618243,-0.0395437553524971,0,
00:00:00.076,-0.00575894210487604,0.000194908832781948,-0.0248703360557556,0,
00:00:00.08,-0.00181306398008019,-0.00201810128055513,-0.00619124574586749,0,
00:00:00.084,0.0012609981931746,-0.0019422924378886802,0.00725574465468526,0,
00:00:00.088,0.00251141330227256,-0.0029518196824938102,0.009937401860952379,0,
00:00:00.092,8.58259154483676e-05,7.76448141550645e-05,0.0116502027958632,0,
00:00:00.096,0.00507884146645665,0.00434168428182602,0.00790254585444927,0,
00:00:00.1,-0.000410298322094604,0.00462084030732512,-0.00260122190229595,0,
00:00:00.104,-0.00215502176433802,-0.00015747587895020802,-0.00792454555630684,0,
00:00:00.108,-0.0017718470189720399,-0.00752206752076745,-0.00264098541811109,0,
00:00:00.112,-0.000650173693429679,-0.0037711947225034202,-0.000117718744149897,0,
00:00:00.116,-0.00177637685555965,0.00539744971320033,0.00084082328248769,0,
00:00:00.12,0.00475928978994489,0.00383389135822654,0.00299202813766897,0,
00:00:00.124,0.00236630765721202,-0.00197206437587738,-0.00346722197718918,0,
00:00:00.128,-0.00314697274006903,-0.00222943909466267,0.000515160150825977,0,
00:00:00.132,-0.00269514136016369,-0.0007213818607851861,0.001368373981677,0,
00:00:00.136,-0.0005756576429121201,-0.00149517750833184,0.000823050155304372,0,
00:00:00.14,-0.00106499588582665,0.0009327570442110301,2.53283287747763e-05,0,
00:00:00.144,0.00341165484860539,0.0023178076371550603,-0.00046116564772091795,0,
00:00:00.148,0.0047028320841491205,0.008182292804121971,-0.0026032798923552,0,
00:00:00.152,-0.00155933212954551,-0.00318786478601396,0.0016556007321924,0,
00:00:00.156,-0.0028187425341457103,-0.00745463743805885,0.0015944985207170198,0,
00:00:00.16,-0.00174728746060282,-0.00122595566790551,0.000316497258609161,0,
00:00:00.164,-0.000226971373194829,0.00141950068064034,-0.000650203262921423,0,
00:00:00.168,0.00075303902849555,0.00182839902117848,-0.0008852044702507561,0,
00:00:00.172,0.0009645803947933019,0.00115326268132776,-0.000578037928789854,0,
00:00:00.176,0.000641397724393755,0.000266927032498643,-0.00010411468974780301,0,
00:00:00.18,-0.00191939889919013,-0.00240937899798155,0.000244353781454265,0,
00:00:00.184,0.00176990125328302,0.00353773194365203,0.000356574368197471,0,
00:00:00.188,0.0033838574308902,-0.000713455840013921,0.000275010796030983,0,
00:00:00.192,-0.00206613657064736,-0.00159440736752003,0.000111499262857251,0,
00:00:00.196,-0.0025996749754995103,-0.00301817152649164,-3.1295046937884804e-05,0,
00:00:00.2,-0.00118095683865249,0.00195740163326263,-0.000101236873888411,0,
00:00:00.204,0.00030676167807541804,0.00218743761070073,-0.0021744866389781198,0,
00:00:00.208,0.00104141887277365,0.00287559628486633,0.00192042044363916,0,
00:00:00.212,0.00306232739239931,-0.00243678991682827,0.00163628731388599,0,
00:00:00.216,-0.00147702253889292,-0.00468239421024919,0.00227824551984668,0,
00:00:00.22,-0.00373966339975595,0.00101015064865351,-0.00278533226810396,0,
00:00:00.224,0.00147056381683797,0.000104731596366037,-0.0026467465795576603,0,
00:00:00.228,0.00211368361487985,0.0012385762529447699,-0.000800254172645509,0,
00:00:00.232,0.00304118869826198,0.0120542841032147,-0.0013196332147344901,0,
00:00:00.236,-0.00224766740575433,-0.00670124776661396,0.0032939608208835103,0,
00:00:00.24,-0.0025178026407957103,-0.0121393110603094,0.00267284922301769,0,
00:00:00.244,-0.0030680764466524102,0.0008963755681179461,0.0005569051718339321,0,
00:00:00.248,0.0044966097921133,0.00490882107988,-0.00103095662780106,0,
00:00:00.252,0.000732837419491261,0.00393997458741069,-0.00147991348057985,0,
00:00:00.256,-0.000546571100130677,-0.0007462792564183469,-0.00104886386543512,0,
00:00:00.26,-0.00062276900280267,0.0011648994404822599,-0.000302799453493208,0,
00:00:00.264,-0.000287725531961769,0.00204549753107131,0.000289343064650893,0,
00:00:00.268,3.3471911592641805e-05,-0.00320980558171868,-0.0015511964447796301,0,
00:00:00.272,0.000183185911737382,-0.00310524366796017,0.00241816183552146,0,
00:00:00.276,0.00017046771245077298,-0.00315346731804311,0.00184924865607172,0,
00:00:00.28,7.58736932766624e-05,0.0027061537839472303,0.00015821667329873898,0,
00:00:00.284,-1.96213240997167e-05,0.00311694596894085,-0.0009855002863332631,0,
00:00:00.288,-7.0676593168173e-05,-0.000657917640637606,-0.0011815942125394901,0,
00:00:00.292,-0.00214749597944319,-0.000404207792598754,-0.000725006626453251,0,
00:00:00.296,0.0019332472002133699,0.000390461238566786,-0.000100785648101009,0,
00:00:00.3,0.0037110054399818204,0.0109979603439569,0.000334102805936709,0,
00:00:00.304,0.000294217868940905,-0.00332997110672295,0.00045831908937543603,0,
00:00:00.308,-0.00443676905706525,-0.0142635656520724,-0.00173569668550044,0,
00:00:00.312,-0.00282951397821307,-0.00622737500816584,0.00210250890813768,0,
00:00:00.316,4.13755151384976e-05,0.00323324580676854,0.0036666027735918795,0,
00:00:00.32,0.0017858634237200002,0.00944634340703487,-0.00193171040154994,0,
00:00:00.324,-0.000123519304906949,0.00417324621230364,-0.004684797953814271,0,
00:00:00.328,0.00101433217059821,0.000727501872461289,0.0007050765561871231,0,
00:00:00.332,0.00784869212657213,0.00284520769491792,0.00185106135904789,0,
00:00:00.336,-0.00272901076823473,-0.0017934995703399199,0.0011576802935451302,0,
00:00:00.34,-0.00470532244071364,-0.0047428081743419205,0.000130705841002055,0,
00:00:00.344,-0.00483188312500715,-0.00635727681219578,-0.0005089623737148941,0,
00:00:00.348,0.00390290189534426,-0.0039891623891890006,-0.00269700190983713,0,
00:00:00.352,-0.0009587562526576221,0.0021383471321314604,0.0036658197641372702,0,
00:00:00.356,0.0022171805612742897,0.00530193094164133,-0.000393777125282213,0,
00:00:00.36,0.00169441802427173,0.010865262709558001,-0.0012983677443116901,0,
00:00:00.364,0.000198939684196375,-0.0019164870027452699,-0.000786669610533863,0,
00:00:00.368,-0.000852187338750809,-0.00761566450819373,-0.00208669970743358,0,
00:00:00.372,0.000997580122202635,-0.000115316062874626,0.00243778945878148,0,
00:00:00.376,-0.0026818192563951,-0.00159475230611861,0.00424069818109274,0,
00:00:00.38,-0.00387217639945447,-0.00460917223244905,-0.00148394925054163,0,
00:00:00.384,0.0020519129466265397,0.002711514942348,-0.00451640971004963,0,
00:00:00.388,0.00287778303027153,0.0107349688187242,0.000630367721896619,0,
00:00:00.392,0.00359061034396291,-0.000931435613892972,0.00166264176368713,0,
00:00:00.396,-0.00205722148530185,-0.004420463927090171,0.000982112367637455,0,
00:00:00.4,-0.00261830212548375,-0.00344849633984268,0.00211325334385037,0,
00:00:00.404,-0.0012196468887850599,0.00101106404326856,-0.00456527294591069,0,
00:00:00.408,0.00024156614381354302,-0.0011409861035645,-0.00023945591237861698,0,
00:00:00.412,0.000963383179623634,-0.0021639456972479803,0.00113880296703428,0,
00:00:00.416,0.00091895560035482,0.00098981405608356,0.0030749780125916,0,
00:00:00.42,0.000457653630292043,0.00706294365227222,-0.0016122030792757901,0,
00:00:00.424,-3.30838702211622e-05,-0.00135291833430529,-0.0038917427882552104,0,
00:00:00.428,-0.000318500096909702,-0.000189860336831771,0.00140509358607233,0,
00:00:00.432,-0.000354402814991772,0.00127152749337256,0.0021522359456867,0,
00:00:00.436,-0.000225498355575837,-0.00318591832183301,0.0010637684026733,0,
00:00:00.44,-5.4026371799409396e-05,-0.00468674208968878,-0.000173070424352773,0,
00:00:00.444,6.92936591804028e-05,0.00351471523754299,-0.000814778264611959,0,
00:00:00.448,0.0021874548401683604,0.0027923742309212698,-0.000801302085164934,0,
00:00:00.452,-0.00396255077794194,-0.0040010376833379295,-0.000416231283452362,0,
00:00:00.456,0.000370319205103442,-0.00166833377443254,8.49560365168145e-06,0,
00:00:00.46,0.0014560378622263698,0.0035979133099317603,0.000264330912614241,0,
00:00:00.464,0.000987767823971808,0.00486860750243068,0.000305647030472755,0,
00:00:00.468,0.0022289531771093603,-0.00365960621275008,-0.00187507818918675,0,
00:00:00.472,-0.00446610199287534,-0.00304951216094196,0.00202920730225742,0,
00:00:00.476,-0.000217778069782071,0.0017534428043291,0.0036628937814384703,0,
00:00:00.48,0.00316611980088055,0.00777954747900367,-0.0018932557431981,0,
00:00:00.484,-0.0010529627325013302,-0.00788006000220776,-0.00463819690048695,0,
00:00:00.488,-0.00341893685981631,-0.00586263090372086,0.000736459449399263,0,
00:00:00.492,0.0015935346018523,0.00213319365866482,0.0018600933253765102,0,
00:00:00.496,1.7220558220287802e-05,0.00174990273080766,0.00114977965131402,0,
00:00:00.5,0.00286698690615594,0.00440922100096941,0.00011630597873590902,0,
00:00:00.504,0.0033864986617118103,0.00617419229820371,-0.000520973175298423,0,
00:00:00.508,-0.00061563216149807,-0.00684004230424762,-0.000626674329396337,0,
00:00:00.512,-0.007333065383136271,-0.00348110543563962,-0.00246033701114357,0,
00:00:00.516,-0.0012360471300780801,-0.000661360681988299,0.003994632046669721,0,
00:00:00.52,0.00381905096583068,0.00304333749227226,-0.000162414347869344,0,
00:00:00.524,-0.00178449810482562,-0.00059835275169462,-0.0033051511272788,0,
00:00:00.528,0.00176393962465227,-0.004814139101654289,0.0011299767065793302,0,
00:00:00.532,0.00174773053731769,0.00201221625320613,0.00152158341370523,0,
00:00:00.536,0.0005078655667603019,0.0100437235087156,0.000546713126823306,0,
00:00:00.54,-0.000563474895898253,-0.00135100202169269,-0.000363182509317994,0,
00:00:00.544,-0.000954381248448044,-0.00660272501409054,-0.000709118030499667,0,
00:00:00.548,-0.0007499178173020481,-0.00136731122620404,-0.000556242477614433,0,
00:00:00.552,-0.000286123598925769,0.000753028376493603,-0.0022653010673821,0,
00:00:00.556,0.00012254643661435702,0.00114823842886835,0.004180349875241521,0,
00:00:00.56,0.000316909747198224,0.0028405215125531,-6.132181442808361e-05,0,
00:00:00.564,0.00237410725094378,-0.00175439100712538,-0.00329679646529257,0,
00:00:00.568,-0.00389012810774148,-0.0038744895718991795,0.00108052999712527,0,
00:00:00.572,0.000345389620633796,0.00151762401219457,0.00145955290645361,0,
00:00:00.576,0.00138502288609743,0.00019480571791064,0.000503945630043745,0,
00:00:00.58,0.000920304039027542,0.0031064844224602,-0.000376329728169367,0,
00:00:00.584,0.000116732400783803,0.0014748222893104,-0.000699304044246674,0,
00:00:00.588,-0.000417672621551901,-0.000672098074574023,-0.0026130001060664697,0,
00:00:00.592,0.00154292746447027,0.000387736654374748,0.00180203653872013,0,
00:00:00.596,-0.0023274018894881,-0.00345034571364522,0.00385470106266439,0,
00:00:00.6,-0.00172401545569301,-0.0022745409514755,-0.0015270058065652802,0,
00:00:00.604,-5.8421570429345606e-05,-0.00206403806805611,-0.00432181777432561,0,
00:00:00.608,-0.0010444094659760599,-0.000713714340236038,0.000889966962859035,0,
00:00:00.612,0.0031531120184809,0.009317319840192791,0.0018531457753852,0,
00:00:00.616,0.00441214581951499,0.00662990706041455,0.0010521402582526198,0,
00:00:00.62,-0.00173059373628348,-0.0038664820604026296,7.5470620686246505e-06,0,
00:00:00.624,-0.00283917761407793,-0.0106709450483322,-0.000589573464822024,0,
00:00:00.628,-0.00166711886413395,-0.00454914616420865,-0.000642366358079016,0,
00:00:00.632,-0.00012084139598300701,0.00228526489809155,-0.00036259353510104104,0,
00:00:00.636,0.0008293443243019281,0.00729522481560707,-2.1933276002528102e-05,0,
00:00:00.64,-0.0010849469108507,0.0044286972843110605,0.00019791387603618202,0,
00:00:00.644,0.00467822188511491,0.0021741581149399302,0.000246681738644838,0,
00:00:00.648,-0.000208768818993121,-0.00659914594143629,0.000171371837495826,0,
00:00:00.652,-0.00169891829136759,-0.00463854195550084,5.4446209105663e-05,0,
00:00:00.656,-0.00136803346686065,0.00169484107755125,-3.71506066585425e-05,0,
00:00:00.66,-0.000452610227512196,0.00241361418738961,-7.47724188840948e-05,0,
00:00:00.664,0.000290689116809517,0.00321366009302437,-6.47054621367715e-05,0,
00:00:00.668,0.000582367822062224,-0.00422871671617031,-0.0021068453788757303,0,
00:00:00.672,0.00048353555030189503,-0.000460945331724361,0.00197724928148091,0,
00:00:00.676,0.000204921903787181,0.00281352223828435,0.0016624233685433901,0,
00:00:00.68,0.0020223620813339897,0.000804493203759193,0.00019945042731706102,0,
00:00:00.684,-0.00216051517054439,-0.00333780725486577,-0.000828764459583908,0,
00:00:00.688,-0.0018263391684740801,-0.00398096162825823,-0.0010246009333059198,0,
00:00:00.692,-0.00235802540555596,0.000327704357914627,-0.0006352320197038349,0,
00:00:00.696,0.00280411820858717,0.0032099965028464803,-8.883304690243679e-05,0,
00:00:00.7,0.00271507701836526,0.007448000833392141,0.000295439647743478,0,
00:00:00.704,0.0008682252373546361,0.00182182737626135,0.000406677718274295,0,
00:00:00.708,0.00135821918956935,-0.00751732289791107,-0.0017727386439219102,0,
00:00:00.712,-0.0032891188748180897,-0.000894262688234448,0.00208991905674338,0,
00:00:00.716,-0.0047655925154686,-0.00207225256599486,0.0015979420859366699,0,
00:00:00.72,0.0013959922362119,-0.00249216589145362,5.920012335991489e-05,0,
00:00:00.724,0.00265701510943472,0.00107766455039382,-0.0009531299583613869,0,
00:00:00.728,0.00372738065198064,0.00944542232900858,-0.00108632876072079,0,
00:00:00.732,-0.00384180760011077,-0.00299598556011915,-0.000633866817224771,0,
00:00:00.736,-0.00038476649206131697,-0.0036800084635615297,-5.1187518693041104e-05,0,
00:00:00.74,0.000551087083294988,0.00107686163391918,0.000338116398779675,0,
00:00:00.744,0.00041647319449111803,0.0053956662304699395,-0.0016418219311162801,0,
00:00:00.748,0.00211873254738748,-0.00379466474987566,0.0022849189117550898,0,
00:00:00.752,-0.00424831407144666,-0.0060045686550438395,0.0038240374997258204,0,
00:00:00.756,0.000103500358818565,-0.00123078527394682,-0.00185590260662138,0,
00:00:00.76,0.0013363141333684301,0.0048583913594484295,-0.00261333119124174,0,
00:00:00.764,0.0010194063652306802,0.00386865739710629,-0.0033953194506466397,0,
00:00:00.768,0.00026734644779935495,0.0008798723574727769,0.0021298963110894,0,
00:00:00.772,0.00177783984690905,-0.00135944108478725,0.00258859153836966,0,
00:00:00.776,-0.0045321392826736,-0.00201797275803983,0.00114291696809232,0,
00:00:00.78,-2.8385155019350397e-05,-0.00145078625064343,-0.000312871503410861,0,
00:00:00.784,0.0013418142916634698,-0.000434653513366356,-0.0010009410325437802,0,
00:00:00.788,0.00109639053698629,-0.0037697951775044203,-0.0029964640270918603,0,
00:00:00.792,0.000349092268152162,0.008815323933959009,0.0036133935209363703,0,
00:00:00.796,0.00182516942732036,0.00201779138296843,-0.00027615486760623796,0,
00:00:00.8,-0.00452623656019568,-0.00461620790883899,-0.00113039999268949,0,
00:00:00.804,0.0020261388272047,-0.00370250479318202,-0.0006608273833990099,0,
00:00:00.808,-0.000661652244161814,-0.00281569408252835,-0.00203934963792562,0,
00:00:00.812,-0.00264154747128487,0.0034012966789305197,0.00241894251666963,0,
00:00:00.816,0.00214059930294752,0.0036366423591971397,0.0041912295855581795,0,
00:00:00.82,0.0022381111048162,0.00154503679368645,-0.00360587099567056,0,
00:00:00.824,0.00281384447589517,-0.000500986876431853,-0.00048969459021464,0,
00:00:00.828,-0.00256286421790719,0.000601503765210509,0.00029589168843813197,0,
00:00:00.832,-0.00481138564646244,-0.00541826942935586,0.00021051363728474799,0,
00:00:00.836,0.0009231374133378269,-0.00242314115166664,-2.20870606426615e-05,0,
00:00:00.84,0.00214933487586677,0.0034765722230076803,-0.00013696319365408301,0,
00:00:00.844,0.0013511044671759,0.00311406282708049,-0.0021899042185396,0,
00:00:00.848,0.000164847791893408,0.000869028503075242,0.00194880575872958,0,
00:00:00.852,0.0014851747546345,0.00115974748041481,0.0016936614410951699,0,
00:00:00.856,-0.00271459738723934,-0.00347351329401135,0.000260351545875892,0,
00:00:00.86,-0.00211753253825009,-0.00275389337912202,-0.000772866769693792,0,
00:00:00.864,-0.00234904349781573,-0.0026021557860076397,-0.0009940798627212641,0,
00:00:00.868,0.00299603352323174,0.00309864664450288,-0.000632126408163458,0,
00:00:00.872,0.00501255365088582,0.00321516394615173,-0.00010296759137418101,0,
00:00:00.876,-0.00303685013204813,0.00335704651661217,0.000277286802884191,0,
00:00:00.88,-0.000344497937476262,-0.0025052665732801,0.000393937312765047,0,
00:00:00.884,0.000111942346848082,-0.00505553558468819,-0.00177687080577016,0,
00:00:00.888,-9.663629316492009e-05,0.0006133031565696,0.00209257774986327,0,
00:00:00.892,-0.00027377755031921,-0.000137898692628369,0.0016034202417358802,0,
00:00:00.896,-0.00024986933567561204,0.00326531776227057,6.39694335404783e-05,0,
00:00:00.9,-9.79442556854337e-05,0.00393667025491595,-0.000950825691688806,0,
00:00:00.904,5.808784771943461e-05,-0.0043661575764417605,-0.00108645658474416,0,
00:00:00.908,0.000139922645757906,-0.0053179254755377795,-0.0006353622884489599,0,
00:00:00.912,0.00013589896843768702,0.0101774446666241,-5.28404489159584e-05,0,
00:00:00.916,0.0021547949872911,0.00179790670517832,0.000337081408360973,0,
00:00:00.92,-0.00196193344891071,-0.0103447493165731,0.00043372914660722,0,
00:00:00.924,-0.00167223799508065,-0.0054590841755271,0.000309937371639535,0,
00:00:00.928,-0.000219620109419338,0.00378547282889485,-0.00196903804317117,0,
00:00:00.932,-0.0012645850656554099,0.00325037119910121,0.00191811413969845,0,
00:00:00.936,0.00506716640666127,0.00507993204519153,0.00151365529745817,0,
00:00:00.94,0.000302335334708914,0.00394842261448503,0.00213790195994079,0,
00:00:00.944,-0.00137075514066964,-0.0054508107714355,-0.00287580769509077,0,
00:00:00.948,-0.0033849696628749397,-0.00451193144544959,-0.00474502146244049,0,
00:00:00.952,0.0034633136820048102,0.0032174829393625303,0.0012019636342302,0,
00:00:00.956,-0.000238402048125863,-0.00026307665393687796,0.00244240229949355,0,
00:00:00.96,-0.0010319373104721301,-0.000974228605628014,0.00153101852629334,0,
00:00:00.964,-0.00267071928828955,-0.000475232285680249,0.000203041432541795,0,
00:00:00.968,0.00201467238366604,-0.0018844453152269101,-0.000651141162961721,0,
00:00:00.972,0.00204236176796258,0.0025148943532258303,-0.000831440149340779,0,
00:00:00.976,0.000594957149587572,0.0021513479296118,-0.0005465932772494849,0,
00:00:00.98,-0.000614842865616083,0.00251458771526814,-0.000124519923701882,0,
00:00:00.984,-0.00102249253541231,-0.00282289413735271,0.00018683240341488302,0,
00:00:00.988,0.00131029880139977,-0.000758476497139782,0.00029385372181423,0,
00:00:00.992,-0.00221954029984772,-0.00712495017796755,0.000232369697187096,0,
00:00:00.996,-0.0035273013636469798,0.0008686100482009349,9.735134517541159e-05,0,
00:00:01,0.0021740437950938897,0.008452807553112509,-2.3240461814566502e-05,0,
00:00:01.004,0.0028132961597293602,0.00193680508527905,-8.37854895507917e-05,0,
00:00:01.008,0.00344254751689732,-0.00167994434013963,-8.324884402100001e-05,0,
00:00:01.012,-0.0042673749849200205,-0.0046604941599071,-4.72151623398531e-05,0,
00:00:01.016,-0.0007120689260773361,0.00225304695777595,-5.88557304581627e-06,0,
00:00:01.02,0.0024967824574559897,0.00332614639773965,2.07999364647549e-05,0,
00:00:01.024,-0.0015179669717326801,-0.00698904925957322,2.7465684979688397e-05,0,
00:00:01.028,-0.0035515951458364703,-0.0056111318990588206,1.9563765818020302e-05,0,
00:00:01.032,0.00171960878651589,0.005760123953223229,6.53813231110689e-06,0,
00:00:01.036,0.00439565908163786,0.007923891767859459,-3.8882840271981e-06,0,
00:00:01.04,-0.00296946777962148,7.651421765331179e-05,0.00206746417097747,0,
00:00:01.044,8.93416290637106e-05,-0.007115770131349559,-0.0040584355592727705,0,
00:00:01.048,0.0005619110888801519,0.00110354227945209,0.000329670903738588,0,
00:00:01.052,0.00015999369497876598,0.00607953872531652,0.0014651243109256,0,
00:00:01.056,0.00182951660826802,-0.0013842702610418198,0.00102202233392745,0,
00:00:01.06,-0.00234654429368675,-0.00600493559613824,0.000187425830517896,0,
00:00:01.064,-0.00189769477583468,-0.00513939140364528,-0.000395463372115046,0,
00:00:01.068,-0.00230653770267963,0.000724414305295795,-0.0005485208239406349,0,
00:00:01.072,0.00292084435932338,0.0064333244226872895,-0.000383159756893292,0,
00:00:01.076,0.00282801408320665,0.0044616824015975,-0.0001087114069378,0,
00:00:01.08,0.000934262468945235,0.00268561253324151,0.00010590448073344301,0,
00:00:01.084,-0.000705745071172714,-0.00400530826300383,0.00018958741566166298,0,
00:00:01.088,-0.00133822346106172,-0.00635536294430494,0.000158691153046675,0,
00:00:01.092,-0.0010827697115019,2.3999566110433103e-05,7.30618703528307e-05,0,
00:00:01.096,-0.00042844671406783196,0.00411526067182422,-8.2203077909071e-06,0,
00:00:01.1,0.0022382352035492698,-0.000211351609323174,-5.220144885242921e-05,0,
00:00:01.104,-0.00152442744001746,-0.0030051430221647,-0.00213129934854805,0,
00:00:01.108,-0.00328607321716845,0.00160188891459256,0.00194168835878372,0,
00:00:01.112,0.0020357554312795396,0.00188152049668133,0.00163563946262002,0,
00:00:01.116,0.00250742910429835,0.000656027812510729,0.00226508197374642,0,
00:00:01.12,0.00109214230906218,-0.00047245214227587,-0.0048759290948510205,0,
00:00:01.124,-0.000355439347913489,-0.0009147921809926631,-0.000680838245898485,0,
00:00:01.128,0.0010300510330125698,-0.000738157716114074,0.000839580316096544,0,
00:00:01.132,-0.00293838977813721,-0.000283239089185372,0.0009361402480863029,0,
00:00:01.136,-0.00418648030608892,0.00220156577415764,0.00048060875269584407,0,
00:00:01.14,0.0039164163172245,0.00042267833487130696,6.8813337747997105e-06,0,
00:00:01.144,-0.00123224384151399,-0.00746497698128223,-0.0023249457590282,0,
00:00:01.148,0.0019043972715735399,0.000220645553781651,0.0017050348687917,0,
00:00:01.152,0.00148300698492676,0.00593855464830995,0.0014893942279741198,0,
00:00:01.156,0.00012619886547326998,0.00586156826466322,0.000166302022989839,0,
00:00:01.16,0.00125524355098605,-0.00192666205111891,-0.000762254814617336,0,
00:00:01.164,-0.0050547248683869795,-0.00597325060516596,-0.000926850130781531,0,
00:00:01.168,0.0017679561860859398,-0.000731184845790267,-0.000560648390091956,0,
00:00:01.172,-0.000633731833659112,0.0030727791599929302,-5.968741606920961e-05,0,
00:00:01.176,-0.000371520407497883,-0.0009306147694587711,0.000285500340396538,0,
00:00:01.18,-0.00169645284768194,-0.0031996541656553698,0.00037812348455190697,0,
00:00:01.184,0.0027079326100647397,0.00181194569449872,0.000275840575341135,0,
00:00:01.188,0.00223683635704219,-0.00190701789688319,-0.00197592540644109,0,
00:00:01.192,0.00039182213367894303,0.0069817048497498,0.00193008896894753,0,
00:00:01.196,0.0011007983703166199,0.0030464397277683,0.00360729335807264,0,
00:00:01.2,-0.00330051477067173,-0.00419765803962946,-0.0018995746504515399,0,
00:00:01.204,-0.00254882383160293,-0.0043439082801342,-0.004613011144101621,0,
00:00:01.208,-0.000408223684644327,-0.00385411316528916,0.0007692361832596361,0,
00:00:01.212,0.00113077519927174,0.00264756917022169,0.0018832233035937,0,
00:00:01.216,-0.000567332957871258,0.00552406115457416,0.00115732988342643,0,
00:00:01.22,0.00299879279918969,-0.00223173922859132,0.000111500601633452,0,
00:00:01.224,0.0018987973453477,0.000288135634036735,-0.000530940596945584,0,
00:00:01.228,0.0019251077901572,0.000371094211004674,-0.000635379226878285,0,
00:00:01.232,-0.0033600542228668898,-0.000168371057952754,-0.00246456451714039,0,
00:00:01.236,-0.00518598314374685,-0.000509040604811162,0.00399483926594257,0,
00:00:01.24,0.0009733649203553801,-0.00048019582754932306,-0.00223548291251063,0,
00:00:01.244,0.00243542483076453,-0.004378253594040871,0.0007489630370400849,0,
00:00:01.248,0.00165649608243257,0.0039945826865732705,0.0007985907141119241,0,
00:00:01.252,0.00035212122020311697,0.009710255078971391,5.7005101552931605e-05,0,
00:00:01.256,0.00152355316095054,-0.0032838953193277103,-0.000473675347166136,0,
00:00:01.26,-0.00485540274530649,-0.0105299726128578,-0.0005490400944836441,0,
00:00:01.264,-0.00023977662203833501,-0.00429806811735034,-0.000312798394588754,0,
00:00:01.268,0.00336983636952937,0.00674170674756169,-0.00208342960104346,0,
00:00:01.272,-0.000806871161330491,0.00561603391543031,0.004244323819875721,0,
00:00:01.276,-0.0011802155058831,-0.00288931070826948,-9.58450473262928e-05,0,
00:00:01.28,-0.00241475482471287,-0.00211790692992508,-0.00129931315314025,0,
00:00:01.284,0.00237960135564208,0.000338078796630725,-0.0009654840105213221,0,
00:00:01.288,0.00227728649042547,0.0036687939427793,-0.0022943050134927,0,
00:00:01.292,0.000623857136815786,0.0035400220658630102,0.00437767803668976,0,
00:00:01.296,-0.000736496003810316,-0.00103813502937555,0.000153813831275329,0,
00:00:01.3,-0.00118915329221636,-0.00789615977555513,-0.00111257459502667,0,
00:00:01.304,-0.0008911318727768961,-0.0036725676618516397,-0.00298645789735019,0,
00:00:01.308,-0.000293638411676511,0.0036659552715718703,0.00170291273389012,0,
00:00:01.312,0.000206327662453987,0.00200449745170772,0.00187053659465164,0,
00:00:01.316,0.000422790879383683,0.00382342678494751,0.00265653780661523,0,
00:00:01.32,0.000373621849576011,0.00334047013893723,-0.00250514270737767,0,
00:00:01.324,0.00226252060383558,-0.00118944677524269,-0.00463339360430837,0,
00:00:01.328,-0.0040530767291784295,-0.007937018759548659,0.0011067434679716802,0,
00:00:01.332,0.00022196328791323998,-0.00157829839736223,0.00226348778232932,0,
00:00:01.336,0.00133753509726375,0.0017116439994424599,0.00137843890115619,0,
00:00:01.34,0.0009375517838634551,0.00243517616763711,0.000130816901219077,0,
00:00:01.344,0.00016440823674202,0.00164594955276698,-0.000645517779048532,0,
00:00:01.348,-0.000372683745808899,-0.00371798756532371,-0.000782723946031183,0,
00:00:01.352,-0.000508757773786783,0.0034872752148658,-0.000493579893372953,0,
00:00:01.356,-0.000350551214069128,0.0045793452300131295,-9.174180013360458e-05,0,
00:00:01.36,-9.42966362345032e-05,0.00190743210259825,0.000193712621694431,0,
00:00:01.364,0.000103486265288666,-0.0096119474619627,-0.0017931383335962898,0,
00:00:01.368,0.000178363232407719,-0.00554783130064607,0.0021907195914536697,0,
00:00:01.372,-0.00192864192649722,0.0030768783763051,0.00172634515911341,0,
00:00:01.376,0.0041173817589879,0.00459707388654351,0.00222442927770317,0,
00:00:01.38,-0.00034257920924574104,0.00482609588652849,-0.00290015968494117,0,
00:00:01.384,-0.00151448627002537,-0.00167039933148772,-0.00482374895364046,0,
00:00:01.388,-0.00107151933480054,-0.00289116334170103,0.0011252457043156,0,
00:00:01.392,-0.000215763167943805,-0.0038265020120888896,0.00239980430342257,0,
00:00:01.396,0.000391657260479406,0.0017715643625706397,0.0036024465225637,0,
00:00:01.4,-0.00151509279385209,0.000331138173351064,-0.00175239983946085,0,
00:00:01.404,0.00237475940957665,0.0010295016691088698,-0.0043434519320726395,0,
00:00:01.408,0.0038382220081985,0.00546474009752274,0.0009846898028627038,0,
00:00:01.412,0.000175574125023559,0.0051720803603529895,0.0019438816234469399,0,
00:00:01.416,-0.00465192226693034,-0.00908739864826202,0.00107629597187042,0,
00:00:01.42,-0.00508609646931291,-0.0115454997867346,-3.31243609252851e-05,0,
00:00:01.424,-0.000142753589898348,0.0026418778579682103,-0.00273463246412575,0,
00:00:01.428,0.0074878940358758,0.00850563962012529,0.00127290596719831,0,
00:00:01.432,0.00393097009509802,0.00264433049596846,0.00332481623627245,0,
00:00:01.436,-0.0051808729767799395,-0.000434161745943129,-0.0018207671819254802,0,
00:00:01.44,-0.00159595301374793,-0.0036039163824170798,-0.0022698389366269103,0,
00:00:01.444,-0.00201624678447843,-0.00148205005098134,-0.00301377149298787,0,
00:00:01.448,0.004616877995431421,0.00291390507481992,0.00237204716540873,0,
00:00:01.452,0.000149488361785188,0.00385998981073499,0.00264601805247366,0,
00:00:01.456,-0.00126140518113971,-0.0022966139949858197,0.00314364628866315,0,
00:00:01.46,-0.0010570305166766,-0.00518697407096624,-0.00240846863016486,0,
00:00:01.464,-0.0024087461642921,0.000392965011997148,-0.00481386110186577,0,
00:00:01.468,0.0022334414534270802,-0.000250126729952171,0.000838039850350469,0,
00:00:01.472,0.0021230645943433,0.0033109278883785,0.0020569572225213103,0,
00:00:01.476,0.0005656253197230401,0.00408170418813825,0.00129634246695787,0,
00:00:01.48,0.00138889357913285,-0.0021360919345170303,0.000156555499415845,0,
00:00:01.484,-0.00305702839978039,-0.00304230605252087,-0.000567805545870215,0,
00:00:01.488,-0.0024297051131725303,0.00046008315985091,-0.0007079830975271759,0,
00:00:01.492,-0.0024859206750989,-0.00604203809052706,-0.00045266086817719004,0,
00:00:01.496,0.00303535698913038,0.00335902464576066,-8.816430636215959e-05,0,
00:00:01.5,0.0030702564399689397,0.00631466973572969,0.000173923748661764,0,
00:00:01.504,0.00322504248470068,0.00403599813580513,0.000257692037848756,0,
00:00:01.508,-0.0025736009702086397,-0.00616643531247973,0.00019814822007902,0,
00:00:01.512,-0.00298165529966354,-0.00933886785060167,7.89667683420703e-05,0,
00:00:01.516,-0.00132425734773278,0.00285708857700229,-2.44652583205607e-05,0,
00:00:01.52,-0.00173517654184252,0.00524163106456399,-7.44483550079167e-05,0,
00:00:01.524,0.00311793852597475,0.00313124223612249,-7.17454095138237e-05,0,
00:00:01.528,0.00271172798238695,-0.00185047090053558,-3.93860282201786e-05,0,
00:00:01.532,0.000704602687619627,-0.00168097438290715,-3.56824034497549e-06,0,
00:00:01.536,-0.000883027852978557,0.00380043941549957,1.8898388589150303e-05,0,
00:00:01.54,-0.00139532494358718,0.0027932492084801197,2.39135806623381e-05,0,
00:00:01.544,0.0010381785687059199,-0.00650106789544225,-0.00205920799635351,0,
00:00:01.548,-0.0043903295882046205,-0.0069632343947887395,0.0019804816693067603,0,
00:00:01.552,0.0005739675252698361,-0.00268055498600006,0.00163831131067127,0,
00:00:01.556,-0.000121091172331944,0.006030997261404989,0.0022454899735748803,0,
00:00:01.56,0.00550185469910502,0.0126986252143979,-0.0028243416454643,0,
00:00:01.564,0.00214131246320903,0.00126886670477688,-0.00474843010306358,0,
00:00:01.568,-0.00591731071472168,-0.00948979705572128,0.00116795906797051,0,
00:00:01.572,-0.0013651119079440802,-0.004330965690314771,0.00240512657910585,0,
00:00:01.576,0.000749970553442836,0.00169995171017945,0.0035836286842823,0,
00:00:01.58,0.00121434929315001,-0.00236073881387711,-0.00177724612876773,0,
00:00:01.584,0.000817259307950735,0.0023489096201956302,-0.00228536874055862,0,
00:00:01.588,0.00020406475232448402,0.000680984929203987,-0.000996545772068203,0,
00:00:01.592,-0.00023581254936289,0.00537665048614144,0.000305357039906085,0,
00:00:01.596,-0.000379330740543082,-0.0005466591101139781,0.0009067805949598551,0,
00:00:01.6,-0.000290651863906533,-0.00249576871283352,0.0008162442827597259,0,
00:00:01.604,-0.0021838846150785698,-0.00621559703722596,0.0003720446547959,0,
00:00:01.608,0.00202344870194793,0.00318362377583981,-0.00214774091728032,0,
00:00:01.612,0.00176226254552603,0.0077851926907897,0.0016619482776150099,0,
00:00:01.616,0.0023641255684196897,-0.000678430194966495,0.00339206447824836,0,
00:00:01.62,-0.00275958422571421,-0.0061915414407849294,-0.00406947452574968,0,
00:00:01.624,-0.0026671760715544198,-0.00576097518205643,-0.0005454763304442169,0,
00:00:01.628,-0.000838916632346809,0.000122529207146727,0.000509869598317891,0,
00:00:01.632,-0.0013523648958653199,0.00403051637113094,0.00049405568279326,0,
00:00:01.636,0.00327874580398202,0.00641388632357121,0.000182019372005016,0,
00:00:01.64,0.0047501870431006,0.0065693068318069,-6.63260216242634e-05,0,
00:00:01.644,-0.00348350312560797,-0.00559786660596728,-0.000151673622895032,0,
00:00:01.648,-0.000686235260218382,-0.0107750380411744,-0.000111167530121747,0,
00:00:01.652,-0.0020837252959609,-0.00123861979227513,-2.4229279006249302e-05,0,
00:00:01.656,0.00402336567640305,0.00998730305582285,0.00212095398455858,0,
00:00:01.66,0.0016220898833125802,0.00466662459075451,-0.00190517259761691,0,
00:00:01.664,-0.00562752317637205,-0.0083856638520956,-0.00158586842007935,0,
00:00:01.668,-0.000713603454641998,-0.005339826457202429,-0.00222841557115316,0,
00:00:01.672,0.00133921846281737,0.0006154010188765821,0.0048893028870225,0,
00:00:01.676,0.00151653587818146,0.00599539699032903,0.000674834998790175,0,
00:00:01.68,0.00289837527088821,0.00599786126986146,-0.000854372861795127,0,
00:00:01.684,-0.00194163038395345,0.000352638744516298,-0.0009497489663772289,0,
00:00:01.688,-0.00207782350480556,-0.005714429542422289,-0.00048769821296446,0,
00:00:01.692,-0.0006878097192384299,-0.00637562572956085,-7.12283190296148e-06,0,
00:00:01.696,-0.00155864981934428,-0.0009731494355946779,0.000253028061706573,0,
00:00:01.7,0.0029313105624169103,0.00730728870257735,0.00027488917112350496,0,
00:00:01.704,0.0023832805454731,6.980130274314429e-05,0.000155705376528203,0,
00:00:01.708,-0.00164592475630343,-0.000782683491706848,1.15764187285095e-05,0,
00:00:01.712,0.00304094259627163,0.00618963642045856,-8.12974976724945e-05,0,
00:00:01.716,0.000360369944246486,-0.00131771748419851,-0.000102218145912047,0,
00:00:01.72,-0.00438847485929728,-0.00641766516491771,-7.10961176082492e-05,0,
00:00:01.724,-0.00498118251562119,-0.00577287655323744,-2.2503823856823102e-05,0,
00:00:01.728,0.0019122954690828898,0.00022452205303125097,1.5572841221001003e-05,0,
00:00:01.732,0.00338289514183998,0.00416861148551106,3.11782569042407e-05,0,
00:00:01.736,0.0021636481396853898,0.00860515423119068,2.69376469077542e-05,0,
00:00:01.74,0.000353620096575469,0.0025817984715104103,1.29034069686895e-05,0,
00:00:01.744,-0.000865522306412458,-0.00525240460410714,-8.376244977625901e-07,0,
00:00:01.748,-0.00117676123045385,-0.00517846783623099,-8.50957803777419e-06,0,
00:00:01.752,-0.0008245893986895679,-0.00212255376391113,-9.33927913138177e-06,0,
00:00:01.756,-0.000245527044171467,0.0007401345064863559,-5.81223457629676e-06,0,
00:00:01.76,0.000209008052479476,-1.06030447568628e-05,-1.2527366379799802e-06,0,
00:00:01.764,0.000390104280086234,0.0017878047656267899,1.95191205420997e-06,0,
00:00:01.768,0.00033061197609640696,0.00454026972874999,2.98763757200504e-06,0,
00:00:01.772,0.00015460283611901102,0.00382597465068102,2.31002604778041e-06,0,
00:00:01.776,-1.45178128150292e-05,-0.00327641004696488,9.214729743689529e-07,0,
00:00:01.78,-0.00218294886872172,-0.00421359855681658,-2.8641412086472e-07,0,
00:00:01.784,0.00393574964255095,-0.00435249926522374,-8.69802477154735e-07,0,
00:00:01.788,-0.000403903512051329,0.00200484646484256,-8.37374102502508e-07,0,
00:00:01.792,-0.00147915654815733,0.0030303003732115,-4.58725310181762e-07,0,
00:00:01.796,-0.000994832720607519,0.0058913747780025,-4.02400459620367e-08,0,
00:00:01.8,-0.00014781365462113202,-0.0059019490145146795,2.2178741687639603e-07,0,
00:00:01.804,0.000425323029048741,-7.534449105151e-05,-0.00207550032064319,0,
00:00:01.808,0.0026356300804764,-0.00167983409482986,0.00197551585733891,0,
00:00:01.812,-0.0036723173689097205,-0.00246855732984841,0.00164210284128785,0,
00:00:01.816,0.000430311250966042,0.0008313141297549009,0.00225277454592288,0,
00:00:01.82,0.00134816509671509,0.004944965709000829,-0.00281814322806895,0,
00:00:01.824,-0.00125139637384564,0.00273628439754248,-0.00474552949890494,0,
00:00:01.828,0.00407700100913644,0.00162449898198247,0.00116768502630293,0,
00:00:01.832,-0.000800372858066112,-0.00625548325479031,0.00240311375819147,0,
00:00:01.836,-0.00407777214422822,-0.00186117773409933,0.0035814635921269703,0,
00:00:01.84,0.00270336074754596,0.0023922498803585802,-0.0017785703530535102,0,
00:00:01.844,-0.000569852709304541,-0.000931852613575757,-0.0043614124879241,0,
00:00:01.848,-0.0009283935069106519,-0.000720007461495698,0.000979246571660042,0,
00:00:01.852,-0.0023515485227108,-0.00179327360820025,0.00194809702225029,0,
00:00:01.856,0.0023184858728200197,0.000760194670874625,0.00108434958383441,0,
00:00:01.86,0.00220150966197252,0.00649512931704521,-2.62855719483923e-05,0,
00:00:01.864,0.0026732732076197897,0.00229303748346865,-0.0006556615117006,0,
00:00:01.868,-0.00268239970318973,-0.00435886438935995,-0.0007027296815067531,0,
00:00:01.872,-0.0027736215852201,-0.00401845341548324,-0.00039523476152680803,0,
00:00:01.876,-0.00101506744977087,-0.00134018482640386,-2.48739997914527e-05,0,
00:00:01.88,0.000578322156798095,-0.00113237649202347,0.000213480147067457,0,
00:00:01.884,-0.000838583393488079,0.00588167831301689,0.000266392657067627,0,
00:00:01.888,0.0030154476407915397,0.0011594544630497698,0.00018507512868382,0,
00:00:01.892,0.00208014599047601,-0.000864191038999707,5.87796021136455e-05,0,
00:00:01.896,5.06374926771969e-05,-0.00538183841854334,-4.0139817429008e-05,0,
00:00:01.9,-0.0033334058243781302,0.00107912323437631,-8.07502146926709e-05,0,
00:00:01.904,0.00261223828420043,0.009218029677867891,-6.98587100487202e-05,0,
00:00:01.908,-0.0011986593017354599,0.000342803046805784,-0.00210930081084371,0,
00:00:01.912,-0.0015782491536811,-0.008495066314935679,0.0040532071143388705,0,
00:00:01.916,-0.0006181190838105981,-0.0026590451598167398,-0.000311257696012035,0,
00:00:01.92,0.000358784309355542,0.000950582907535136,-0.0014408001443371198,0,
00:00:01.924,0.000796329870354384,0.000152540218550712,-0.0030804721172899,0,
00:00:01.928,0.00069457822246477,0.0038271255325526,0.00179369153920561,0,
00:00:01.932,0.000318223173962906,0.00242509786039591,0.0041098459623754,0,
00:00:01.936,-5.15821084263735e-05,-1.12266825453844e-05,-0.00125712715089321,0,
00:00:01.94,-0.00232893507927656,0.000560682325158268,-0.00210811360739172,0,
00:00:01.944,0.0037850723601877702,-0.00158884888514876,-0.0010991572635248301,0,
00:00:01.948,-0.00049422075971961,-0.00876692961901426,0.000106371269794181,0,
00:00:01.952,-0.00149599171709269,0.00201460183598101,0.0007583695114590231,0,
00:00:01.956,-0.000961645098868757,0.00650181761011481,0.0007751004304736849,0,
00:00:01.96,-9.965201024897399e-05,0.0029574495274573604,0.000418924755649641,0,
00:00:01.964,0.000461573101347312,-0.0073377494700253,9.92606419458753e-06,0,
00:00:01.968,0.000573585275560617,-0.0011251401156187099,-0.00232041021808982,0,
00:00:01.972,-0.00170231109950691,0.00436457479372621,0.003757439320907,0,
00:00:01.976,0.00205818866379559,0.00488185184076428,-0.000531659054104239,0,
00:00:01.98,0.00358773185871542,-2.8544733140734004e-05,-0.00152321509085596,0,
00:00:01.984,-0.00200069695711136,-0.00756239937618375,-0.000971200002823025,0,
00:00:01.988,-0.00471992045640945,-0.0018142816843465,-0.00217051897197962,0,
00:00:01.992,0.000704314501490444,-0.000832126708701253,0.00452396692708135,0,
00:00:01.996,0.0018705965485423801,0.00402674870565534,0.00025049451505765297,0,
00:00:02,0.00325648253783584,0.0031298869289457802,-0.00108635879587382,0,
00:00:02.004,-0.00182940892409533,0.0048099928535521,-0.0009368807659484449,0,
00:00:02.008,-0.00214687059633434,-0.00510623073205352,-0.000317984056891873,0,
00:00:02.012,-0.0028781387954950302,-0.0070209507830441,0.00019118077761959298,0,
00:00:02.016,0.00242563150823116,0.000450067425845191,0.000387271720683202,0,
00:00:02.02,0.0026033273898065103,0.00299696065485477,0.00031573712476529197,0,
00:00:02.024,0.000971659435890615,0.0025647305883467197,0.000124942671391182,0,
00:00:02.028,-0.000527522235643119,-0.0010652836645022,-4.774607805302371e-05,0,
00:00:02.032,-0.00115262367762625,-0.00046856905100867196,-0.00013187131844461002,0,
00:00:02.036,-0.000971988483797759,0.00469009578227997,-0.000126002851175144,0,
00:00:02.04,0.0016669462202116802,0.000995807116851211,-6.903587927808989e-05,0,
00:00:02.044,-0.0039307558909058606,-0.0068246959708631,-6.23667028776254e-06,0,
00:00:02.048,0.0027998173609376,-0.0017034161137417,3.31493683916051e-05,0,
00:00:02.052,-0.00219922047108412,0.0030145829077809997,4.196532245259729e-05,0,
00:00:02.056,0.0015738384099677199,-0.0023860000073909803,0.0021048984490335,0,
00:00:02.06,0.00167950999457389,0.00158085348084569,-0.00404198886826634,0,
00:00:02.064,0.000527966534718871,-0.000163149365107529,0.00032678784918971403,0,
00:00:02.068,-0.00256656436249614,0.00279346806928515,0.00145217939279974,0,
00:00:02.072,0.0011044725542888,0.00342216552235186,0.00100875529460609,0,
00:00:02.076,0.0030298412311822198,0.00152915506623685,0.000179669805220328,0,
00:00:02.08,-0.0020571558270603397,-0.0071907173842191705,-0.00039666463271714704,0,
00:00:02.084,-0.00444047618657351,-0.0090086730197072,-0.00054537266260013,0,
00:00:02.088,0.00106978265102953,0.00176361890044063,-0.00037882020114921,0,
00:00:02.092,0.00213383045047522,0.0102254087105393,-0.000105539111245889,0,
00:00:02.096,0.0033486587926745397,0.0032924807164818,0.000107031475636177,0,
00:00:02.1,-0.0018762567779049301,0.0008563834126107389,0.000189034166396596,0,
00:00:02.104,-0.0043305424042046105,-0.008995978161692621,0.00015739287482574598,0,
00:00:02.108,0.00107570155523717,-9.289172157878059e-05,7.18855444574729e-05,0,
00:00:02.112,0.00411882111802697,0.00416021794080734,-8.8200431491714e-06,0,
00:00:02.116,-0.000837121799122542,0.0015412735519930699,-5.2206367399776395e-05,0,
00:00:02.12,-0.00166148180142045,-0.0033931783400476,-5.51741104573011e-05,0,
00:00:02.124,-0.000856270431540906,-0.00444613257423043,-3.32325289491564e-05,0,
00:00:02.128,-0.00196703360415995,-0.00012401459389366201,-6.141378889878981e-06,0,
00:00:02.132,0.00258536776527762,0.0050768782384693605,1.23313639051048e-05,0,
00:00:02.136,0.00224017398431897,0.00344428466632962,1.78335139935371e-05,0,
00:00:02.14,0.00047651599743403494,0.00234472961165011,1.33891744553694e-05,0,
00:00:02.144,0.0012078684521839,-0.00170357874594629,5.03806040796917e-06,0,
00:00:02.148,-0.0032184300944209103,-0.0037058927118778203,-2.01019929590984e-06,0,
00:00:02.152,-0.00251205381937325,-0.007224000990390779,-5.26881376572419e-06,0,
00:00:02.156,-0.00248724315315485,-0.00131073116790503,-4.91137188873836e-06,0,
00:00:02.16,0.0030818667728453896,0.00379329640418291,-2.5926788111974e-06,0,
00:00:02.164,0.00312478351406753,0.00709568243473768,-1.22962916293545e-07,0,
00:00:02.168,0.00118510297033936,0.005398235283792021,1.37422966872691e-06,0,
00:00:02.172,-0.000588724680710584,-0.00302194408141077,1.6595538454566799e-06,0,
00:00:02.176,-0.00134951306972653,-0.00485274568200111,1.1135797421957199e-06,0,
00:00:02.18,-0.0011642329627648,-0.00316091603599489,3.1595303084941396e-07,0,
00:00:02.184,0.00155978801194578,-0.000612420146353543,-2.86236939928131e-07,0,
00:00:02.188,-0.0018663996597752,0.00116820062976331,-5.1546595614127e-07,0,
00:00:02.192,-0.00327759701758623,-0.000389111111871898,-4.28113423822651e-07,0,
00:00:02.196,0.00224900245666504,0.0052915411069989204,0.00207558693364263,0,
00:00:02.2,0.0027503974270075603,-0.00197994313202798,-0.00405107531696558,0,
00:00:02.204,0.0012487452477216699,-0.0018051965162158,0.00033342390088364504,0,
00:00:02.208,-0.00031641311943531,0.00206464761868119,0.00146515539381653,0,
00:00:02.212,-0.00109218957368284,0.0053080189973115895,0.0010198634117841699,0,
00:00:02.216,0.0010362035827711199,-0.00446035712957382,0.000184913471457548,0,
00:00:02.22,-0.00250521651469171,-0.0025291743222624103,-0.00039710328564979103,0,
00:00:02.224,-0.00370148569345474,-0.00553907407447696,-0.000548946147318929,0,
00:00:02.228,0.00213811476714909,-0.000498040288221091,-0.000382692029234022,0,
00:00:02.232,0.0028730775229632898,0.00363846030086279,-0.00010792230750666899,0,
00:00:02.236,0.00145672669168562,0.00852089747786522,0.000106542574940249,0,
00:00:02.24,-0.000147280763485469,0.00278948317281902,0.00018986310169566398,0,
00:00:02.244,-0.0010182051919400698,-0.0049914652481675105,0.00015863648150116203,0,
00:00:02.248,-0.00105295435059816,-0.00709836697205901,7.283747982000931e-05,0,
00:00:02.252,-0.000588611990679055,-0.0022107043769210603,-8.44757505547022e-06,0,
00:00:02.256,-4.36839836766012e-05,0.0042724316008389,0.00202344730496407,0,
00:00:02.26,-0.00177096063271165,0.0037749451585114,-0.0041066403500735794,0,
00:00:02.264,0.0023582696449011603,0.0011444293195381802,0.000299700477626175,0,
00:00:02.268,0.00398416724056005,-0.00305014825426042,0.00145867571700364,0,
00:00:02.272,-0.00171375775244087,0.0044142697006464,0.0031078709289431602,0,
00:00:02.276,-0.0025426892098039397,-0.0015479924622923099,-0.00177249754779041,0,
00:00:02.28,-0.0013210040051490099,-0.00553517695516348,-0.00202560634352267,0,
00:00:02.284,0.000111599998490419,-0.0067073917016387,-0.00279659801162779,0,
00:00:02.288,-0.0011780058266595,0.00504163699224591,0.00243341573514044,0,
00:00:02.292,0.0029099921230226803,0.00402327952906489,0.00255647930316627,0,
00:00:02.296,0.0021643789950758197,0.00689107459038496,0.000909192312974483,0,
00:00:02.3,0.00021328665025066598,0.00115473743062466,-0.000573842378798872,0,
00:00:02.304,0.000958368007559329,-0.00784243643283844,-0.00117013545241207,0,
00:00:02.308,-0.00334674515761435,-0.0029502222314477,-0.000965255370829254,0,
00:00:02.312,-0.0025113478768616897,0.00216961815021932,-0.000390806031646207,0,
00:00:02.316,-0.00241002510301769,-0.000561940483748913,0.000137271665153094,0,
00:00:02.32,0.00317119504325092,-0.00227116257883608,0.00039979733992368,0,
00:00:02.324,0.00318299303762615,0.000544599199201912,0.000387441163184121,0,
00:00:02.328,0.001200141152367,0.00457316776737571,0.000216159955016337,0,
00:00:02.332,-0.000605404144152999,0.0045857876539230295,2.39388064073864e-05,0,
00:00:02.336,-0.00137759384233505,-0.00245566619560122,0.00197719968855381,0,
00:00:02.34,-0.0011869318550452599,-0.0058181365020573104,-0.004179010167717929,0,
00:00:02.344,-0.000525800627656281,-0.00025756531977094704,0.000243103961111046,0,
00:00:02.348,0.000110862296423875,-0.000640225596725941,0.00143558287527412,0,
00:00:02.352,0.00044820134644396603,0.00323708588257432,0.00103849137667567,0,
00:00:02.356,0.000458797410828993,0.0042230361141264395,0.00229949364438653,0,
00:00:02.36,0.00027028840850107404,0.0022214062046259603,-0.0044142818078398705,0,
00:00:02.364,4.47431448264979e-05,-0.0068378197029233,-0.00019916884775739198,0,
00:00:02.368,-0.000106199688161723,-0.00899256020784378,0.00108153140172362,0,
00:00:02.372,-0.00222465652041137,0.00158284872304648,0.000901300169061869,0,
00:00:02.376,0.00186537869740278,0.0100104082375765,0.00235548778437078,0,
00:00:02.38,0.00367782660759985,0.007302712649106979,-0.0042656920850276895,0,
00:00:02.384,-0.00178022193722427,-0.0072828964330256,-5.86502173973713e-05,0,
00:00:02.388,-0.00244053546339273,-0.0041379276663065,0.0011575766839087,0,
00:00:02.392,-0.0032399087212979802,-0.00312149804085493,0.0009071546373888849,0,
00:00:02.396,0.00220845453441143,0.00287017854861915,0.00231780204921961,0,
00:00:02.4,0.00466429349035025,0.00312238722108305,-0.0022368929348886,0,
00:00:02.404,-0.000878407212439924,0.0012879082933068301,-0.004142011515796179,0,
00:00:02.408,-0.00408377777785063,-0.00045583926839754,0.00148104771506041,0,
00:00:02.412,0.000762926763854921,-0.00124065647833049,0.00237968470901251,0,
00:00:02.416,0.0015553809935227,-0.00110524357296526,0.00335200154222548,0,
00:00:02.42,0.000777025008574128,0.00157056853640825,-0.00411551212891936,0,
00:00:02.424,-0.000138325209263712,-0.00188528746366501,-0.00048224799684248897,0,
00:00:02.428,-0.000597928650677204,-0.00538010103628039,0.000598318874835968,0,
00:00:02.432,-0.000566866830922663,0.00420503877103329,0.000528035452589393,0,
00:00:02.436,-0.000270461168838665,0.00438595609739423,0.00222003343515098,0,
00:00:02.44,0.0021161874756217,0.0055811596103012605,-0.0041964910924434705,0,
00:00:02.444,0.00031655581551604,-0.0030258251354098303,0.00010415096039651,0,
00:00:02.448,-0.0033861070405691897,-0.00944780092686415,0.00130677141714841,0,
00:00:02.452,-0.00375192845240235,-0.0037631900049746,0.000984901795163751,0,
00:00:02.456,0.0005958567489869889,0.00243830773979425,0.00024476382532157004,0,
00:00:02.46,0.00751546863466501,0.0111590521410108,-0.000303849403280765,0,
00:00:02.464,-0.000647245731670409,6.06899047852494e-05,-0.000474656175356358,0,
00:00:02.468,0.00239882059395313,-0.00764599815011024,-0.000350837392034009,0,
00:00:02.472,-0.00262269889935851,0.000939529039897025,-0.00011441322567407,0,
00:00:02.476,-0.00505917053669691,0.00213019154034555,8.042493573157121e-05,0,
00:00:02.48,0.000580992898903787,0.000794095802120864,0.000163460514158942,0,
00:00:02.484,0.0019126880215480898,0.00152100098785013,0.00014338325127027902,0,
00:00:02.488,0.00131051754578948,-0.005107034463435411,7.0639987825416e-05,0,
00:00:02.492,0.000282483291812241,-0.000467074452899396,-2.07497282644908e-06,0,
00:00:02.496,-0.00041499696089886096,0.00123171508312225,-4.36898917541839e-05,0,
00:00:02.5,-0.0005968141485936941,0.0012628354597836698,-4.92817525810096e-05,0,
00:00:02.504,-0.00248549925163388,-0.00145050929859281,-0.00210718670859933,0,
00:00:02.508,0.0018733514007180899,0.00195549963973463,0.00196784432046115,0,
00:00:02.512,0.00385123700834811,0.00542728323489428,0.0037275422364473295,0,
00:00:02.516,0.000496597611345351,-0.00208873907104135,-0.00178268656600267,0,
00:00:02.52,-0.00635862816125155,-0.00840183068066835,-0.00247244443744421,0,
00:00:02.524,0.00128174899145961,-0.00107111618854105,-0.00119954510591924,0,
00:00:02.528,-0.0023880566004663697,0.0005524212610907849,0.00021087992354296102,0,
00:00:02.532,0.00223743193782866,0.0030328014399856303,0.000941476377192885,0,
00:00:02.536,0.000442733464296907,0.00546320853754878,0.000927121087443084,0,
00:00:02.54,0.00512763019651175,0.00202676141634583,0.00048807024722918895,0,
00:00:02.544,-0.000701570301316679,-0.0015344301937148,1.0823258662639999e-06,0,
00:00:02.548,-0.00252618407830596,-0.000924927473533899,-0.000295261415885761,0,
00:00:02.552,-0.00200449675321579,-0.00235366518609226,-0.000347003689967096,0,
00:00:02.556,-0.0006774581852369009,-0.00458520278334618,-0.000230414952966385,0,
00:00:02.56,0.00041994726052507796,-0.0035032257437706,-6.4041290897876e-05,0,
00:00:02.564,0.000872201868332922,0.0037007245700806397,6.05637615080923e-05,0,
00:00:02.568,-0.0013287357287481401,0.000376123003661633,-0.0019683635327965,0,
00:00:02.572,0.004392727278172971,0.00842346530407667,0.00413982151076198,0,
00:00:02.576,-0.000382246158551425,0.00538829015567899,-0.000293565826723352,0,
00:00:02.58,-0.00172484177164733,-0.00674567325040698,-0.00147098465822637,0,
00:00:02.584,-0.00129290716722608,-0.008897431194782259,-0.00312567478977144,0,
00:00:02.588,-0.00242489809170365,-0.00269456254318357,0.00175912957638502,0,
00:00:02.592,0.00441797822713852,0.00695579452440143,0.0040963557548821,0,
00:00:02.596,0.00235251360572875,0.00275869038887322,-0.00125249836128205,0,
00:00:02.6,-0.0050451788119971796,0.00020621105795726202,-0.0020948764868080603,0,
00:00:02.604,-0.0005123300943523651,-0.0030127610079944103,-0.0010865714866668,0,
00:00:02.608,0.0011985027231276,0.000918784644454718,0.00011316996824461999,0,
00:00:02.612,0.00121705851051956,0.00100163591559976,0.0007588633452542129,0,
00:00:02.616,-0.00152666342910379,0.00212664250284433,0.000771694874856621,0,
00:00:02.62,0.003939569927752021,-0.00260031828656793,0.00041470146970823396,0,
00:00:02.624,0.00129713793285191,-0.000277445244137198,-0.00206874147988856,0,
00:00:02.628,-0.0038777985610067797,-0.0025501342024654198,0.001729826326482,0,
00:00:02.632,-0.00497302412986755,-0.00287575856782496,0.00134906801395118,0,
00:00:02.636,0.00160308310296386,0.00308299856260419,0.00205574044957757,0,
00:00:02.64,0.0030106999911367898,0.00342559767886996,-0.00287516694515944,0,
00:00:02.644,-0.000165894802194089,-0.0026513310149312,-0.00469637149944901,0,
00:00:02.648,0.0043274052441120104,0.00142965302802622,0.00125782506074756,0,
00:00:02.652,-0.00114030425902456,0.00801025237888098,0.00247854576446116,0,
00:00:02.656,-0.00252908119000494,-0.00120522698853165,0.00154015119187534,0,
00:00:02.66,-0.00174836092628539,-0.0095268627628684,0.000192482330021448,0,
00:00:02.664,-0.00246114376932383,-0.0049883839674294,-0.000668666674755514,0,
00:00:02.668,0.00257735350169241,0.00325466529466212,-0.000845505332108587,0,
00:00:02.672,0.00255004107020795,0.00440732156857848,-0.000552590528968722,0,
00:00:02.676,-0.00121891347225755,0.00246071140281856,0.0019525581737980199,0,
00:00:02.68,0.00345038436353207,0.00220240210182965,-0.0038592629134655,0,
00:00:02.684,0.000589694187510759,-0.0011523854918777901,0.000632158829830587,0,
00:00:02.688,-0.00436068000271916,-0.00922345370054245,0.00170025182887912,0,
00:00:02.692,-0.00508248014375567,0.0033104091417044397,0.00111751013901085,0,
00:00:02.696,0.0038549033924937205,0.005970725789666179,0.00016041961498558502,0,
00:00:02.7,-0.0007628780440427361,-0.007159052416682241,-0.00048250961117446395,0,
00:00:02.704,0.00246535986661911,-0.0010988179128617,-0.000633334508165717,0,
00:00:02.708,0.00183746428228915,0.00686732633039355,-0.000430275744292885,0,
00:00:02.712,0.000194445339730009,0.00139990530442446,-0.000113567257358227,0,
00:00:02.716,-0.0009564620559103789,-0.00139451457653195,0.000127836043247953,0,
00:00:02.72,-0.00120427354704589,-0.00406843842938542,0.00021775825007353,0,
00:00:02.724,-0.00287082651630044,-0.00142276438418776,0.000178407761268318,0,
00:00:02.728,0.00386656797491014,0.00745490426197648,7.93641884229146e-05,0,
00:00:02.732,0.00201248214580119,0.00036087736953049904,-1.24704147310695e-05,0,
00:00:02.736,-0.00508670182898641,-0.00526549015194178,-6.07973561272956e-05,0,
00:00:02.74,-0.000343845516908914,-0.00543009676039219,-6.296431092778221e-05,0,
00:00:02.744,0.0014266577782109401,-4.86004319100175e-05,-3.720816675922829e-05,0,
00:00:02.748,0.00138638413045555,0.00573407113552094,-6.17842579231365e-06,0,
00:00:02.752,0.0006130465189926331,0.00412823259830475,1.46136544572073e-05,0,
00:00:02.756,-0.000136109127197415,0.0006481130840256809,2.0491899704211398e-05,0,
00:00:02.76,-0.000511006452143192,0.00029301820904947796,1.5125634490686902e-05,0,
00:00:02.764,-0.000498947105370462,-0.00642156042158604,5.48947582501569e-06,0,
00:00:02.768,-0.00026810006238520097,-0.0012753887567669199,-2.50421703640313e-06,0,
00:00:02.772,-1.2130107279517698e-05,0.00105544424150139,-6.10354982200079e-06,0,
00:00:02.776,0.000145829093526118,0.00152366829570383,-5.58681858819909e-06,0,
00:00:02.78,-0.00189879396930337,-0.00105092697776854,-2.88483806798467e-06,0,
00:00:02.784,0.0041708666831255,0.00433790171518922,-6.54703029567827e-08,0,
00:00:02.788,-0.000298225961159915,-0.0005801636143587531,-0.00207416852936149,0,
00:00:02.792,-0.00357028283178806,-0.00189769524149597,0.00405300268903375,0,
00:00:02.796,0.0009009663481265311,-0.00136193737853318,-0.0003320268006064,0,
00:00:02.8,0.00348710455000401,0.0017559808911755698,-0.00146466854494065,0,
00:00:02.804,-0.0014222408644855,-0.0036062169820070297,-0.00309589807875454,0,
00:00:02.808,-0.0019333814270794398,-0.00105794228147715,0.0017898301593959301,0,
00:00:02.812,-0.00080683542182669,0.00602808641269803,0.00411440664902329,0,
00:00:02.816,0.000336153985699639,0.000864627829287201,-0.0012495998525992,0,
00:00:02.82,-0.0012266592821106302,-0.00138113158755004,-0.00210208469070494,0,
00:00:02.824,0.00271882233209908,-0.0037171954754740004,-0.0031723745632916698,0,
00:00:02.828,0.00197039102204144,0.00103954039514065,0.00208112876862288,0,
00:00:02.832,0.000100378420029301,0.00155381963122636,0.00239826086908579,0,
00:00:02.836,-0.0011345804668963,0.00269317161291838,0.0009499836014583711,0,
00:00:02.84,0.000750531791709363,-0.0022696026135236,-0.000425042031565681,0,
00:00:02.844,-0.00278122257441282,-0.00022728448675479702,-0.0010178694501519199,0,
00:00:02.848,-0.0038287609349936204,-0.0068374895490706,-0.000874661782290787,0,
00:00:02.852,0.00216781022027135,0.0029642826411873102,-0.000374619936337695,0,
00:00:02.856,0.00298997829668224,0.0084073394536972,0.000103118029073812,0,
00:00:02.86,0.00157825241331011,-0.0039369175210595105,0.000350859481841326,0,
00:00:02.864,-7.36595175112598e-05,-0.00579868210479617,0.000350835936842486,0,
00:00:02.868,-0.00100366666447371,0.00571242766454816,0.00020245653286110602,0,
00:00:02.872,0.000996704678982496,0.00573907233774662,2.9494172849808803e-05,0,
00:00:02.876,-0.00260261562652886,-0.00485966540873051,-8.41591754578985e-05,0,
00:00:02.88,-0.00171517115086317,-0.00491255009546876,-0.00011450141028035401,0,
00:00:02.884,-0.00195942237041891,-0.00360145722515881,-8.312315185321491e-05,0,
00:00:02.888,0.00320500903762877,0.00126409588847309,-2.9115311917848902e-05,0,
00:00:02.892,0.0029473169706761802,0.00601862883195281,1.49470261021634e-05,0,
00:00:02.896,0.000902833649888635,0.007829299196600909,3.4280325053259696e-05,0,
00:00:02.9,0.0012625593226403,-0.00396310491487384,3.08551570924465e-05,0,
00:00:02.904,-0.00549566512927413,-0.00761623773723841,1.55956167873228e-05,0,
00:00:02.908,-0.000809668621513993,-0.00296845356933773,-2.85422210311026e-08,0,
00:00:02.912,0.0010291878134012198,0.00589083321392536,-9.15399596124189e-06,0,
00:00:02.916,0.00328469625674188,0.00171772425528616,-1.0558826033957301e-05,0,
00:00:02.92,-0.0033801521640270896,-0.000347680557752028,-6.8449221544142304e-06,0,
00:00:02.924,-0.00168279837816954,-0.00510309543460608,-1.7327037085124198e-06,0,
00:00:02.928,0.00521303433924913,0.0052859652787447,2.00137424144486e-06,0,
00:00:02.932,0.00032151021878235,0.00104630319401622,0.0020791057031601698,0,
00:00:02.936,-0.0015111806569621,0.0009152232087217269,-0.0019726508762687397,0,
00:00:02.94,0.0006128312088549139,0.000604042725171894,-0.0037166816182434602,0,
00:00:02.944,-0.00469942251220346,-0.01070461794734,0.0017980403499677801,0,
00:00:02.948,0.00047495769103989005,0.00037210644222796,0.00248382892459631,0,
00:00:02.952,0.0020036073401570303,0.00422370340675116,0.00327949761413038,0,
00:00:02.956,0.00154747464694083,0.00158699043095112,-0.00218804040923715,0,
00:00:02.96,0.00047007325338199697,0.00339970923960209,-0.0025880828034132697,0,
00:00:02.964,-0.0024578412994742398,0.0010695068631321198,-0.00318413693457842,0,
00:00:02.968,0.0033496855758130602,0.000766341108828783,0.00232780701480806,0,
00:00:02.972,-0.0009023517486639321,-0.00417628046125174,0.0047443094663322,0,
00:00:02.976,-0.00169966940302402,-0.00334961991757154,-0.000871257216203958,0,
00:00:02.98,-0.000950857298448682,-0.00286230817437172,-0.00205468223430216,0,
00:00:02.984,-0.00204020971432328,0.00108910258859396,-0.0012743009719997599,0,
00:00:02.988,0.0025883929338306197,0.00543172983452678,-0.00013242807472124698,0,
00:00:02.992,0.00231216545216739,0.00732193095609546,0.000582786509767175,0,
00:00:02.996,0.00264939083717763,-0.00415570754557848,0.000711179047357291,0,
00:00:03,-0.00484071578830481,-0.00543668959289789,0.000447591592092067,0,
00:00:03.004,-0.000872339471243322,-0.00262040761299431,8.04386727395467e-05,0,
00:00:03.008,0.000594067852944136,-0.0016459412872791301,-0.000179884373210371,0,
00:00:03.012,0.0007628843304701151,0.00397537415847182,-0.000260060071013868,0,
00:00:03.016,0.0004234183288645,0.0036128633655607705,-0.000197397996089421,0,
00:00:03.02,4.1951290768338394e-05,0.00328755076043308,-7.67151359468699e-05,0,
00:00:03.024,-0.00017522905545774798,-0.004895806778222321,2.66278093477013e-05,0,
00:00:03.028,-0.00020536131341941698,0.000750317936763167,-0.0020001502707600602,0,
00:00:03.032,-0.00012085836351616299,-0.003955698106437921,0.0041229482740163794,0,
00:00:03.036,-1.1964558325416901e-05,0.0007821204490028321,-0.000294468540232629,0,
00:00:03.04,6.0478450905066004e-05,0.00389206223189831,-0.00146215932909399,0,
00:00:03.044,0.00215417775325477,-0.0028892564587295103,-0.00311495107598603,0,
00:00:03.048,-0.0039953482337296,0.0005008479929529129,0.00176635733805597,0,
00:00:03.052,0.000351990544004366,0.000986521481536329,0.00409843400120735,0,
00:00:03.056,0.00145402271300554,0.00040093128336593503,-0.0012543242191895801,0,
00:00:03.06,0.000996117363683879,-0.00022335255926009303,-0.0041739814914763,0,
00:00:03.064,0.000163965494721197,-0.000490001984871924,0.0008859775261953471,0,
00:00:03.068,-0.000407433486543596,0.00166722887661308,0.00175395328551531,0,
00:00:03.072,-0.0005486386944539849,-0.0021372728515416397,0.00301184854470193,0,
00:00:03.076,-0.000376299809431657,-0.005726864095777271,-0.0020454332698136603,0,
00:00:03.08,-0.00217649922706187,0.0039534498937428,-0.0022539983037859197,0,
00:00:03.084,0.00416222773492336,0.00637515401467681,-0.00287575996480882,0,
00:00:03.088,0.0019334452226758,0.0015779358800500599,0.0024909982457757,0,
00:00:03.092,-0.005358901340514421,-0.0046619768254458896,0.00475324830040336,0,
00:00:03.096,-0.00061594188446179,-0.00591242732480168,-0.000956217118073255,0,
00:00:03.1,0.00126985553652048,0.00102209101896733,-0.0021580962929874698,0,
00:00:03.104,0.00136376253794879,0.00290022953413427,-0.00341993127949536,0,
00:00:03.108,0.0006784487050026661,0.00212189578451216,0.0018226269166916602,0,
00:00:03.112,-4.73337713629007e-05,0.0005831567686982451,0.0022422352340072398,0,
00:00:03.116,-0.000446668564109132,-0.0005788757698610429,0.0009201636421494189,0,
00:00:03.12,-0.000476510758744553,-0.0030572442337870602,-0.000368422974133864,0,
00:00:03.124,-0.000279788946500048,0.0012079336447641301,-0.00093501026276499,0,
00:00:03.128,-3.87460022466257e-05,0.0013480482157319802,-0.000812000478617847,0,
00:00:03.132,0.00012192071153549499,0.00029647673363797405,-0.00035064583062194304,0,
00:00:03.136,0.00016493281873408702,0.00154798128642142,9.419438720215109e-05,0,
00:00:03.14,0.00219560228288174,0.0014447559369728,0.00032654296956025097,0,
00:00:03.144,-0.00400893250480294,-0.0102160563692451,-0.00174781156238168,0,
00:00:03.148,0.000311968789901584,-0.0016574872424826,0.00216558412648737,0,
00:00:03.152,0.00141571916174144,0.0018167336238548199,0.0037466031499207,0,
00:00:03.156,0.000975284434389323,0.0131208868697286,-0.0018761359388008699,0,
00:00:03.16,0.00223809247836471,0.00904863886535168,-0.00466735521331429,0,
00:00:03.164,-0.00237247231416404,-0.0164456106722355,0.000692739791702479,0,
00:00:03.168,-0.00217782892286778,-0.00918898545205593,0.0018266141414642301,0,
00:00:03.172,-0.000544501061085612,0.00228841113857925,0.0011366541730239998,0,
00:00:03.176,-0.0013310700887814199,0.00547669595107436,0.00012071289529558301,0,
00:00:03.18,0.0031120253261178697,0.00405519362539053,-0.0005082100979052481,0,
00:00:03.184,0.00453538168221712,-0.000855485501233488,-0.000614508520811796,0,
00:00:03.188,-0.00156277231872082,0.00306579656898975,-0.000377966876840219,0,
00:00:03.192,-0.00271678762510419,-7.1545407990925e-05,-5.5971966503420804e-05,0,
00:00:03.196,-0.0036994516849517796,-0.009072231128811841,0.00016758670972194498,0,
00:00:03.2,0.00183314422611147,-0.00140982924494892,0.00023155464441515497,0,
00:00:03.204,0.00242132460698485,0.00505841290578246,0.000171632826095447,0,
00:00:03.208,0.00112249981611967,0.00586917577311397,6.359477265505122e-05,0,
00:00:03.212,-0.00023876636987552,0.000721628603059798,-2.67339946731227e-05,0,
00:00:03.216,-0.0009033402893692259,-0.00518803205341101,-6.80886005284265e-05,0,
00:00:03.22,-0.0008511942578479651,-0.00595426140353084,-6.30757058388554e-05,0,
00:00:03.224,-0.0024902347940951603,-0.00284966267645359,-0.00210887147113681,0,
00:00:03.228,0.00409448426216841,0.00927801057696342,0.0019739554263651397,0,
00:00:03.232,-2.8135824322816902e-05,0.007823131047189241,0.0037355830427259202,0,
00:00:03.236,-0.0011320495977997802,-0.00666043441742659,-0.00177697301842272,0,
00:00:03.24,-0.000811240344773978,-0.0038107598666101703,-0.0045463270507752895,0,
00:00:03.244,-0.00013792702520731799,-0.00309413182549179,0.0007746279006823901,0,
00:00:03.248,0.000329545873682946,0.000666392501443625,0.00185048521962017,0,
00:00:03.252,-0.00163238577079028,0.00703490292653441,0.00111637089867145,0,
00:00:03.256,0.0043513015843927895,0.0050363992340862794,0.00215911469422281,0,
00:00:03.26,0.0018168014939874398,-0.0058629596605897,-0.00459062587469816,0,
00:00:03.264,-0.00561327673494816,-0.009641647338867191,-0.000295542180538177,0,
00:00:03.268,-0.000845881586428732,0.000290072784991935,0.00108881574124098,0,
00:00:03.272,0.00115118979010731,0.00687408121302724,0.000974226801190525,0,
00:00:03.276,0.00136051373556256,0.00885039009153843,0.000363488885341212,0,
00:00:03.28,0.00074393319664523,-0.0034138064365834,-0.000158897993969731,0,
00:00:03.284,-0.00204556249082088,-0.00757408747449517,-0.000376056443201378,0,
00:00:03.288,0.00365576543845236,-0.001131727010943,-0.000321534753311425,0,
00:00:03.292,-0.000795810483396053,0.00156775768846273,-0.000138207396958023,0,
00:00:03.296,-0.003834422910586,0.0018948288634419398,3.5776942240772796e-05,0,
00:00:03.3,0.00296841794624925,0.00110573705751449,0.000125771432067268,0,
00:00:03.304,-0.000416069407947361,0.000150820385897532,0.00012593704741448202,0,
00:00:03.308,-0.0009117578738369051,-0.000451444328064099,7.25173522369005e-05,0,
00:00:03.312,-0.00034958086325787,-0.000586854701396078,1.0292602382833099e-05,0,
00:00:03.316,0.000246750161750242,-0.000398242846131325,-3.0501594665111e-05,0,
00:00:03.32,-0.00158509274479002,-0.000107986306829844,-4.12790795962792e-05,0,
00:00:03.324,0.0023725179489702,-0.00196323287673295,-2.98742561426479e-05,0,
00:00:03.328,0.00179101550020278,0.00217042770236731,-1.03880629467312e-05,0,
00:00:03.332,0.0021778652444481897,0.00595391588285565,5.461188266053799e-06,0,
00:00:03.336,-0.00299979909323156,-0.00577806355431676,1.23801019071834e-05,0,
00:00:03.34,-0.0028396476991474602,-0.00216282485052943,1.1106827514595401e-05,0,
00:00:03.344,-0.000899306207429618,0.000205514326808043,-0.0020701894536614396,0,
00:00:03.348,0.0007539425860159099,0.00325099029578269,0.0019752853550016897,0,
00:00:03.352,0.00137386319693178,-0.000877962040249258,0.00163873063866049,0,
00:00:03.356,0.00109588738996536,-0.00111309613566846,0.0001732333766995,0,
00:00:03.36,0.000422785000409931,-0.00229795975610614,-0.000845193862915039,0,
00:00:03.364,-0.00017667330394033302,0.00037946982774883503,-0.0010282482253387599,0,
00:00:03.368,-0.00253980117850006,0.00425433367490768,-0.000629837100859731,0,
00:00:03.372,0.00153671484440565,0.00221265107393265,0.0019953127484768603,0,
00:00:03.376,0.00140432000625879,0.00144788215402514,-0.0016733730444684599,0,
00:00:03.38,0.00223388499580324,-0.0019821624737232897,-0.00123273720964789,0,
00:00:03.384,-0.0027010878548026102,-0.00555588770657778,-0.0019505481468513601,0,
00:00:03.388,-0.0045992317609489,-0.00481263687834144,0.00293022650294006,0,
00:00:03.392,0.0012683003442362,0.00278455205261707,0.00262322137132287,0,
00:00:03.396,0.00243384134955704,0.00425423216074705,0.000688464846462011,0,
00:00:03.4,0.0014823687961325,0.000551803212147206,-0.0008715876028873031,0,
00:00:03.404,0.00015186182281468102,0.00233474327251315,-0.0013867012457922099,0,
00:00:03.408,-0.000681808509398252,0.0005008433363400401,-0.00104197964537889,0,
00:00:03.412,0.0012388447066769,0.000748940627090633,0.00172277819365263,0,
00:00:03.416,-0.0025103280786424897,0.000290035095531493,-0.0017495459178462599,0,
00:00:03.42,-0.00174996186979115,-0.00692818267270923,-0.00323787424713373,0,
00:00:03.424,2.21961017814465e-05,-0.0059026684612035795,0.00222658226266503,0,
00:00:03.428,-0.000934572017285973,0.000797545828390867,0.00270127970725298,0,
00:00:03.432,0.00323340832255781,0.0070460601709783095,0.00120511918794364,0,
00:00:03.436,0.00444082263857126,0.00510646961629391,-0.0003380854614079,0,
00:00:03.44,-0.00174441561102867,0.000959813944064081,-0.001091712503694,0,
00:00:03.444,-0.0028719431720674,-0.00203084712848067,-0.00102635030634701,0,
00:00:03.448,-0.00169691431801766,-0.00493585271760821,-0.0005148930940777059,0,
00:00:03.452,-0.000136118178488687,-6.427741027437149e-05,2.59327516687335e-05,0,
00:00:03.456,-0.00124666874762625,0.00101637234911323,0.000342143146554008,0,
00:00:03.46,0.0029748163651675,0.000681511999573559,0.000385359337087721,0,
00:00:03.464,0.00227930233813822,0.000123728925245814,0.000247306074015796,0,
00:00:03.468,0.000308198039419949,-0.000198038775124587,6.11228897469118e-05,0,
00:00:03.472,-0.00107489770743996,-0.00023413819144479903,-7.3814058850985e-05,0,
00:00:03.476,-0.00137775845360011,0.00196798611432314,-0.000121017837955151,0,
00:00:03.48,0.0011743241921067199,0.000139639116241597,-9.66830994002521e-05,0,
00:00:03.484,-0.0021659510675817698,-0.00557147385552526,-4.09600361308549e-05,0,
00:00:03.488,-0.00130870740395039,0.00027979735750705,9.19790181796998e-06,0,
00:00:03.492,-0.00174282921943814,0.0023815906606614603,3.45675325661432e-05,0,
00:00:03.496,0.00321833300404251,0.0020611595828086103,3.4549928386695697e-05,0,
00:00:03.5,0.00283622462302446,0.000788269564509392,1.9696362869581197e-05,0,
00:00:03.504,0.000766680692322552,-0.00243069883435965,-0.00207323185168207,0,
00:00:03.508,-0.000905603636056185,0.00109560904093087,0.00404252717271447,0,
00:00:03.512,-0.003547492204234,-0.0033124745823442897,-0.00034467680961825,0,
00:00:03.516,0.000855007965583354,0.00579743040725589,-0.0014731566188857,0,
00:00:03.52,0.0033240171615034303,0.00462316116318107,-0.001022526063025,0,
00:00:03.524,-0.00157385051716119,-0.00394364818930626,-0.0022590903099626303,0,
00:00:03.528,-0.00198252662084997,-0.00954491086304188,0.0044516152702271895,0,
00:00:03.532,-0.000749826082028449,-0.0032071170862764103,0.000218667933950201,0,
00:00:03.536,-0.00162948330398649,0.0052400091663003,-0.00108083907980472,0,
00:00:03.54,0.00500235101208091,0.0055398535914719105,-0.0009119042661041019,0,
00:00:03.544,0.000467636826215312,0.00044433775474317404,-0.00029236340196803196,0,
00:00:03.548,-0.00112846936099231,0.0014566045720130199,0.00020617037080228302,0,
00:00:03.552,-0.0011200065491721,0.00165836210362613,0.000389604363590479,0,
00:00:03.556,-0.0005086324526928371,0.000332402851199731,0.000309665367240086,0,
00:00:03.56,7.63935386203229e-05,-0.0116711603477597,0.00011656382412183999,0,
00:00:03.564,0.00036553581594489504,-0.0005800204235129059,-5.3875104640610496e-05,0,
00:00:03.568,0.000357570068445057,0.005818917881697421,-0.000134051879285835,0,
00:00:03.572,0.000185956581844948,0.00173618120606989,-0.000124937563668936,0,
00:00:03.576,-1.7046306766133101e-06,0.000149560350109823,-6.65298939566128e-05,0,
00:00:03.58,-0.000114340800791979,-0.0024135431740433,-3.96452560380567e-06,0,
00:00:03.584,-0.00220844079740345,-0.000475569569971412,3.43087849614676e-05,0,
00:00:03.588,-0.00018742875545285601,0.0033594756387174103,4.19759671785869e-05,0,
00:00:03.592,0.00567008648067713,0.001697723637335,2.8452634069253697e-05,0,
00:00:03.596,-0.000132035012939014,0.00138744665309787,8.338114639627749e-06,0,
00:00:03.6,-0.000190487538930029,-0.00174515275284648,-6.998030130489501e-06,0,
00:00:03.604,-0.00606472976505756,-0.0073199332691729095,-0.0020887367427349104,0,
00:00:03.608,-0.00254317629151046,-0.004690540954470629,0.00196444825269282,0,
00:00:03.612,0.00375306513160467,0.00855283066630363,0.0037128385156393103,0,
00:00:03.616,0.0055757621303200704,0.00820626132190228,-0.00179768283851445,0,
00:00:03.62,-0.0008338137995451691,-0.0037247689906507704,-0.00248116836883128,0,
00:00:03.624,-0.00247856345959008,-0.0071311234496533905,-0.00120085279922932,0,
00:00:03.628,-0.0017486574361100802,-0.000376686628442258,0.000214471394428983,0,
00:00:03.632,-0.000403587997425348,0.00214004423469305,0.0009463903843425211,0,
00:00:03.636,0.000564414542168379,0.00206401548348367,0.0009306977153755721,0,
00:00:03.64,0.0008576259715482589,-0.00114506727550179,0.0004893284058198331,0,
00:00:03.644,0.000631707196589559,0.0038801543414592704,4.44151936562776e-07,0,
00:00:03.648,0.000209187914151698,-0.0031402364838868397,-0.000296734535368159,0,
00:00:03.652,-0.0022140315268188698,-0.00021613563876599098,-0.000348332338035107,0,
00:00:03.656,0.00168818980455399,0.00022456326405517798,-0.000231088430155069,0,
00:00:03.66,0.0013890047557652,0.00204164162278175,-6.404230953194201e-05,0,
00:00:03.664,0.00212761363945901,-0.00221445364877582,6.09564558544662e-05,0,
00:00:03.668,-0.00281494343653321,-0.00186483410652727,0.000107870924693998,0,
00:00:03.672,-0.00259287399239838,-0.000249256350798532,8.901416003936899e-05,0,
00:00:03.676,-0.0007206623558886349,0.000922527513466775,0.00211556907743216,0,
00:00:03.68,0.000816626939922571,-0.0008945226436480881,-0.00405716849491,0,
00:00:03.684,0.00134198553860188,0.00274644093587995,0.00030301534570753596,0,
00:00:03.688,0.0010224211728200301,0.0018006197642535,0.0014335945015773199,0,
00:00:03.692,0.000356531498255208,-0.00011558446567505601,0.0010011879494413699,0,
00:00:03.696,-0.00021027411276008899,-0.00128640187904239,0.00018179664039053,0,
00:00:03.7,-0.000464109441963956,0.000700826465617865,-0.00038978189695626497,0,
00:00:03.704,-0.000419068237533793,-0.0048258188180625395,-0.000538664986379445,0,
00:00:03.708,-0.00021510236547328502,0.00236319215036929,-0.000375096075003967,0,
00:00:03.712,-0.00208000955171883,-0.0021596152801066602,-0.000105159568192903,0,
00:00:03.716,0.00209604972042143,0.00188602157868445,0.000105291976069566,0,
00:00:03.72,0.00178400846198201,-5.3510397265199606e-05,0.000186802557436749,0,
00:00:03.724,0.00027050159405916897,0.000643125444184989,-0.0019199480302631898,0,
00:00:03.728,0.00125804322306067,0.00525178853422403,0.00412249006330967,0,
00:00:03.732,-0.00302870618179441,0.0072072371840477,-0.000341762148309499,0,
00:00:03.736,-0.00231696129776537,-0.00892960745841265,-0.00151652982458472,0,
00:00:03.74,0.00178089970722795,-0.0150863481685519,-0.0010743581224232901,0,
00:00:03.744,-0.00292322877794504,-0.0032813658472150603,-0.00229362770915031,0,
00:00:03.748,-0.00030312439776025696,0.008976791985332971,0.00236623175442219,0,
00:00:03.752,0.006461589597165579,0.0138032827526331,0.00427886517718434,0,
00:00:03.756,0.000893516524229199,0.00285723805427551,-0.00139799946919084,0,
00:00:03.76,-0.00161971244961023,-0.0038109235465526602,-0.00443938747048378,0,
00:00:03.764,-0.0019435350550338602,-0.00552630610764027,0.000669124710839242,0,
00:00:03.768,-0.00114970770664513,-0.00388316228054464,0.00166239775717258,0,
00:00:03.772,-0.00016046730161178898,0.000941739301197231,0.0030349579174071602,0,
00:00:03.776,-0.0015943800099194,-0.0009685111581347881,-0.0040399762801826,0,
00:00:03.78,0.00261331512592733,-0.00187744945287704,-0.000197913715965115,0,
00:00:03.784,0.00416388642042875,0.00333778420463204,0.000888012116774917,0,
00:00:03.788,-0.00373759842477739,0.0011100294068455698,0.000698609685059637,0,
00:00:03.792,-0.00061567360535264,0.00308795808814466,0.00017263185873162,0,
00:00:03.796,0.000233461323659867,0.00298820179887116,-0.00021219345217105,0,
00:00:03.8,0.00229096971452236,-0.0012131098192185198,-0.00032292079413309704,0,
00:00:03.804,-0.00402985280379653,-0.007794363424181941,-0.00230335397645831,0,
00:00:03.808,0.000244215480051935,-0.00349706271663308,0.00399093143641949,0,
00:00:03.812,0.0013810598757118,0.00584950717166066,-0.000262115820078179,0,
00:00:03.816,0.00100014870986342,0.00210516341030598,-0.00134395144414157,0,
00:00:03.82,0.00022682112467009599,0.000131912238430232,-0.00299577042460442,0,
00:00:03.824,-0.000329002301441506,-0.000645447056740522,0.0018354706699028603,0,
00:00:03.828,-0.000490985112264752,-0.000688187719788402,0.00203295075334609,0,
00:00:03.832,-0.000354006129782647,-0.000394901144318283,0.000692484027240425,0,
00:00:03.836,-0.00010814752749865899,-6.381310231518e-05,-0.000495147833134979,0,
00:00:03.84,8.9631401351653e-05,0.000143136101542041,-0.000940699654165655,0,
00:00:03.844,0.000170449799043126,-0.00395919615402818,-0.000740841380320489,0,
00:00:03.848,-0.0019297165563330102,0.00408312724903226,-0.00026357898605056096,0,
00:00:03.852,0.00412073824554682,0.00539734726771712,0.000153717599459924,0,
00:00:03.856,-0.00033809128217399104,0.000418971903854981,0.000344538420904428,0,
00:00:03.86,-0.00151127448771149,-0.00329060526564717,0.00031395565019920495,0,
00:00:03.864,0.0010053418809548,-0.00590246496722102,-0.00191225775051862,0,
00:00:03.868,-0.0042674969881773,-0.0043371161445975295,0.0040571610443294,0,
00:00:03.872,0.000723574485164136,0.0014328568940982199,-0.00042176031274721,0,
00:00:03.876,0.00202448689378798,0.00881385989487171,-0.00157080183271319,0,
00:00:03.88,0.00141861534211785,0.00242005940526724,-0.00109031808096915,0,
00:00:03.884,0.000305313966237009,-0.0033564253244549,-0.00228035356849432,0,
00:00:03.888,-0.000498622946906835,-0.000473318184958771,0.00446666684001684,0,
00:00:03.892,-0.000740304181817919,0.00179364974610507,0.000248476659180596,0,
00:00:03.896,-0.000545993098057806,-0.00047480268403887695,-0.0010552110616117698,0,
00:00:03.9,-0.000185274489922449,-0.00628024898469448,-0.0029755125287920198,0,
00:00:03.904,0.000112502384581603,-0.000145295955007896,0.00168203213252127,0,
00:00:03.908,0.00024196214508265298,0.000282656110357493,0.00184002378955483,0,
00:00:03.912,-0.00186042068526149,0.0042983195744454895,0.0026335036382079103,0,
00:00:03.916,0.00208324450068176,0.00277002668008208,-0.00251390691846609,0,
00:00:03.92,0.00164097070228308,-0.00200218055397272,-0.0046300468966364895,0,
00:00:03.924,0.000112716676085256,0.00242602452635765,0.00111573562026024,0,
00:00:03.928,0.0011593473609536901,0.00195529870688915,0.00227191904559731,0,
00:00:03.932,-0.00305050052702427,-0.00862167868763208,0.0034587006084621,0,
00:00:03.936,-0.00436023017391562,-0.00456951884552836,-0.0018442588625475801,0,
00:00:03.94,0.00380651210434735,0.0035779892932623603,-0.00436567701399326,0,
00:00:03.944,0.0008336728787980969,0.00666600884869695,0.00101271690800786,0,
00:00:03.948,-9.89519594440935e-06,0.00047310342779383096,0.0019892796408385,0,
00:00:03.952,-7.897027535364029e-05,-0.00375541765242815,0.00318815605714917,0,
00:00:03.956,-0.0020682627800852104,0.000332226132741198,-0.00199329829774797,0,
00:00:03.96,0.0020186463370919197,-0.00328930467367172,-0.00438026618212461,0,
00:00:03.964,0.0016564553370699302,0.00418008724227548,0.0010828642407432199,0,
00:00:03.968,0.00221882853657007,0.00914778839796782,0.00207885052077472,0,
00:00:03.972,-0.00288131879642606,-0.00403265235945582,0.00117486657109112,0,
00:00:03.976,-0.00273108575493097,-0.0110260266810656,1.86631530141312e-06,0,
00:00:03.98,-0.000845373491756618,-0.00232387729920447,-0.000676045892760158,0,
00:00:03.984,0.000751779822167009,0.0008085641311481599,-0.0028185083065182,0,
00:00:03.988,-0.000736337911803275,0.00614328077062964,0.0036215861327946203,0,
00:00:03.992,0.00510836904868484,0.00450094416737556,-0.000374363211449236,0,
00:00:03.996,-0.0020107834134250897,-0.00115623231977224,-0.00125020148698241,0,
00:00:04,0.0024037046823650603,0.00234520132653415,-0.000742372358217835,0,
00:00:04.004,-0.00180933682713658,-0.0007327015046030281,1.21216162369819e-05,0,
00:00:04.008,-0.00207621697336435,-0.00731759099289775,0.000463209376903251,0,
00:00:04.012,-0.0008507455931976441,-0.00127370480913669,0.0005102759459987281,0,
00:00:04.016,-0.0017267153598368198,-0.00039262877544388197,0.000299354869639501,0,
00:00:04.02,0.00287097529508173,0.006291439291089771,-0.0020415645558387,0,
00:00:04.024,0.00244153197854757,0.0011227988870814401,0.0018323261756449899,0,
00:00:04.028,0.0005502558778971429,-0.0031996937468648,0.00145314645487815,0,
00:00:04.032,0.00117988395504653,0.00465530436486006,0.00211660447530448,0,
00:00:04.036,-0.00329162483103573,-0.00320290611125529,-0.00286556221544743,0,
00:00:04.04,-0.004655041731894021,-0.00533162988722324,-0.0047208578325808,0,
00:00:04.044,0.0015293931355699901,0.0011173974489793199,0.0012238948838785302,0,
00:00:04.048,0.0027481843717396303,0.0027621553745120803,0.00245364243164659,0,
00:00:04.052,0.00167948508169502,0.0019258389947935898,0.00360698765143752,0,
00:00:04.056,0.00018831965280696698,-0.00164183008018881,-0.00177861750125885,0,
00:00:04.06,-0.0007586006540805099,0.00133132189512253,-0.004376385360956189,0,
00:00:04.064,-0.00302432477474213,0.000666763517074287,0.0009619806660339241,0,
00:00:04.068,0.00343148107640445,0.00152711593545973,0.00193690846208483,0,
00:00:04.072,-0.00047385043581016394,-0.0009935818379744892,0.00108152185566723,0,
00:00:04.076,0.000821754394564778,-0.00242569576948881,-2.3008740754448802e-05,0,
00:00:04.08,-0.004739718046039339,-0.006183301564306021,-0.000650222005788237,0,
00:00:04.084,0.00040974994772113903,-0.0008736224262975161,-0.000698361895047128,0,
00:00:04.088,0.00197112560272217,0.0057558869011700205,-0.00039336993359029304,0,
00:00:04.092,0.0015419980045408,0.00472915079444647,-2.5273977371398397e-05,0,
00:00:04.096,-0.0016028160462155901,-0.000783277733717114,0.00021192742860876002,0,
00:00:04.1,0.0015924412291497,0.000531471276190132,0.00026483274996280697,0,
00:00:04.104,0.000933614384848624,0.0013220707187429099,-0.00189159903675318,0,
00:00:04.108,0.00167387654073536,-0.00158211903180927,0.0041097616776824,0,
00:00:04.112,-0.00306104752235115,-0.00515678897500038,-0.000373035785742104,0,
00:00:04.116,-0.004680793266743421,-0.00460898037999868,-0.00154524110257626,0,
00:00:04.12,0.00138800917193294,-0.00135531660635024,-0.00108926312532276,0,
00:00:04.124,0.000545585935469717,0.00603754678741097,-0.00229407264851034,0,
00:00:04.128,0.0036049208138138104,0.0119362836703658,0.0023744252976030103,0,
00:00:04.132,0.00393029395490885,0.00457369582727551,0.00428858725354075,0,
00:00:04.136,-0.000420362805016339,-0.0118644135072827,-0.00139156181830913,0,
00:00:04.14,-0.007426817901432509,-0.0117276972159743,-0.0044376365840435,0,
00:00:04.144,-0.001459417399019,-0.00224016327410936,0.000667382555548102,0,
00:00:04.148,0.001539571210742,0.0050499257631599894,0.00165936094708741,0,
00:00:04.152,0.00216167815960944,0.00893201865255833,0.00303246849216521,0,
00:00:04.156,-0.000647307431790978,0.00463537918403745,-0.0019652962218970104,0,
00:00:04.16,0.0023168500047177102,-0.0006337459199130541,-0.0042488309554755705,0,
00:00:04.164,0.00327511737123132,-0.00143596634734422,0.00122214877046645,0,
00:00:04.168,-0.00250109750777483,-0.00555081060156226,0.00216449634172022,0,
00:00:04.172,-0.0030299264471977897,-0.0036044286098331204,0.00119292316958308,0,
00:00:04.176,-0.00141828192863613,-0.00027577555738389503,-2.721328928601e-05,0,
00:00:04.18,0.000287044997094199,-0.000156179507030174,-0.000720197276677936,0,
00:00:04.184,-0.0009170165867544711,0.000174467495526187,-0.000776758999563754,0,
00:00:04.188,0.00310951471328735,0.00920700374990702,-0.000443038035882637,0,
00:00:04.192,0.0043182587251067205,0.00807346310466528,-3.6820936657022705e-05,0,
00:00:04.196,-0.0017884288681671,-0.00856573134660721,0.00022762603475712202,0,
00:00:04.2,-0.00283561437390745,-0.0107041765004396,0.000289717805571854,0,
00:00:04.204,-0.00369679997675121,-0.00312130409292877,0.000203747506020591,0,
00:00:04.208,0.00190945749636739,0.005555845331400629,6.67096101096831e-05,0,
00:00:04.212,0.0025095003657043,0.00780612509697676,-4.18987619923428e-05,0,
00:00:04.216,0.0032560678664594897,0.002648871159181,-8.742007048567758e-05,0,
00:00:04.22,-0.00219875550828874,-0.0041931439191103,-7.65356380725279e-05,0,
00:00:04.224,-0.00256146467290819,-0.0060158614069223395,-3.73338261852041e-05,0,
00:00:04.228,-0.00313158961944282,0.000596238940488547,0.00207738415338099,0,
00:00:04.232,0.00238112057559192,0.00244423188269138,-0.00195164862088859,0,
00:00:04.236,0.0027031940408051,-0.000246286828769371,-0.0016156373312696802,0,
00:00:04.24,0.00111448974348605,0.00455556996166706,-0.00223616021685302,0,
00:00:04.244,-0.00042033501085825297,-0.000835513288620859,0.00282185897231102,0,
00:00:04.248,-0.00111212383490056,-0.00231328862719238,0.00266432529315352,0,
00:00:04.252,-0.000987839070148766,-0.00167858053464442,0.0028749778866767896,0,
00:00:04.256,-0.0004508345737122,-0.000431433931225911,-0.00274297106079757,0,
00:00:04.26,-0.00199469970539212,-0.00156793009955436,-0.00504913181066513,0,
00:00:04.264,0.0023452681489288803,0.00487721571698785,0.000759566552005708,0,
00:00:04.268,0.00410361355170608,0.00030704107484780295,0.0021031815558672,0,
00:00:04.272,-0.0015665863174945099,-0.00122072466183454,0.00347130163572729,0,
00:00:04.276,-0.00244192988611758,0.0009565649088472131,-0.0017311645206064,0,
00:00:04.28,-0.0012904953910037901,-0.0024215979501605,-0.00424234941601753,0,
00:00:04.284,-0.0019878395833075,-0.00564197264611721,0.0010891234269365699,0,
00:00:04.288,0.000752120744436979,3.9616803405806395e-05,0.00200547813437879,0,
00:00:04.292,0.00451363483443856,0.0105275195091963,0.00108643621206284,0,
00:00:04.296,0.0064750304445624395,0.009092805907130241,0.0020183790475130103,0,
00:00:04.3,-0.0045783785171806795,-0.00829296093434095,-0.00474391551688313,0,
00:00:04.304,-0.00749243842437863,-0.0109718637540936,-0.000394166330806911,0,
00:00:04.308,-0.00036733690649271,-0.00354833086021245,0.00106294569559395,0,
00:00:04.312,0.00238473224453628,0.007329128216952091,0.00307725160382688,0,
00:00:04.316,0.00445349002256989,0.005752291996032,-0.0015653608134016401,0,
00:00:04.32,-0.00287358905188739,-0.005123070906847721,-0.00383896008133888,0,
00:00:04.324,0.000280341570032761,-0.000356252305209637,0.0014387076953426,0,
00:00:04.328,0.0007342313183471559,0.00601423252373934,0.00423600850626826,0,
00:00:04.332,0.000228596793022007,-9.3416849267669e-05,-0.000921961036510766,0,
00:00:04.336,-0.000286293536191806,-0.000493519299197942,-0.00183180114254355,0,
00:00:04.34,-0.000469892169348896,-0.00646508065983653,-0.00100500485859811,0,
00:00:04.344,-0.000353054259903729,-0.000744454097002745,-0.00203982181847095,0,
00:00:04.348,-0.00218764320015907,0.00170538958627731,0.00466389302164316,0,
00:00:04.352,0.00206646951846778,0.0019466653466224699,0.000310586678097025,0,
00:00:04.356,0.00389618845656514,0.00319119333289564,-0.00111426587682217,0,
00:00:04.36,-0.0016418305458501,-0.00184346071910113,-0.00101244915276766,0,
00:00:04.364,-0.0024067631457001,-0.00212770816870034,-0.00039278590702451803,0,
00:00:04.368,-0.00120546168182045,-0.000798328022938222,0.00014738907339051398,0,
00:00:04.372,-0.00190998672042042,-0.00165490468498319,0.000379885139409453,0,
00:00:04.376,0.00286818435415626,0.000809954653959721,0.000332684314344078,0,
00:00:04.38,0.00046356397797353604,0.00436262134462595,0.000148847349919379,0,
00:00:04.384,0.00471016671508551,0.00417909026145935,-0.0021057859994471104,0,
00:00:04.388,-0.00116449198685586,-0.000698706542607397,0.00392577517777681,0,
00:00:04.392,-0.00277231191284955,-0.00582138169556856,-0.00046207825653255,0,
00:00:04.396,-0.0019854442216455897,-0.0037906472571194202,-0.00154108786955476,0,
00:00:04.4,-0.000492352817673236,-0.00229156669229269,-0.00310829235240817,0,
00:00:04.404,0.000632402894552797,0.00405198987573385,0.00182018568739295,0,
00:00:04.408,0.00101378839462996,0.00616970099508762,0.0020809660200029603,0,
00:00:04.412,0.000788096629548818,-0.0023461109958589103,0.000756907276809216,0,
00:00:04.416,0.000306802976410836,0.00183362478855997,-0.000448759907158092,0,
00:00:04.42,-0.00011309811088722199,-0.0021595859434455603,-0.000924750929698348,0,
00:00:04.424,-0.00031359292916022203,-0.00629739137366414,-0.00074952410068363,0,
00:00:04.428,-0.00237356196157634,0.00527626881375909,-0.000282926193904132,0,
00:00:04.432,0.0038898058701306603,0.0017931089969351899,0.000136449016281404,0,
00:00:04.436,-0.0024214829318225397,-0.0023845967371016697,0.000335905147949234,0,
00:00:04.44,0.0005902412231080231,0.00507361069321632,0.000314081640681252,0,
00:00:04.444,0.0027976525016129,-0.0011133475927636,0.00016871708794497,0,
00:00:04.448,-0.0019148380961269101,-0.0074996612966060595,1.1986092431470801e-05,0,
00:00:04.452,-0.0041427705436945,-0.000724800163879991,-8.46706534503028e-05,0,
00:00:04.456,0.00130352273117751,0.00456152856349945,-0.00010486224346095699,0,
00:00:04.46,0.00220624264329672,0.000805749616120011,-7.16924914740957e-05,0,
00:00:04.464,0.00120490451809019,-0.00217885663732886,-2.15488034882583e-05,0,
00:00:04.468,-2.98544746328844e-05,0.00186894775833935,1.70028160937363e-05,0,
00:00:04.472,-0.0007257259567268191,0.0016437757294625,3.22300220432226e-05,0,
00:00:04.476,-0.00285512208938599,-0.0018860255368053898,2.72841480182251e-05,0,
00:00:04.48,0.00360931199975312,0.00316156493499875,1.26691611512797e-05,0,
00:00:04.484,-0.00244254595600069,-0.00354061974212527,-0.00207710103131831,0,
00:00:04.488,0.000741183815989643,-0.000237208470935002,0.0040421667508781,0,
00:00:04.492,0.000913798401597887,0.0025299144908785803,-0.00034283017157577,0,
00:00:04.496,0.000196075794519857,-0.00171904824674129,-0.00147081247996539,0,
00:00:04.5,-0.000379812117898837,-0.00167288072407246,-0.0010208977619186,0,
00:00:04.504,-0.000521742040291429,-0.000325639673974365,-0.00225858017802238,0,
00:00:04.508,-0.000336113327648491,0.0028116360772401103,0.004451252520084379,0,
00:00:04.512,-0.00212633539922535,-0.00302658346481621,0.00021795037901029,0,
00:00:04.516,0.00213259574957192,-0.00310945766977966,-0.00108145584817976,0,
00:00:04.52,0.0018630279228091199,0.00767507823184133,-0.0029879773501306803,0,
00:00:04.524,0.004496302455663679,0.00833128951489925,0.0016829812666401302,0,
00:00:04.528,-0.00680292909964919,-0.00948340073227882,0.0039241905324161105,0,
00:00:04.532,-0.0023574065417051302,-0.00759765645489097,-0.00140846497379243,0,
00:00:04.536,0.0005945008015260099,0.0011841251980513302,-0.00217498000711203,0,
00:00:04.54,0.00172042951453477,0.0037499889731407205,-0.00316385994665325,0,
00:00:04.544,0.00148046156391501,0.0028804042376577898,0.0021335727069526898,0,
00:00:04.548,-0.00143628637306392,0.000920501188375056,0.00245388806797564,0,
00:00:04.552,0.0018264139071106898,-0.000641322112642229,0.0030593806877732303,0,
00:00:04.556,0.00109103415161371,-0.00124910473823547,-0.00446982402354479,0,
00:00:04.56,-0.000371970556443557,-0.00103653862606734,-0.000696939066983759,0,
00:00:04.564,-0.00115320307668298,-0.00044566573342308397,0.000572383811231703,0,
00:00:04.568,-0.0010639602551236699,0.0001032828076859,0.00270741013810039,0,
00:00:04.572,-0.000490170554257929,0.00246161851100624,-0.00169242662377656,0,
00:00:04.576,0.00010219279647572,-0.0015874122036621,-0.00168625812511891,0,
00:00:04.58,0.00043148992699571,-0.0014185832114890198,-0.0024455816019326396,0,
00:00:04.584,-0.0016235614893958,-0.00222123693674803,0.00264281313866377,0,
00:00:04.588,0.00225143833085895,0.0027238929178565697,0.00259388680569828,0,
00:00:04.592,0.0016989060677588,0.00461816694587469,0.00290589593350887,0,
00:00:04.596,0.00215776520781219,-0.00125974183902144,-0.0026624221354723,0,
00:00:04.6,-0.00296099833212793,-0.00035922590177506203,-0.00497261667624116,0,
00:00:04.604,-0.00277927424758673,-0.0055398074910044705,0.0008014119812287389,0,
00:00:04.608,-0.00500225881114602,-0.00190099340397865,0.00210692710243165,0,
00:00:04.612,0.00680174631997943,0.008269744925200941,0.0013753850944340199,0,
00:00:04.616,0.00475480360910296,0.0036989822983741795,0.00021867801842745402,0,
00:00:04.62,-0.0042598545551300005,-0.0104878284037113,-0.000542211928404868,0,
00:00:04.624,-0.00112363486550748,-0.00496880616992712,-0.000714707595761865,0,
00:00:04.628,6.56616466585547e-05,0.00886774249374866,-0.00047537454520352196,0,
00:00:04.632,0.000320578808896244,0.0040924740023911,0.00196531950496137,0,
00:00:04.636,0.000217501103179529,-7.73262800066732e-05,-0.0018138682935386898,0,
00:00:04.64,5.4428044677479206e-05,-0.000103082420537248,-0.00346149527467787,0,
00:00:04.644,-4.69129699922632e-05,-0.00426167016848922,0.0020021493546664697,0,
00:00:04.648,-0.00214415369555354,-0.00291179143823683,0.0025711478665471103,0,
00:00:04.652,0.0019356160191819102,-0.000261669338215142,0.00326119526289403,0,
00:00:04.656,0.00164276419673115,-0.000569813593756408,-0.00226025329902768,0,
00:00:04.66,0.000204325959202833,0.0038249529898166704,-0.0047366302460432105,0,
00:00:04.664,-0.0008102323627099389,0.00491161597892642,0.000825091789010912,0,
00:00:04.668,-0.00100551929790527,-0.00362254260107875,0.00198868289589882,0,
00:00:04.672,-0.0026996540836989897,-0.000944032857660204,0.00329702836461365,0,
00:00:04.676,0.00396424904465675,0.00392600800842047,-0.00186714343726635,0,
00:00:04.68,-4.2213636334054206e-05,-0.00407936610281467,-0.00429813098162413,0,
00:00:04.684,0.00101122201886028,-0.0033939692657440896,0.00110402377322316,0,
00:00:04.688,-0.0047724898904562,-0.00247003464028239,0.00413107080385089,0,
00:00:04.692,0.000261236447840929,0.00163407856598496,-0.000840033579152077,0,
00:00:04.696,-0.000257101433817297,0.0057781096547842,-0.00167211459483951,0,
00:00:04.7,0.005503767635673279,0.00526471482589841,-0.000866832851897925,0,
00:00:04.704,0.000125582912005484,-0.00240555964410305,0.000102802550827619,0,
00:00:04.708,-0.00181196385528892,-0.0040908260270953204,0.000609387410804629,0,
00:00:04.712,-0.00167847098782659,-0.0005906434962525959,0.000600866391323507,0,
00:00:04.716,-0.000727401464246213,-0.0024782542604953103,0.000303032691590488,0,
00:00:04.72,-0.0019086915999651,-0.00272110523656011,-2.26644915528595e-05,0,
00:00:04.724,0.00258260103873909,0.00114283454604447,-0.00021464975725393702,0,
00:00:04.728,0.000154342473251745,0.00549136055633426,-0.000239961955230683,0,
00:00:04.732,0.0045408047735691105,0.00526507664471865,-0.000153835208038799,0,
00:00:04.736,-0.00116551574319601,-0.00222799694165587,-3.8122845580801395e-05,0,
00:00:04.74,-0.00474260095506907,-0.0059632295742631,4.5750224671792205e-05,0,
00:00:04.744,0.00219183322042227,0.00151228357572109,7.51601837691851e-05,0,
00:00:04.748,-0.000739966984838247,0.00126526260282844,6.0123926232336096e-05,0,
00:00:04.752,-0.00288261729292572,-0.00456603057682514,2.55454488069518e-05,0,
00:00:04.756,0.00402494892477989,0.00689137680456042,-5.62430386708002e-06,0,
00:00:04.76,0.000231567173614167,-0.00574415409937501,-2.1423817088361802e-05,0,
00:00:04.764,-0.0028694486245513,-0.00328863319009542,-2.14550582313677e-05,0,
00:00:04.768,0.00137616484425962,0.0036090894136577797,-1.2254877219675099e-05,0,
00:00:04.772,-0.000548101670574397,0.00182054087053984,0.00207417062483728,0,
00:00:04.776,0.00444590579718351,0.0014925933210179199,-0.00197001453489065,0,
00:00:04.78,-0.000883604749105871,0.0050371005199849606,-0.00371074955910444,0,
00:00:04.784,-0.00230532907880843,0.000215031337575056,0.00180335156619549,0,
00:00:04.788,-0.00161976483650506,-0.00790865626186132,0.00456227594986558,0,
00:00:04.792,-0.000348803674569353,-0.00247251125983894,-0.000771630206145346,0,
00:00:04.796,-0.00149443617556244,0.000703211582731456,-0.0018563496414572,0,
00:00:04.8,0.0049205445684492605,0.0018537058494985101,-0.00320067931897938,0,
00:00:04.804,0.000317344383802265,0.0036845626309514,0.0018855647649616,0,
00:00:04.808,-0.00330857862718403,-0.00329400645568967,0.004254913888871671,0,
00:00:04.812,0.0008366234251298009,0.00235467310994864,-0.00116851646453142,0,
00:00:04.816,0.00118045031558722,0.00107432692311704,-0.00210607377812266,0,
00:00:04.82,0.00032237503910437205,-0.00312292599119246,-0.0032325517386198,0,
00:00:04.824,-0.000423501624027267,-0.00402373867109418,0.0020101494155824197,0,
00:00:04.828,-0.00272355997003615,0.00219164579175413,0.0044256830587983105,0,
00:00:04.832,0.0036009892355650702,0.00308791059069335,-0.00104022643063217,0,
00:00:04.836,-0.000436032743891701,0.0037031734827905898,-0.0020561285782605397,0,
00:00:04.84,-0.0012975535355508301,-0.00416014716029167,-0.00117353536188602,0,
00:00:04.844,-0.00283018476329744,-0.00283567002043128,-1.3607868822873599e-05,0,
00:00:04.848,0.00200446881353855,0.0043444209732115295,0.000661706959363073,0,
00:00:04.852,0.00213335733860731,0.0020759645849466302,0.000733031425625086,0,
00:00:04.856,-0.00136543076951057,-0.0054200277663767294,0.000426700134994462,0,
00:00:04.86,0.00144226884003729,0.00130149163305759,4.3501524487510296e-05,0,
00:00:04.864,0.00272288150154054,-0.000829719181638211,-0.00021036280668340602,0,
00:00:04.868,-0.00257966271601617,-0.00238353316672146,-0.000273685465799645,0,
00:00:04.872,-0.00483928341418505,0.0046051400713622605,-0.000195323547814041,0,
00:00:04.876,0.000930554699152708,0.000547836651094258,0.0020094255451113,0,
00:00:04.88,0.0022147444542497396,-0.0028878694865852603,-0.00401371996849775,0,
00:00:04.884,0.00145181198604405,-0.00300738401710987,0.000415273971157148,0,
00:00:04.888,0.0002601430460345,0.011435448192059999,0.0036136934068054,0,
00:00:04.892,-0.000530682096723467,0.0037979683838784703,-0.0009192319121211769,0,
00:00:04.896,-0.000721857650205493,-0.0152547275647521,-0.00145780295133591,0,
00:00:04.9,-0.00256465631537139,-0.0060656061396002795,-0.000596093013882637,0,
00:00:04.904,0.00185393518768251,0.0026065781712532,0.000268829055130482,0,
00:00:04.908,0.00179886945988983,0.00822637975215912,0.0006289454759098589,0,
00:00:04.912,0.00251016882248223,0.007237116806209091,0.000518760760314763,0,
00:00:04.916,-0.00261034583672881,0.00043568026740104,0.000193080719327554,0,
00:00:04.92,-0.00257949298247695,-0.0042675808072090106,-0.000103228041552939,0,
00:00:04.924,-0.000824722403194755,-0.009116326458752159,-0.00024398593814112203,0,
00:00:04.928,-0.0013872439740225699,-0.00312284403480589,-0.000226892341743223,0,
00:00:04.932,0.0011543318396434199,0.00492122583091259,0.0019541899673640698,0,
00:00:04.936,0.00668968772515655,0.0071854232810437705,-0.00198381114751101,0,
00:00:04.94,0.000221356094698422,0.000260187865933403,-0.0015808896860107801,0,
00:00:04.944,-0.00247855833731592,-0.00221192021854222,-0.00010139761434402299,0,
00:00:04.948,-0.00455404072999954,-0.00418752431869507,0.0008944153087213641,0,
00:00:04.952,-0.0013196460204199,0.000980918994173408,0.0031189268920570603,0,
00:00:04.956,0.00371593935415149,0.00172953540459275,-0.00135703175328672,0,
00:00:04.96,0.0047295517288148394,0.00082668976392597,-0.00158361403737217,0,
00:00:04.964,0.00033538148272782597,0.00190266000572592,-0.000497689179610461,0,
00:00:04.968,-0.00494255544617772,-0.00262843654491007,0.000424715195549652,0,
00:00:04.972,-0.00545495422556996,-0.000166159647051245,0.0028020131867379,0,
00:00:04.976,0.00172041228506714,-0.0024226054083555898,-0.00352660496719182,0,
00:00:04.98,0.00343218469060957,-0.00281200045719743,0.00046794203808531203,0,
00:00:04.984,0.00232028379105031,0.0009937171125784519,0.00336292176507413,0,
00:00:04.988,0.000495940505061299,0.009492523968219759,-0.0012531450483948,0,
00:00:04.992,-0.00079864967847243,-0.000873225682880729,-0.00170285487547517,0,
00:00:04.996,-0.00118583580479026,-0.0035936371423304103,-0.000686209241393954,0,
00:00:05,-0.0008756116149015719,-0.000532195845153183,0.000307323527522385,0,
00:00:05.004,-0.000299744220683351,-0.00263200700283051,0.000726003549061716,0,
00:00:05.008,-0.00189976440742612,-0.0029564579017460303,0.00060843356186524,0,
00:00:05.012,0.00235897488892078,0.000924180261790752,0.00231577223166823,0,
00:00:05.016,0.0019845007918775103,0.00742472102865577,-0.00207674247212708,0,
00:00:05.02,0.000349114037817344,0.0032368334941566,-0.0019113430753350301,0,
00:00:05.024,-0.000843983085360378,-0.00593200838193297,-0.000434217130532488,0,
00:00:05.028,-0.0011296826414763901,2.97326387226349e-05,0.000700967328157276,0,
00:00:05.032,-0.000747760001104325,-0.00198913202621043,0.00308932852931321,0,
00:00:05.036,-0.000157412228873,-0.0029696188867092102,-0.0012782682897523,0,
00:00:05.04,-0.0017937815282493802,0.000460777489934117,-0.0035510768648237,0,
00:00:05.044,0.00240656663663685,0.0069287447258830105,0.00155675853602588,0,
00:00:05.048,0.00405710050836205,0.00297941430471838,0.0041706464253366,0,
00:00:05.052,-0.00165619410108775,0.000320666760671884,-0.00108582607936114,0,
00:00:05.056,-0.00251830904744565,-0.009848839603364471,-0.0019926193635910697,0,
00:00:05.06,-0.00132637773640454,-0.00273984204977751,-0.0010993068572133801,0,
00:00:05.064,9.112573025049642e-05,-6.89357329974882e-05,1.93757459783228e-05,0,
00:00:05.068,-0.00119855196680874,0.00338398246094584,0.00272403401322663,0,
00:00:05.072,0.00289819971658289,0.00828761793673038,-0.00128088030032814,0,
00:00:05.076,0.0021627526730299,0.004823251627385621,-0.0012535782298073199,0,
00:00:05.08,0.00229407474398613,-0.00687881140038371,-0.000155654299305752,0,
00:00:05.084,-0.0030860025435686103,-0.008631841279566291,0.0006290661985985929,0,
00:00:05.088,-0.00508439913392067,-0.000253756938036531,0.0007630753680132331,0,
00:00:05.092,0.000930640730075538,0.0052092601545155,0.00044775663991458703,0,
00:00:05.096,0.00440243631601334,0.0032141178380698,2.44643379119225e-05,0,
00:00:05.1,-0.0024953223764896397,-0.0041482415981590704,-0.000260334287304431,0,
00:00:05.104,0.000632616982329637,7.12953551555984e-05,-0.000328465132042766,0,
00:00:05.108,0.000910674105398357,0.0013119885697960901,-0.000233165410463698,0,
00:00:05.112,0.00024389917962253102,-0.0011128275655210003,0.0019962100777775,0,
00:00:05.116,-0.00242987414821982,0.00213345536030829,-0.00193159561604261,0,
00:00:05.12,0.00350581249222159,0.0032853540033102,-0.00154510780703276,0,
00:00:05.124,0.00134861469268799,-0.000318929640343413,-9.05677807168104e-05,0,
00:00:05.128,-0.0056278076954186,-0.00488837342709303,0.000886018911842257,0,
00:00:05.132,-0.0005698769818991419,-0.00298470188863575,0.00102712283842266,0,
00:00:05.136,0.00148832506965846,-0.00194423366338015,0.000604693370405585,0,
00:00:05.14,0.00159304041881114,0.00395910069346428,5.20934336236678e-05,0,
00:00:05.144,0.00081717933062464,0.0058474587276578,-0.00032001727959141097,0,
00:00:05.148,-2.05661199288443e-05,-0.0005936884554103019,0.00166219740640372,0,
00:00:05.152,-0.0004967218264937401,-0.000328977883327752,-0.00227196631021798,0,
00:00:05.156,-0.0005499830585904419,-0.0038296009879559296,-0.00174521026201546,0,
00:00:05.16,-0.000335425836965442,-0.00224581197835505,-0.000123474877909757,0,
00:00:05.164,-6.00806270085741e-05,0.00019798602443188402,0.000964821374509484,0,
00:00:05.168,0.000129793610540219,0.00158874515909702,0.00321318139322102,0,
00:00:05.172,0.00018649577395990502,0.00163680105470121,-0.00128927070181817,0,
00:00:05.176,0.000140124640893191,0.0008773294975981121,-0.00156041327863932,0,
00:00:05.18,5.30125180375762e-05,-0.00207627261988819,-0.0005104889278300111,0,
00:00:05.184,-2.06585191335762e-05,0.00350573193281889,0.000396372866816819,0,
00:00:05.188,0.0020209068898111603,-0.000978583702817559,0.000700981705449522,0,
00:00:05.192,-0.0041024289093911604,-0.00189829978626221,0.00258768303319812,0,
00:00:05.196,0.000306063215248287,-0.00322125619277358,-0.00184044160414487,0,
00:00:05.2,0.00146357202902436,0.00397365586832166,-0.00181228772271425,0,
00:00:05.204,0.00103403173852712,0.0023371360730379803,-0.000465960998553783,0,
00:00:05.208,0.00020220632723067,-0.004801715724170211,0.000602590327616781,0,
00:00:05.212,-0.000385411782190204,0.00184769020415843,0.00299266772344708,0,
00:00:05.216,-0.000545552698895335,0.00147926644422114,-0.00133295997511595,0,
00:00:05.22,0.00169017084408551,-0.0023619581479579197,-0.00355787249282002,0,
00:00:05.224,-0.00416437955573201,-0.00340893515385687,0.00158089178148657,0,
00:00:05.228,0.000435341760748997,0.00243306718766689,0.00420253211632371,0,
00:00:05.232,0.00165282329544425,0.00299218972213566,-0.00106307468377054,0,
00:00:05.236,0.0011786683462560199,0.00136751483660191,-0.0019849648233503103,0,
00:00:05.24,0.00025922947679646297,-0.000357141339918599,-0.00110375974327326,0,
00:00:05.244,-0.000403941288823262,0.0008463651174679401,9.75939292402472e-06,0,
00:00:05.248,-0.000600284081883729,-0.00315988739021122,0.000639750447589904,0,
00:00:05.252,0.00163775810506195,-0.00226369802840054,0.0027660229243338104,0,
00:00:05.256,-0.00419294508174062,-0.00225941371172667,-0.0015867358306422801,0,
00:00:05.26,0.000432977016316727,0.0031845425255596603,-0.00161806214600801,0,
00:00:05.264,0.00166678836103529,-0.0010494545567780698,-0.000387778738513589,0,
00:00:05.268,0.0032719608861953,0.011273087002337,0.000580042309593409,0,
00:00:05.272,-0.00170403032097965,0.00498026190325618,0.002921047154814,0,
00:00:05.276,-0.0020422909874469,-0.0159531068056822,-0.00140254141297191,0,
00:00:05.28,-0.000780110422056168,-0.0121343331411481,-0.00152065046131611,0,
00:00:05.284,-0.00167644780594856,0.00486282631754875,-0.000398328324081376,0,
00:00:05.288,0.0028565265238285104,0.00879277661442757,0.000502728566061705,0,
00:00:05.292,0.0023701535537838897,0.005812684539705511,0.00283407210372388,0,
00:00:05.296,0.00046068624942563496,0.0011149907950311901,-0.00145938701462001,0,
00:00:05.3,-0.000965830928180367,-0.004258077591657639,-0.00361178768798709,0,
00:00:05.304,0.000727245002053678,0.000917559082154185,0.00366814224980772,0,
00:00:05.308,-0.00291044544428587,0.0015258651692420199,0.00019618813530542,0,
00:00:05.312,-0.0018902000738307801,-0.00827022641897202,0.0013910043053329,0,
00:00:05.316,0.000108967578853481,-0.00186612561810762,-0.00454520620405674,0,
00:00:05.32,0.00133153889328241,2.78156749118352e-05,0.00025285230367444504,0,
00:00:05.324,0.0014311041450128,0.007200997788459059,0.00164866063278168,0,
00:00:05.328,0.000813220744021237,0.00394925614818931,0.0033234488219022803,0,
00:00:05.332,5.7510573242325295e-05,-0.0049055623821914205,-0.00165972579270601,0,
00:00:05.336,-0.000435558788012713,-0.0013126266421750199,-0.00203683273866773,0,
00:00:05.34,0.00152550917118788,0.00226070056669414,-0.000807855860330164,0,
00:00:05.344,-0.00236237561330199,-0.00146152428351343,0.000360331410774961,0,
00:00:05.348,-0.0017697714501991898,-0.00131124921608716,0.0008508528699167071,0,
00:00:05.352,-9.900693839881569e-05,-0.00012821145355701398,0.00279112253338099,0,
00:00:05.356,0.0010074370075017199,0.00278694671578705,-0.0037645706906914702,0,
00:00:05.36,0.00117231777403504,-0.00319173349998891,0.000220995192648843,0,
00:00:05.364,0.000701464654412121,0.000856138474773616,0.0032307233195751897,0,
00:00:05.368,7.90148915257305e-05,0.00360236107371747,-0.00125387602020055,0,
00:00:05.372,-0.000345485546858981,-0.0032894324976950897,-0.00162275694310665,0,
00:00:05.376,-0.000458736962173134,0.000172012223629281,-0.000591709744185209,0,
00:00:05.38,-0.00033390914904885,0.0028893337585032,0.000370208581443876,0,
00:00:05.384,0.00195597088895738,-0.0015980179887265,0.000743537268135697,0,
00:00:05.388,-0.0039949701167643105,-0.00179982197005302,0.0005919215618632731,0,
00:00:05.392,0.0025438463781029,0.00149454025086015,0.000210635625990108,0,
00:00:05.396,-0.00246315915137529,-0.00355764757841825,-0.000125703707453795,0,
00:00:05.4,0.0014163287123665198,0.00121676456183195,-0.000280202919384465,0,
00:00:05.404,0.00372694013640285,0.00214810948818922,-0.000255581893725321,0,
00:00:05.408,-0.00138813839294016,0.00333026889711618,0.0019422288751229603,0,
00:00:05.412,-0.00204779813066125,-0.00194147194270045,-0.00198085024021566,0,
00:00:05.416,-0.00306000211276114,-0.004438441246747971,-0.00157047354150563,0,
00:00:05.42,0.00422973139211535,0.0009585255174897609,-9.10955714061856e-05,0,
00:00:05.424,-0.00164991954807192,0.00195313943549991,0.0009002254228107631,0,
00:00:05.428,0.00331168179400265,0.007321362849324941,0.0031196144409477698,0,
00:00:05.432,-0.0009955749846994881,-0.00594779523089528,-0.00135963561479002,0,
00:00:05.436,-0.0016835562419146302,-0.00765958148986101,-0.0015870243078097699,0,
00:00:05.44,-0.0008822774398140609,-0.00133972719777375,-0.00257588620297611,0,
00:00:05.444,7.84347648732364e-05,0.00574514223262668,0.004475019872188571,0,
00:00:05.448,0.000599447637796402,0.00695007806643844,0.000393445428926498,0,
00:00:05.452,0.0006148082320578401,-0.00261179287917912,-0.0009394722292199731,0,
00:00:05.456,0.000332865427481011,-0.00102421280462295,-0.000884203123860061,0,
00:00:05.46,8.198360774258619e-06,0.00116652576252818,-0.000362317136023194,0,
00:00:05.464,-0.000194158419617452,-0.0028344364836812,0.0021752342581749,0,
00:00:05.468,-0.000233323924476281,-0.0042604389600455796,-0.0016724158776924,0,
00:00:05.472,-0.000157758593559265,0.00169252837076783,-0.0013718029949814099,0,
00:00:05.476,-4.641613122657871e-05,0.00479083741083741,-5.5842101573944105e-05,0,
00:00:05.48,0.00211426406167448,0.00166017503943294,0.000817179039586335,0,
00:00:05.484,-0.0019037160091102102,-0.00353768188506365,0.000923625950235873,0,
00:00:05.488,-0.00158178794663399,-0.00262702745385468,0.00259960908442736,0,
00:00:05.492,-0.000149272527778521,0.0018025890458375198,-0.0019566877745091898,0,
00:00:05.496,0.00291537400335073,-0.000683140999171883,-0.00195357738994062,0,
00:00:05.5,-0.00304332608357072,-0.0021574127022177,-0.000561264168936759,0,
00:00:05.504,0.000942745944485068,0.0027468728367239198,0.00265085115097463,0,
00:00:05.508,0.00153391237836331,0.0005251695401966571,-0.00103452033363283,0,
00:00:05.512,0.000716383859980851,0.0006458538700826469,0.00111980643123388,0,
00:00:05.516,0.00185646873433143,0.00901640765368938,-0.0019559091888368104,0,
00:00:05.52,-0.00266793137416244,-0.00550473667681217,-0.0030758748762309603,0,
00:00:05.524,-0.00229831435717642,-0.00668817944824696,0.004541506990790371,0,
00:00:05.528,-0.0005116360844112929,-0.00281907594762743,0.000835384533274919,0,
00:00:05.532,-0.00122276786714792,0.00104919879231602,-0.0004992978647351269,0,
00:00:05.536,0.00321797444485128,0.00283307582139969,-0.000678648066241294,0,
00:00:05.54,0.0025187386199832,0.00047002543578855704,-0.000414930284023285,0,
00:00:05.544,0.000418962154071778,0.00108859210740775,0.0019750886131078,0,
00:00:05.548,0.000973890302702785,0.0055185137316584604,-0.0018826191080734101,0,
00:00:05.552,-0.0013812696561217302,0.0030665078666061198,-0.00150199106428772,0,
00:00:05.556,-0.0046269400045275706,-0.00309263542294502,-8.504330617142841e-05,0,
00:00:05.56,-0.00415117666125298,-0.014035570435226,0.000859025924000889,0,
00:00:05.564,0.0029611391946673398,-0.0026997250970453,0.000988942570984364,0,
00:00:05.568,0.00404540449380875,0.00504212966188788,0.0026506255380809303,0,
00:00:05.572,0.00226981425657868,0.0109531758353114,-0.00193589739501476,0,
00:00:05.576,0.0021380321122705897,0.00665841065347195,-0.00195935601368546,0,
00:00:05.58,-0.00117717578541487,-0.00430946284905076,-0.000580075837206095,0,
00:00:05.584,-0.0051058265380561395,-0.0111088156700134,0.0005567295593209559,0,
00:00:05.588,-0.004840872716158629,-0.00274753128178418,0.00300639937631786,0,
00:00:05.592,0.0024367712903767802,0.00228022923693061,-0.00129028840456158,0,
00:00:05.596,0.0038399894256144797,0.00160666462033987,-0.00144083146005869,0,
00:00:05.6,0.0023382306098938,0.00463176844641566,-0.00037172058364376404,0,
00:00:05.604,0.00233703944832087,0.00452293967828155,0.00048681415501050705,0,
00:00:05.608,-0.0030629942193627397,-0.0024606620427221103,0.00280013936571777,0,
00:00:05.612,-0.0030273355077952103,-0.00373083888553083,-0.00148927525151521,0,
00:00:05.616,-0.0011148864869028302,-0.00433276547119021,-0.0015506895724684,0,
00:00:05.62,0.0005876230425201361,0.0017026262357831,-0.000382441678084433,0,
00:00:05.624,0.00129169493447989,0.0026452010497450803,0.0026144334115088,0,
00:00:05.628,0.00108993554022163,0.00353525415994227,-0.00118478469084948,0,
00:00:05.632,0.000460182200185955,-0.0019548919517546897,-0.00110983522608876,0,
00:00:05.636,-0.000131497625261545,-0.0045185033231973605,-7.10437816451304e-05,0,
00:00:05.64,-0.000434198183938861,0.0009141742484644061,0.000627259607426822,0,
00:00:05.644,-0.000430677464464679,0.00404803501442075,0.0007033566362224519,0,
00:00:05.648,0.0018297963542863698,-0.0008213344844989481,0.0024518109858036,0,
00:00:05.652,-0.0020083968993276397,0.00047537509817630096,-0.0020003467798233,0,
00:00:05.656,-0.0015365470899269,-0.00276967603713274,-0.00191813462879509,0,
00:00:05.66,-3.5780751204583794e-05,-0.0014972829958424,-0.000494890555273741,0,
00:00:05.664,0.000944298459216952,-0.00163733086083084,0.0006310539320111269,0,
00:00:05.668,0.0010624078568071099,0.00547719094902277,0.00304249208420515,0,
00:00:05.672,0.000611372932326049,0.000973562535364181,0.00078375858720392,0,
00:00:05.676,3.9174199628178e-05,-0.000874401943292469,-0.00551502220332623,0,
00:00:05.68,-0.000338849175022915,-0.00531037570908666,-6.40893267700449e-05,0,
00:00:05.684,-0.00042778337956406203,0.00322790769860148,0.00401147548109293,0,
00:00:05.688,-0.00030203638016246297,0.009352898225188259,-0.00023481437528971602,0,
00:00:05.692,-0.000101092125987634,-0.00535705266520381,-0.000965855550020933,0,
00:00:05.696,5.9114736359333606e-05,-0.00421667704358697,-0.00047457727487199003,0,
00:00:05.7,0.000127285820781253,-0.00433252798393369,9.48150845943019e-05,0,
00:00:05.704,0.00218830886296928,-0.0023801224306225803,0.00034348489134572403,0,
00:00:05.708,-0.0019196865614503603,0.00258606136776507,0.0023606000468134897,0,
00:00:05.712,-0.00371930352412164,0.00684626214206219,-0.00188784440979362,0,
00:00:05.716,0.0038398480974137796,0.00589330634102225,-0.0017311597475782,0,
00:00:05.72,0.0025465884245932102,-0.000276454462436959,-0.000343076419085264,0,
00:00:05.724,-0.00243732496164739,-0.00640424061566591,0.000697698793374002,0,
00:00:05.728,-0.00203710305504501,-0.0068238265812397,0.0030308801215142,0,
00:00:05.732,-0.00234840298071504,0.0009765625,-0.00134438835084438,0,
00:00:05.736,0.00292639364488423,0.00544232223182917,-0.0015176463639363599,0,
00:00:05.74,0.0028193627949804102,0.000701926473993808,-0.00042883533751592,0,
00:00:05.744,0.0029677015263587197,-0.0006957608857192099,0.00046574350562877996,0,
00:00:05.748,-0.00274201016873121,0.00141170516144484,0.0028091922868043197,0,
00:00:05.752,-0.00303461798466742,-0.00429738126695156,-0.00146649742964655,0,
00:00:05.756,-0.00336666824296117,0.00041506582056172203,-0.00152967066969723,0,
00:00:05.76,0.00238394201733172,-0.00249341293238103,-0.000371480768080801,0,
00:00:05.764,0.00491904001682997,0.0092617254704237,0.000539023661985993,0,
00:00:05.768,0.00137503130827099,0.0036968523636460296,0.000784555159043521,0,
00:00:05.772,-0.00601037358865142,-0.00941532384604216,0.000525079551152885,0,
00:00:05.776,-0.000930298119783401,-0.00606535281985998,0.000101258359791245,0,
00:00:05.78,0.00128921971190721,0.00243818550370634,-0.00021677854238078,0,
00:00:05.784,0.0015461987350136,0.00623593665659428,-0.00032301180181093503,0,
00:00:05.788,0.00293208728544414,0.0027013085782527898,-0.000252310419455171,0,
00:00:05.792,-0.00193779426626861,-0.00532126892358065,0.0019709172192961,0,
00:00:05.796,-0.00210226257331669,-0.00301398779265583,-0.00194961309898645,0,
00:00:05.8,-0.00279824435710907,0.00284347916021943,-0.00362690864130855,0,
00:00:05.804,0.00246504019014537,0.00270484434440732,0.00396411726251245,0,
00:00:05.808,0.00466185854747891,0.00487329438328743,0.000560399552341551,0,
00:00:05.812,-0.0031307188328355603,-0.0048322561196982895,-0.000431127205956727,0,
00:00:05.816,-0.000247193122049794,-0.00467730639502406,-0.00041175671503879103,0,
00:00:05.82,0.00027967119240202004,-0.00345144630409777,-0.000132915156427771,0,
00:00:05.824,4.04570855607744e-05,0.00127356161829084,0.00215076003223658,0,
00:00:05.828,0.0018623991636559398,0.0100937448441982,-0.0018423366127535699,0,
00:00:05.832,-0.00223554740659893,-0.000360528938472271,-0.0015575099969282699,0,
00:00:05.836,0.000288523122435436,-0.0012718072393909099,-0.000172643369296566,0,
00:00:05.84,-0.00214282283559442,-0.00666577974334359,0.000790226389653981,0,
00:00:05.844,-0.0027636096347123397,-0.000468317593913525,0.0009606099338270721,0,
00:00:05.848,0.00295734708197415,0.00206688069738448,0.0005822918610647321,0,
00:00:05.852,0.00320582860149443,0.0021240080241113897,6.456467963289471e-05,0,
00:00:05.856,0.00339137343689799,0.00105538067873567,-0.000292640790576115,0,
00:00:05.86,-0.00250705610960722,-7.12528490112163e-05,-0.000389243563404307,0,
00:00:05.864,-0.00511112157255411,-0.00277577829547226,-0.00028450158424675497,0,
00:00:05.868,0.0005308246472850441,0.00329454313032329,0.00197243597358465,0,
00:00:05.872,0.0039411704055964895,0.00128729059360921,-0.00192904577124864,0,
00:00:05.876,-0.00072516716318205,-0.00766924070194364,-0.00152826181147248,0,
00:00:05.88,-0.00350428558886051,0.00146899069659412,-7.25986828911118e-05,0,
00:00:05.884,0.00339861144311726,0.0094044515863061,0.00089692568872124,0,
00:00:05.888,0.00195056654047221,-0.00414222571998835,0.00310499430634081,0,
00:00:05.892,-0.0049103866331279295,-0.00496459286659956,-0.00137459160760045,0,
00:00:05.896,0.00192439940292388,-0.00160271243657917,-0.00159575045108795,0,
00:00:05.9,-0.00046597985783591904,-0.000694480258971453,-0.000501440081279725,0,
00:00:05.904,-0.00237043760716915,0.00441757822409272,0.000427479739300907,0,
00:00:05.908,0.00230653304606676,0.00350040360353887,0.0007316207629628481,0,
00:00:05.912,0.0022451814729720397,-0.0012983656488359,0.000529104960151017,0,
00:00:05.916,0.000633294170256704,0.00274450029246509,0.00221261475235224,0,
00:00:05.92,0.00135473813861609,0.0018671586876735102,-0.00215337052941322,0,
00:00:05.924,-0.0031656993087381103,-0.00685849227011204,-0.0019411233952269,0,
00:00:05.928,-0.00255253259092569,-0.00479053147137165,-0.000424354715505615,0,
00:00:05.932,-0.000497226661536843,-0.00023304535716306402,0.000729645136743784,0,
00:00:05.936,0.0010273389052599699,0.000657755648717284,0.00104091677349061,0,
00:00:05.94,0.00143983867019415,0.00515873078256845,0.000711935048457235,0,
00:00:05.944,0.00100428948644549,0.00150102993939072,0.000167961508850567,0,
00:00:05.948,0.00027461361605674,0.00242188782431185,0.0018269745633006102,0,
00:00:05.952,-0.00029586223536171003,-8.114893716992809e-05,-0.00237434566952288,0,
00:00:05.956,-0.00051562482258305,1.9897252059308802e-05,-0.0019634822383523,0,
00:00:05.96,0.00164711475372314,-0.0022640184033662102,-0.00031735014636069504,0,
00:00:05.964,-0.00217138370499015,-0.0029808806721121103,0.0008678944432176651,0,
00:00:05.968,-0.00369441043585539,-0.00606149062514305,0.00113863020669669,0,
00:00:05.972,0.00193983793724328,0.00167863757815212,0.00281991413794458,0,
00:00:05.976,0.0026346563827246397,0.00218934728763998,-0.00390307046473026,0,
00:00:05.98,0.00337088573724031,0.00327006867155433,4.25967809860595e-05,0,
00:00:05.984,-9.48372253333218e-05,0.008929259143769741,0.0010292330989614099,0,
00:00:05.988,-0.00459669250994921,0.00130519282538444,0.00275613483972847,0,
00:00:05.992,-0.00279902946203947,-0.0115018943324685,-0.00193002552259713,0,
00:00:05.996,0.000138739502290264,-0.00487784342840314,-0.00200262060388923,0,
00:00:06,0.0018552577821537898,-0.0014169819187372901,-0.000602264422923326,0,
00:00:06.004,-0.00011578456906136101,0.0052131125703454,0.000581663509365171,0,
00:00:06.008,0.00305031379684806,0.00268312892876565,0.00306371529586613,0,
00:00:06.012,0.00166751665528864,0.0058071860112249895,-0.00123046943917871,0,
00:00:06.016,0.00161437247879803,0.00291607971303165,-0.00140143162570894,0,
00:00:06.02,-0.00151396170258522,-0.00746094807982445,-0.000359624624252319,0,
00:00:06.024,-0.007247235625982279,-0.00816018506884575,0.00047828268725425,0,
00:00:06.028,-0.00063433893956244,-0.00145685137249529,0.000707556318957359,0,
00:00:06.032,0.00234819296747446,0.00582336960360408,0.00047161735710687903,0,
00:00:06.036,0.0025829554069787303,0.007133596576750279,8.447472646366801e-05,0,
00:00:06.04,0.00349981361068785,-0.000329894537571818,-0.00020494073396548602,0,
00:00:06.044,-0.0018947389908134898,-0.0028386947233229897,-0.00029954314231872597,0,
