,Elapsed Time,EMG
0,00:00:00,-0.5002629905939093
1,00:00:00.004,0.46359801292419445
2,00:00:00.008,0.40758427977561895
3,00:00:00.012,0.04629118368029594
4,00:00:00.016,-0.2002625204622745
5,00:00:00.02,-0.2459149658679964
6,00:00:00.024,-0.1564928181469441
7,00:00:00.028,-0.028349728789180538
8,00:00:00.032,0.0682633509859443
9,00:00:00.036,0.1040562260895968
10,00:00:00.04,0.0858469177037478
11,00:00:00.044,0.024737979110795956
12,00:00:00.048,-0.0142518833745271
13,00:00:00.052,-0.027515014866366948
14,00:00:00.056,-0.024136883672326772
15,00:00:00.06,-0.029780109412968107
16,00:00:00.064,-0.00091035303194075
17,00:00:00.068,0.016963552217930562
18,00:00:00.072,0.0121503816335462
19,00:00:00.076,-0.007296836334717232
20,00:00:00.08,0.003052774234674869
21,00:00:00.084,0.01451099058613182
22,00:00:00.088,0.00018613791326060284
23,00:00:00.092,-0.010540707735344771
24,00:00:00.096,-0.0006034703110344733
25,00:00:00.1,0.00810928409919143
26,00:00:00.104,-0.005079962109448389
27,00:00:00.108,-0.0202739458763972
28,00:00:00.112,-0.007066335063427691
29,00:00:00.116,0.024050358682870837
30,00:00:00.12,0.018024176592007304
31,00:00:00.124,-0.014385830902028827
32,00:00:00.128,0.0006753082852810495
33,00:00:00.132,-0.00270081416238099
34,00:00:00.136,-0.007950914616230884
35,00:00:00.14,-0.00888956873677671
36,00:00:00.144,0.00668706255964935
37,00:00:00.148,0.0221291789785027
38,00:00:00.152,-0.0019563288078643386
39,00:00:00.156,-0.01967971120029684
40,00:00:00.16,-0.00989558640867472
41,00:00:00.164,0.01568260672502219
42,00:00:00.168,0.031057581800268956
43,00:00:00.172,-0.005705330293494623
44,00:00:00.176,-0.030405065394006676
45,00:00:00.18,-0.02331065188627687
46,00:00:00.184,0.00384799065068364
47,00:00:00.188,0.01532189187128097
48,00:00:00.192,0.014214246588380762
49,00:00:00.196,0.04018961754627524
50,00:00:00.2,-0.0071017086738720606
51,00:00:00.204,-0.048326872056350154
52,00:00:00.208,-0.02312599826836962
53,00:00:00.212,0.00795412855222821
54,00:00:00.216,0.024084388685878394
55,00:00:00.22,0.01465043204370886
56,00:00:00.224,-0.0009279754012823131
57,00:00:00.228,0.01174694881774485
58,00:00:00.232,-0.007452441030181939
59,00:00:00.236,-0.014646810828708109
60,00:00:00.24,-0.017342076345812536
61,00:00:00.244,-0.00139461120124907
62,00:00:00.248,-7.72536732256355e-05
63,00:00:00.252,0.01152769685722887
64,00:00:00.256,0.018720638938248158
65,00:00:00.26,0.01516313455067575
66,00:00:00.264,-0.0026925321435555816
67,00:00:00.268,-0.03069171286188075
68,00:00:00.272,-0.029828569851815753
69,00:00:00.276,0.01830856828019023
70,00:00:00.28,0.03556866571307177
71,00:00:00.284,0.009461757959797978
72,00:00:00.288,-0.029951021657325348
73,00:00:00.292,-0.018070331891067312
74,00:00:00.296,0.0104888390051201
75,00:00:00.3,0.01140413573011756
76,00:00:00.304,0.004225900513120004
77,00:00:00.308,0.00031452169059776203
78,00:00:00.312,0.0087060562800616
79,00:00:00.316,-0.005850389708939476
80,00:00:00.32,-0.01795007649343464
81,00:00:00.324,-0.0005411118036136014
82,00:00:00.328,0.00754576572217047
83,00:00:00.332,0.015633526258170622
84,00:00:00.336,-0.01522201567422599
85,00:00:00.34,-0.01248334479168986
86,00:00:00.344,0.005400416266638785
87,00:00:00.348,0.011781763983890421
88,00:00:00.352,0.010575834516203062
89,00:00:00.356,-0.004545580537524069
90,00:00:00.36,-0.011979052913375199
91,00:00:00.364,-0.005290761590003976
92,00:00:00.368,0.0249580212403088
93,00:00:00.372,-0.008103607833618265
94,00:00:00.376,-0.02984075411222872
95,00:00:00.38,0.0010094436584040492
96,00:00:00.384,0.012112678494304419
97,00:00:00.388,0.02765600010752682
98,00:00:00.392,0.005848255939781659
99,00:00:00.396,-0.02338502916973085
100,00:00:00.4,-0.013719495851546519
101,00:00:00.404,-0.004856386687606582
102,00:00:00.408,0.0232382293324918
103,00:00:00.412,0.01152613130398095
104,00:00:00.416,-0.01287988841067999
105,00:00:00.42,-0.026713971048593563
106,00:00:00.424,0.0019448496750555948
107,00:00:00.428,0.033286603633314364
108,00:00:00.432,0.02256248891353611
109,00:00:00.436,-0.01835357863456011
110,00:00:00.44,-0.04298307909630232
111,00:00:00.444,-0.0015325556159950801
112,00:00:00.448,0.01302756462246175
113,00:00:00.452,0.014899608213454502
114,00:00:00.456,0.0006083091720938717
115,00:00:00.46,0.013260189327411348
116,00:00:00.464,0.00484760175459086
117,00:00:00.468,-0.007675528991967439
118,00:00:00.472,-0.022658680391032276
119,00:00:00.476,-0.00532104261219502
120,00:00:00.48,0.0096584022976458
121,00:00:00.484,0.00871454260777682
122,00:00:00.488,-0.0031933467835188003
123,00:00:00.492,-0.006030637538060541
124,00:00:00.496,0.0011508948518894639
125,00:00:00.5,0.0056669303448870795
126,00:00:00.504,0.015569200739264478
127,00:00:00.508,0.00861876696581021
128,00:00:00.512,-0.01504112989641726
129,00:00:00.516,-0.02279367879964408
130,00:00:00.52,0.00231182551942765
131,00:00:00.524,0.0006004172319080661
132,00:00:00.528,0.0018757432408165182
133,00:00:00.532,0.00547099625691772
134,00:00:00.536,0.01206897280644625
135,00:00:00.54,-0.004723585909232499
136,00:00:00.544,-0.00503692496567965
137,00:00:00.548,0.0008777044713497097
138,00:00:00.552,0.007865428517106922
139,00:00:00.556,-0.0012788050808012462
140,00:00:00.56,-0.009528575988952074
141,00:00:00.564,-0.006972793955355879
142,00:00:00.568,0.00538180652074515
143,00:00:00.572,0.01035197265446186
144,00:00:00.576,-0.007438729080604386
145,00:00:00.58,-0.00011352798901498968
146,00:00:00.584,0.01048021356109529
147,00:00:00.588,-0.014567723439540709
148,00:00:00.592,-0.008812233107164499
149,00:00:00.596,0.0190705603454262
150,00:00:00.6,0.02798541670199483
151,00:00:00.604,-0.02013949607498946
152,00:00:00.608,-0.031047654571011638
153,00:00:00.612,-0.0008921991102397305
154,00:00:00.616,0.019306225107357
155,00:00:00.62,0.009170169607386924
156,00:00:00.624,-0.009231955715222282
157,00:00:00.628,-0.01642517163418229
158,00:00:00.632,0.00874869537074119
159,00:00:00.636,0.021059426188003234
160,00:00:00.64,0.00500986003316939
161,00:00:00.644,-0.009137671440839771
162,00:00:00.648,-0.008467385778203608
163,00:00:00.652,0.006859217886812989
164,00:00:00.656,-0.02175526460632684
165,00:00:00.66,-0.01279983436688781
166,00:00:00.664,0.01617977884598076
167,00:00:00.668,0.02841281518340116
168,00:00:00.672,-0.005734510719776152
169,00:00:00.676,-0.004064504464622589
170,00:00:00.68,0.016109451418742492
171,00:00:00.684,-0.01963836513459683
172,00:00:00.688,-0.028731015627272368
173,00:00:00.692,-0.0033155722776427904
174,00:00:00.696,0.018258726224303252
175,00:00:00.7,0.015310236340155822
176,00:00:00.704,0.005149172618985181
177,00:00:00.708,0.003299661912024021
178,00:00:00.712,0.0006230179278645671
179,00:00:00.716,0.0013633329945150758
180,00:00:00.72,-0.015133100154343989
181,00:00:00.724,-0.02100188401527703
182,00:00:00.728,-0.0058604201767593605
183,00:00:00.732,0.01673202752135694
184,00:00:00.736,0.007793883618433032
185,00:00:00.74,0.01861651707440615
186,00:00:00.744,-0.0017969876062124929
187,00:00:00.748,-0.005012696608901024
188,00:00:00.752,-0.01417611178476363
189,00:00:00.756,-0.004981415608199306
190,00:00:00.76,0.003916827510693108
191,00:00:00.764,0.012993369251489629
192,00:00:00.768,-0.00961448368616402
193,00:00:00.772,-0.008767924329731613
194,00:00:00.776,0.017701529432088088
195,00:00:00.78,0.00788637017831207
196,00:00:00.784,-0.019966576830483987
197,00:00:00.788,-0.0196616905741394
198,00:00:00.792,0.006566249852767212
199,00:00:00.796,0.028850205009803228
200,00:00:00.8,0.009338748757727451
201,00:00:00.804,-0.009673446533270184
202,00:00:00.808,-0.017381888115778562
203,00:00:00.812,0.006477238814113658
204,00:00:00.816,0.01780101330950853
205,00:00:00.82,-0.018929358746390807
206,00:00:00.824,-0.012309047742746791
207,00:00:00.828,0.006119090132415299
208,00:00:00.832,-0.006859556655399496
209,00:00:00.836,0.0007528846617788
210,00:00:00.84,0.0288878451101482
211,00:00:00.844,0.022553190356120533
212,00:00:00.848,-0.02419704152271147
213,00:00:00.852,-0.022932218853384218
214,00:00:00.856,-0.0093237292021513
215,00:00:00.86,-0.0029165621381252904
216,00:00:00.864,0.010971698357025161
217,00:00:00.868,0.01526740612462162
218,00:00:00.872,0.01001188287045806
219,00:00:00.876,-0.0007180288521340121
220,00:00:00.88,-0.019788382458500592
221,00:00:00.884,-0.0043277727090753615
222,00:00:00.888,0.021549226716160802
223,00:00:00.892,-0.004792113526491445
224,00:00:00.896,0.003684604773297911
225,00:00:00.9,-0.01393850473687053
226,00:00:00.904,-0.0190913972910494
227,00:00:00.908,0.004609487950801851
228,00:00:00.912,0.020758400365593854
229,00:00:00.916,0.01885349460644648
230,00:00:00.92,0.008583275630371645
231,00:00:00.924,-0.02849207515828314
232,00:00:00.928,-0.022713514510542113
233,00:00:00.932,-0.0022713739890605194
234,00:00:00.936,0.01168138312641536
235,00:00:00.94,0.014091365737840492
236,00:00:00.944,0.01271535595878956
237,00:00:00.948,0.013683435157872695
238,00:00:00.952,-0.02326648589223619
239,00:00:00.956,-0.02117608871776614
240,00:00:00.96,0.0002038689563050799
241,00:00:00.964,0.0048824866826180455
242,00:00:00.968,0.025181427641655367
243,00:00:00.972,-0.00013014586875215596
244,00:00:00.976,-0.01379105751402672
245,00:00:00.98,-0.011025585234165192
246,00:00:00.984,0.00562502036336809
247,00:00:00.988,0.008600811124779284
248,00:00:00.992,-0.007856187177822
249,00:00:00.996,0.007132152619305996
250,00:00:01,0.001855312089901418
251,00:00:01.004,-0.00831192196346819
252,00:00:01.008,0.00900538382120428
253,00:00:01.012,-0.01139929448254407
254,00:00:01.016,0.0031345854804385527
255,00:00:01.02,0.004419919801875951
256,00:00:01.024,-0.0005972524522803815
257,00:00:01.028,-0.003334482433274391
258,00:00:01.032,-0.004760548432386708
259,00:00:01.036,0.01194682670757171
260,00:00:01.04,0.01202732545789331
261,00:00:01.044,-0.0068798785796389
262,00:00:01.048,-0.02834569843253122
263,00:00:01.052,-0.000190392223885282
264,00:00:01.056,0.011637366958893837
265,00:00:01.06,0.009143064729869373
266,00:00:01.064,0.015409142710268489
267,00:00:01.068,0.0030972586246207404
268,00:00:01.072,-0.014338667504489418
269,00:00:01.076,-0.02214719762559982
270,00:00:01.08,-0.01233578473329544
271,00:00:01.084,0.01427373604383321
272,00:00:01.088,0.02406271523796021
273,00:00:01.092,0.0038104502018541106
274,00:00:01.096,-0.00503831240348518
275,00:00:01.1,-0.000390429602703079
276,00:00:01.104,0.00829259154852479
277,00:00:01.108,-0.01579926919657739
278,00:00:01.112,-0.02652056247461585
279,00:00:01.116,-3.832465154118443e-06
280,00:00:01.12,0.022928709746338403
281,00:00:01.124,0.0054702431662008106
282,00:00:01.128,0.009828735172050074
283,00:00:01.132,-0.0010619572713039859
284,00:00:01.136,-0.004486403893679391
285,00:00:01.14,-0.004415519590111218
286,00:00:01.144,-0.002906906185671679
287,00:00:01.148,-0.019874575315043313
288,00:00:01.152,0.001218631048686811
289,00:00:01.156,0.02080166636733341
290,00:00:01.16,0.014818794559687352
291,00:00:01.164,-0.00023530540056526444
292,00:00:01.168,-0.01165945513639598
293,00:00:01.172,-0.02497304975986473
294,00:00:01.176,0.00969968666322529
295,00:00:01.18,0.0173321382026188
296,00:00:01.184,0.00378529168665409
297,00:00:01.188,-0.013290420261910185
298,00:00:01.192,-0.007381170056760311
299,00:00:01.196,0.00588645035168156
300,00:00:01.2,0.00230022263713181
301,00:00:01.204,0.0064511930540902505
302,00:00:01.208,0.006252707447856665
303,00:00:01.212,-0.00842794659547507
304,00:00:01.216,-0.0074288952164351905
305,00:00:01.22,-0.003955088672228159
306,00:00:01.224,0.01476936566177756
307,00:00:01.228,-0.00660476600751281
308,00:00:01.232,-0.0013319551871973086
309,00:00:01.236,-0.0013204339775256782
310,00:00:01.24,0.007166191935539242
311,00:00:01.244,-0.0017433264583814872
312,00:00:01.248,-0.0114000397734344
313,00:00:01.252,0.00017050059977918993
314,00:00:01.256,0.010734865994891108
315,00:00:01.26,0.02128805685788391
316,00:00:01.264,-0.00981866312213242
317,00:00:01.268,-0.032261583117360756
318,00:00:01.272,0.008758060350373848
319,00:00:01.276,0.00875131017528474
320,00:00:01.28,0.00483098323456943
321,00:00:01.284,0.002802829603751889
322,00:00:01.288,-0.007841126818675544
323,00:00:01.292,0.0021614398574456607
324,00:00:01.296,-0.0003317430382594501
325,00:00:01.3,-0.004937400459311908
326,00:00:01.304,0.00567565544042736
327,00:00:01.308,0.007720749912550669
328,00:00:01.312,-0.006760851836588701
329,00:00:01.316,-0.004295822058338674
330,00:00:01.32,-0.009735870407894252
331,00:00:01.324,-0.005882880999706693
332,00:00:01.328,0.013788875134196134
333,00:00:01.332,0.02787645161151887
334,00:00:01.336,0.01177861809264868
335,00:00:01.34,-0.03433357947506009
336,00:00:01.344,-0.02013200451619919
337,00:00:01.348,-0.0035946268762927494
338,00:00:01.352,0.00960375810973347
339,00:00:01.356,0.01506180642172694
340,00:00:01.36,0.019230222504120292
341,00:00:01.364,-0.007346959901042289
342,00:00:01.368,-0.012961956206709152
343,00:00:01.372,-0.022790114715462516
344,00:00:01.376,0.006273224396863954
345,00:00:01.38,0.02904380951076742
346,00:00:01.384,0.017283742432482502
347,00:00:01.388,-0.028861122846137725
348,00:00:01.392,-0.025461575482040644
349,00:00:01.396,0.00447228271514178
350,00:00:01.4,0.02081883652135733
351,00:00:01.404,0.012059170985594392
352,00:00:01.408,-0.0005624585610348668
353,00:00:01.412,-0.009737749001942572
354,00:00:01.416,-0.0101409099297598
355,00:00:01.42,0.0034373283851891695
356,00:00:01.424,-0.006736110954079776
357,00:00:01.428,0.006431060377508401
358,00:00:01.432,0.0005437730578705686
359,00:00:01.436,0.0022280113771557795
360,00:00:01.44,0.013632830989081413
361,00:00:01.444,0.0026427272605360477
362,00:00:01.448,-0.005569044034928081
363,00:00:01.452,-0.014204573730239606
364,00:00:01.456,-0.01441543735563756
365,00:00:01.46,0.006458291551098229
366,00:00:01.464,-0.0038140926626510905
367,00:00:01.468,0.01032351562753319
368,00:00:01.472,0.016440820763818913
369,00:00:01.476,0.01913198246620595
370,00:00:01.48,-0.00949597824364901
371,00:00:01.484,-0.022426178213208886
372,00:00:01.488,-0.007340305834077299
373,00:00:01.492,0.00594012322835625
374,00:00:01.496,-0.00929173303302378
375,00:00:01.5,-0.005778689665021371
376,00:00:01.504,0.00466336961835623
377,00:00:01.508,0.01629466854501516
378,00:00:01.512,0.009036374744027856
379,00:00:01.516,0.00328742596320808
380,00:00:01.52,-0.00815249397419393
381,00:00:01.524,0.0008524859149474698
382,00:00:01.528,0.009840552549576382
383,00:00:01.532,-0.013133845641277729
384,00:00:01.536,-0.020453369943425063
385,00:00:01.54,-0.008043685171287502
386,00:00:01.544,0.00547026214189824
387,00:00:01.548,0.01382172241574154
388,00:00:01.552,0.02501580980606377
389,00:00:01.556,0.004139819997362799
390,00:00:01.56,-0.02127209422178566
391,00:00:01.564,-0.0106114175869152
392,00:00:01.568,0.004932647221721711
393,00:00:01.572,-0.00207176577532664
394,00:00:01.576,-0.00014832773013040619
395,00:00:01.58,0.004617174854502078
396,00:00:01.584,-0.0008427012944594002
397,00:00:01.588,0.00030562229221687155
398,00:00:01.592,-0.002492815372534094
399,00:00:01.596,0.005518162943189969
400,00:00:01.6,0.005865807645022873
401,00:00:01.604,0.001937275344971574
402,00:00:01.608,-0.0042651491239667
403,00:00:01.612,-0.0022144091781228815
404,00:00:01.616,-0.008391785610001565
405,00:00:01.62,-0.01462777145206932
406,00:00:01.624,0.017533892649225908
407,00:00:01.628,0.010915927035966885
408,00:00:01.632,-0.009894962247926737
409,00:00:01.636,-0.008121935316012241
410,00:00:01.64,0.01197121228324249
411,00:00:01.644,0.0033158650039695225
412,00:00:01.648,-0.00162613892462104
413,00:00:01.652,-0.0010776095004985094
414,00:00:01.656,-0.00027006270829588
415,00:00:01.66,-0.004429021035321057
416,00:00:01.664,-0.01543136173859239
417,00:00:01.668,0.005539296136703346
418,00:00:01.672,0.009352907713036988
419,00:00:01.676,0.011995814144029282
420,00:00:01.68,0.00956073519773781
421,00:00:01.684,-0.01252712716814131
422,00:00:01.688,-0.01020556339062749
423,00:00:01.692,0.0039167846553027595
424,00:00:01.696,0.005379992508096618
425,00:00:01.7,-0.012908089440315922
426,00:00:01.704,-0.007031774701317781
427,00:00:01.708,0.0026849389541894236
428,00:00:01.712,0.0034910311369458174
429,00:00:01.716,0.0025552923325449246
430,00:00:01.72,0.012210170505568394
431,00:00:01.724,0.024758700979873545
432,00:00:01.728,-0.01590041723102333
433,00:00:01.732,-0.02328615542501209
434,00:00:01.736,-0.011028628447093071
435,00:00:01.74,-0.0016315850662067498
436,00:00:01.744,0.009147117292741314
437,00:00:01.748,0.016179038269910954
438,00:00:01.752,0.010242330376058819
439,00:00:01.756,-0.011824962799437339
440,00:00:01.76,-0.004646606044843793
441,00:00:01.764,0.009841386694461097
442,00:00:01.768,0.00358559878077359
443,00:00:01.772,-0.014935355109628318
444,00:00:01.776,-0.006051668751752003
445,00:00:01.78,-0.004136688774451609
446,00:00:01.784,-0.0011827498674392692
447,00:00:01.788,0.0065793455578386706
448,00:00:01.792,0.01529142807703466
449,00:00:01.796,0.01259709335863591
450,00:00:01.8,-0.017813823593314737
451,00:00:01.804,-0.007077042217133564
452,00:00:01.808,0.003321973141282791
453,00:00:01.812,-0.00406105467118323
454,00:00:01.816,0.0010533882305026098
455,00:00:01.82,0.01316850341390814
456,00:00:01.824,-0.00764171010814607
457,00:00:01.828,-0.01363846811000258
458,00:00:01.832,0.0004538357570709194
459,00:00:01.836,0.00795665406621992
460,00:00:01.84,0.007873264607042081
461,00:00:01.844,0.01400302676483989
462,00:00:01.848,-0.006636431906372309
463,00:00:01.852,-0.005211070965742699
464,00:00:01.856,-0.009289473644457749
465,00:00:01.86,-0.01231581496540457
466,00:00:01.864,0.0032085650600493
467,00:00:01.868,0.0019154429901391198
468,00:00:01.872,0.022813432617112998
469,00:00:01.876,-0.00248336797812954
470,00:00:01.88,-0.023194581968709844
471,00:00:01.884,0.0016452218405902386
472,00:00:01.888,0.02038454043213276
473,00:00:01.892,0.01882830844260755
474,00:00:01.896,-0.0236954987049103
475,00:00:01.9,-0.021815254352986854
476,00:00:01.904,-0.0035269164945930204
477,00:00:01.908,0.014010655926540461
478,00:00:01.912,0.010867393459193408
479,00:00:01.916,0.009023816557601101
480,00:00:01.92,0.0015927355270832695
481,00:00:01.924,-0.006699233781546354
482,00:00:01.928,-0.00479924620594829
483,00:00:01.932,-0.01819204178173095
484,00:00:01.936,-0.00481586658861488
485,00:00:01.94,0.008313403988722714
486,00:00:01.944,0.01644827565178275
487,00:00:01.948,0.010781133285490798
488,00:00:01.952,0.007231836207211021
489,00:00:01.956,-0.02025294513441617
490,00:00:01.96,-0.023626497015357007
491,00:00:01.964,0.013901798076403769
492,00:00:01.968,0.00952515180688351
493,00:00:01.972,0.009224444511346517
494,00:00:01.976,-0.0033415245125070206
495,00:00:01.98,-0.01821195241063836
496,00:00:01.984,-0.004429804626852269
497,00:00:01.988,0.00610884104389697
498,00:00:01.992,0.017241224646568295
499,00:00:01.996,0.004315748810768129
500,00:00:02,-0.009248041780665527
501,00:00:02.004,-0.01005495979916304
502,00:00:02.008,-0.004532920196652411
503,00:00:02.012,0.013884211424738169
504,00:00:02.016,0.0031542637952952637
505,00:00:02.02,-0.0005754590965807403
506,00:00:02.024,-0.00798246485646814
507,00:00:02.028,-0.00012116902507841067
508,00:00:02.032,-0.005093850544653831
509,00:00:02.036,0.00852828659117222
510,00:00:02.04,-0.0033292903681285697
511,00:00:02.044,0.0004884847439825617
512,00:00:02.048,0.0061729644367005685
513,00:00:02.052,-0.00651345576625317
514,00:00:02.056,-0.0031329955672845166
515,00:00:02.06,0.008268648918601686
516,00:00:02.064,0.0022680569672957
517,00:00:02.068,0.0023535719374194793
518,00:00:02.072,0.0012987075024284357
519,00:00:02.076,-0.015519172535277952
520,00:00:02.08,-0.0015017679397715232
521,00:00:02.084,-0.0028479022439569257
522,00:00:02.088,-0.0008510711850249201
523,00:00:02.092,0.006446208019042384
524,00:00:02.096,0.03349911386612807
525,00:00:02.1,-0.005817413199110888
526,00:00:02.104,-0.029018892048043154
527,00:00:02.108,-0.01298661938926671
528,00:00:02.112,-0.0008001276146387639
529,00:00:02.116,0.01902210968546568
530,00:00:02.12,0.02164375782012946
531,00:00:02.124,-0.01244922936893999
532,00:00:02.128,-0.004707923857495187
533,00:00:02.132,0.006957424746360629
534,00:00:02.136,-0.004198759561404591
535,00:00:02.14,-0.029686490132007796
536,00:00:02.144,0.0007302057929337107
537,00:00:02.148,0.016682209912687568
538,00:00:02.152,0.008076090627582765
539,00:00:02.156,0.015207806834951088
540,00:00:02.16,-0.00397863553371281
541,00:00:02.164,-0.017506549134850526
542,00:00:02.168,0.005136777879670266
543,00:00:02.172,0.01274048478808255
544,00:00:02.176,-0.008991893904749294
545,00:00:02.18,-0.01895346050150692
546,00:00:02.184,-0.00259188050404192
547,00:00:02.188,0.01880994447856207
548,00:00:02.192,0.00682441843673587
549,00:00:02.196,-0.0035907290875911704
550,00:00:02.2,-0.011092734406702219
551,00:00:02.204,0.00543586374260484
552,00:00:02.208,0.00709926267154513
553,00:00:02.212,-0.0036761735100299103
554,00:00:02.216,-0.00036117818672210206
555,00:00:02.22,-0.014039523841347549
556,00:00:02.224,0.0033837602823041336
557,00:00:02.228,0.020535874893539568
558,00:00:02.232,-1.3462500646709962e-05
559,00:00:02.236,-0.012596135842613869
560,00:00:02.24,-0.020533451810479143
561,00:00:02.244,0.007484970148652801
562,00:00:02.248,0.02253864763770257
563,00:00:02.252,0.007595915551064541
564,00:00:02.256,-0.0070126246428117295
565,00:00:02.26,-0.0034020399907603895
566,00:00:02.264,-0.01598688727244734
567,00:00:02.268,-0.0080594657920301
568,00:00:02.272,0.02365166763775049
569,00:00:02.276,0.005563809550949374
570,00:00:02.28,-0.015607508597895541
571,00:00:02.284,-0.01227150176418945
572,00:00:02.288,0.0173023648385424
573,00:00:02.292,0.00565914856269955
574,00:00:02.296,0.0033151163952425196
575,00:00:02.3,-0.007160308188758789
576,00:00:02.304,-0.01032019717968069
577,00:00:02.308,0.0021997116855345653
578,00:00:02.312,0.007095522625604639
579,00:00:02.316,0.007502533997467257
580,00:00:02.32,-0.009150624857284122
581,00:00:02.324,-0.008617974934168158
582,00:00:02.328,0.006212194224644919
583,00:00:02.332,0.01214661728590727
584,00:00:02.336,-0.00040166836697608926
585,00:00:02.34,-0.02550187276210643
586,00:00:02.344,0.007006571468082254
587,00:00:02.348,0.01374029682483524
588,00:00:02.352,0.005719057167880239
589,00:00:02.356,-0.0005999077111482581
590,00:00:02.36,-0.0185400382615626
591,00:00:02.364,0.0010813263943418886
592,00:00:02.368,0.006078361242543899
593,00:00:02.372,0.002259180764667693
594,00:00:02.376,0.002947434288216757
595,00:00:02.38,-0.00596453400794417
596,00:00:02.384,-0.00837587396381423
597,00:00:02.388,0.01659479597583414
598,00:00:02.392,0.019454893248621364
599,00:00:02.396,-0.015162977273575962
600,00:00:02.4,-0.02581899939104913
601,00:00:02.404,0.000531196856172759
602,00:00:02.408,0.013457413297146548
603,00:00:02.412,0.002155260182917119
604,00:00:02.416,-0.00202489481307566
605,00:00:02.42,0.0002665792690095252
606,00:00:02.424,0.004189762228634212
607,00:00:02.428,0.00829892209731043
608,00:00:02.432,-0.000620852108113468
609,00:00:02.436,-0.00916189234703779
610,00:00:02.44,-0.015833560959435996
611,00:00:02.444,-0.0026072724722325798
612,00:00:02.448,0.02088598592672496
613,00:00:02.452,0.00526572088710964
614,00:00:02.456,-0.0006511560059152572
615,00:00:02.46,-0.010953034659905823
616,00:00:02.464,-0.0136396826710552
617,00:00:02.468,0.02009171982717822
618,00:00:02.472,0.01212564657907933
619,00:00:02.476,-0.00894178170710797
620,00:00:02.48,-0.01690515410155057
621,00:00:02.484,-0.007166129944380379
622,00:00:02.488,0.02031816635280851
623,00:00:02.492,0.013707379577681408
624,00:00:02.496,-0.012724567670375109
625,00:00:02.5,-0.01371180929709226
626,00:00:02.504,0.0013226377195678601
627,00:00:02.508,-0.00040394945972366324
628,00:00:02.512,0.00221390766091645
629,00:00:02.516,0.01642253249883652
630,00:00:02.52,0.008314258651807911
631,00:00:02.524,-0.005203118373174224
632,00:00:02.528,-0.01341300620697439
633,00:00:02.532,-0.01147344941273331
634,00:00:02.536,-0.006040008040145049
635,00:00:02.54,0.00517692929133773
636,00:00:02.544,0.018669306533411152
637,00:00:02.548,0.01718908851034941
638,00:00:02.552,-0.01923819072544571
639,00:00:02.556,-0.015624522289726904
640,00:00:02.56,0.004039576830109581
641,00:00:02.564,0.00312922848388553
642,00:00:02.568,0.00588414771482349
643,00:00:02.572,-0.00302259414456785
644,00:00:02.576,0.0056454926379956305
645,00:00:02.58,-0.005662035546265542
646,00:00:02.584,0.008076778467511765
647,00:00:02.588,0.004802827374078329
648,00:00:02.592,-0.00605965440627188
649,00:00:02.596,-0.0038142692392284473
650,00:00:02.6,-0.01471597666386515
651,00:00:02.604,-0.0035834640402754294
652,00:00:02.608,0.00927371007855982
653,00:00:02.612,0.024962990777567036
654,00:00:02.616,-2.4634879082439595e-05
655,00:00:02.62,-0.02999582953634674
656,00:00:02.624,0.0025800989242270506
657,00:00:02.628,0.005330034648068251
658,00:00:02.632,0.0034571320356917524
659,00:00:02.636,0.007384995464235541
660,00:00:02.64,0.00843921524938195
661,00:00:02.644,-0.006766276783309876
662,00:00:02.648,-0.009549696274916645
663,00:00:02.652,-0.0014687997754663307
664,00:00:02.656,-0.01050769607536495
665,00:00:02.66,0.00573692587204277
666,00:00:02.664,0.006303318106802181
667,00:00:02.668,0.0026203878223895996
668,00:00:02.672,0.0037822496378794325
669,00:00:02.676,0.0008705344516784
670,00:00:02.68,0.004340496452641671
671,00:00:02.684,-0.00462841801345348
672,00:00:02.688,-0.01106466120108962
673,00:00:02.692,-0.008782917982898656
674,00:00:02.696,-0.0038809498510090626
675,00:00:02.7,0.01886059530079364
676,00:00:02.704,0.017533143516629907
677,00:00:02.708,0.0013733397354371854
678,00:00:02.712,-0.007983480812981725
679,00:00:02.716,-0.026329683954827512
680,00:00:02.72,-0.005175693833734842
681,00:00:02.724,0.02108543505892157
682,00:00:02.728,0.00618855042557698
683,00:00:02.732,-0.003907236852683127
684,00:00:02.736,-0.00222192029468715
685,00:00:02.74,-0.007744132890366021
686,00:00:02.744,0.0009634061207179968
687,00:00:02.748,0.010860898648388684
688,00:00:02.752,0.010554728447459642
689,00:00:02.756,-0.017367435269989028
690,00:00:02.76,-0.01135551789775491
691,00:00:02.764,0.009327440988272404
692,00:00:02.768,0.00843564386013895
693,00:00:02.772,-0.0023461128585040613
694,00:00:02.776,-0.00532160885632038
695,00:00:02.78,-0.0012075781705789238
696,00:00:02.784,-0.0018461782019585406
697,00:00:02.788,0.004966396023519337
698,00:00:02.792,0.007101961615262554
699,00:00:02.796,0.02072131773456932
700,00:00:02.8,-0.012172994436696168
701,00:00:02.804,-0.03328709141351287
702,00:00:02.808,-0.007653485517948871
703,00:00:02.812,0.01261929085012526
704,00:00:02.816,0.027957851038081585
705,00:00:02.82,0.0033606467768549967
706,00:00:02.824,-0.02542366599664096
707,00:00:02.828,-0.0006896360428072519
708,00:00:02.832,0.013223593239672479
709,00:00:02.836,0.010098058497533202
710,00:00:02.84,-0.0070893451338634
711,00:00:02.844,-0.00815229979343712
712,00:00:02.848,-0.00993692222982645
713,00:00:02.852,-0.010140880982362476
714,00:00:02.856,0.01491757668554788
715,00:00:02.86,0.01347195589914918
716,00:00:02.864,-0.00442944432143122
717,00:00:02.868,-0.0021962195169180276
718,00:00:02.872,0.006008662923704836
719,00:00:02.876,-0.0013413698179647203
720,00:00:02.88,-0.008722123311599718
721,00:00:02.884,0.004125240084249525
722,00:00:02.888,-0.00015994254499673973
723,00:00:02.892,-0.01042178086936474
724,00:00:02.896,0.002004964539082719
725,00:00:02.9,0.00602704705670476
726,00:00:02.904,0.0005197007267270239
727,00:00:02.908,-0.0008675251447130012
728,00:00:02.912,0.022475377074442828
729,00:00:02.916,-0.0025694840005599014
730,00:00:02.92,-0.024571790127083732
731,00:00:02.924,-0.02167308307252823
732,00:00:02.928,0.010421355720609432
733,00:00:02.932,0.027846170938573785
734,00:00:02.936,0.011669114581309255
735,00:00:02.94,-0.02052727015689016
736,00:00:02.944,-0.00991182192228735
737,00:00:02.948,0.0105124085675925
738,00:00:02.952,0.007660601520910861
739,00:00:02.956,-0.017025147448293892
740,00:00:02.96,-0.002088850073050707
741,00:00:02.964,0.0005508651956915886
742,00:00:02.968,0.0031003720359876813
743,00:00:02.972,0.01424681604839863
744,00:00:02.976,0.0013453859137371126
745,00:00:02.98,-0.0065999235957861
746,00:00:02.984,-0.005258143879473211
747,00:00:02.988,0.0005615426925942258
748,00:00:02.992,0.00964499043766409
749,00:00:02.996,0.0030227296520024503
750,00:00:03,-0.012516272952780128
751,00:00:03.004,-0.01958124944940208
752,00:00:03.008,0.004795003449544299
753,00:00:03.012,0.014937461361114405
754,00:00:03.016,0.01016922947019339
755,00:00:03.02,-0.0045022880367469025
756,00:00:03.024,0.001786271721357481
757,00:00:03.028,-0.002816722590068825
758,00:00:03.032,0.0006089076632633801
759,00:00:03.036,-0.004029081901535392
760,00:00:03.04,-0.013889544556150215
761,00:00:03.044,-0.0015012056101113562
762,00:00:03.048,0.019273805897682905
763,00:00:03.052,0.02775652683340014
764,00:00:03.056,-0.01742732897400856
765,00:00:03.06,-0.03002575435675679
766,00:00:03.064,-0.022682050825096632
767,00:00:03.068,0.033063969400245655
768,00:00:03.072,0.053016780875623254
769,00:00:03.076,-0.02213703095912932
770,00:00:03.08,-0.05393595527857536
771,00:00:03.084,-0.011824109707959002
772,00:00:03.088,0.02590648119803516
773,00:00:03.092,0.0355575527064502
774,00:00:03.096,0.010517715825699273
775,00:00:03.1,-0.028345023281872248
776,00:00:03.104,-0.02603777591139084
777,00:00:03.108,0.008644389512483029
778,00:00:03.112,0.033796748612076086
779,00:00:03.116,-0.0006965698557905812
780,00:00:03.12,-0.026495689060539028
781,00:00:03.124,-0.01730617717839778
782,00:00:03.128,0.01250565156806261
783,00:00:03.132,0.02439654339104893
784,00:00:03.136,0.008585831965319821
785,00:00:03.14,-0.006979097845032811
786,00:00:03.144,-0.012667132774367929
787,00:00:03.148,-0.01789106568321586
788,00:00:03.152,-0.007454459846485406
789,00:00:03.156,0.012841132236644622
790,00:00:03.16,0.013172100880183292
791,00:00:03.164,0.018536312389187518
792,00:00:03.168,0.00813228799961508
793,00:00:03.172,-0.02547256860634654
794,00:00:03.176,-0.01494695455767214
795,00:00:03.18,-0.0067652401630766724
796,00:00:03.184,0.003048479615245007
797,00:00:03.188,0.020742664448334797
798,00:00:03.192,0.00863999547436833
799,00:00:03.196,-0.002698855503695085
800,00:00:03.2,-0.018067558179609464
801,00:00:03.204,-0.009327893311819938
802,00:00:03.208,0.01091994775924832
803,00:00:03.212,0.017463834083173427
804,00:00:03.216,0.006589700002223251
805,00:00:03.22,-0.006818045374529905
806,00:00:03.224,-0.00972484902013093
807,00:00:03.228,-0.027340140077285493
808,00:00:03.232,0.009675514447735617
809,00:00:03.236,0.007416588719934222
810,00:00:03.24,0.010472914786078041
811,00:00:03.244,0.014812017790973183
812,00:00:03.248,0.007277837532456032
813,00:00:03.252,-0.023836892098188407
814,00:00:03.256,-0.01050555414985866
815,00:00:03.26,-0.007085542543791236
816,00:00:03.264,0.008059280109591784
817,00:00:03.268,0.007871293211792365
818,00:00:03.272,0.00334675761405378
819,00:00:03.276,0.0016729589551687297
820,00:00:03.28,0.0023604334455740138
821,00:00:03.284,0.0012602284550666792
822,00:00:03.288,0.0011780998320318824
823,00:00:03.292,-0.00450859649572522
824,00:00:03.296,-0.002426843857392681
825,00:00:03.3,-0.012517662136815488
826,00:00:03.304,-0.022778452083002818
827,00:00:03.308,0.02490914100781083
828,00:00:03.312,0.0233044180786238
829,00:00:03.316,0.012670055788475985
830,00:00:03.32,-0.01938843470998107
831,00:00:03.324,-0.01903552515432235
832,00:00:03.328,-0.0005896757356822517
833,00:00:03.332,0.00870966032380238
834,00:00:03.336,0.014888927573338158
835,00:00:03.34,-0.006331277370918545
836,00:00:03.344,-0.010665156412869699
837,00:00:03.348,-0.01006169896572829
838,00:00:03.352,0.0066486303694546205
839,00:00:03.356,0.02048781735356896
840,00:00:03.36,0.00457149022258818
841,00:00:03.364,-0.01353974657831712
842,00:00:03.368,-0.008544783238903625
843,00:00:03.372,1.0168296284975356e-05
844,00:00:03.376,-0.0037406495539471602
845,00:00:03.38,0.0019465478253550836
846,00:00:03.384,0.0057825724197755335
847,00:00:03.388,0.00740747665986419
848,00:00:03.392,0.01276614784728735
849,00:00:03.396,-0.010209818545263262
850,00:00:03.4,-0.01448243786580861
851,00:00:03.404,-0.012227032042574115
852,00:00:03.408,0.01686748908832672
853,00:00:03.412,0.0055680524674244225
854,00:00:03.416,-0.00656279304530472
855,00:00:03.42,0.005639971184791652
856,00:00:03.424,-0.009512567601632336
857,00:00:03.428,0.012001627124845982
858,00:00:03.432,0.010017279491876254
859,00:00:03.436,-0.01599811110645528
860,00:00:03.44,-0.011516039434354752
861,00:00:03.444,0.01005745423026383
862,00:00:03.448,0.00306571112014353
863,00:00:03.452,-0.008768957166466862
864,00:00:03.456,0.006534924381412569
865,00:00:03.46,-0.0026014704490080506
866,00:00:03.464,0.00650705199223011
867,00:00:03.468,-0.004672666633268822
868,00:00:03.472,0.008760398966842328
869,00:00:03.476,0.015378511510789398
870,00:00:03.48,-0.026510487194172993
871,00:00:03.484,-0.014960467815399208
872,00:00:03.488,0.002075737662380557
873,00:00:03.492,0.01526532776188103
874,00:00:03.496,0.01923160825390374
875,00:00:03.5,0.0024179338943213103
876,00:00:03.504,-0.02502408972941342
877,00:00:03.508,-0.015689968189690217
878,00:00:03.512,0.01123343757353723
879,00:00:03.516,0.01955515251029286
880,00:00:03.52,0.00831004255451261
881,00:00:03.524,-0.01851749373599891
882,00:00:03.528,-0.006202474236488349
883,00:00:03.532,-0.0037337064277380675
884,00:00:03.536,0.006874441634863611
885,00:00:03.54,0.0060889119631610845
886,00:00:03.544,0.0060097137466073
887,00:00:03.548,-0.0075641681905836
888,00:00:03.552,-0.00609779288060964
889,00:00:03.556,0.005341337237041444
890,00:00:03.56,-0.013598794961581008
891,00:00:03.564,0.008350314514245838
892,00:00:03.568,0.020147908711805967
893,00:00:03.572,-0.004134227143367749
894,00:00:03.576,-0.031025003641843813
895,00:00:03.58,0.01062235308927483
896,00:00:03.584,0.02942092996090651
897,00:00:03.588,-0.007938578055473036
898,00:00:03.592,-0.01238448685035105
899,00:00:03.596,-0.011959385825321078
900,00:00:03.6,0.0006810742197558281
901,00:00:03.604,0.006473854649811992
902,00:00:03.608,0.010507255094125865
903,00:00:03.612,0.005479935964103788
904,00:00:03.616,-0.013530220603570339
905,00:00:03.62,-0.0013783691683784101
906,00:00:03.624,0.0021668616027454854
907,00:00:03.628,-0.006406719330698255
908,00:00:03.632,0.014725491171702739
909,00:00:03.636,-0.00597834869404324
910,00:00:03.64,0.003077513014432049
911,00:00:03.644,-0.00560800521634519
912,00:00:03.648,-0.00716605235356837
913,00:00:03.652,0.011299720732495189
914,00:00:03.656,0.0232483296713326
915,00:00:03.66,-0.015422482741996646
916,00:00:03.664,-0.03348809573799369
917,00:00:03.668,-0.00480745197273791
918,00:00:03.672,0.013868233625544193
919,00:00:03.676,0.0255450138356537
920,00:00:03.68,0.01497747795656323
921,00:00:03.684,-0.01318766013719141
922,00:00:03.688,-0.009452441125176844
923,00:00:03.692,-0.013703435659408611
924,00:00:03.696,-0.012572577921673659
925,00:00:03.7,0.01873513916507363
926,00:00:03.704,0.01261572889052331
927,00:00:03.708,-0.0021664669620804523
928,00:00:03.712,-0.0030554401746485365
929,00:00:03.716,-0.005243485793471329
930,00:00:03.72,-0.004318082705140121
931,00:00:03.724,-0.0012931791134178604
932,00:00:03.728,0.007831011345842851
933,00:00:03.732,0.007431468926370149
934,00:00:03.736,0.0003563119680620719
935,00:00:03.74,-0.010811282700160523
936,00:00:03.744,0.000663477985654035
937,00:00:03.748,-0.01056535739917308
938,00:00:03.752,0.01222127000801266
939,00:00:03.756,0.01945074426475909
940,00:00:03.76,-0.00970229983795434
941,00:00:03.764,-0.02398678264580665
942,00:00:03.768,0.0051784673705697
943,00:00:03.772,0.015572386793792251
944,00:00:03.776,-0.007584522711113091
945,00:00:03.78,-0.00794574199244379
946,00:00:03.784,-0.0011832977179437897
947,00:00:03.788,0.012528596678748732
948,00:00:03.792,0.01639722520485521
949,00:00:03.796,-0.005972795042907819
950,00:00:03.8,-0.013794105936540292
951,00:00:03.804,-0.014378219959326114
952,00:00:03.808,0.0036514224484562796
953,00:00:03.812,0.0135756969684735
954,00:00:03.816,0.0012706748675555008
955,00:00:03.82,0.00933481322135776
956,00:00:03.824,0.0020130608754698217
957,00:00:03.828,-0.02008995320647959
958,00:00:03.832,-0.008662259089760507
959,00:00:03.836,0.0029973057098686704
960,00:00:03.84,0.016488326480612155
961,00:00:03.844,-0.0007873876020312257
962,00:00:03.848,0.002641718368977311
963,00:00:03.852,0.0006859024870209357
964,00:00:03.856,-0.006247758341487503
965,00:00:03.86,-0.020193614065647125
966,00:00:03.864,-0.0026835120588657372
967,00:00:03.868,0.014261922216974199
968,00:00:03.872,0.02955782215576616
969,00:00:03.876,0.014080314314924219
970,00:00:03.88,-0.016160443890839843
971,00:00:03.884,-0.025332012970466194
972,00:00:03.888,-0.03160732937976723
973,00:00:03.892,0.0047772009856998894
974,00:00:03.896,0.025397399789653767
975,00:00:03.9,0.02805756800808014
976,00:00:03.904,0.00614167971070855
977,00:00:03.908,-0.01362522272393111
978,00:00:03.912,-0.033067161333747215
979,00:00:03.916,-0.008316533727338536
980,00:00:03.92,0.02824586187489331
981,00:00:03.924,0.017960363882593762
982,00:00:03.928,-0.0049311076436424645
983,00:00:03.932,-0.01168105803662911
984,00:00:03.936,-0.01696658565197145
985,00:00:03.94,-0.004933132964652024
986,00:00:03.944,0.0105776343261823
987,00:00:03.948,0.01486422261223197
988,00:00:03.952,0.0072645745240151795
989,00:00:03.956,0.0005815294571220996
990,00:00:03.96,-0.008178436604794113
991,00:00:03.964,0.00666084222029895
992,00:00:03.968,-0.005007108324207369
993,00:00:03.972,-0.02692431467585262
994,00:00:03.976,-0.008504259691108023
995,00:00:03.98,0.014919189736247063
996,00:00:03.984,0.01958875614218415
997,00:00:03.988,0.01784202083945271
998,00:00:03.992,-0.011646927334368232
999,00:00:03.996,-0.012219530879519871
1000,00:00:04,-0.010880450485274196
1001,00:00:04.004,0.00121050386223942
1002,00:00:04.008,0.012415895005688071
1003,00:00:04.012,0.00799582479521632
1004,00:00:04.016,-0.004108918015845122
1005,00:00:04.02,-0.017739551287377215
1006,00:00:04.024,-0.001314962049946189
1007,00:00:04.028,0.011180553119629625
1008,00:00:04.032,0.009909218992106616
1009,00:00:04.036,-0.009366012411192049
1010,00:00:04.04,0.002622016996610908
1011,00:00:04.044,-0.00223447848111391
1012,00:00:04.048,0.0089456551359035
1013,00:00:04.052,-0.0033363583497702997
1014,00:00:04.056,-0.015024876280222088
1015,00:00:04.06,-0.00488366794888861
1016,00:00:04.064,0.01595623185858131
1017,00:00:04.068,0.007529025933763481
1018,00:00:04.072,-0.01165667339228094
1019,00:00:04.076,-0.0038586445152759604
1020,00:00:04.08,0.00905183066788595
1021,00:00:04.084,0.00930910633178428
1022,00:00:04.088,0.0009129953396040907
1023,00:00:04.092,-0.01806348119862379
1024,00:00:04.096,-0.013908800785429741
1025,00:00:04.1,-0.004036243073642259
1026,00:00:04.104,0.02177741751074792
1027,00:00:04.108,0.02693221811205151
1028,00:00:04.112,-0.0007985710399225322
1029,00:00:04.116,-0.01913768774829802
1030,00:00:04.12,-0.025752908142749227
1031,00:00:04.124,0.0011576844844967177
1032,00:00:04.128,0.02870645793154827
1033,00:00:04.132,0.014130558003671462
1034,00:00:04.136,-0.027932321885600662
1035,00:00:04.14,-0.017341873899567917
1036,00:00:04.144,0.012819674448110168
1037,00:00:04.148,0.005422763118986039
1038,00:00:04.152,0.01912164024543017
1039,00:00:04.156,-0.01039917930029332
1040,00:00:04.16,-0.006221767631359407
1041,00:00:04.164,0.001973865466425197
1042,00:00:04.168,-0.003455385623965419
1043,00:00:04.172,-0.0038333219708874804
1044,00:00:04.176,-0.0032759190653450752
1045,00:00:04.18,0.013992469757795339
1046,00:00:04.184,0.005166169576114043
1047,00:00:04.188,-0.00686831085477024
1048,00:00:04.192,-0.00597700756043196
1049,00:00:04.196,-0.0015451958170160638
1050,00:00:04.2,-0.00028691091574728587
1051,00:00:04.204,0.002637547033373263
1052,00:00:04.208,0.01588810095563529
1053,00:00:04.212,0.0006811523344367803
1054,00:00:04.216,-0.01538680621888484
1055,00:00:04.22,-0.010309722274541862
1056,00:00:04.224,0.001510060916189107
1057,00:00:04.228,-0.0025021268811542554
1058,00:00:04.232,0.019265333074145068
1059,00:00:04.236,0.015473818872123962
1060,00:00:04.24,-0.024624752579256868
1061,00:00:04.244,-0.019945852225646384
1062,00:00:04.248,0.00783965796290432
1063,00:00:04.252,0.016959247353952378
1064,00:00:04.256,0.010012219485361129
1065,00:00:04.26,0.0021857862593606106
1066,00:00:04.264,-0.0038015260361135
1067,00:00:04.268,-0.010363581939600415
1068,00:00:04.272,-0.009683722659246987
1069,00:00:04.276,-0.004010885255411271
1070,00:00:04.28,0.00823851199311321
1071,00:00:04.284,0.00974754989147187
1072,00:00:04.288,0.011233261553570621
1073,00:00:04.292,-0.014953583944588898
1074,00:00:04.296,-0.013641388388350602
1075,00:00:04.3,-0.00119898479897529
1076,00:00:04.304,0.01156481349607929
1077,00:00:04.308,0.017193110892549192
1078,00:00:04.312,0.006473427754826818
1079,00:00:04.316,-0.025805472396314193
1080,00:00:04.32,-0.01756449579261244
1081,00:00:04.324,-0.00018026441102847457
1082,00:00:04.328,0.03377070452552293
1083,00:00:04.332,0.01349551184102894
1084,00:00:04.336,-0.0220035059610381
1085,00:00:04.34,-0.01857106490933802
1086,00:00:04.344,0.00029422563966364015
1087,00:00:04.348,0.017888870119350062
1088,00:00:04.352,0.00993780558928848
1089,00:00:04.356,-0.00576369033660739
1090,00:00:04.36,-0.007848278837627733
1091,00:00:04.364,-0.008343894762219852
1092,00:00:04.368,0.00815113564021885
1093,00:00:04.372,-0.00030256761237979065
1094,00:00:04.376,-0.0024455345701426294
1095,00:00:04.38,0.007175908045610415
1096,00:00:04.384,-0.0028646413120441087
1097,00:00:04.388,-0.0002002458786591894
1098,00:00:04.392,0.0024995016574393967
1099,00:00:04.396,0.00022665748838334972
1100,00:00:04.4,-0.003918724600225696
1101,00:00:04.404,0.01014376804232597
1102,00:00:04.408,-0.005368374288082131
1103,00:00:04.412,-0.00994163332507014
1104,00:00:04.416,-0.012402987013047095
1105,00:00:04.42,0.00397421252273489
1106,00:00:04.424,0.015609461755957458
1107,00:00:04.428,0.01625922415405509
1108,00:00:04.432,-0.0031558332048007313
1109,00:00:04.436,-0.01226557930931448
1110,00:00:04.44,-0.014873321168124707
1111,00:00:04.444,0.00412009563297034
1112,00:00:04.448,0.005893737408769083
1113,00:00:04.452,0.008992485643830152
1114,00:00:04.456,0.006520080700283875
1115,00:00:04.46,-0.01159225369337946
1116,00:00:04.464,-0.008736316813156009
1117,00:00:04.468,0.01152401533909142
1118,00:00:04.472,-0.009672473126556728
1119,00:00:04.476,-0.0069071620237082295
1120,00:00:04.48,0.011757503030821683
1121,00:00:04.484,0.011113663989817727
1122,00:00:04.488,-0.007171951583586629
1123,00:00:04.492,-0.00429309555329383
1124,00:00:04.496,0.00118388194823637
1125,00:00:04.5,0.003256942116422584
1126,00:00:04.504,-0.008302534057293087
1127,00:00:04.508,0.007547094544861462
1128,00:00:04.512,0.004082468280103061
1129,00:00:04.516,-0.00831117550842465
1130,00:00:04.52,0.003212629587324048
1131,00:00:04.524,-0.0049723004922271104
1132,00:00:04.528,-0.014839670504443361
1133,00:00:04.532,0.013505216105841098
1134,00:00:04.536,0.011242124252021313
1135,00:00:04.54,0.007955999812111252
1136,00:00:04.544,0.0039610080420971
1137,00:00:04.548,-0.01820364827290176
1138,00:00:04.552,-0.017005288093059793
1139,00:00:04.556,0.0007452708669006809
1140,00:00:04.56,0.022233416093513363
1141,00:00:04.564,0.01250384049490094
1142,00:00:04.568,-0.02081710589118309
1143,00:00:04.572,-0.01516039576381446
1144,00:00:04.576,0.00791462406050414
1145,00:00:04.58,0.01166936615481972
1146,00:00:04.584,0.01058444019872696
1147,00:00:04.588,0.00630191387608647
1148,00:00:04.592,-0.01717910694424065
1149,00:00:04.596,-0.015141953044803785
1150,00:00:04.6,0.002084855572320514
1151,00:00:04.604,0.0012811397318728272
1152,00:00:04.608,0.024487169663188927
1153,00:00:04.612,-0.002545289229601619
1154,00:00:04.616,-0.01844929973594844
1155,00:00:04.62,-0.00373363617109135
1156,00:00:04.624,0.00658521282821312
1157,00:00:04.628,0.002113808877766134
1158,00:00:04.632,0.002088335226289927
1159,00:00:04.636,-0.00019860605243592977
1160,00:00:04.64,0.0006852547521702929
1161,00:00:04.644,0.01142823090776801
1162,00:00:04.648,0.0071865897625684304
1163,00:00:04.652,-0.01614395645447075
1164,00:00:04.656,-0.020847447915002742
1165,00:00:04.66,-0.006776123147574257
1166,00:00:04.664,0.01924146292731167
1167,00:00:04.668,0.01279889512807131
1168,00:00:04.672,-0.005550823640078299
1169,00:00:04.676,0.001762273954227562
1170,00:00:04.68,0.00470766052603721
1171,00:00:04.684,-0.01208581734681502
1172,00:00:04.688,-0.00018052104860543945
1173,00:00:04.692,0.010810654028318819
1174,00:00:04.696,-0.0021298254141584104
1175,00:00:04.7,-0.01244451082311573
1176,00:00:04.704,-0.004783011798281221
1177,00:00:04.708,0.00380526890512555
1178,00:00:04.712,0.0029957910010125453
1179,00:00:04.716,0.0053274751408025605
1180,00:00:04.72,0.0173055142222438
1181,00:00:04.724,-0.003657291410490868
1182,00:00:04.728,-0.008605545968748608
1183,00:00:04.732,-0.014658849308034405
1184,00:00:04.736,-0.01101483590900898
1185,00:00:04.74,0.03139647617354059
1186,00:00:04.744,-0.004616772246663454
1187,00:00:04.748,-0.01377309835515917
1188,00:00:04.752,0.004230881619150757
1189,00:00:04.756,0.001377595646772539
1190,00:00:04.76,0.0014670383461634583
1191,00:00:04.764,0.0014403408276848543
1192,00:00:04.768,-0.0013066028259345371
1193,00:00:04.772,0.012243469594977794
1194,00:00:04.776,-0.006868515891255813
1195,00:00:04.78,-0.01084614591673016
1196,00:00:04.784,0.00018497882410883947
1197,00:00:04.788,-0.0011617038398981103
1198,00:00:04.792,-0.006150768371298914
1199,00:00:04.796,0.007719609551713802
1200,00:00:04.8,0.01998054748401051
1201,00:00:04.804,0.0012927522184327295
1202,00:00:04.808,-0.01069550943793731
1203,00:00:04.812,-0.0013694259687326831
1204,00:00:04.816,-0.01793831920076626
1205,00:00:04.82,0.007057318201987073
1206,00:00:04.824,8.867657743394006e-05
1207,00:00:04.828,0.00031338224653154026
1208,00:00:04.832,0.008362668188055977
1209,00:00:04.836,0.005314036039635541
1210,00:00:04.84,0.004019648069515821
1211,00:00:04.844,0.00287275179289282
1212,00:00:04.848,-0.02129566832445562
1213,00:00:04.852,-0.00910351774655283
1214,00:00:04.856,0.0056866644299589115
1215,00:00:04.86,0.01137439475860447
1216,00:00:04.864,0.00020378839690238064
1217,00:00:04.868,0.014177392469719049
1218,00:00:04.872,-0.006774855188268701
1219,00:00:04.876,-0.00811515677560237
1220,00:00:04.88,-0.009685329969215672
1221,00:00:04.884,-0.00998502946458757
1222,00:00:04.888,0.01268531137611717
1223,00:00:04.892,0.01088009518571198
1224,00:00:04.896,-0.0013868693640688456
1225,00:00:04.9,0.009118470828980211
1226,00:00:04.904,0.015620480058714751
1227,00:00:04.908,-0.008072997909039259
1228,00:00:04.912,-0.037988984724506784
1229,00:00:04.916,-0.018713877885602432
1230,00:00:04.92,0.012881707283668171
1231,00:00:04.924,0.02804117416962984
1232,00:00:04.928,0.007467744988389309
1233,00:00:04.932,0.0011038385564461298
1234,00:00:04.936,-0.0016275237576337538
1235,00:00:04.94,-0.00321626453660429
1236,00:00:04.944,-0.0037103008944541207
1237,00:00:04.948,0.003132054524030528
1238,00:00:04.952,-0.02226543822325765
1239,00:00:04.956,0.0001137264189310386
1240,00:00:04.96,0.01096786290872842
1241,00:00:04.964,0.006499035342130819
1242,00:00:04.968,-0.0017911695467773799
1243,00:00:04.972,-0.004996353876776989
1244,00:00:04.976,0.00915997382253408
1245,00:00:04.98,0.00910193880554288
1246,00:00:04.984,-0.018506069085560784
1247,00:00:04.988,-0.0053309071809053594
1248,00:00:04.992,0.02077682036906476
1249,00:00:04.996,0.0014108260511420674
1250,00:00:05,-0.008049826603382831
1251,00:00:05.004,-0.01873531099408865
1252,00:00:05.008,0.005953419196885083
1253,00:00:05.012,0.013231957622338086
1254,00:00:05.016,-0.00783879682421684
1255,00:00:05.02,-8.963180880527764e-05
1256,00:00:05.024,0.005141026980709279
1257,00:00:05.028,-0.001331405423115942
1258,00:00:05.032,-0.0029307081713341185
1259,00:00:05.036,0.00048326392425223936
1260,00:00:05.04,0.0025931530399247974
1261,00:00:05.044,0.010607070405967534
1262,00:00:05.048,0.0031850213708821684
1263,00:00:05.052,-0.0006675191107205966
1264,00:00:05.056,-0.028336461720755303
1265,00:00:05.06,-0.00797656050417572
1266,00:00:05.064,0.005847926484420892
1267,00:00:05.068,0.012889415491372389
1268,00:00:05.072,0.01934951334260404
1269,00:00:05.076,0.01737035671249028
1270,00:00:05.08,-0.02602942998055367
1271,00:00:05.084,-0.02827710608835331
1272,00:00:05.088,-0.0010145240812562363
1273,00:00:05.092,0.014893735584337292
1274,00:00:05.096,0.021982344274874808
1275,00:00:05.1,0.01014830055646594
1276,00:00:05.104,-0.020366672775708118
1277,00:00:05.108,-0.011958856997807743
1278,00:00:05.112,-0.011000550817698237
1279,00:00:05.116,0.0050537229981273395
1280,00:00:05.12,0.01563436840660866
1281,00:00:05.124,0.017760748974978938
1282,00:00:05.128,-0.0036175733685013317
1283,00:00:05.132,-0.02440267591737213
1284,00:00:05.136,-0.010727747576311229
1285,00:00:05.14,0.01780055300332606
1286,00:00:05.144,0.010618371306918558
1287,00:00:05.148,-0.001684183429460979
1288,00:00:05.152,0.00478854519315066
1289,00:00:05.156,-0.01848905417136848
1290,00:00:05.16,-0.005816987657453865
1291,00:00:05.164,-0.0029550094623118587
1292,00:00:05.168,0.008245503297075631
1293,00:00:05.172,0.02436731173656886
1294,00:00:05.176,0.010347716975957148
1295,00:00:05.18,-0.031372886791359716
1296,00:00:05.184,-0.02175077702850103
1297,00:00:05.188,0.0139641563873738
1298,00:00:05.192,0.007466121693141759
1299,00:00:05.196,0.0015964670164976247
1300,00:00:05.2,0.01161259203217922
1301,00:00:05.204,0.01239512977190316
1302,00:00:05.208,-0.008186469436623154
1303,00:00:05.212,-0.01411612401716411
1304,00:00:05.216,-0.018123065237887155
1305,00:00:05.22,-0.010858821682631964
1306,00:00:05.224,0.04060844727791843
1307,00:00:05.228,0.007829174719518054
1308,00:00:05.232,-0.02334913762751967
1309,00:00:05.236,-0.01866544689983133
1310,00:00:05.24,0.0138515311991796
1311,00:00:05.244,0.0330720110796392
1312,00:00:05.248,-0.004585231188684699
1313,00:00:05.252,-0.021719792799558473
1314,00:00:05.256,0.008764984784647822
1315,00:00:05.26,-0.0018797578522935503
1316,00:00:05.264,-0.021853900747373717
1317,00:00:05.268,-0.00460001963074319
1318,00:00:05.272,0.0012174297589808694
1319,00:00:05.276,0.021099328994751008
1320,00:00:05.28,0.01327087311074138
1321,00:00:05.284,0.01063964865170419
1322,00:00:05.288,-0.01120861491654068
1323,00:00:05.292,-0.014192536473274231
1324,00:00:05.296,0.00022509566042573127
1325,00:00:05.3,0.00397491035982967
1326,00:00:05.304,-0.01435592235065997
1327,00:00:05.308,-0.00562160741537809
1328,00:00:05.312,0.011778409359976599
1329,00:00:05.316,0.001966765616089119
1330,00:00:05.32,0.004736592061817641
1331,00:00:05.324,0.0015057480777613797
1332,00:00:05.328,0.00680314656347037
1333,00:00:05.332,0.0063062608242034895
1334,00:00:05.336,-0.00736090610735119
1335,00:00:05.34,-0.02571960818022491
1336,00:00:05.344,-0.008103140396997341
1337,00:00:05.348,0.01795435673557222
1338,00:00:05.352,0.02424398245057085
1339,00:00:05.356,-0.007118071429431435
1340,00:00:05.36,-0.00467778832535259
1341,00:00:05.364,-0.011003475403413178
1342,00:00:05.368,-0.004003890149760991
1343,00:00:05.372,0.009341719734948128
1344,00:00:05.376,0.010213135275989771
1345,00:00:05.38,-0.00834766949992627
1346,00:00:05.384,-0.007315361697692422
1347,00:00:05.388,-0.005303769838064911
1348,00:00:05.392,0.011338929005432872
1349,00:00:05.396,0.011764169670641469
1350,00:00:05.4,-0.0020485808490775465
1351,00:00:05.404,-0.01214138744398952
1352,00:00:05.408,-0.005082551622763269
1353,00:00:05.412,-0.003655924927443268
1354,00:00:05.416,0.0030209426768124186
1355,00:00:05.42,0.022998190775979286
1356,00:00:05.424,-0.00838875747285783
1357,00:00:05.428,-0.013104729936458163
1358,00:00:05.432,-0.004175362526439131
1359,00:00:05.436,-0.00023614597739651994
1360,00:00:05.44,0.01466361503116787
1361,00:00:05.444,0.012324237497523432
1362,00:00:05.448,-0.007624626625329251
1363,00:00:05.452,-0.014357677544467158
1364,00:00:05.456,0.0006479155417764551
1365,00:00:05.46,-0.0005755248712375697
1366,00:00:05.464,-0.006374890101142223
1367,00:00:05.468,0.019460205454379268
1368,00:00:05.472,0.01577947870828211
1369,00:00:05.476,-0.016734227196138783
1370,00:00:05.48,-0.024441253859549778
1371,00:00:05.484,-0.0032331804104615038
1372,00:00:05.488,0.02322134142741564
1373,00:00:05.492,0.026222166372463104
1374,00:00:05.496,-0.01742762932553887
1375,00:00:05.5,-0.032186749638640405
1376,00:00:05.504,-0.0059948458801954985
1377,00:00:05.508,0.023684914689511
1378,00:00:05.512,0.020061725343111868
1379,00:00:05.516,0.00739846681244671
1380,00:00:05.52,-0.01907922653481365
1381,00:00:05.524,-0.015220572153339168
1382,00:00:05.528,-0.011572804301977161
1383,00:00:05.532,0.013334132789168503
1384,00:00:05.536,0.020549358800053607
1385,00:00:05.54,0.020862720848526806
1386,00:00:05.544,-0.018443609791575
1387,00:00:05.548,-0.034896527926321114
1388,00:00:05.552,-0.009364363533677537
1389,00:00:05.556,0.015457095665624383
1390,00:00:05.56,0.017806277002819077
1391,00:00:05.564,0.00734955701045692
1392,00:00:05.568,0.0038899264764040704
1393,00:00:05.572,0.00425295939203351
1394,00:00:05.576,-0.01580462534911931
1395,00:00:05.58,-0.025676637887954667
1396,00:00:05.584,0.00216187257319689
1397,00:00:05.588,0.01595945167355236
1398,00:00:05.592,0.019003411056473882
1399,00:00:05.596,7.479474879801013e-05
1400,00:00:05.6,-0.001886564481537786
1401,00:00:05.604,-0.009916727256495502
1402,00:00:05.608,-0.01928258896805348
1403,00:00:05.612,-0.00818938529118895
1404,00:00:05.616,0.023683161416556672
1405,00:00:05.62,0.006222555908607321
1406,00:00:05.624,0.013001325307413904
1407,00:00:05.628,-0.0005079855909571017
1408,00:00:05.632,-0.025311830802820633
1409,00:00:05.636,-0.008347181603312489
1410,00:00:05.64,0.004577573039568958
1411,00:00:05.644,0.02161853993311524
1412,00:00:05.648,0.007744952250504866
1413,00:00:05.652,-0.01304381887894124
1414,00:00:05.656,-0.020519443176453905
1415,00:00:05.66,-0.010643230518326162
1416,00:00:05.664,0.027598591404966996
1417,00:00:05.668,0.02650949358940123
1418,00:00:05.672,-0.01668491167947649
1419,00:00:05.676,-0.020566528663039207
1420,00:00:05.68,-0.004669354297220709
1421,00:00:05.684,0.00969294482683836
1422,00:00:05.688,0.01040837637265213
1423,00:00:05.692,-0.0037044764030724807
1424,00:00:05.696,-0.008180318574886807
1425,00:00:05.7,0.0052370050980243815
1426,00:00:05.704,0.009070056839846111
1427,00:00:05.708,-0.005282303260173646
1428,00:00:05.712,-0.001592712578712957
1429,00:00:05.716,-0.01618739124387507
1430,00:00:05.72,0.008039206732064492
1431,00:00:05.724,0.01874541374854741
1432,00:00:05.728,0.006984022649703542
1433,00:00:05.732,-0.011797234328696511
1434,00:00:05.736,-0.017192577302921532
1435,00:00:05.74,-0.012568821432068942
1436,00:00:05.744,0.00822352222166955
1437,00:00:05.748,0.019792285864241397
1438,00:00:05.752,0.00952291674911976
1439,00:00:05.756,-0.002629630733281381
1440,00:00:05.76,-0.014749638270586778
1441,00:00:05.764,-0.012221898825373508
1442,00:00:05.768,0.01334934227634221
1443,00:00:05.772,0.00752371188718822
1444,00:00:05.776,-0.010568417143076648
1445,00:00:05.78,-0.000617328914813693
1446,00:00:05.784,0.0036472086794674392
1447,00:00:05.788,0.0034995921391782845
1448,00:00:05.792,0.0055113635316956806
1449,00:00:05.796,0.00362740375567228
1450,00:00:05.8,-0.01706868153996766
1451,00:00:05.804,-0.006656120833667963
1452,00:00:05.808,0.011611855938099318
1453,00:00:05.812,0.011833037948235868
1454,00:00:05.816,-0.00218399432196747
1455,00:00:05.82,-0.02045710012316704
1456,00:00:05.824,0.0030602913466282224
1457,00:00:05.828,0.00539099564775824
1458,00:00:05.832,0.00421808217652142
1459,00:00:05.836,-0.002427800172881687
1460,00:00:05.84,0.0014521519187837841
1461,00:00:05.844,0.003809235524386163
1462,00:00:05.848,-0.00562990212347359
1463,00:00:05.852,0.0036656567244790486
1464,00:00:05.856,0.004060825565829881
1465,00:00:05.86,-0.007491403957828859
1466,00:00:05.864,-0.0067603392526507395
1467,00:00:05.868,0.008871711906977001
1468,00:00:05.872,0.0013939808122813801
1469,00:00:05.876,-0.003256996358686594
1470,00:00:05.88,-0.00763458071742207
1471,00:00:05.884,0.0027372054755687696
1472,00:00:05.888,0.01901195594109595
1473,00:00:05.892,0.0096759136067703
1474,00:00:05.896,-0.02450351323932408
1475,00:00:05.9,-0.009907174335580748
1476,00:00:05.904,0.007070148451020941
1477,00:00:05.908,0.00605534878559411
1478,00:00:05.912,-0.01967354287626221
1479,00:00:05.916,0.005203427281230679
1480,00:00:05.92,0.027866492280736614
1481,00:00:05.924,0.008473667781800028
1482,00:00:05.928,-0.019001575768925246
1483,00:00:05.932,-0.010577165521681309
1484,00:00:05.936,0.0017608160851523198
1485,00:00:05.94,-0.003274592803791165
1486,00:00:05.944,-0.01157300407066943
1487,00:00:05.948,0.01830803789198399
1488,00:00:05.952,0.03734103054739543
1489,00:00:05.956,-0.01567300246097148
1490,00:00:05.96,-0.031059517175890443
1491,00:00:05.964,-0.00794954551383854
1492,00:00:05.968,-0.007395811844617131
1493,00:00:05.972,0.0187690369784832
1494,00:00:05.976,0.01464954146649691
1495,00:00:05.98,-0.0009973560518119558
1496,00:00:05.984,0.01154459803365171
1497,00:00:05.988,-0.007039919611997899
1498,00:00:05.992,-0.023862186353653628
1499,00:00:05.996,-0.0018395126098766901
1500,00:00:06,0.02069779136218132
1501,00:00:06.004,0.0031321735586970997
1502,00:00:06.008,-0.00924428936559707
1503,00:00:06.012,-0.0103435188648291
1504,00:00:06.016,0.01009408594109118
1505,00:00:06.02,0.011323872487992048
1506,00:00:06.024,-0.006422828417271369
1507,00:00:06.028,-0.006070558039937164
1508,00:00:06.032,-0.015907952649285982
1509,00:00:06.036,-0.015467038843780773
1510,00:00:06.04,0.043531070929020685
1511,00:00:06.044,0.03335586085449903
1512,00:00:06.048,-0.01562884834129359
1513,00:00:06.052,-0.03866922226734466
1514,00:00:06.056,-0.02590653370134529
1515,00:00:06.06,0.009835766744799907
1516,00:00:06.064,0.027208811428863555
1517,00:00:06.068,0.018289140425622456
1518,00:00:06.072,-0.00569368782453239
1519,00:00:06.076,-0.01497461763210595
1520,00:00:06.08,-0.0011569790658541043
1521,00:00:06.084,-0.00033522862941025907
1522,00:00:06.088,0.0008561344584450195
1523,00:00:06.092,0.0013619426172226706
1524,00:00:06.096,-0.013427424943074579
1525,00:00:06.1,0.01429232046939433
1526,00:00:06.104,0.03005030145868656
1527,00:00:06.108,-0.01489382004365325
1528,00:00:06.112,-0.03138803096953778
1529,00:00:06.116,0.003448698014835824
1530,00:00:06.12,0.003596596565330401
1531,00:00:06.124,0.007478383835405123
1532,00:00:06.128,-0.0010801176540553604
1533,00:00:06.132,0.00713170529343187
1534,00:00:06.136,0.0032936609350144906
1535,00:00:06.14,-0.004066681838594378
1536,00:00:06.144,-0.004522465766058301
1537,00:00:06.148,-0.012590535974595697
1538,00:00:06.152,-0.002394605544395748
1539,00:00:06.156,0.03188716003205632
1540,00:00:06.16,0.02310799132101241
1541,00:00:06.164,-0.032368525979109136
1542,00:00:06.168,-0.033779665209294804
1543,00:00:06.172,-0.001923854579217726
1544,00:00:06.176,0.013298544799909
1545,00:00:06.18,0.02729776967316868
1546,00:00:06.184,0.01568435505032539
1547,00:00:06.188,-0.01786913920659574
1548,00:00:06.192,-0.01267009243019859
1549,00:00:06.196,-0.01134989061392844
1550,00:00:06.2,0.002721698896493761
1551,00:00:06.204,0.023070175433531362
1552,00:00:06.208,0.010122484738531064
1553,00:00:06.212,-0.02643446577712894
1554,00:00:06.216,-0.01358344405889511
1555,00:00:06.22,-0.003316215646918864
1556,00:00:06.224,0.01281479315366597
1557,00:00:06.228,0.02521019685082141
1558,00:00:06.232,0.02308071753941474
1559,00:00:06.236,-0.021902345702983432
1560,00:00:06.24,-0.03197234764229504
1561,00:00:06.244,-0.01248876925092191
1562,00:00:06.248,0.011051944107748572
1563,00:00:06.252,0.006901815460878426
1564,00:00:06.256,0.0048269999679178
1565,00:00:06.26,0.019922631327062772
1566,00:00:06.264,0.02756093174684788
1567,00:00:06.268,-0.025112484523560887
1568,00:00:06.272,-0.035354476422071436
1569,00:00:06.276,0.0010763505124486892
1570,00:00:06.28,-0.007852593495044854
1571,00:00:06.284,0.0011678286828100686
1572,00:00:06.288,0.022352654603309954
1573,00:00:06.292,0.022819797159172598
1574,00:00:06.296,-0.0028559487545862803
1575,00:00:06.3,-0.01601299829781055
1576,00:00:06.304,-0.008477630675770339
1577,00:00:06.308,0.004811659920960669
1578,00:00:06.312,0.00501390243880452
1579,00:00:06.316,-0.011419349815696474
1580,00:00:06.32,-0.0028353380039334228
1581,00:00:06.324,0.003983119531767444
1582,00:00:06.328,0.01001323643140495
1583,00:00:06.332,0.004157117626164114
1584,00:00:06.336,-0.012664246140047911
1585,00:00:06.34,0.00900061870925129
1586,00:00:06.344,0.008407536486629393
1587,00:00:06.348,-0.01603902177885174
1588,00:00:06.352,-0.018871251959353772
1589,00:00:06.356,0.00873252702876926
1590,00:00:06.36,0.01615420659072693
1591,00:00:06.364,0.0147320592077449
1592,00:00:06.368,-0.011015651718480518
1593,00:00:06.372,-0.007071211060974745
1594,00:00:06.376,-0.00347842683549971
1595,00:00:06.38,-0.0005089922196930279
1596,00:00:06.384,-0.004945689797750673
1597,00:00:06.388,0.01184978941455484
1598,00:00:06.392,-0.00392230250872671
1599,00:00:06.396,0.0037021597381681304
1600,00:00:06.4,0.00604850887611974
1601,00:00:06.404,-0.01151288533583284
1602,00:00:06.408,-0.00017308455426246123
1603,00:00:06.412,0.002261234330944709
1604,00:00:06.416,-0.004853927988733631
1605,00:00:06.42,0.005955145228654141
1606,00:00:06.424,0.004248437646310778
1607,00:00:06.428,-0.00220973137766123
1608,00:00:06.432,-0.0029008425772190107
1609,00:00:06.436,-0.00555958927725442
1610,00:00:06.44,-0.004182364791631701
1611,00:00:06.444,0.0142241409048438
1612,00:00:06.448,0.020416940096765812
1613,00:00:06.452,-0.01597713993396608
1614,00:00:06.456,-0.01505947113037109
1615,00:00:06.46,-0.01845599105581645
1616,00:00:06.464,0.0038024082314223094
1617,00:00:06.468,0.021722662262618538
1618,00:00:06.472,0.022959931520745182
1619,00:00:06.476,-0.008329829201102262
1620,00:00:06.48,-0.013793156947940588
1621,00:00:06.484,-0.006110879243351521
1622,00:00:06.488,0.00542135280556977
1623,00:00:06.492,-0.003941678034607316
1624,00:00:06.496,-0.0002663880586624102
1625,00:00:06.5,-0.000694053582265042
1626,00:00:06.504,-0.00888064061291515
1627,00:00:06.508,0.01453454885631799
1628,00:00:06.512,0.014484058032394387
1629,00:00:06.516,0.00642127334140241
1630,00:00:06.52,-0.03004232654348013
1631,00:00:06.524,-0.01412745588459071
1632,00:00:06.528,0.01497945003211498
1633,00:00:06.532,0.0032907802960835397
1634,00:00:06.536,0.005266468040645121
1635,00:00:06.54,0.01000461098738015
1636,00:00:06.544,-0.00728599750436843
1637,00:00:06.548,-0.00683000788558275
1638,00:00:06.552,0.01901788893155753
1639,00:00:06.556,-0.009452990256249908
1640,00:00:06.56,-0.02556250244379049
1641,00:00:06.564,0.001585817226441575
1642,00:00:06.568,0.007215866120532146
1643,00:00:06.572,0.01386165991425517
1644,00:00:06.576,0.01971097267232835
1645,00:00:06.58,-0.0046265486307675
1646,00:00:06.584,-0.033808881184086204
1647,00:00:06.588,-0.005619892501272259
1648,00:00:06.592,0.00510158413089812
1649,00:00:06.596,0.007411182537907739
1650,00:00:06.6,0.02659755339846011
1651,00:00:06.604,0.004048602189868691
1652,00:00:06.608,-0.01273325318470593
1653,00:00:06.612,-0.019931650662329055
1654,00:00:06.616,-0.0011043247650377418
1655,00:00:06.62,0.0031938055763021094
1656,00:00:06.624,0.002960627665743237
1657,00:00:06.628,0.008170115295797586
1658,00:00:06.632,0.001472481642849739
1659,00:00:06.636,-0.003908086335286489
1660,00:00:06.64,0.001512806862592692
1661,00:00:06.644,0.008297186868730932
1662,00:00:06.648,-0.013951451692264527
1663,00:00:06.652,-0.013100504758767792
1664,00:00:06.656,0.005153419740963731
1665,00:00:06.66,0.016448468544695068
1666,00:00:06.664,-0.0008179951109923388
1667,00:00:06.668,-0.007530787726864219
1668,00:00:06.672,0.004499218775890761
1669,00:00:06.676,0.02028029714711012
1670,00:00:06.68,-0.00989325193222611
1671,00:00:06.684,-0.0281958633568138
1672,00:00:06.688,-0.005577341595198958
1673,00:00:06.692,0.0093369425740093
1674,00:00:06.696,0.021093872492201647
1675,00:00:06.7,0.006678831530734891
1676,00:00:06.704,-0.015053701819851991
1677,00:00:06.708,-0.00502812986587742
1678,00:00:06.712,-0.007110914215445519
1679,00:00:06.716,0.015249164775013903
1680,00:00:06.72,0.023699147568549947
1681,00:00:06.724,-0.00935159553773701
1682,00:00:06.728,-0.03955768980085854
1683,00:00:06.732,-0.00575539597775787
1684,00:00:06.736,0.01949297997634856
1685,00:00:06.74,0.018733654986135672
1686,00:00:06.744,0.007329325489990882
1687,00:00:06.748,-0.00970740208867938
1688,00:00:06.752,-0.02336830948479469
1689,00:00:06.756,0.0002644616179168221
1690,00:00:06.76,0.01426275190897286
1691,00:00:06.764,0.00964686414226889
1692,00:00:06.768,0.0030030774651095306
1693,00:00:06.772,-0.00879416524549015
1694,00:00:06.776,-0.009571865899488332
1695,00:00:06.78,0.0018209876725450201
1696,00:00:06.784,-0.004598946485202754
1697,00:00:06.788,0.014106763526797319
1698,00:00:06.792,0.008915042039006919
1699,00:00:06.796,-0.013634077506139871
1700,00:00:06.8,0.0025839756708592207
1701,00:00:06.804,0.002309469913598152
1702,00:00:06.808,-0.02640067052561786
1703,00:00:06.812,-0.0005451223696582085
1704,00:00:06.816,0.02614093804731963
1705,00:00:06.82,0.0024532108800486216
1706,00:00:06.824,-0.006858449705759998
1707,00:00:06.828,0.01648885823669843
1708,00:00:06.832,0.001293342444114384
1709,00:00:06.836,-0.02303013484925036
1710,00:00:06.84,-0.01291862590005621
1711,00:00:06.844,0.00441592442803086
1712,00:00:06.848,0.01049733022227884
1713,00:00:06.852,0.01044562668539579
1714,00:00:06.856,0.011370827649443534
1715,00:00:06.86,-0.0069966397713869906
1716,00:00:06.864,-0.01395327132195234
1717,00:00:06.868,-0.020628676633350537
1718,00:00:06.872,0.0013808468356728504
1719,00:00:06.876,0.022522727493196705
1720,00:00:06.88,0.03136467467993496
1721,00:00:06.884,-0.00042310578282923027
1722,00:00:06.888,-0.041192845907062285
1723,00:00:06.892,-0.02673652581870562
1724,00:00:06.896,0.010412915085908029
1725,00:00:06.9,0.02594281849451354
1726,00:00:06.904,0.01639157650060952
1727,00:00:06.908,0.007842378458008168
1728,00:00:06.912,-0.013879983918741349
1729,00:00:06.916,-0.01893595373257995
1730,00:00:06.92,-0.007170841476181525
1731,00:00:06.924,0.016597429057583213
1732,00:00:06.928,-0.0010715370299294695
1733,00:00:06.932,-0.004744394565932449
1734,00:00:06.936,0.010337463696487251
1735,00:00:06.94,0.006131592526799073
1736,00:00:06.944,-0.01420213375240562
1737,00:00:06.948,-0.01506522973068062
1738,00:00:06.952,0.004961444967193529
1739,00:00:06.956,0.015611294424161298
1740,00:00:06.96,0.01707424782216546
1741,00:00:06.964,-0.002442480996251107
1742,00:00:06.968,-0.016585578559897868
1743,00:00:06.972,-0.01817142148502171
1744,00:00:06.976,0.00784740946255625
1745,00:00:06.98,0.005750166150392028
1746,00:00:06.984,0.0018975575221702502
1747,00:00:06.988,-0.006473793764598659
1748,00:00:06.992,0.01369516726117581
1749,00:00:06.996,0.00333995278924704
1750,00:00:07,-0.007091008475981649
1751,00:00:07.004,0.0074976971372962
1752,00:00:07.008,0.0043189279967919105
1753,00:00:07.012,-0.02340505784377457
1754,00:00:07.016,-0.01796039886539803
1755,00:00:07.02,0.017012231517583132
1756,00:00:07.024,0.015832724515348697
1757,00:00:07.028,0.0025825269985944115
1758,00:00:07.032,0.014639219065429643
1759,00:00:07.036,-0.0019856216385960683
1760,00:00:07.04,-0.01863915519788865
1761,00:00:07.044,-0.029636363964527786
1762,00:00:07.048,-0.0028738412074744706
1763,00:00:07.052,0.02191983640659597
1764,00:00:07.056,0.014928764721844394
1765,00:00:07.06,0.006392753566615278
1766,00:00:07.064,0.007280246587470171
1767,00:00:07.068,0.005705843097530301
1768,00:00:07.072,-0.02566985902376475
1769,00:00:07.076,-0.020872358349151857
1770,00:00:07.08,-0.00027376366779207966
1771,00:00:07.084,0.00874204169667792
1772,00:00:07.088,0.013763345079496538
1773,00:00:07.092,0.004247183496772776
1774,00:00:07.096,0.00268162996508182
1775,00:00:07.1,0.011440030182711777
1776,00:00:07.104,-0.009055407252162691
1777,00:00:07.108,-0.017322394727671026
1778,00:00:07.112,-0.010206967941485356
1779,00:00:07.116,0.01070761191658676
1780,00:00:07.12,0.005537575460039081
1781,00:00:07.124,0.01082605903502554
1782,00:00:07.128,-0.003210215712897483
1783,00:00:07.132,-0.019440677482634824
1784,00:00:07.136,-0.0012587480559886864
1785,00:00:07.14,0.008531966479495159
1786,00:00:07.144,0.01953720091842115
1787,00:00:07.148,0.011350458953529634
1788,00:00:07.152,-0.014194729621522142
1789,00:00:07.156,-0.019212095299735693
1790,00:00:07.16,-0.019356608667294523
1791,00:00:07.164,-0.0044119005324319
1792,00:00:07.168,0.03005651175044486
1793,00:00:07.172,0.025941162253729992
1794,00:00:07.176,0.007255837881530166
1795,00:00:07.18,-0.02542310068383815
1796,00:00:07.184,-0.020039791590534154
1797,00:00:07.188,-0.010646217968314893
1798,00:00:07.192,0.025390537455678007
1799,00:00:07.196,0.02399744093418115
1800,00:00:07.2,-0.01575354591477662
1801,00:00:07.204,-0.021986675565131033
1802,00:00:07.208,-0.0026654055109247518
1803,00:00:07.212,0.002942496648756796
1804,00:00:07.216,0.0020350239938124997
1805,00:00:07.22,0.02031658613122995
1806,00:00:07.224,0.01146070682443678
1807,00:00:07.228,-0.016889489823370206
1808,00:00:07.232,0.00351540208794176
1809,00:00:07.236,-0.00521895033307373
1810,00:00:07.24,-0.01113145879935473
1811,00:00:07.244,-0.0019874849531333868
1812,00:00:07.248,-0.002646278357133275
1813,00:00:07.252,0.0068236734950915
1814,00:00:07.256,0.014610608224757016
1815,00:00:07.26,0.0072485925193177545
1816,00:00:07.264,-0.008449830696918112
1817,00:00:07.268,-0.011822446365840733
1818,00:00:07.272,0.0013207306619733503
1819,00:00:07.276,0.0003075656713917804
1820,00:00:07.28,-0.0037128230324015026
1821,00:00:07.284,-0.0014300578041002137
1822,00:00:07.288,0.001899858412798495
1823,00:00:07.292,0.013958859140984749
1824,00:00:07.296,0.005782078812444525
1825,00:00:07.3,-0.012190410518087441
1826,00:00:07.304,-3.8971193134789686e-05
1827,00:00:07.308,0.00222473428584635
1828,00:00:07.312,-0.0015191831625997912
1829,00:00:07.316,-0.009786182141397145
1830,00:00:07.32,-0.0009716439308249394
1831,00:00:07.324,0.004173215886112303
1832,00:00:07.328,0.01325980084948242
1833,00:00:07.332,-0.01113316020928324
1834,00:00:07.336,-0.0043937657901551574
1835,00:00:07.34,0.00472395576070994
1836,00:00:07.344,0.02184227391262535
1837,00:00:07.348,-0.0032947858562693004
1838,00:00:07.352,-0.02817256562411791
1839,00:00:07.356,0.0021920008875895352
1840,00:00:07.36,-0.009273883828427643
1841,00:00:07.364,0.009327021427452571
1842,00:00:07.368,0.02708036731928585
1843,00:00:07.372,0.005838650278747078
1844,00:00:07.376,-0.016942664748057716
1845,00:00:07.38,-0.01927089865785087
1846,00:00:07.384,-0.01141878380440175
1847,00:00:07.388,0.018835030321497453
1848,00:00:07.392,0.013552755583077673
1849,00:00:07.396,0.00535641866736114
1850,00:00:07.4,-0.003975634870585059
1851,00:00:07.404,-0.00780925771687179
1852,00:00:07.408,-0.01664663862902667
1853,00:00:07.412,-0.0006983643688727159
1854,00:00:07.416,0.019490693928673877
1855,00:00:07.42,0.01883531128987666
1856,00:00:07.424,-0.01227615168318152
1857,00:00:07.428,-0.02581273717805739
1858,00:00:07.432,0.00473989313468338
1859,00:00:07.436,0.0036495048552751498
1860,00:00:07.44,0.0029989529284648576
1861,00:00:07.444,0.01483227685093879
1862,00:00:07.448,-0.00612218049354851
1863,00:00:07.452,-0.0006285489653237172
1864,00:00:07.456,0.0025166720151901275
1865,00:00:07.46,-0.006657913560047751
1866,00:00:07.464,-0.00342837674543261
1867,00:00:07.468,-0.0010114266333403061
1868,00:00:07.472,-0.009601401863619689
1869,00:00:07.476,0.01152628660202026
1870,00:00:07.48,0.007741705398075281
1871,00:00:07.484,0.0038560235407203397
1872,00:00:07.488,-0.00022851495305076458
1873,00:00:07.492,-0.013409327686531474
1874,00:00:07.496,-0.012594371550221693
1875,00:00:07.5,0.00859119743108749
1876,00:00:07.504,0.024105057935230427
1877,00:00:07.508,0.006782924639992419
1878,00:00:07.512,-0.0013639098324347322
1879,00:00:07.516,-0.04114843392744666
1880,00:00:07.52,-0.00491507782135159
1881,00:00:07.524,0.005636380461510277
1882,00:00:07.528,0.01971817342564464
1883,00:00:07.532,0.012900283501949158
1884,00:00:07.536,-0.0006828622717875961
1885,00:00:07.54,-0.004244904266670351
1886,00:00:07.544,-0.006167699466459459
1887,00:00:07.548,-0.007048698433209218
1888,00:00:07.552,-0.00215884146746248
1889,00:00:07.556,0.006368929403834042
1890,00:00:07.56,-0.004287050513084976
1891,00:00:07.564,0.005712377373129141
1892,00:00:07.568,0.00410681778157596
1893,00:00:07.572,-0.006301616085693238
1894,00:00:07.576,0.003244057646952571
1895,00:00:07.58,0.00825778755825012
1896,00:00:07.584,-0.0028341938159428546
1897,00:00:07.588,-0.017646543041337268
1898,00:00:07.592,0.006243630865355949
1899,00:00:07.596,0.00046999602636788127
1900,00:00:07.6,0.0009385137527715371
1901,00:00:07.604,0.01449313154444094
1902,00:00:07.608,-0.01816246553789825
1903,00:00:07.612,-0.009254425764083859
1904,00:00:07.616,0.013256392208859328
1905,00:00:07.62,0.01977637317031622
1906,00:00:07.624,0.007093442836776339
1907,00:00:07.628,-0.022757387952879092
1908,00:00:07.632,-0.018967367999721298
1909,00:00:07.636,0.0018560368916951124
1910,00:00:07.64,0.011692244457663035
1911,00:00:07.644,-0.0016911067032197062
1912,00:00:07.648,0.008012130681890998
1913,00:00:07.652,0.0014456010540016026
1914,00:00:07.656,0.006099501973949371
1915,00:00:07.66,0.0038687202613800695
1916,00:00:07.664,-0.01776371616870162
1917,00:00:07.668,0.0067368355230428304
1918,00:00:07.672,-0.005229765200056139
1919,00:00:07.676,-0.006392212584614749
1920,00:00:07.68,-2.920627593989804e-06
1921,00:00:07.684,0.008863794733770202
1922,00:00:07.688,0.0034701689910434687
1923,00:00:07.692,-0.004225928860250858
1924,00:00:07.696,0.00641855387948453
1925,00:00:07.7,-0.010733482849900614
1926,00:00:07.704,0.003944096039049326
1927,00:00:07.708,0.018895990237069806
1928,00:00:07.712,-0.013089494372252392
1929,00:00:07.716,-0.02390293101780118
1930,00:00:07.72,-0.00851320254150778
1931,00:00:07.724,0.030461933114565916
1932,00:00:07.728,0.05071969702839848
1933,00:00:07.732,-0.0387550990562886
1934,00:00:07.736,-0.03575278678908943
1935,00:00:07.74,-0.0035474095493555104
1936,00:00:07.744,0.0028981110081076587
1937,00:00:07.748,0.010356731014326239
1938,00:00:07.752,0.021960853278869784
1939,00:00:07.756,-0.002492350758984685
1940,00:00:07.76,0.01821544859558342
1941,00:00:07.764,-0.008702877559699122
1942,00:00:07.768,-0.02508112369105214
1943,00:00:07.772,-0.014539182186126709
1944,00:00:07.776,0.01135552511550486
1945,00:00:07.78,0.01495394529774785
1946,00:00:07.784,-0.0045835355995223
1947,00:00:07.788,0.00292961276136339
1948,00:00:07.792,0.005966137629002329
1949,00:00:07.796,-0.00703332066768785
1950,00:00:07.8,-0.010044877417385566
1951,00:00:07.804,0.0028877045260742376
1952,00:00:07.808,0.022278455784544383
1953,00:00:07.812,-0.003980856854468581
1954,00:00:07.816,-0.031073878752067657
1955,00:00:07.82,-0.003980133158620452
1956,00:00:07.824,0.020196538418531407
1957,00:00:07.828,0.020760238519869714
1958,00:00:07.832,-0.004073814605362728
1959,00:00:07.836,-0.009496205253526568
1960,00:00:07.84,-0.010819417773745961
1961,00:00:07.844,-0.004366366425529129
1962,00:00:07.848,-0.01044122193707153
1963,00:00:07.852,0.008500004769302901
1964,00:00:07.856,0.03672593273222445
1965,00:00:07.86,-0.0019909141119569505
1966,00:00:07.864,-0.007647766266018159
1967,00:00:07.868,-0.021746296610217528
1968,00:00:07.872,-0.0181713068159297
1969,00:00:07.876,-0.0049675302579998935
1970,00:00:07.88,0.01973876031115653
1971,00:00:07.884,0.02162127546034752
1972,00:00:07.888,0.010591922677122048
1973,00:00:07.892,-0.008254131360445173
1974,00:00:07.896,-0.007567176147858848
1975,00:00:07.9,0.0030664356891065797
1976,00:00:07.904,-0.02084720740094782
1977,00:00:07.908,-0.0054420456290245
1978,00:00:07.912,0.0015834632795304101
1979,00:00:07.916,0.01730896066874266
1980,00:00:07.92,0.006116929755080498
1981,00:00:07.924,-0.002863470930606126
1982,00:00:07.928,0.010733579381849264
1983,00:00:07.932,-0.015899775084108118
1984,00:00:07.936,-0.0076410108304116875
1985,00:00:07.94,0.009952937834896149
1986,00:00:07.944,-0.014681634027510848
1987,00:00:07.948,-0.010774304973892817
1988,00:00:07.952,0.02206726302392781
1989,00:00:07.956,0.02733896719291805
1990,00:00:07.96,-0.005669587408192461
1991,00:00:07.964,-0.020447415241505968
1992,00:00:07.968,-0.015032730967504928
1993,00:00:07.972,0.000906441069673742
1994,00:00:07.976,0.00806417694548146
1995,00:00:07.98,0.00785525026731194
1996,00:00:07.984,0.006002705253195016
1997,00:00:07.988,-0.00013296143151820053
1998,00:00:07.992,-0.008319468819536262
1999,00:00:07.996,-0.0006796206580475003
2000,00:00:08,-0.0035701668239198673
2001,00:00:08.004,0.00612864596769214
2002,00:00:08.008,-0.0010646777227520901
2003,00:00:08.012,0.00873687758576125
2004,00:00:08.016,-0.010165354644414034
2005,00:00:08.02,-0.0032659302523825313
2006,00:00:08.024,0.0003267509455326884
2007,00:00:08.028,-0.010722920706029985
2008,00:00:08.032,0.0052775237709283785
2009,00:00:08.036,0.03539706021547319
2010,00:00:08.04,-0.01207093428820372
2011,00:00:08.044,-0.02210509724682197
2012,00:00:08.048,-0.004349887138232588
2013,00:00:08.052,0.011469334553112274
2014,00:00:08.056,0.003344203345477583
2015,00:00:08.06,-0.0023118383687688025
2016,00:00:08.064,-0.005499561899341639
2017,00:00:08.068,0.00240210490301252
2018,00:00:08.072,0.008648672548588365
2019,00:00:08.076,0.01136886281892658
2020,00:00:08.08,-0.010795190697535874
2021,00:00:08.084,-0.01169170785578896
2022,00:00:08.088,-0.0066891189198940906
2023,00:00:08.092,0.00826691510155797
2024,00:00:08.096,0.0028452684309740973
2025,00:00:08.1,0.0055901061386975925
2026,00:00:08.104,-0.007198236300609969
2027,00:00:08.108,-0.0031451506656594557
2028,00:00:08.112,0.002511233935365452
2029,00:00:08.116,0.01079573598690331
2030,00:00:08.12,0.005596854258328678
2031,00:00:08.124,-0.010191378649324179
2032,00:00:08.128,-0.01061316195409745
2033,00:00:08.132,0.004139561671763664
2034,00:00:08.136,0.0006334669305942866
2035,00:00:08.14,0.005393269704654809
2036,00:00:08.144,0.006214224733412271
2037,00:00:08.148,-0.0034808507407433323
2038,00:00:08.152,-0.01236315420828759
2039,00:00:08.156,-0.006458453601226211
2040,00:00:08.16,0.008074746874626722
2041,00:00:08.164,0.00884139316622168
2042,00:00:08.168,0.003964908421039591
2043,00:00:08.172,-0.0030695741006638876
2044,00:00:08.176,-0.003584080375730989
2045,00:00:08.18,0.0023257273714989493
2046,00:00:08.184,0.002213917323388155
2047,00:00:08.188,-0.006300199136603624
2048,00:00:08.192,-0.00431226147338748
2049,00:00:08.196,0.00212062604259699
2050,00:00:08.2,-0.001238036842551078
2051,00:00:08.204,-0.002758858900051558
2052,00:00:08.208,0.003007630264619364
2053,00:00:08.212,0.012069887015968558
2054,00:00:08.216,0.013037311146035789
2055,00:00:08.22,-0.005262684077024461
2056,00:00:08.224,-0.015365174273028998
2057,00:00:08.228,-0.02562434831634161
2058,00:00:08.232,0.005264334497042
2059,00:00:08.236,0.017587742768228047
2060,00:00:08.24,0.016607769764959777
2061,00:00:08.244,-0.001259221688087564
2062,00:00:08.248,-0.007644514669664204
2063,00:00:08.252,-0.01304005191195756
2064,00:00:08.256,0.007029772270470861
2065,00:00:08.26,-0.000611306459177283
2066,00:00:08.264,0.005664964555762701
2067,00:00:08.268,-0.009113440391956822
2068,00:00:08.272,-0.003520434198435398
2069,00:00:08.276,0.01201097862212918
2070,00:00:08.28,0.00867996719898656
2071,00:00:08.284,-0.012123452172090767
2072,00:00:08.288,-0.010201016382779923
2073,00:00:08.292,0.01287037145812064
2074,00:00:08.296,0.005461912602186211
2075,00:00:08.3,-0.006446891347877684
2076,00:00:08.304,-0.003548761990714406
2077,00:00:08.308,0.0030318060889840195
2078,00:00:08.312,-0.0013202591799199503
2079,00:00:08.316,-0.008140331599861349
2080,00:00:08.32,-0.00932769176142756
2081,00:00:08.324,0.0006810365593992155
2082,00:00:08.328,0.043515872210264164
2083,00:00:08.332,0.023535102955065647
2084,00:00:08.336,-0.036403921840246774
2085,00:00:08.34,-0.03621441044379026
2086,00:00:08.344,-0.015206386102363453
2087,00:00:08.348,0.008119052741676569
2088,00:00:08.352,0.025247582234442203
2089,00:00:08.356,0.027558341622352593
2090,00:00:08.36,-0.0003772271447815022
2091,00:00:08.364,-0.016237434465438128
2092,00:00:08.368,-0.010176218929700552
2093,00:00:08.372,-0.0010904393275268385
2094,00:00:08.376,-0.00029794211150147005
2095,00:00:08.38,0.00387704838067294
2096,00:00:08.384,0.008977281104307623
2097,00:00:08.388,-0.0033716667385306253
2098,00:00:08.392,-0.0016859229654073702
2099,00:00:08.396,-0.011487696436233822
2100,00:00:08.4,-0.007640254683792589
2101,00:00:08.404,0.004632467229384924
2102,00:00:08.408,0.023097523662727274
2103,00:00:08.412,-0.0009727503274916671
2104,00:00:08.416,-0.010841647163033472
2105,00:00:08.42,0.00119760411325843
2106,00:00:08.424,0.01446697977371513
2107,00:00:08.428,-0.012063186382874845
2108,00:00:08.432,-0.015778080327436328
2109,00:00:08.436,-0.0010158742079511233
2110,00:00:08.44,0.013559410348534591
2111,00:00:08.444,0.010586019634502012
2112,00:00:08.448,-0.004082151805050673
2113,00:00:08.452,-0.0025853823171928594
2114,00:00:08.456,-0.014113603101577606
2115,00:00:08.46,-0.005902948207221932
2116,00:00:08.464,0.006189957493916171
2117,00:00:08.468,0.027379302075132634
2118,00:00:08.472,0.0087103572441265
2119,00:00:08.476,-0.02696398191619664
2120,00:00:08.48,-0.0070765542332082996
2121,00:00:08.484,-0.0052150741685181865
2122,00:00:08.488,0.005015638511395082
2123,00:00:08.492,0.009589596273144705
2124,00:00:08.496,0.00518113223370165
2125,00:00:08.5,-0.0003620347706601002
2126,00:00:08.504,-0.003441304565058096
2127,00:00:08.508,-0.0160458805039525
2128,00:00:08.512,0.009868357796221968
2129,00:00:08.516,0.013909948931541299
2130,00:00:08.52,-0.0017841169610619601
2131,00:00:08.524,-0.004908931063255297
2132,00:00:08.528,-0.00963992043398321
2133,00:00:08.532,-0.005629682447761299
2134,00:00:08.536,0.00884418422356248
2135,00:00:08.54,0.00498256366699933
2136,00:00:08.544,-0.013369891559705136
2137,00:00:08.548,0.022992230835370712
2138,00:00:08.552,0.005954857100732622
2139,00:00:08.556,-0.02258409070782364
2140,00:00:08.56,-0.014644532580859949
2141,00:00:08.564,0.023607856943272047
2142,00:00:08.568,-0.0012463704915717298
2143,00:00:08.572,-0.010926872695563371
2144,00:00:08.576,0.02107093122322114
2145,00:00:08.58,0.0031565804238198342
2146,00:00:08.584,-0.028273038333281857
2147,00:00:08.588,-0.012590018566697841
2148,00:00:08.592,0.015599848935380621
2149,00:00:08.596,0.02222625177819277
2150,00:00:08.6,0.004441304103238505
2151,00:00:08.604,-0.017974640941247344
2152,00:00:08.608,-0.0089047851506621
2153,00:00:08.612,0.017488986602984407
2154,00:00:08.616,-0.0039394540945068
2155,00:00:08.62,-0.015820151893422
2156,00:00:08.624,0.00631262082606554
2157,00:00:08.628,0.0055460246512666345
2158,00:00:08.632,0.0003290627500973668
2159,00:00:08.636,-0.00666964240372181
2160,00:00:08.64,-0.00245682441163808
2161,00:00:08.644,0.02338491406408145
2162,00:00:08.648,0.0056489600974600675
2163,00:00:08.652,-0.018012295709922917
2164,00:00:08.656,-0.018300761468708487
2165,00:00:08.66,-0.0008959894184954412
2166,00:00:08.664,0.010806001140736038
2167,00:00:08.668,0.00561046309303492
2168,00:00:08.672,0.0119809255702421
2169,00:00:08.676,-5.214998964220806e-05
2170,00:00:08.68,-0.006751532695488996
2171,00:00:08.684,-0.01547709142323582
2172,00:00:08.688,0.0019467988749966004
2173,00:00:08.692,0.004383916675578807
2174,00:00:08.696,0.0024766775313764815
2175,00:00:08.7,0.00886338704731315
2176,00:00:08.704,0.00846488494426012
2177,00:00:08.708,-0.00800335744861513
2178,00:00:08.712,-0.01707248413003981
2179,00:00:08.716,-0.008547254838049408
2180,00:00:08.72,0.00448311399668455
2181,00:00:08.724,0.008469534106552597
2182,00:00:08.728,0.01295553834643215
2183,00:00:08.732,0.019723830278962847
2184,00:00:08.736,-0.014786606305278834
2185,00:00:08.74,-0.014002843585330998
2186,00:00:08.744,-0.0022533344454131687
2187,00:00:08.748,-0.019977502641268057
2188,00:00:08.752,-0.00011377385817468036
2189,00:00:08.756,0.02211157279089096
2190,00:00:08.76,0.021865186459763156
2191,00:00:08.764,-0.005849290755577381
2192,00:00:08.768,-0.02040622435742992
2193,00:00:08.772,-0.00022409961093216874
2194,00:00:08.776,0.010986887384206057
2195,00:00:08.78,-0.0005812994204461501
2196,00:00:08.784,-0.012687123205978427
2197,00:00:08.788,-0.0038368406530935244
2198,00:00:08.792,0.009454444589209748
2199,00:00:08.796,0.012431149167241569
2200,00:00:08.8,0.006719394557876516
2201,00:00:08.804,-0.011607665568590142
2202,00:00:08.808,-0.013140648865373836
2203,00:00:08.812,-0.00191782612819225
2204,00:00:08.816,-0.006299563217908149
2205,00:00:08.82,0.0005569863133132397
2206,00:00:08.824,0.02335206069983542
2207,00:00:08.828,0.027601447422057345
2208,00:00:08.832,0.00441561487969011
2209,00:00:08.836,-0.04642636724747714
2210,00:00:08.84,-0.02658885740675029
2211,00:00:08.844,0.001802395971026273
2212,00:00:08.848,0.019907256588339813
2213,00:00:08.852,0.02691912837326523
2214,00:00:08.856,0.0005540365746128364
2215,00:00:08.86,-0.010271910228766497
2216,00:00:08.864,-0.005695922533050171
2217,00:00:08.868,0.00621570879593491
2218,00:00:08.872,-0.007720794004853813
2219,00:00:08.876,-0.011685326404403886
2220,00:00:08.88,0.0021246860269457176
2221,00:00:08.884,0.02524185925722119
2222,00:00:08.888,-0.003925687633454791
2223,00:00:08.892,-0.0077389025827869495
2224,00:00:08.896,-0.00783361378125844
2225,00:00:08.9,-0.004036856349557639
2226,00:00:08.904,0.00892359216231855
2227,00:00:08.908,0.003997557796537871
2228,00:00:08.912,-0.0041464904497843175
2229,00:00:08.916,0.002036357211181895
2230,00:00:08.92,-0.0028452450351323976
2231,00:00:08.924,0.0011809596326202213
2232,00:00:08.928,0.00772296346258371
2233,00:00:08.932,0.0007713235681876487
2234,00:00:08.936,-0.013421155861578882
2235,00:00:08.94,-0.010570515762083219
2236,00:00:08.944,0.00265285081695765
2237,00:00:08.948,0.01637567425495945
2238,00:00:08.952,0.015927039319649342
2239,00:00:08.956,-0.0023711039684712843
2240,00:00:08.96,-0.019651719834655558
2241,00:00:08.964,-0.0006724658887833387
2242,00:00:08.968,0.005954891385044903
2243,00:00:08.972,-0.01200645708013327
2244,00:00:08.976,-0.002363312494708223
2245,00:00:08.98,0.00748975994065404
2246,00:00:08.984,-0.0008626744966022642
2247,00:00:08.988,0.00492803705856205
2248,00:00:08.992,0.022006480122399853
2249,00:00:08.996,-0.0030237116152420705
2250,00:00:09,-0.017846127040684223
2251,00:00:09.004,-0.01441706530749797
2252,00:00:09.008,-0.012305705766266332
2253,00:00:09.012,0.014765979722142221
2254,00:00:09.016,0.01907117525115609
2255,00:00:09.02,0.00829106220044196
2256,00:00:09.024,-0.0008161702644429211
2257,00:00:09.028,-0.00604032224509864
2258,00:00:09.032,-0.01727270358242095
2259,00:00:09.036,-0.003153137335175418
2260,00:00:09.04,0.008280352049041545
2261,00:00:09.044,0.0017462542746216007
2262,00:00:09.048,0.0005884051206521721
2263,00:00:09.052,-0.0013441934715956506
2264,00:00:09.056,0.00681772117968649
2265,00:00:09.06,6.53065508231486e-05
2266,00:00:09.064,-0.005249120527878411
2267,00:00:09.068,-0.0012095309793949101
2268,00:00:09.072,-0.010262745898216961
2269,00:00:09.076,0.00615073705557733
2270,00:00:09.08,0.00841216195840388
2271,00:00:09.084,0.008411278948187833
2272,00:00:09.088,0.00167287176009268
2273,00:00:09.092,-0.002141433302313087
2274,00:00:09.096,-0.02275177052069924
2275,00:00:09.1,-0.00924675550777464
2276,00:00:09.104,0.01068815216422081
2277,00:00:09.108,0.02347996912067172
2278,00:00:09.112,0.013793004909530317
2279,00:00:09.116,-0.028244673332665133
2280,00:00:09.12,-0.018552824854850797
2281,00:00:09.124,0.007187002978753296
2282,00:00:09.128,0.010445654625073068
2283,00:00:09.132,0.009817392565310007
2284,00:00:09.136,0.00893768901005387
2285,00:00:09.14,-0.009153147286269817
2286,00:00:09.144,-0.008146740263327956
2287,00:00:09.148,-0.00865962146781385
2288,00:00:09.152,0.0013821939937770443
2289,00:00:09.156,0.00530828372575343
2290,00:00:09.16,0.00470067141577602
2291,00:00:09.164,0.00207389937713742
2292,00:00:09.168,-0.00251383881550282
2293,00:00:09.172,0.00023732171393930478
2294,00:00:09.176,0.004044015644467434
2295,00:00:09.18,-0.004772274987772109
2296,00:00:09.184,-0.01047966140322387
2297,00:00:09.188,0.004986430867575111
2298,00:00:09.192,0.0086426940979436
2299,00:00:09.196,0.0009484238689765404
2300,00:00:09.2,-0.000390571658499535
2301,00:00:09.204,-0.00681996543426067
2302,00:00:09.208,-0.00326772563857958
2303,00:00:09.212,-0.0007905057864263697
2304,00:00:09.216,0.0032659592689014932
2305,00:00:09.22,0.01479029539041221
2306,00:00:09.224,-0.009119535447098318
2307,00:00:09.228,-0.0038216365283005897
2308,00:00:09.232,0.0055800064001232386
2309,00:00:09.236,-0.003069074125960472
2310,00:00:09.24,-0.0017469469457864805
2311,00:00:09.244,-0.0034355042153038163
2312,00:00:09.248,0.009650326683186002
2313,00:00:09.252,-0.00600429915357381
2314,00:00:09.256,-0.011773248494137079
2315,00:00:09.26,-0.007130220095859835
2316,00:00:09.264,0.013564208580646619
2317,00:00:09.268,0.024192865123040946
2318,00:00:09.272,-0.002288060000864795
2319,00:00:09.276,-0.008631914621219039
2320,00:00:09.28,-0.004627251473721115
2321,00:00:09.284,-0.01931410655379298
2322,00:00:09.288,0.0060982038266956815
2323,00:00:09.292,0.00614026669063606
2324,00:00:09.296,0.00967687601223588
2325,00:00:09.3,0.01582778486772438
2326,00:00:09.304,-0.01668806305315227
2327,00:00:09.308,-0.01920807338319717
2328,00:00:09.312,-0.0016514117305632674
2329,00:00:09.316,0.014777011063415552
2330,00:00:09.32,0.005948572186753155
2331,00:00:09.324,0.0028123798547312695
2332,00:00:09.328,0.008660234394483261
2333,00:00:09.332,-0.01794414711184801
2334,00:00:09.336,-0.013925752136856349
2335,00:00:09.34,0.002626490662805731
2336,00:00:09.344,0.013771958416327841
2337,00:00:09.348,0.004460909171029932
2338,00:00:09.352,0.010495112277567348
2339,00:00:09.356,-0.0011973881046287759
2340,00:00:09.36,-0.024257141398266
2341,00:00:09.364,-0.01079757534898813
2342,00:00:09.368,0.01816408999729906
2343,00:00:09.372,0.013362606870941792
2344,00:00:09.376,-0.0009578224562574174
2345,00:00:09.38,-0.004711574176326391
2346,00:00:09.384,-0.01642972324043512
2347,00:00:09.388,-0.002576530037913473
2348,00:00:09.392,0.006891422206535941
2349,00:00:09.396,0.010778480442240829
2350,00:00:09.4,0.00953356141690165
2351,00:00:09.404,-0.0028948681429028598
2352,00:00:09.408,-0.00765944423619658
2353,00:00:09.412,-0.012620837835129323
2354,00:00:09.416,-0.004886954848188908
2355,00:00:09.42,0.015925729414448097
2356,00:00:09.424,0.01615022076293826
2357,00:00:09.428,-0.01294203754514451
2358,00:00:09.432,-0.007862946833483828
2359,00:00:09.436,-0.008715632604435081
2360,00:00:09.44,0.003057784109842034
2361,00:00:09.444,0.0012615694431588008
2362,00:00:09.448,0.0077745880698785194
2363,00:00:09.452,0.010914760874584333
2364,00:00:09.456,0.03353242881712502
2365,00:00:09.46,-0.01399870438035576
2366,00:00:09.464,-0.05800868803635237
2367,00:00:09.468,-0.020499302307143818
2368,00:00:09.472,0.01419192552566528
2369,00:00:09.476,0.029508370906114616
2370,00:00:09.48,0.01760234637185929
2371,00:00:09.484,0.01419417513534427
2372,00:00:09.488,-0.002882543602027
2373,00:00:09.492,-0.007629660074599079
2374,00:00:09.496,-0.028516469988971945
2375,00:00:09.5,-0.01112127327360209
2376,00:00:09.504,0.01169561129063368
2377,00:00:09.508,0.01690514609799721
2378,00:00:09.512,-0.008465293998597186
2379,00:00:09.516,0.005731028475565832
2380,00:00:09.52,-0.0004219741094857502
2381,00:00:09.524,0.0004884365480393102
2382,00:00:09.528,-0.00922964137862433
2383,00:00:09.532,0.02477677864953876
2384,00:00:09.536,0.0017644313629716678
2385,00:00:09.54,-0.02439586620312191
2386,00:00:09.544,-0.02846880722790957
2387,00:00:09.548,0.0013407741207629373
2388,00:00:09.552,0.01925299409776927
2389,00:00:09.556,0.017905649729073072
2390,00:00:09.56,0.022622062591835797
2391,00:00:09.564,0.00541473098564892
2392,00:00:09.568,-0.019098636694252533
2393,00:00:09.572,-0.029600186739116862
2394,00:00:09.576,-0.01174478908069431
2395,00:00:09.58,0.008575343352276797
2396,00:00:09.584,0.01647584472084418
2397,00:00:09.588,0.01266327535267921
2398,00:00:09.592,0.0038506684941239607
2399,00:00:09.596,0.0046299237292259906
2400,00:00:09.6,-0.025157750700600445
2401,00:00:09.604,-0.01512355334125459
2402,00:00:09.608,-0.00643760466482491
2403,00:00:09.612,0.023434403818100705
2404,00:00:09.616,0.020202422980219212
2405,00:00:09.62,-0.004824167815968391
2406,00:00:09.624,-0.011300371901597833
2407,00:00:09.628,0.004686123716965083
2408,00:00:09.632,0.0011434255284257287
2409,00:00:09.636,-0.008267923194580367
2410,00:00:09.64,-0.00350836571305991
2411,00:00:09.644,-0.00413586653303355
2412,00:00:09.648,-0.0024026120081544
2413,00:00:09.652,0.015569982699162207
2414,00:00:09.656,0.008635128266178078
2415,00:00:09.66,-0.0060963644646108185
2416,00:00:09.664,-0.01174130337312818
2417,00:00:09.668,0.008489813364576552
2418,00:00:09.672,0.0019716378883458665
2419,00:00:09.676,-0.01583025691797957
2420,00:00:09.68,0.0032676177797839124
2421,00:00:09.684,0.0009857988334260907
2422,00:00:09.688,0.006188779254443947
2423,00:00:09.692,0.00927534955553707
2424,00:00:09.696,0.001714881160296498
2425,00:00:09.7,-0.0026305747451260695
2426,00:00:09.704,-0.02078645816072821
2427,00:00:09.708,-0.004401036829221995
2428,00:00:09.712,0.024909278610721213
2429,00:00:09.716,0.00584800844080746
2430,00:00:09.72,-0.00969553657341748
2431,00:00:09.724,-0.01263729762285948
2432,00:00:09.728,0.009872807073406882
2433,00:00:09.732,0.0019298789557069605
2434,00:00:09.736,-0.00208385498262942
2435,00:00:09.74,-0.006737133197020737
2436,00:00:09.744,-0.007676560155232435
2437,00:00:09.748,0.007253789226524536
2438,00:00:09.752,0.01154552580555901
2439,00:00:09.756,0.0093221350107342
2440,00:00:09.76,0.0003659809153759852
2441,00:00:09.764,-0.008341205335455012
2442,00:00:09.768,-0.02444113371893761
2443,00:00:09.772,0.00379624846391379
2444,00:00:09.776,0.013004384003579608
2445,00:00:09.78,0.0036966721527278406
2446,00:00:09.784,0.0001886190148070459
2447,00:00:09.788,0.009480486769462
2448,00:00:09.792,-0.0046569756232202
2449,00:00:09.796,-0.023187989834696072
2450,00:00:09.8,0.0037603225791826844
2451,00:00:09.804,0.020608376711606993
2452,00:00:09.808,-0.01130251231370494
2453,00:00:09.812,0.0009334737551398499
2454,00:00:09.816,0.0092976673040539
2455,00:00:09.82,-0.0025343472952954475
2456,00:00:09.824,-0.011793826241046199
2457,00:00:09.828,0.00011593702947721406
2458,00:00:09.832,0.0021456470713019397
2459,00:00:09.836,0.0015147047815844434
2460,00:00:09.84,0.013249304902274158
2461,00:00:09.844,-0.0030472974758595254
2462,00:00:09.848,-0.01105980516877026
2463,00:00:09.852,-0.0006477115675806986
2464,00:00:09.856,0.00038355687865987095
2465,00:00:09.86,0.0041051579173654405
2466,00:00:09.864,-0.005878337018657476
2467,00:00:09.868,0.011920123652089387
2468,00:00:09.872,-0.0010345267364755303
2469,00:00:09.876,-0.00015253073070198905
2470,00:00:09.88,-0.004912460455670949
2471,00:00:09.884,-0.01008505676873026
2472,00:00:09.888,0.011239980813115863
2473,00:00:09.892,-0.00374078517779708
2474,00:00:09.896,0.003831500420346859
2475,00:00:09.9,0.002027191396337006
2476,00:00:09.904,-0.009387123718624933
2477,00:00:09.908,-0.0028654421912506197
2478,00:00:09.912,0.00834957556799055
2479,00:00:09.916,0.01061739632859825
2480,00:00:09.92,0.0012129988754168135
2481,00:00:09.924,-0.01431146275717765
2482,00:00:09.928,-0.013962716329842799
2483,00:00:09.932,0.03882408398203552
2484,00:00:09.936,-0.0016000771429389798
2485,00:00:09.94,-0.0381565212737769
2486,00:00:09.944,-0.013935572344053068
2487,00:00:09.948,0.018759994127321968
2488,00:00:09.952,0.01784348697401582
2489,00:00:09.956,0.000270907650701701
2490,00:00:09.96,0.009114023065194491
2491,00:00:09.964,0.01305505633354187
2492,00:00:09.968,-0.015015419339761138
2493,00:00:09.972,-0.029024606454186152
2494,00:00:09.976,-0.004101995145902039
2495,00:00:09.98,-0.00785298625123687
2496,00:00:09.984,0.01847914629615843
2497,00:00:09.988,0.03839806513860819
2498,00:00:09.992,-0.00457593728788197
2499,00:00:09.996,-0.012706928420811878
2500,00:00:10,-0.01282365410588683
2501,00:00:10.004,-0.009425372700206939
2502,00:00:10.008,-0.005028309882618484
2503,00:00:10.012,0.01322952844202519
2504,00:00:10.016,0.005764850124251098
2505,00:00:10.02,0.003431541204918179
2506,00:00:10.024,-0.002953922245069403
2507,00:00:10.028,0.0007765126647427664
2508,00:00:10.032,-0.005573507660301401
2509,00:00:10.036,-0.01145849097520114
2510,00:00:10.04,0.004396480042487349
2511,00:00:10.044,0.00696460693143308
2512,00:00:10.048,0.01661925273947418
2513,00:00:10.052,0.019936988013796522
2514,00:00:10.056,-0.028491202741861288
2515,00:00:10.06,-0.02279681363143023
2516,00:00:10.064,-0.009872046881355345
2517,00:00:10.068,0.0009985797805711597
2518,00:00:10.072,0.01652118377387525
2519,00:00:10.076,0.0314319164608605
2520,00:00:10.08,0.015279990620911121
2521,00:00:10.084,-0.020023399207275423
2522,00:00:10.088,-0.03220977168530223
2523,00:00:10.092,-0.010903926333412523
2524,00:00:10.096,-0.00352481950540096
2525,00:00:10.1,0.01935787301044908
2526,00:00:10.104,0.02939959173090758
2527,00:00:10.108,0.0004132208559894852
2528,00:00:10.112,-0.0044783048797398806
2529,00:00:10.116,-0.01023784151766449
2530,00:00:10.12,-0.014195325173204765
2531,00:00:10.124,-0.00547702191397547
2532,00:00:10.128,-0.0007982671668287419
2533,00:00:10.132,0.01737548946402968
2534,00:00:10.136,0.00766077358275652
2535,00:00:10.14,-0.018288797698915008
2536,00:00:10.144,0.0036438099050428697
2537,00:00:10.148,0.030323628569021797
2538,00:00:10.152,-0.02011262869928031
2539,00:00:10.156,-0.019136596238240593
2540,00:00:10.16,0.004484209930524227
2541,00:00:10.164,0.0018673990271054197
2542,00:00:10.168,-0.002228117402410134
2543,00:00:10.172,0.01670715375803409
2544,00:00:10.176,0.02259096933994437
2545,00:00:10.18,-0.02800063556060203
2546,00:00:10.184,-0.02747650677338243
2547,00:00:10.188,0.0045371643500402604
2548,00:00:10.192,0.022561449790373427
2549,00:00:10.196,0.032501380774192554
2550,00:00:10.2,-0.01347666187211871
2551,00:00:10.204,-0.03512232704088094
2552,00:00:10.208,-0.005981780122965569
2553,00:00:10.212,0.008549347170628599
2554,00:00:10.216,0.009050439111888412
2555,00:00:10.22,0.0068889171816408695
2556,00:00:10.224,0.004919291357509795
2557,00:00:10.228,0.0012686045374721295
2558,00:00:10.232,-0.00226328079588711
2559,00:00:10.236,-0.01025801873765887
2560,00:00:10.24,-0.001968704687897115
2561,00:00:10.244,-0.0016080047935247395
2562,00:00:10.248,-0.0011688114900607655
2563,00:00:10.252,0.00037780287675560085
2564,00:00:10.256,0.00400344259105624
2565,00:00:10.26,0.010953578603221145
2566,00:00:10.264,-0.005244508560281244
2567,00:00:10.268,-0.0029249070212245014
2568,00:00:10.272,0.0013323390157893296
2569,00:00:10.276,0.006721880112309009
2570,00:00:10.28,-0.002737460134085261
2571,00:00:10.284,-0.00825691502541303
2572,00:00:10.288,-0.01093914348166436
2573,00:00:10.292,0.004303200636059044
2574,00:00:10.296,0.01248324336484074
2575,00:00:10.3,-0.010584707371890548
2576,00:00:10.304,0.014104628586210342
2577,00:00:10.308,0.007768637151457372
2578,00:00:10.312,0.0007676316017750659
2579,00:00:10.316,-0.02313950494863097
2580,00:00:10.32,-0.00722743477672339
2581,00:00:10.324,-0.003745685622561733
2582,00:00:10.328,0.01026596548035745
2583,00:00:10.332,0.02531949488911779
2584,00:00:10.336,0.02059866164609045
2585,00:00:10.34,-0.014595174812711803
2586,00:00:10.344,-0.04314850945957001
2587,00:00:10.348,-0.01965995738282799
2588,00:00:10.352,0.02299087296705692
2589,00:00:10.356,0.020327902951976326
2590,00:00:10.36,0.016579541290411733
2591,00:00:10.364,0.0004933854797854998
2592,00:00:10.368,-0.01457162387669086
2593,00:00:10.372,-0.014234108384698628
2594,00:00:10.376,-0.006192209417349666
2595,00:00:10.38,0.012444595544366166
2596,00:00:10.384,0.011071397340856513
2597,00:00:10.388,-0.013591259368695305
2598,00:00:10.392,-0.004466386511921879
2599,00:00:10.396,0.006301016255747527
2600,00:00:10.4,0.015268203336745471
2601,00:00:10.404,0.00966209662146867
2602,00:00:10.408,-0.015265343594364829
2603,00:00:10.412,-0.02549355640076097
2604,00:00:10.416,0.002201901515945787
2605,00:00:10.42,0.0174897062825039
2606,00:00:10.424,0.005530248396098609
2607,00:00:10.428,-0.007501173473428928
2608,00:00:10.432,0.002374259667703881
2609,00:00:10.436,0.00202098756562918
2610,00:00:10.44,-0.01098210277268663
2611,00:00:10.444,0.001536924159154299
2612,00:00:10.448,0.010113106574863199
2613,00:00:10.452,0.009025990671943873
2614,00:00:10.456,-0.00786759937182069
2615,00:00:10.46,-0.004271576413884759
2616,00:00:10.464,-0.005135088285896921
2617,00:00:10.468,-0.00584427453577519
2618,00:00:10.472,0.007634788169525559
2619,00:00:10.476,0.010492869885638361
2620,00:00:10.48,-0.010995164804626256
2621,00:00:10.484,-0.008119577032630335
2622,00:00:10.488,0.019126444880384938
2623,00:00:10.492,0.00886001053731889
2624,00:00:10.496,-0.015755903441458902
2625,00:00:10.5,-0.013876049080863598
2626,00:00:10.504,-0.0012181272031739302
2627,00:00:10.508,0.005415201012510807
2628,00:00:10.512,0.004553572507575149
2629,00:00:10.516,0.02306155208498235
2630,00:00:10.52,0.0058858994161710195
2631,00:00:10.524,-0.015113292029127489
2632,00:00:10.528,-0.02020233485382051
2633,00:00:10.532,-0.01197831449098884
2634,00:00:10.536,0.008374868077225981
2635,00:00:10.54,0.023323760484345313
2636,00:00:10.544,-0.007572971866466106
2637,00:00:10.548,-0.008824064221698789
2638,00:00:10.552,0.01509503938723358
2639,00:00:10.556,0.011190814431756731
2640,00:00:10.56,-0.008709927031304647
2641,00:00:10.564,-0.023403753126331167
2642,00:00:10.568,-0.00644787607598118
2643,00:00:10.572,0.01122939173365007
2644,00:00:10.576,0.01563695271033793
2645,00:00:10.58,0.00938526936806738
2646,00:00:10.584,-0.01654603076167405
2647,00:00:10.588,-0.00928548048250378
2648,00:00:10.592,0.004283558344468477
2649,00:00:10.596,0.0013152492465451368
2650,00:00:10.6,9.711393795441947e-05
2651,00:00:10.604,0.00442664721049369
2652,00:00:10.608,0.005202140891924489
2653,00:00:10.612,0.0024058970884652756
2654,00:00:10.616,-0.0032779835164546997
2655,00:00:10.62,-0.01180985278915614
2656,00:00:10.624,-0.008653333410620684
2657,00:00:10.628,0.011523038687300867
2658,00:00:10.632,0.007898887648480018
2659,00:00:10.636,0.00842350791208446
2660,00:00:10.64,-0.012047182390233505
2661,00:00:10.644,0.0039111787918955105
2662,00:00:10.648,-0.00161331298295408
2663,00:00:10.652,-0.012740548001602289
2664,00:00:10.656,0.00020236568525433974
2665,00:00:10.66,0.00549629807937891
2666,00:00:10.664,0.0011296025477349702
2667,00:00:10.668,0.002330011397134513
2668,00:00:10.672,0.00489039527019486
2669,00:00:10.676,-0.00864429143257438
2670,00:00:10.68,0.004021283588372174
2671,00:00:10.684,0.015223054913803971
2672,00:00:10.688,0.008065756526775651
2673,00:00:10.692,-0.011382610071450482
2674,00:00:10.696,-0.03094143723137677
2675,00:00:10.7,-0.006972868519369511
2676,00:00:10.704,0.007826633634977048
2677,00:00:10.708,0.01861829916015268
2678,00:00:10.712,0.003659167909063398
2679,00:00:10.716,0.00308014708571136
2680,00:00:10.72,0.01103126199450344
2681,00:00:10.724,0.009031700086779887
2682,00:00:10.728,-0.03310102323302995
2683,00:00:10.732,-0.009787764574866742
2684,00:00:10.736,-0.001212995586683975
2685,00:00:10.74,0.01336276438087225
2686,00:00:10.744,0.005548925837501887
2687,00:00:10.748,-0.006677853874862199
2688,00:00:10.752,0.00747427530586719
2689,00:00:10.756,0.02188840974122288
2690,00:00:10.76,-0.02678011241368943
2691,00:00:10.764,-0.01371441455557939
2692,00:00:10.768,0.014539262745529417
2693,00:00:10.772,0.004219912923872474
2694,00:00:10.776,-0.004580641711072531
2695,00:00:10.78,-0.003973114042310041
2696,00:00:10.784,0.0037611222360283097
2697,00:00:10.788,0.00673057045787573
2698,00:00:10.792,0.018884605029597924
2699,00:00:10.796,-0.0034595817560329895
2700,00:00:10.8,-0.041248548310250044
2701,00:00:10.804,-0.01856456859968605
2702,00:00:10.808,0.03274976485408848
2703,00:00:10.812,0.015487180091440678
2704,00:00:10.816,0.005903167533688251
2705,00:00:10.82,0.0012583751231431996
2706,00:00:10.824,-0.010868343000765904
2707,00:00:10.828,-0.007470345357432963
2708,00:00:10.832,0.0028464306087698774
2709,00:00:10.836,-0.00776216096710414
2710,00:00:10.84,-0.0006470739663200185
2711,00:00:10.844,-0.00042460369877516963
2712,00:00:10.848,0.00632844970095903
2713,00:00:10.852,0.01218524528667331
2714,00:00:10.856,0.0006028475036146141
2715,00:00:10.86,-0.016200197162106633
2716,00:00:10.864,-0.0048360306536778825
2717,00:00:10.868,0.014646762283518914
2718,00:00:10.872,0.009547981549985709
2719,00:00:10.876,-0.00906881151604466
2720,00:00:10.88,-0.019913259457098362
2721,00:00:10.884,0.004288191907107828
2722,00:00:10.888,0.00804586400045082
2723,00:00:10.892,0.0066511123441159795
2724,00:00:10.896,0.0006312332116067405
2725,00:00:10.9,0.007228505215607579
2726,00:00:10.904,0.0032583904685452502
2727,00:00:10.908,-0.01324814918916673
2728,00:00:10.912,-0.02549017011187973
2729,00:00:10.916,0.006996434211032467
2730,00:00:10.92,0.03180192643776536
2731,00:00:10.924,0.011223390232771632
2732,00:00:10.928,-0.028827324800658978
2733,00:00:10.932,-0.026698103873059133
2734,00:00:10.936,0.01130254101008176
2735,00:00:10.94,0.02545712143182759
2736,00:00:10.944,0.01631149942841146
2737,00:00:10.948,-0.007342324126511821
2738,00:00:10.952,-0.016273023094981923
2739,00:00:10.956,-0.01455159205943349
2740,00:00:10.96,-0.0015014874952612388
2741,00:00:10.964,0.007807894027791919
2742,00:00:10.968,0.00951616524253041
2743,00:00:10.972,0.016232637630309868
2744,00:00:10.976,-0.002878317100112326
2745,00:00:10.98,-0.016920611844398078
2746,00:00:10.984,-0.0013046436943113804
2747,00:00:10.988,-0.00495883915573358
2748,00:00:10.992,0.010521566058741888
2749,00:00:10.996,-0.013774403370916847
2750,00:00:11,-0.0014833696768619066
2751,00:00:11.004,0.00838287256192416
2752,00:00:11.008,0.02642237185500564
2753,00:00:11.012,-0.00010264368029310736
2754,00:00:11.016,-0.0213623777963221
2755,00:00:11.02,-0.01154480199329555
2756,00:00:11.024,-0.0023934810888022093
2757,00:00:11.028,0.00796211347915232
2758,00:00:11.032,0.014497730415314464
2759,00:00:11.036,0.012604266055859629
2760,00:00:11.04,-0.00886860700120451
2761,00:00:11.044,-0.03108562075067312
2762,00:00:11.048,-0.00825184676796198
2763,00:00:11.052,0.021372220857301755
2764,00:00:11.056,0.01714005437679587
2765,00:00:11.06,-0.0024650879204273207
2766,00:00:11.064,0.0019491089915391073
2767,00:00:11.068,-0.005779895232990381
2768,00:00:11.072,-0.017539368942379948
2769,00:00:11.076,-0.0005989819474052625
2770,00:00:11.08,0.005539926583878689
2771,00:00:11.084,0.00364031059143599
2772,00:00:11.088,0.015700605988968164
2773,00:00:11.092,0.02364256745204328
2774,00:00:11.096,-0.01780883176252245
2775,00:00:11.1,-0.04330928341369142
2776,00:00:11.104,-0.010422126215416945
2777,00:00:11.108,0.022688159893732483
2778,00:00:11.112,0.02582467778120197
2779,00:00:11.116,0.006584941642358899
2780,00:00:11.12,-0.006647323956713075
2781,00:00:11.124,-0.01890462858136744
2782,00:00:11.128,0.006407209404642342
2783,00:00:11.132,0.00035893009771825746
2784,00:00:11.136,-0.01667877199361096
2785,00:00:11.14,-0.002413794572930789
2786,00:00:11.144,0.01898411684669558
2787,00:00:11.148,0.017780579859390865
2788,00:00:11.152,0.00384037953335792
2789,00:00:11.156,-0.011785401962697464
2790,00:00:11.16,-0.02602925989776853
2791,00:00:11.164,0.00018818624084814863
2792,00:00:11.168,0.01576514483895154
2793,00:00:11.172,0.00275332177989185
2794,00:00:11.176,-0.011518214538227753
2795,00:00:11.18,0.01063075877027586
2796,00:00:11.184,0.003628601669333879
2797,00:00:11.188,0.00753927719779308
2798,00:00:11.192,0.0019887299276888397
2799,00:00:11.196,-0.01875163242220878
2800,00:00:11.2,-0.009667210171755869
2801,00:00:11.204,-0.011687631151289679
2802,00:00:11.208,0.012142618070356548
2803,00:00:11.212,0.02469796873629091
2804,00:00:11.216,0.012052090256474919
2805,00:00:11.22,-0.009761019013240002
2806,00:00:11.224,-0.01408716070000085
2807,00:00:11.228,-0.006776351016014808
2808,00:00:11.232,-0.003386893600691115
2809,00:00:11.236,-0.00211834968649782
2810,00:00:11.24,-0.001548365922644731
2811,00:00:11.244,0.01557839568704361
2812,00:00:11.248,0.012793173555110145
2813,00:00:11.252,-0.0013433715794235503
2814,00:00:11.256,-0.00354208913631737
2815,00:00:11.26,-0.009277559351176039
2816,00:00:11.264,-0.0131402785773389
2817,00:00:11.268,0.010409798356704412
2818,00:00:11.272,0.0034439885057509006
2819,00:00:11.276,-0.008723094637389302
2820,00:00:11.28,-0.003957168266424563
2821,00:00:11.284,0.017587292939424518
2822,00:00:11.288,0.00282269474701025
2823,00:00:11.292,0.00257908459752799
2824,00:00:11.296,-0.010543089651037011
2825,00:00:11.3,-0.005696052452549343
2826,00:00:11.304,-0.0009822681604418869
2827,00:00:11.308,-0.01256479672156274
2828,00:00:11.312,0.02282168250530956
2829,00:00:11.316,0.009673359835232992
2830,00:00:11.32,-0.01323762186802924
2831,00:00:11.324,-0.008814756642095741
2832,00:00:11.328,0.0005095089400128913
2833,00:00:11.332,0.01810180861502885
2834,00:00:11.336,0.004002230591140686
2835,00:00:11.34,-0.013203211885411294
2836,00:00:11.344,-0.00786547712050378
2837,00:00:11.348,0.002726389633608053
2838,00:00:11.352,-0.0073927317280322305
2839,00:00:11.356,0.006556383275892558
2840,00:00:11.36,0.0115328396204859
2841,00:00:11.364,0.00955653632991016
2842,00:00:11.368,-0.014244022022467105
2843,00:00:11.372,-0.01370871042308864
2844,00:00:11.376,0.002036567195318641
2845,00:00:11.38,0.00456201657652853
2846,00:00:11.384,0.0008948704926297103
2847,00:00:11.388,0.013435695756925289
2848,00:00:11.392,-0.00403769875993021
2849,00:00:11.396,0.00444701767992228
2850,00:00:11.4,-0.010423425934277468
2851,00:00:11.404,-0.009560867663822137
2852,00:00:11.408,0.007776055950671431
2853,00:00:11.412,-0.00011314800940454006
2854,00:00:11.416,-0.006131383386673402
2855,00:00:11.42,0.00952263886574655
2856,00:00:11.424,0.0006254134932532907
2857,00:00:11.428,0.005945032346062369
2858,00:00:11.432,0.002677936616237273
2859,00:00:11.436,-0.010380163672380153
2860,00:00:11.44,-0.0050193448259960895
2861,00:00:11.444,0.005997355212457483
2862,00:00:11.448,-0.0014754373114556094
2863,00:00:11.452,-0.004173911875113842
2864,00:00:11.456,-0.0004788592923432491
2865,00:00:11.46,0.004762382013723259
2866,00:00:11.464,0.0034140865318477206
2867,00:00:11.468,0.000472835497930639
2868,00:00:11.472,-0.01398480706848201
2869,00:00:11.476,0.00781519233714789
2870,00:00:11.48,0.01677665766328575
2871,00:00:11.484,-0.007639465271495286
2872,00:00:11.488,-0.009530282753985379
2873,00:00:11.492,0.0024945328477770047
2874,00:00:11.496,0.0020212624804116786
2875,00:00:11.5,-0.004829176235944032
2876,00:00:11.504,-0.004180676653049886
2877,00:00:11.508,0.0057352262083441
2878,00:00:11.512,0.00294853723607957
2879,00:00:11.516,0.005296171642839952
2880,00:00:11.52,-0.01030173664912581
2881,00:00:11.524,0.0018320946255698848
2882,00:00:11.528,0.0140274378936738
2883,00:00:11.532,-0.01453518774360418
2884,00:00:11.536,-0.009227917529642584
2885,00:00:11.54,0.0061479792930185795
2886,00:00:11.544,0.024672401836141902
2887,00:00:11.548,-0.007606323109939698
2888,00:00:11.552,-0.019708210369572092
2889,00:00:11.556,-0.007865877589210861
2890,00:00:11.56,0.008909725351259107
2891,00:00:11.564,0.016243231948465064
2892,00:00:11.568,0.005000244447728621
2893,00:00:11.572,-0.01789430866483603
2894,00:00:11.576,-0.0073427346069365705
2895,00:00:11.58,0.005159671884030111
2896,00:00:11.584,0.01150891149882224
2897,00:00:11.588,0.002379753015702592
2898,00:00:11.592,0.009439555462449789
2899,00:00:11.596,-0.009933932044077675
2900,00:00:11.6,-0.024933064938522907
2901,00:00:11.604,-0.0007947139674797599
2902,00:00:11.608,0.010368402930907909
2903,00:00:11.612,0.010729097062721838
2904,00:00:11.616,-0.00276068050879985
2905,00:00:11.62,0.009786780457943678
2906,00:00:11.624,0.0031004115007817698
2907,00:00:11.628,-0.00694404798559849
2908,00:00:11.632,0.000541330897249284
2909,00:00:11.636,-0.01194967702031136
2910,00:00:11.64,-0.012634220649488269
2911,00:00:11.644,0.00784572632983327
2912,00:00:11.648,0.015389026804768932
2913,00:00:11.652,-0.0036939999554306303
2914,00:00:11.656,0.005104912270326171
2915,00:00:11.66,-0.002868405485060062
2916,00:00:11.664,-0.00981565448455513
2917,00:00:11.668,0.01456672622589392
2918,00:00:11.672,0.013863470521755525
2919,00:00:11.676,-0.02233961317688228
2920,00:00:11.68,-0.017088174763557624
2921,00:00:11.684,0.004691727870522297
2922,00:00:11.688,-0.005206831381656231
2923,00:00:11.692,0.011780018452554941
2924,00:00:11.696,0.010580259293419651
2925,00:00:11.7,0.016042236471548652
2926,00:00:11.704,-0.0037080741385580054
2927,00:00:11.708,-0.017960067838430453
2928,00:00:11.712,-0.006346282782033078
2929,00:00:11.716,0.00261042395140975
2930,00:00:11.72,-0.0006802824063925125
2931,00:00:11.724,0.0015769801975693562
2932,00:00:11.728,0.00528561626560986
2933,00:00:11.732,0.0008192078676074691
2934,00:00:11.736,0.0015696812479291094
2935,00:00:11.74,0.00355876213870943
2936,00:00:11.744,0.00641948182601481
2937,00:00:11.748,-0.01304233563132584
2938,00:00:11.752,-0.0152035455685109
2939,00:00:11.756,-0.0067189992405474195
2940,00:00:11.76,0.013567240443080702
2941,00:00:11.764,0.011305567692033973
2942,00:00:11.768,0.0011424571275711099
2943,00:00:11.772,0.009624325844924897
2944,00:00:11.776,-0.00854283478111029
2945,00:00:11.78,-0.01713784853927789
2946,00:00:11.784,-0.0016120941145345601
2947,00:00:11.788,0.030689346138387957
2948,00:00:11.792,0.00788146548438817
2949,00:00:11.796,-0.026928811159450568
2950,00:00:11.8,-0.01846681814640763
2951,00:00:11.804,-0.0006351197371259306
2952,00:00:11.808,0.00852714967913926
2953,00:00:11.812,0.013960893731564285
2954,00:00:11.816,0.012751241971272968
2955,00:00:11.82,0.00716222426854074
2956,00:00:11.824,-0.01977109187282622
2957,00:00:11.828,-0.006111766211688531
2958,00:00:11.832,-0.0074685389408841694
2959,00:00:11.836,0.00237880588974804
2960,00:00:11.84,0.006070662580896174
2961,00:00:11.844,0.007166543044149881
2962,00:00:11.848,0.00011644652113318313
2963,00:00:11.852,-0.0022966815158724802
2964,00:00:11.856,-0.00011097959941252589
2965,00:00:11.86,-0.007228817732539023
2966,00:00:11.864,-0.00188496382907033
2967,00:00:11.868,0.009668377810157837
2968,00:00:11.872,-0.0031229464802891
2969,00:00:11.876,0.020940076210536063
2970,00:00:11.88,-0.012042252739774998
2971,00:00:11.884,-0.01505658426322043
2972,00:00:11.888,-0.012624796945601705
2973,00:00:11.892,-0.004081973573192959
2974,00:00:11.896,0.019225994634325647
2975,00:00:11.9,0.0327777285128832
2976,00:00:11.904,0.003214977550669572
2977,00:00:11.908,-0.027824406301078804
2978,00:00:11.912,-0.03149863987346181
2979,00:00:11.916,-0.0026210526702925576
2980,00:00:11.92,0.032526298193261007
2981,00:00:11.924,0.008956663776189089
2982,00:00:11.928,-0.008326039300300181
2983,00:00:11.932,0.0005468661547638441
2984,00:00:11.936,0.00880104629322886
2985,00:00:11.94,-0.011431037681177258
2986,00:00:11.944,-0.011115515138953931
2987,00:00:11.948,0.009250397017240173
2988,00:00:11.952,-0.010121985746081918
2989,00:00:11.956,0.015234567923471302
2990,00:00:11.96,0.006656024139374488
2991,00:00:11.964,-0.00695635040756315
2992,00:00:11.968,-0.0008006374691831321
2993,00:00:11.972,-0.014686993905343119
2994,00:00:11.976,-0.0037928607780486293
2995,00:00:11.98,0.01334324601339177
2996,00:00:11.984,0.012552713393233722
2997,00:00:11.988,0.006331162061542269
2998,00:00:11.992,-0.005438290536403652
2999,00:00:11.996,-0.023038834857288783
3000,00:00:12,-0.00273896427825093
3001,00:00:12.004,0.00474814814515412
3002,00:00:12.008,0.014066520699998364
3003,00:00:12.012,0.00642895372584462
3004,00:00:12.016,-0.00658688996918499
3005,00:00:12.02,-0.00457343913149088
3006,00:00:12.024,-0.00651326814477216
3007,00:00:12.028,0.001535812683869148
3008,00:00:12.032,0.0020520202815532697
3009,00:00:12.036,0.0010322620473743902
3010,00:00:12.04,0.006621791515499351
3011,00:00:12.044,0.00891462690196931
3012,00:00:12.048,0.0003748869057744815
3013,00:00:12.052,-0.012681470718234781
3014,00:00:12.056,-0.02471548516768971
3015,00:00:12.06,0.00506139756180346
3016,00:00:12.064,0.02515871427021926
3017,00:00:12.068,0.005862475896719841
3018,00:00:12.072,-0.00843148236162961
3019,00:00:12.076,-0.006973955023568117
3020,00:00:12.08,-0.001633871113881467
3021,00:00:12.084,0.004204392433166511
3022,00:00:12.088,0.013502399902790788
3023,00:00:12.092,-0.00743055215571076
3024,00:00:12.096,-0.01375082088634371
3025,00:00:12.1,-0.010697786245145835
3026,00:00:12.104,0.0145028253318742
3027,00:00:12.108,0.012644674978218957
3028,00:00:12.112,0.0009336534312751623
3029,00:00:12.116,-0.0003168876573909037
3030,00:00:12.12,-0.01099098310805857
3031,00:00:12.124,-0.0062585279811174215
3032,00:00:12.128,0.0008248679805547003
3033,00:00:12.132,0.00258268631296232
3034,00:00:12.136,0.010700409766286632
3035,00:00:12.14,0.004100988211575892
3036,00:00:12.144,0.011362560791894792
3037,00:00:12.148,-0.01983717014081779
3038,00:00:12.152,-0.02862532483413814
3039,00:00:12.156,0.0028565850807353898
3040,00:00:12.16,0.02079770527780058
3041,00:00:12.164,0.017555271042510843
3042,00:00:12.168,0.0015839419793337592
3043,00:00:12.172,-0.0007370279490714906
3044,00:00:12.176,-0.016263296420220265
3045,00:00:12.18,-0.006043419009074571
3046,00:00:12.184,0.0022584831458516428
3047,00:00:12.188,-0.011401513940654697
3048,00:00:12.192,0.01764144320623023
3049,00:00:12.196,0.0036526605254039233
3050,00:00:12.2,0.007287533022463341
3051,00:00:12.204,-0.009707420482300232
3052,00:00:12.208,0.00044072364107705653
3053,00:00:12.212,-0.00713386246934536
3054,00:00:12.216,-0.011525109992362559
3055,00:00:12.22,0.01398776844143868
3056,00:00:12.224,0.006875365041196349
3057,00:00:12.228,0.009303595201345159
3058,00:00:12.232,-0.024734666920266976
3059,00:00:12.236,-0.010293676634319132
3060,00:00:12.24,0.0474508340121247
3061,00:00:12.244,9.242503438145009e-05
3062,00:00:12.248,-0.038031778036383856
3063,00:00:12.252,-0.00637894030660396
3064,00:00:12.256,0.007212375989183779
3065,00:00:12.26,0.0112831387668848
3066,00:00:12.264,-0.0005333119042916214
3067,00:00:12.268,-0.0008598631829954663
3068,00:00:12.272,0.005023776087909975
3069,00:00:12.276,-0.0004075941251358091
3070,00:00:12.28,-0.0023870774894021378
3071,00:00:12.284,-0.0021707263949792828
3072,00:00:12.288,0.00727264815941453
3073,00:00:12.292,-0.00367660238407552
3074,00:00:12.296,-0.00985524652060121
3075,00:00:12.3,-0.005363890590160732
3076,00:00:12.304,0.00125371792819351
3077,00:00:12.308,0.01352336502168329
3078,00:00:12.312,0.00796247785910963
3079,00:00:12.316,-0.011061122320825225
3080,00:00:12.32,0.006305886898189791
3081,00:00:12.324,-0.001701260043773801
3082,00:00:12.328,0.0021830248297192165
3083,00:00:12.332,-0.008838011883199218
3084,00:00:12.336,-0.00767966161947697
3085,00:00:12.34,0.000403073034249242
3086,00:00:12.344,0.01607038732618091
3087,00:00:12.348,-0.00172987079713494
3088,00:00:12.352,-0.01313300689798775
3089,00:00:12.356,-0.004967156797647469
3090,00:00:12.36,0.02715004701167349
3091,00:00:12.364,0.01527464005630463
3092,00:00:12.368,-0.022948991158045818
3093,00:00:12.372,-0.028334494447335663
3094,00:00:12.376,-0.0011694179847836503
3095,00:00:12.38,0.01736837206408385
3096,00:00:12.384,0.01235566171817479
3097,00:00:12.388,0.01689436333253978
3098,00:00:12.392,-0.009694712294731294
3099,00:00:12.396,-0.0103814331814647
3100,00:00:12.4,-0.01465144997928292
