Elapsed Time,EMG1,EMG2,EMG3,BioRadio Event,Unnamed: 5
00:00:00,-1.49456167221069,0.0207577999681234,0.33627638220787,0,
00:00:00.004,1.40770173072815,-0.0280563440173864,-0.31792646646499606,0,
00:00:00.008,1.20232558250427,-0.00851914007216692,-0.265910506248474,0,
00:00:00.012,0.145490691065788,0.00479778740555048,-0.0343733727931976,0,
00:00:00.016,-0.6140049695968629,0.0132870646193624,0.130451992154121,0,
00:00:00.02,-0.75370067358017,0.0112578645348549,0.17471024394035298,0,
00:00:00.024,-0.509391009807587,-0.0152176050469279,0.11120072007179302,0,
00:00:00.028,-0.0489944368600845,-0.0110049871727824,0.00844977330416441,0,
00:00:00.032,0.28951629996299705,0.0125439623370767,-0.0409920103847981,0,
00:00:00.036,0.303005516529083,0.00974093191325665,-0.0749683901667595,0,
00:00:00.04,0.20544832944870003,0.00269778748042881,-0.0591127909719944,0,
00:00:00.044,0.0563090294599533,-0.0115294316783547,-0.0161971021443605,0,
00:00:00.048,-0.0495582558214664,-0.0080852210521698,0.00997994188219309,0,
00:00:00.052,-0.0947519391775131,-0.0194081794470549,0.0346519313752651,0,
00:00:00.056,-0.0733541771769524,0.0363358110189438,0.0103466399013996,0,
00:00:00.06,-0.0177851747721434,0.0306397285312414,-0.0202311929315329,0,
00:00:00.064,0.0144535219296813,-0.0411151610314846,0.0151198422536254,0,
00:00:00.068,0.00291430298238993,-0.0224828738719225,0.0219468511641026,0,
00:00:00.072,0.026987349614501,-0.0009581826161593199,-0.00631118007004261,0,
00:00:00.076,0.0137454923242331,0.0364535711705685,-0.0139453988522291,0,
00:00:00.08,0.0037376587279140897,0.00613681506365538,-0.0121396416798234,0,
00:00:00.084,-0.00107938377186656,-0.0170699488371611,-0.0007831014227122071,0,
00:00:00.088,-0.0247272420674562,-0.00724088679999113,0.000295239733532071,0,
00:00:00.092,0.00019425232312642,0.0041537685319781295,0.0130668915808201,0,
00:00:00.096,-0.00729104410856962,-0.008925830014050009,0.00229885382577777,0,
00:00:00.1,0.0173963401466608,0.0017849439755082102,-0.00864442717283964,0,
00:00:00.104,0.0192587301135063,0.0242992993444204,0.0069260043092072,0,
00:00:00.108,-0.00247278716415167,0.007819481194019321,0.00527707347646356,0,
00:00:00.112,-0.013509338721633003,-0.0282405260950327,-0.004861585330218079,0,
00:00:00.116,-0.0124158579856157,-0.0140320416539907,-0.0172717589884996,0,
00:00:00.12,-0.0008705260697752241,0.0137336822226644,-0.000374836003175005,0,
00:00:00.124,0.0232942216098309,0.0183951463550329,0.012013821862638002,0,
00:00:00.128,-0.0167384967207909,-0.0114807114005089,0.00619814079254866,0,
00:00:00.132,-0.0181143842637539,-0.0240456201136112,0.00500510632991791,0,
00:00:00.136,0.0141400527209044,0.0197629798203707,-0.00624421844258904,0,
00:00:00.14,0.00672314036637545,0.0276968590915203,-0.0145897157490253,0,
00:00:00.144,0.000668776337988675,-0.0114979958161712,0.007548612076789141,0,
00:00:00.148,0.0169668532907963,-0.028949286788702,0.0160310678184032,0,
00:00:00.152,-0.00874560233205557,0.00170379667542875,-0.008264540694653991,0,
00:00:00.156,-0.0059344084002077606,0.0254827812314034,-0.00126327725593001,0,
00:00:00.16,0.015063215047121001,0.011317515745758998,-0.0318628959357738,0,
00:00:00.164,0.00157150672748685,-0.018605899065733,0.0115125998854637,0,
00:00:00.168,-0.0280158407986164,-0.0164087004959583,0.0263207610696554,0,
00:00:00.172,-0.0186534598469734,-0.0125257531180978,0.0141744595021009,0,
00:00:00.176,0.0022566977422684396,0.00927312020212412,0.008291797712445259,0,
00:00:00.18,-0.008058728650212291,0.0129939615726471,-0.0377859510481358,0,
00:00:00.184,0.0410824194550514,0.020579744130373,-0.0269257035106421,0,
00:00:00.188,0.032640989869833,0.000143274548463523,0.0190604832023382,0,
00:00:00.192,-0.00917867105454206,-0.0162094123661518,0.0164620634168386,0,
00:00:00.196,-0.0353346429765224,-0.00246956036426127,0.0136601170524955,0,
00:00:00.2,-0.00628338940441608,-0.0089389206841588,-0.000485238037072122,0,
00:00:00.204,0.0012882122537121198,-0.00570600060746074,-0.0240854080766439,0,
00:00:00.208,0.00645485753193498,0.007053397130221129,-0.00463398080319166,0,
00:00:00.212,0.00228288257494569,0.0265915207564831,0.0119316959753633,0,
00:00:00.216,-0.00537686934694648,0.000827531097456813,0.0058910152874887,0,
00:00:00.22,0.010420173406601,-0.0181769616901875,-0.00413539027795196,0,
00:00:00.224,0.0031229923479259,-0.0147287007421255,0.00100404187105596,0,
00:00:00.228,0.00345550500787795,0.00460533611476421,-0.0142737710848451,0,
00:00:00.232,-0.0251007135957479,0.009774626232683659,0.0126439603045583,0,
00:00:00.236,0.0117916828021407,0.00448526255786419,0.00785204861313105,0,
00:00:00.24,-0.00412721233442426,-0.0219543129205704,0.0105569679290056,0,
00:00:00.244,0.00370353902690113,0.0160830281674862,-0.014276709407568,0,
00:00:00.248,0.0111130764707923,0.0278589148074389,-0.0151483025401831,0,
00:00:00.252,-0.00336964754387736,-0.0235364641994238,-0.00166039727628231,0,
00:00:00.256,-0.005246984306722879,-0.028001107275486003,0.0119379609823227,0,
00:00:00.26,-0.00463721668347716,0.00567190255969763,-0.00529449572786689,0,
00:00:00.264,0.0064439452253282105,0.0431817658245564,0.00522723235189915,0,
00:00:00.268,0.00977565161883831,-0.005152184981852771,0.00718456553295255,0,
00:00:00.272,-0.0072360672056675,-0.0217625219374895,-0.00477679865434766,0,
00:00:00.276,-0.0209470093250275,-0.016579220071435,0.000451997912023216,0,
00:00:00.28,0.0208112355321646,0.00885831099003553,-0.00610092421993613,0,
00:00:00.284,0.0140628619119525,0.005346125923097129,0.00274458667263389,0,
00:00:00.288,-0.0270362515002489,0.0177418049424887,0.0033108068164438,0,
00:00:00.292,-0.0228000208735466,-0.0100570907816291,0.0259546935558319,0,
00:00:00.296,0.0155060021206737,-0.004593786317855121,-0.0330126844346523,0,
00:00:00.3,0.0237639769911766,0.00776057597249746,-0.0135594643652439,0,
00:00:00.304,0.0224460251629353,-0.0169845297932625,0.00100467319134623,0,
00:00:00.308,-0.0137916896492243,0.00469167856499553,0.0268443394452333,0,
00:00:00.312,-0.00944817159324884,0.0288873557001352,-0.0029436368495225898,0,
00:00:00.316,-0.0210344400256872,-0.0302046071738005,-0.0113840363919735,0,
00:00:00.32,-0.0041439528577029705,0.00500010512769222,0.00297433510422707,0,
00:00:00.324,0.0184486117213964,0.00690200692042708,0.0108425691723824,0,
00:00:00.328,0.0156778115779161,-0.0059020482003688795,-0.006318389903754,0,
00:00:00.332,-0.0147912837564945,-0.00860897824168205,-0.00417659059166908,0,
00:00:00.336,0.007701549213379621,0.00212926976382732,-0.00958399008959532,0,
00:00:00.34,-0.0114933671429753,0.004311718977987771,0.0149015495553613,0,
00:00:00.344,-0.00984971970319748,0.0259367618709803,-0.0020029447041451896,0,
00:00:00.348,0.00481437146663666,-0.022589385509490998,0.00716995447874069,0,
00:00:00.352,0.0076168910600245,-0.0016901269555091901,-0.00606654956936836,0,
00:00:00.356,-0.00983689911663532,-0.00855600740760565,-0.00425228103995323,0,
00:00:00.36,0.0103252585977316,0.00601215614005923,-0.0103452783077955,0,
00:00:00.364,0.0072294301353395,0.008967968635261059,0.00793485715985298,0,
00:00:00.368,0.009925614111125471,0.00497639225795865,0.0037182820960879296,0,
00:00:00.372,-0.0126701779663563,-0.0108715472742915,0.00414960645139217,0,
00:00:00.376,0.0119570745155215,-0.000300098123261705,0.00299523817375302,0,
00:00:00.38,0.00274828774854541,0.0117422612383962,-0.00171856966335326,0,
00:00:00.384,-0.0566743798553944,-0.0322990640997887,-0.008355484344065191,0,
00:00:00.388,-0.00634016469120979,0.01304623298347,-0.0100771458819509,0,
00:00:00.392,0.0359246991574764,0.0165592879056931,0.0199930854141712,0,
00:00:00.396,0.0218769814819098,0.00175530696287751,-0.00284374272450805,0,
00:00:00.4,0.0164374839514494,0.0041642002761364,-0.00584121560677886,0,
00:00:00.404,-0.00466359034180641,-0.0083736190572381,-0.00428765546530485,0,
00:00:00.408,-0.019137242808938002,-0.0173260420560837,0.00957237370312214,0,
00:00:00.412,-0.0289338510483503,0.0016409511445090199,0.008778551593422891,0,
00:00:00.416,0.0033777444623410697,0.0136415138840675,-0.0126128792762756,0,
00:00:00.42,0.0126367900520563,0.0020880845841020302,-0.00488904025405645,0,
00:00:00.424,0.007848178036510941,-0.0110547337681055,-0.0040098512545228,0,
00:00:00.428,0.00548216234892607,0.00472511956468225,0.00222069746814668,0,
00:00:00.432,0.00206615822389722,0.00911904033273458,0.00561808468773961,0,
00:00:00.436,-0.02422153390944,-0.009326788596808909,0.0111516723409295,0,
00:00:00.44,0.00380559987388551,-0.0203685499727726,0.00023084490385372203,0,
00:00:00.444,0.0366947576403618,0.0442414097487926,-0.0138869592919946,0,
00:00:00.448,-0.0112653290852904,-0.00905842892825603,0.00194815720897168,0,
00:00:00.452,-0.0242949463427067,-0.0234131291508675,0.00337020121514797,0,
00:00:00.456,0.00126877846196294,-0.0022803770843893303,-0.00550491595640779,0,
00:00:00.46,0.00671347137540579,0.0110069774091244,0.00247576972469687,0,
00:00:00.464,0.00426800968125463,0.00339271477423608,0.00928755663335323,0,
00:00:00.468,-0.00150606723036617,0.00458216434344649,-0.00481677008792758,0,
00:00:00.472,-0.0017084046266973,0.0016711114440113302,-0.00562828499823809,0,
00:00:00.476,0.00795713253319263,-0.007962639443576341,-0.00194388756062835,0,
00:00:00.48,-0.0092796953395009,-0.007946827448904509,0.00139241991564631,0,
00:00:00.484,-0.007817080244421959,0.0011671761749312301,0.000587150338105857,0,
00:00:00.488,0.0116812456399202,0.0043495106510818,0.00200989795848727,0,
00:00:00.492,0.0009556670556776231,0.0057419971562922,0.00438111741095781,0,
00:00:00.496,0.0025339317508041898,0.001559141674079,0.0013969532446935801,0,
00:00:00.5,-0.0175371076911688,-0.0062080342322588,0.00666664075106382,0,
00:00:00.504,0.00221105269156396,-0.0116680897772312,-0.012738817371428,0,
00:00:00.508,0.0262308325618505,0.00875463616102934,-0.0108713926747441,0,
00:00:00.512,0.00239093787968159,0.0198298934847116,0.00622556172311306,0,
00:00:00.516,-0.0206926558166742,-0.0108019532635808,0.00117215688806027,0,
00:00:00.52,-0.0182543080300093,-0.0108228214085102,0.00278815254569054,0,
00:00:00.524,0.00951497629284859,0.0141641357913613,0.011930838227271999,0,
00:00:00.528,0.0179233327507973,0.00259570917114615,-0.00135655340272933,0,
00:00:00.532,0.0263134595006704,-0.0132856061682105,-0.0061193541623652,0,
00:00:00.536,-0.00870175939053297,-0.0132598271593452,-0.0010683535365387802,0,
00:00:00.54,-0.0452142842113972,-0.00460206065326929,-0.00392925413325429,0,
00:00:00.544,-0.0209973491728306,0.012561047449708,-0.00238726264797151,0,
00:00:00.548,0.0196116752922535,0.0110499765723944,-0.0163653548806906,0,
00:00:00.552,0.0363103486597538,0.018402986228466,0.0219106711447239,0,
00:00:00.556,0.0194789934903383,-0.00128175516147166,0.0155508648604155,0,
00:00:00.56,-0.0130168609321117,-0.0191491022706032,-0.0106120994314551,0,
00:00:00.564,-0.0304842758923769,-0.0239200443029404,0.004207913763821129,0,
00:00:00.568,-0.005176219623535871,-0.00470069050788879,-0.0206747502088547,0,
00:00:00.572,-0.000419837073422968,0.0279156025499105,0.0038979686796665205,0,
00:00:00.576,0.00521746557205915,0.030963396653532996,0.0009341686381958429,0,
00:00:00.58,0.0218036901205778,-0.00512373261153698,0.0008370494470000269,0,
00:00:00.584,0.0125726498663425,-0.0346831977367401,0.00991802290081978,0,
00:00:00.588,-0.0185694545507431,-0.0223749950528145,0.000309986178763211,0,
00:00:00.592,-0.0157597474753857,0.0244903527200222,0.0036578306462615702,0,
00:00:00.596,-0.00564547022804618,0.00471542030572891,-0.00618601124733686,0,
00:00:00.6,0.0012768633896485,0.0014317948371172,-0.00594134209677577,0,
00:00:00.604,0.0052032289095223,-0.00440112361684442,0.00204430590383708,0,
00:00:00.608,0.0391770526766777,0.026176368817687003,-0.00472208391875029,0,
00:00:00.612,0.0205148197710514,0.008254554122686391,-0.0068931323476135705,0,
00:00:00.616,-0.0698215886950493,-0.0432379506528378,0.0135653559118509,0,
00:00:00.62,-0.0179876536130905,-0.0183613635599613,0.017836919054389,0,
00:00:00.624,0.023763706907629998,0.0159745663404465,-0.00982531998306513,0,
00:00:00.628,0.0286258105188608,0.019167173653841,-0.0248499102890491,0,
00:00:00.632,-0.0066170352511107896,0.0156976096332073,0.0146519867703319,0,
00:00:00.636,-0.0141779081895947,-0.004836181178689,0.00347136566415429,0,
00:00:00.64,-0.00588915729895234,-0.0196970831602812,-0.0027365928981453198,0,
00:00:00.644,0.0362391509115696,-0.0071512465365231,-0.00141413998790085,0,
00:00:00.648,-0.014401906169950998,0.007475015707314009,0.0029302523471415,0,
00:00:00.652,-0.0221826415508986,0.0137078939005733,-0.000218814588151872,0,
00:00:00.656,0.0102168656885624,0.0009312093607150019,0.00793922133743763,0,
00:00:00.66,0.008379184640944,-0.0165490880608559,0.00461417296901345,0,
00:00:00.664,-0.0150377517566085,-0.00511506712064147,-0.0181824434548616,0,
00:00:00.668,-0.00833566952496767,0.0106226271018386,-0.008365666493773459,0,
00:00:00.672,0.0282871015369892,0.00357844214886427,-0.0122198536992073,0,
00:00:00.676,-0.00184724247083068,0.00462444266304374,0.0232853479683399,0,
00:00:00.68,-0.033439502120018,-0.004739153664559129,0.0141580905765295,0,
00:00:00.684,0.0266362614929676,0.0101613700389862,0.015019073151052,0,
00:00:00.688,0.0154938856139779,-0.0150527972728014,-0.0149224856868386,0,
00:00:00.692,-0.0121051501482725,-0.0102748163044453,-0.0253080762922764,0,
00:00:00.696,0.00720032816752791,0.00487296376377344,-0.00409083953127265,0,
00:00:00.7,-0.0145378550514579,0.00333511643111706,0.0225029475986958,0,
00:00:00.704,-0.0151127139106393,0.0042540966533124395,-0.00157171359751374,0,
00:00:00.708,0.0155013268813491,0.00981307774782181,-0.007169310003519059,0,
00:00:00.712,-0.000478861533338204,-0.00444824155420065,0.00635507330298424,0,
00:00:00.716,-0.0124563202261925,-0.00561391748487949,0.00749859819188714,0,
00:00:00.72,-0.0022114710882306103,-0.00241619069129229,-0.014201863668859,0,
00:00:00.724,0.026374900713562997,0.000617645098827779,-0.00792439561337233,0,
00:00:00.728,0.00690040597692132,0.0019084804225713,0.00665174191817641,0,
00:00:00.732,-0.005471326410770421,0.009923592209815979,0.0098935654386878,0,
00:00:00.736,-0.0133674209937453,-0.00729549862444401,0.0036845952272415205,0,
00:00:00.74,-0.011227099224925,-0.0110514555126429,0.00387687725014985,0,
00:00:00.744,0.00888743530958891,-0.00376347498968244,-0.0148132229223847,0,
00:00:00.748,0.0166894737631083,0.026388093829155,-0.0172215085476637,0,
00:00:00.752,-0.0016610975144431,-0.00689928792417049,0.0111608067527413,0,
00:00:00.756,-0.0070267217233777,-0.00817705504596233,0.019645519554615003,0,
00:00:00.76,-0.0181279275566339,0.0129482913762331,0.00608601002022624,0,
00:00:00.764,0.007599428296089171,-0.00465352274477482,-0.0147916646674275,0,
00:00:00.768,-0.00614358438178897,-0.028490886092186002,-0.0110002802684903,0,
00:00:00.772,0.00375164044089615,-0.005369294434785839,-0.00141796062234789,0,
00:00:00.776,0.00449962355196476,0.0278264097869396,0.000829055090434849,0,
00:00:00.78,0.0151816243305802,0.009920678101480009,0.0142567697912455,0,
00:00:00.784,0.0141003681346774,-0.00231734733097255,-0.001045310520567,0,
00:00:00.788,-0.00850618910044432,0.0036124833859503295,0.0139518808573484,0,
00:00:00.792,-0.0507897175848484,-0.0112191550433636,-0.0103444019332528,0,
00:00:00.796,0.0327548608183861,0.000458250404335558,-0.0142927719280124,0,
00:00:00.8,0.0379584431648254,-0.00017570037744008,-0.00539825344458222,0,
00:00:00.804,-0.0128902373835444,-0.00630635395646095,0.00741118006408215,0,
00:00:00.808,-0.0515442006289959,-0.0066068423911929105,0.0111508127301931,0,
00:00:00.812,-0.0211665444076061,0.00203527230769396,-0.00352916470728815,0,
00:00:00.816,0.0178096741437912,0.0114262225106359,-0.00880220159888268,0,
00:00:00.82,0.0451357625424862,0.00286316918209195,-0.00585726741701365,0,
00:00:00.824,0.0042129284702241395,0.00181318016257137,0.0248934254050255,0,
00:00:00.828,0.0190254300832748,-0.00119002698920667,0.00968976970762014,0,
00:00:00.832,0.00190972071141005,0.0074131907895207405,-0.0231964215636253,0,
00:00:00.836,-0.0586854107677937,-0.010642321780323998,-0.0285067744553089,0,
00:00:00.84,-0.0056077023036778,-0.00548637425526977,0.00523962453007698,0,
00:00:00.844,0.0270873829722404,-0.00851388461887836,0.0438104271888733,0,
00:00:00.848,0.0030383188277483,0.00204379390925169,0.0027186374645680198,0,
00:00:00.852,-0.0257949754595757,0.0128243183717132,-0.0361303947865963,0,
00:00:00.856,0.00708982860669494,-0.00419191457331181,0.0126944445073605,0,
00:00:00.86,0.0172506254166365,-0.0025009440723806602,0.0141777899116278,0,
00:00:00.864,-0.00453230040147901,-0.0063192006200552,-0.00220879400148988,0,
00:00:00.868,0.0218584500253201,0.0261331666260958,-0.0138708371669054,0,
00:00:00.872,0.0117159737274051,0.0035672006197273705,-0.0232262909412384,0,
00:00:00.876,-0.0428352691233158,-0.0184545908123255,0.011739338748156998,0,
00:00:00.88,-0.014818262308835999,-0.008562097325921059,0.0188983753323555,0,
00:00:00.884,0.02991908416152,0.00127027125563473,-0.00133244914468378,0,
00:00:00.888,0.0161553304642439,0.005538003519177439,0.00792012363672256,0,
00:00:00.892,-0.023814307525754,-0.00149210263043642,0.00285770976915956,0,
00:00:00.896,-0.0220378991216421,-0.00698329787701368,0.000190114151337184,0,
00:00:00.9,0.0177982412278652,0.0112914862111211,-0.0192591808736324,0,
00:00:00.904,0.008543364703655241,-0.00119382538832724,-0.0136981420218945,0,
00:00:00.908,-0.00240267184562981,-0.005675876047462229,0.0113360872492194,0,
00:00:00.912,0.016929155215620998,0.000326810899423435,-0.004008401650935411,0,
00:00:00.916,-0.004299148917198179,0.0190811194479465,0.00216847355477512,0,
00:00:00.92,-0.0160060375928879,0.009290564805269241,0.012119198217988,0,
00:00:00.924,-0.0030030207708478,-0.0026547925081104,0.0120504032820463,0,
00:00:00.928,0.0177352502942085,-0.0533296577632427,0.0149664515629411,0,
00:00:00.932,0.00291692884638906,-0.0103354165330529,-0.021779878064990002,0,
00:00:00.936,-0.0414619669318199,0.04468926787376401,-0.0456639192998409,0,
00:00:00.94,0.0111521240323782,0.0318351835012436,0.0189730692654848,0,
00:00:00.944,0.0202753096818924,-0.0243887230753899,0.0167724955826998,0,
00:00:00.948,0.0109999924898148,-0.020369179546833,0.00806667935103178,0,
00:00:00.952,0.0035267244093120102,-0.00269027566537261,0.0210212096571922,0,
00:00:00.956,-0.00486715044826269,0.008730124682188029,-0.00683942902833223,0,
00:00:00.96,-0.0188314709812403,0.00388417835347354,-0.0237139780074358,0,
00:00:00.964,-0.0179201792925596,0.00283346022479236,-0.0205932222306728,0,
00:00:00.968,0.0186126325279474,0.00998683925718069,0.0016766000771895099,0,
00:00:00.972,0.021749310195446,0.00259745283983648,0.0216327197849751,0,
00:00:00.976,-0.00542258843779564,-0.0258979275822639,0.0157794486731291,0,
00:00:00.98,-0.0300906021147966,-0.0151038886979222,-0.0117998411878943,0,
00:00:00.984,-0.00802266784012318,0.0486136823892593,0.0174427106976509,0,
00:00:00.988,0.0422589369118214,0.009230884723365309,-0.0368287973105907,0,
00:00:00.992,0.010008248500526,-0.0271406229585409,-0.00263250223360956,0,
00:00:00.996,-0.0264334846287966,-0.0429487451910973,0.0153666399419308,0,
00:00:01,-0.00109371531289071,0.00434794323518872,0.00106069806497544,0,
00:00:01.004,-0.00318387616425753,0.0261174347251654,0.0202519185841084,0,
00:00:01.008,0.0129318619146943,0.0237630438059568,-0.004145585466176271,0,
00:00:01.012,0.0038418942131102102,0.0324644856154919,-0.00962100923061371,0,
00:00:01.016,-0.0120678348466754,-0.0342074148356915,-0.0171239078044891,0,
00:00:01.02,-0.0191821977496147,-0.0296019539237022,-0.0025093520525842896,0,
00:00:01.024,-0.00123271648772061,-0.0148012069985271,0.0090375579893589,0,
00:00:01.028,0.0353108271956444,0.0284497998654842,0.00892686750739813,0,
00:00:01.032,0.0030592663679271897,0.0108337253332138,0.00193197664339095,0,
00:00:01.036,-0.0219187363982201,-0.00882881972938776,0.007372534368187191,0,
00:00:01.04,0.00216754712164402,-0.00137433421332389,-0.0096468972042203,0,
00:00:01.044,0.0134926280006766,0.00779716577380896,-0.0143211064860225,0,
00:00:01.048,-0.0125888893380761,-0.006437949836254121,0.0126284174621105,0,
00:00:01.052,-0.0169943794608116,-0.00462734280154109,0.00636141793802381,0,
00:00:01.056,0.0111012635752559,0.01281204726547,-0.00148121919482946,0,
00:00:01.06,0.0278825499117374,-0.00658559845760465,-0.013362598605453998,0,
00:00:01.064,-0.008183520287275309,-0.0107988985255361,0.00358007708564401,0,
00:00:01.068,-0.0136014828458428,0.00479440251365304,-0.00534044532105327,0,
00:00:01.072,-0.011116337031126002,3.65720370609779e-05,0.00957057904452086,0,
00:00:01.076,0.0108876805752516,0.0272537376731634,0.00701593514531851,0,
00:00:01.08,0.0062263086438179,-0.0241745766252279,-0.0016782146412879198,0,
00:00:01.084,0.00655215047299862,-0.00690724607557058,-0.0040162983350455796,0,
00:00:01.088,-0.0212758500128984,0.00810384377837181,-0.007134105544537309,0,
00:00:01.092,-0.00654382817447186,0.00266603287309408,0.00922874920070171,0,
00:00:01.096,0.0093301935121417,-0.00960985757410526,-0.0061661666259169605,0,
00:00:01.1,0.0406395234167576,-0.009041602723300459,-0.0014687848743051301,0,
00:00:01.104,-0.0172123722732067,0.0188794359564781,0.0144326938316226,0,
00:00:01.108,-0.0126864835619926,0.0183941163122654,-0.0173622388392687,0,
00:00:01.112,-0.0259894412010908,-0.015357218682766,0.0101683754473925,0,
00:00:01.116,-0.00925013236701488,-0.0161605626344681,-0.00628401804715395,0,
00:00:01.12,0.0233349651098251,0.007087728008627891,0.0006574013968929651,0,
00:00:01.124,0.0191862341016531,-0.00129219319205731,0.0065566087141633,0,
00:00:01.128,0.0194927547127008,0.00896483939141035,-0.00856657419353724,0,
00:00:01.132,0.00331040611490607,-0.000643687206320465,-0.0012965954374522,0,
00:00:01.136,-0.0213327072560787,-0.00524376053363085,0.024392781779169998,0,
00:00:01.14,-0.0412209741771221,0.0017804073868319399,-0.0237128455191851,0,
00:00:01.144,-0.0222896132618189,-0.0112128620967269,-0.0041274712420999995,0,
00:00:01.148,0.040119931101799,0.00917415227741003,0.0212634392082691,0,
00:00:01.152,0.027365367859602002,0.0145424036309123,-0.0141994804143906,0,
00:00:01.156,0.0033629653044045,0.00180814613122493,-0.00608241837471724,0,
00:00:01.16,0.005344550590962171,-0.0102738924324512,0.00596471969038248,0,
00:00:01.164,-0.0206329710781574,-0.0287351701408625,0.0012072671670466698,0,
00:00:01.168,-0.0240192487835884,-0.00099903775844723,0.00935569405555725,0,
00:00:01.172,0.0319793783128262,0.0446765795350075,-0.010803877376020002,0,
00:00:01.176,-0.00881634745746851,-0.00042767432751134,0.00646454282104969,0,
00:00:01.18,-0.0203828867524862,-0.0261882767081261,0.0008618411957286299,0,
00:00:01.184,0.010973559692502,0.0112929688766599,-0.0198262631893158,0,
00:00:01.188,0.005318384151905779,0.004950364120304579,0.0078728124499321,0,
00:00:01.192,0.00703246239572763,-0.0227902494370937,0.0213287454098463,0,
00:00:01.196,-0.0235596988350153,-0.00407656282186508,-0.0134218297898769,0,
00:00:01.2,0.0079294117167592,0.0173286236822605,0.008419511839747429,0,
00:00:01.204,0.0332999378442764,0.00583813153207302,-0.00673079118132591,0,
00:00:01.208,0.00933770090341568,0.0213701575994492,-0.0135436989367008,0,
00:00:01.212,-0.0121396072208881,-0.0151560483500361,-0.00491523137316108,0,
00:00:01.216,-0.0419630594551563,-0.0328304246068001,0.0147284688428044,0,
00:00:01.22,-0.0316162183880806,-0.000549809017684311,0.0149812493473291,0,
00:00:01.224,0.0453877300024033,0.0197582878172398,-0.0109562780708075,0,
00:00:01.228,0.0286329593509436,0.0198691096156836,-0.00465117208659649,0,
00:00:01.232,-0.0067908945493400106,-0.0125556066632271,-0.000323646643664688,0,
00:00:01.236,-0.0124393282458186,-0.0135689321905375,0.0035854740999639,0,
00:00:01.24,-0.0027737386990338603,0.0145021481439471,0.0057440223172307,0,
00:00:01.244,0.003993428312242029,-0.0013345745392143698,-0.011084652505815001,0,
00:00:01.248,0.00237417267635465,-0.00519465049728751,-0.00137605040799826,0,
00:00:01.252,-0.0113271810114384,-0.0033519882708787896,0.0153917372226715,0,
00:00:01.256,-0.00540337339043617,-0.00232842029072344,-0.00235184491612017,0,
00:00:01.26,0.0215046890079975,0.00166691455524415,-0.0078734727576375,0,
00:00:01.264,-0.0049922387115657295,0.0182189363986254,-0.0141025371849537,0,
00:00:01.268,-0.038038894534111,-0.0127981370314956,-0.0016470501432195301,0,
00:00:01.272,0.0110870040953159,-0.018720330670476,0.0146734351292253,0,
00:00:01.276,0.0362134575843811,0.0179425403475761,0.00648666080087423,0,
00:00:01.28,0.0163506902754307,0.00692489091306925,0.00551225338131189,0,
00:00:01.284,-0.000838835199829191,-0.000686970946844667,-0.0159429386258125,0,
00:00:01.288,-0.0236398372799158,0.00441849511116743,0.0122278882190585,0,
00:00:01.292,-0.0305508319288492,-0.00531031750142574,0.0101269241422415,0,
00:00:01.296,0.0113624138757586,-0.0121618183329701,-0.0129016814753413,0,
00:00:01.3,0.0154893444851041,-0.0219629742205143,-0.0188819393515587,0,
00:00:01.304,-0.0515057221055031,-0.00449263863265514,0.0038526777643710397,0,
00:00:01.308,0.0283374022692442,0.0369622260332108,0.00425483891740441,0,
00:00:01.312,0.0721976608037949,0.0601013712584972,-0.0010763986501842698,0,
00:00:01.316,-0.0296730902045965,-0.0410741567611694,0.005838384851813321,0,
00:00:01.32,-0.00496513908728957,-0.0366192683577538,0.0105363084003329,0,
00:00:01.324,-0.0231554824858904,-0.00702114216983318,0.009426970034837721,0,
00:00:01.328,-0.0108136860653758,0.0047073969617486,-0.00991599634289742,0,
00:00:01.332,0.0225949659943581,0.007633459288626909,-0.0135928709059954,0,
00:00:01.336,-0.0425983741879463,0.0125220930203795,-0.0077433786354959,0,
00:00:01.34,0.0255497433245182,0.0058199018239975,0.016779875382781,0,
00:00:01.344,0.0357283093035221,-0.00786448456346989,-0.00428778259083629,0,
00:00:01.348,0.0043530021794140296,-0.0014297345187515,-0.0128201209008694,0,
00:00:01.352,-0.0271351356059313,0.00200616009533405,0.00616430677473545,0,
00:00:01.356,-0.00994900520890951,-0.00640452327206731,0.016143873333931,0,
00:00:01.36,0.00131370930466801,-0.008593872189521791,0.0143251195549965,0,
00:00:01.364,0.007513227872550491,0.020859444513917,0.00612131180241704,0,
00:00:01.368,-0.0078470790758729,-0.000689155014697462,-0.05807110667228701,0,
00:00:01.372,-0.0068158833310008,-0.00419552670791745,0.00547858094796538,0,
00:00:01.376,0.00204511685296893,-0.0064781480468809605,0.0131394909694791,0,
00:00:01.38,0.0241438485682011,0.0140050258487463,0.00171797862276435,0,
00:00:01.384,0.0040257228538394,-0.00201263278722763,0.005782936699688429,0,
00:00:01.388,-0.0108902454376221,-0.0365089997649193,0.0286199320107698,0,
00:00:01.392,-0.00279711186885834,0.00715808710083365,0.00192083534784615,0,
00:00:01.396,-0.0126866232603788,0.0182877685874701,-0.0278723388910294,0,
00:00:01.4,-0.000825690745841712,0.0105062937363982,-0.009938527829945091,0,
00:00:01.404,0.0250717252492905,0.00862609315663576,-0.00242560892365873,0,
00:00:01.408,-0.0189540535211563,-0.0152993341907859,-0.004573778249323371,0,
00:00:01.412,0.0239629540592432,-0.00405005877837539,0.0283565353602171,0,
00:00:01.416,-0.0104471473023295,0.0127932215109468,-0.00258061476051807,0,
00:00:01.42,-0.0213929861783981,-0.0105784898623824,-0.0130291441455483,0,
00:00:01.424,-0.00956176407635212,-0.0110973417758942,0.000853673729579896,0,
00:00:01.428,0.0188642051070929,0.0072948159649968095,0.00338612776249647,0,
00:00:01.432,0.0118281031027436,0.00881369691342115,-0.002415084047243,0,
00:00:01.436,-0.0317859016358852,-0.0172020364552736,-0.00672415271401405,0,
00:00:01.44,0.0183828342705965,0.00966983195394278,0.0139691764488816,0,
00:00:01.444,0.0323923416435719,0.00760698784142733,0.0054508144967258,0,
00:00:01.448,0.006066970992833379,0.0018342196708545102,0.00125176482833922,0,
00:00:01.452,-0.0099811227992177,-0.00042199471499770896,-0.0205690003931522,0,
00:00:01.456,-0.0564378835260868,-0.00371553003787994,-0.00464941607788205,0,
00:00:01.46,0.000819260894786567,-0.0147032961249352,0.0161668341606855,0,
00:00:01.464,0.00983336940407753,-0.011391987092793002,0.0191931109875441,0,
00:00:01.468,0.0152286011725664,0.0444848015904427,-0.0287541635334492,0,
00:00:01.472,0.025307597592473,0.00560298562049866,-0.0124869272112846,0,
00:00:01.476,0.0168478172272444,-0.0296888165175915,0.000829628203064203,0,
00:00:01.48,-0.00978270452469587,-0.0182208884507418,0.0225054584443569,0,
00:00:01.484,-0.035348329693079,0.0117315137758851,0.0302850529551506,0,
00:00:01.488,-0.00925155263394117,0.0107886428013444,-0.0227882228791714,0,
00:00:01.492,0.00306782242842019,0.00259983818978071,-0.0185329746454954,0,
00:00:01.496,0.0156357549130917,-0.0029663261957466602,-0.0105473855510354,0,
00:00:01.5,0.00926338043063879,-0.0018921212758868898,0.0135437604039907,0,
00:00:01.504,0.008326449431478979,0.00635264767333865,0.0107594644650817,0,
00:00:01.508,-0.0255392771214247,-0.0006961673498153691,-0.000414212670875713,0,
00:00:01.512,-0.00433911243453622,-0.0100645450875163,-0.0128305926918983,0,
00:00:01.516,-0.00429814029484987,-0.00165957235731184,0.0018737526843324301,0,
00:00:01.52,0.0113205201923847,0.00545292673632503,0.00912223849445581,0,
00:00:01.524,0.0206941869109869,0.0022915331646799998,-0.0009770684409886599,0,
00:00:01.528,0.0187482368201017,0.0050565330311656,-0.00734387105330825,0,
00:00:01.532,-0.0255751106888056,0.00231926632113755,0.00402616942301393,0,
00:00:01.536,-0.0182466227561235,-0.0138662355020642,0.00112528284080327,0,
00:00:01.54,0.000914131116587669,-0.0020352965220809,-0.00242467597126961,0,
00:00:01.544,-0.00775870122015476,0.0038363630883395702,0.00330539839342237,0,
00:00:01.548,0.00265104090794921,0.0232856478542089,0.0032836731988936697,0,
00:00:01.552,0.0228382274508476,-0.0234833173453808,-0.00555847771465778,0,
00:00:01.556,-0.0016560711665079,-0.0171440318226814,-0.0228313431143761,0,
00:00:01.56,0.00953504350036383,0.0279237199574709,0.0320288985967636,0,
00:00:01.564,-0.00348926312290132,0.000908923451788723,0.0198455061763525,0,
00:00:01.568,-0.0269362479448318,-0.0100708324462175,-0.0375469252467155,0,
00:00:01.572,0.0045962305739522,0.00180308904964477,-0.0168942287564278,0,
00:00:01.576,0.00522125419229269,0.0130485789850354,0.0250998716801405,0,
00:00:01.58,0.000295407662633806,-0.00534957088530064,0.00694713415578008,0,
00:00:01.584,0.00228349957615137,-0.0218748785555363,0.00124297221191227,0,
00:00:01.588,0.00553773529827595,0.00200180988758802,-0.013294605538249,0,
00:00:01.592,0.00252979295328259,0.0115002328529954,0.0141242556273937,0,
00:00:01.596,0.00710939569398761,0.00138298876117915,0.00158111774362624,0,
00:00:01.6,0.020163107663393003,0.0130838789045811,-0.018810547888279,0,
00:00:01.604,-0.0577245354652405,-0.0106029538437724,0.00872255489230156,0,
00:00:01.608,-0.0193750895559788,-0.0109607325866818,0.00207075430080295,0,
00:00:01.612,0.0399530455470085,0.0133590362966061,-0.0205223429948092,0,
00:00:01.616,0.0136572439223528,-0.0039827642031014,0.0070414892397821,0,
00:00:01.62,-0.0012736582430079599,-0.00465440982952714,0.0360869243741035,0,
00:00:01.624,-0.0230114050209522,-0.00275738979689777,-0.0135006625205278,0,
00:00:01.628,0.0229076892137527,0.000124580998090096,-0.0174063928425312,0,
00:00:01.632,0.0325408391654491,0.0208983886986971,-0.00216323463246226,0,
00:00:01.636,0.0107796685770154,0.0036700698547065297,0.00400915695354342,0,
00:00:01.64,-0.10408094525337198,-0.0284362528473139,0.0128095503896475,0,
00:00:01.644,-0.00718153873458505,0.00944901257753372,-0.00960642471909523,0,
00:00:01.648,0.0379047989845276,-0.0132584916427732,-0.0149390595033765,0,
00:00:01.652,0.0308478660881519,-0.0216274652630091,0.0214960183948278,0,
00:00:01.656,0.015992883592844,0.0556046813726425,0.010449162684381,0,
00:00:01.66,0.008624269627034659,0.0154927046969533,-0.0161563046276569,0,
00:00:01.664,-0.00302317994646728,-0.0235796384513378,-0.00656794384121895,0,
00:00:01.668,-0.0260800011456013,-0.0221762899309397,0.00504170218482614,0,
00:00:01.672,-0.0494394153356552,-0.00757600972428918,-0.00404783012345433,0,
00:00:01.676,-0.00484428973868489,0.0110629098489881,-0.00190681964159012,0,
00:00:01.68,0.0341407135128975,-0.000465617806185037,0.018737917765975,0,
00:00:01.684,0.0311519857496023,-0.00357906310819089,0.0152299534529448,0,
00:00:01.688,0.0223335642367601,0.0218619331717491,-0.0146521218121052,0,
00:00:01.692,-0.0112614976242185,0.00803705211728811,-0.0389996953308582,0,
00:00:01.696,0.0034201897215098104,0.0128987925127149,-0.00193601346109062,0,
00:00:01.7,-0.0356841348111629,-0.035152941942215,0.0211809892207384,0,
00:00:01.704,-0.0475554317235947,-0.0259292460978031,0.0308219119906425,0,
00:00:01.708,0.00983327906578779,0.0040588122792542,-0.0096187386661768,0,
00:00:01.712,0.0399184674024582,0.0247907992452383,-0.00567226577550173,0,
00:00:01.716,0.0373749732971191,0.0048131886869669,-0.0140918139368296,0,
00:00:01.72,-0.0120673850178719,0.00400261161848903,0.009436578489840029,0,
00:00:01.724,-0.0490860566496849,-0.0108640063554049,-0.00147904269397259,0,
00:00:01.728,0.0432267487049103,0.0144672123715281,-0.00993109215050936,0,
00:00:01.732,0.00682861357927322,-0.0018285419791936898,0.0019993577152490603,0,
00:00:01.736,-0.0256407130509615,-0.0103576630353928,0.00960764102637768,0,
00:00:01.74,-0.00820688344538212,-0.009250056929886341,0.00219479226507246,0,
00:00:01.744,-0.00314786867238581,-0.0011311718262732,-0.00409996323287487,0,
00:00:01.748,0.00431196484714746,-0.00144705048296601,-0.00518655590713024,0,
00:00:01.752,0.0157368611544371,0.0160791147500277,0.00153085112106055,0,
00:00:01.756,0.00838080234825611,0.00687359645962715,0.0008882054826244711,0,
00:00:01.76,-0.0184072647243738,0.0104674203321338,0.0100120734423399,0,
00:00:01.764,0.000119954180263449,-0.0137350494042039,-0.008307354524731641,0,
00:00:01.768,-0.00703397300094366,-0.0296222250908613,-0.0100540947169065,0,
00:00:01.772,0.0155317038297653,0.0071922680363059,0.0065740579739213,0,
00:00:01.776,-0.00668240571394563,0.00527068832889199,0.0096348924562335,0,
00:00:01.78,0.0103081054985523,0.0156206814572215,0.000855251622851938,0,
00:00:01.784,-0.00746878329664469,-0.00139443844091147,0.00500468211248517,0,
00:00:01.788,-0.0145730078220367,-0.0097673749551177,0.00289474544115365,0,
00:00:01.792,0.00322893913835287,0.0169225949794054,-0.0287968777120113,0,
00:00:01.796,0.0117227891460061,-0.008616277016699309,-0.0106969196349382,0,
00:00:01.8,0.00972265750169754,-0.0064573772251606,0.0285805482417345,0,
00:00:01.804,0.0193766541779041,0.0130176078528166,-0.00278916535899043,0,
00:00:01.808,-0.00890863873064518,0.0026030691806227,-0.00895998533815145,0,
00:00:01.812,-0.0395692065358162,-0.0267130043357611,0.00847882032394409,0,
00:00:01.816,-0.0237796418368816,-0.0111132329329848,0.0133940260857344,0,
00:00:01.82,0.0146458949893713,0.0143032381311059,-0.0114295268431306,0,
00:00:01.824,0.0419343709945679,0.0389016792178154,-0.004978827200829979,0,
00:00:01.828,0.0143912117928267,-0.0182603038847446,-0.000542139052413404,0,
00:00:01.832,0.00835121609270573,-0.0133668528869748,0.009807443246245379,0,
00:00:01.836,-0.0594718120992184,-0.0108614144846797,-0.00413614278659225,0,
00:00:01.84,-0.0255998224020004,0.00371801713481545,0.000680899538565427,0,
00:00:01.844,0.036825705319643,0.0174903552979231,-0.008151593618094921,0,
00:00:01.848,0.027207225561142,0.0139379985630512,-0.00794903095811605,0,
00:00:01.852,0.0109953051432967,-0.0180056169629097,-0.000191852945135906,0,
00:00:01.856,-0.00162957946304232,-0.0161453820765018,0.00985540729016066,0,
00:00:01.86,-0.0279080327600241,0.000389756227377802,0.0195464473217726,0,
00:00:01.864,-0.0283870398998261,0.0125352470204234,-0.00212544249370694,0,
00:00:01.868,0.0216665286570787,0.0105459298938513,0.006822235416620971,0,
00:00:01.872,0.00861771684139967,-0.007357132621109491,-0.0345395617187023,0,
00:00:01.876,0.0131814572960138,0.0188544783741236,-0.0149003863334656,0,
00:00:01.88,-0.0138475308194757,-0.0263343900442123,0.0179526675492525,0,
00:00:01.884,-0.0196919329464436,-0.0210862755775452,0.0134604005143046,0,
00:00:01.888,0.0130282631143928,0.00650011282414198,0.0060788057744503,0,
00:00:01.892,0.0233996044844389,0.0456695929169655,0.00159382133278996,0,
00:00:01.896,-0.00417840061709285,-0.00410576676949859,-0.00391470547765493,0,
00:00:01.9,-0.00150515011046082,-0.022387832403182997,0.000332605210132897,0,
00:00:01.904,-0.00577934645116329,-0.0117225237190723,-0.00619249604642391,0,
00:00:01.908,-0.009189506061375141,-0.00445976899936795,-0.0103428242728114,0,
00:00:01.912,-0.0295646954327822,0.0100089814513922,-0.0152325453236699,0,
00:00:01.916,0.0143145313486457,-0.00034141918877139704,0.0286251027137041,0,
00:00:01.92,0.0690413266420364,0.0100570674985647,-0.0036178033333271703,0,
00:00:01.924,-0.0127276936545968,0.0379514843225479,-0.00218786182813346,0,
00:00:01.928,-0.0509545542299747,-0.0316270031034946,0.014130194671451999,0,
00:00:01.932,-0.0184187199920416,-0.0292074307799339,0.00146434479393065,0,
00:00:01.936,-0.00029555123182945,0.00188288919162005,-0.0138818109408021,0,
00:00:01.94,0.0241859592497349,0.00714921718463302,-0.0156367532908916,0,
00:00:01.944,0.0195513479411602,0.0111701656132936,0.00942840240895748,0,
00:00:01.948,0.0288343708962202,0.00257820868864655,0.0142245516180992,0,
00:00:01.952,-0.00987673085182905,0.0128876119852066,0.00136554834898561,0,
00:00:01.956,-0.0321643278002739,-0.00791505631059408,-0.0160409566015005,0,
00:00:01.96,-0.0214804578572512,-0.0103420643135905,0.00357597763650119,0,
00:00:01.964,-0.006664440967142579,-0.0113929724320769,-0.0158301200717688,0,
00:00:01.968,0.0352573879063129,0.0106540322303772,0.0250604338943958,0,
00:00:01.972,0.00757460575550795,0.00669637555256486,0.0168988909572363,0,
00:00:01.976,0.00216354359872639,-0.0093065295368433,-0.0243973527103662,0,
00:00:01.98,-0.0184186771512032,-0.000802562572062016,-0.00128490617498755,0,
00:00:01.984,-0.0134444152936339,0.0172574706375599,0.00240637664683163,0,
00:00:01.988,0.0153823187574744,0.0058311028406024,-0.00779165327548981,0,
00:00:01.992,0.008361910469830041,-0.00886373035609722,0.000496904540341347,0,
00:00:01.996,0.0035370755940675705,-0.0152874449267983,0.004965775646269321,0,
00:00:02,0.007726373616606,-0.016851183027029,0.009070644155144691,0,
00:00:02.004,0.0013745890464633699,0.0170718394219875,-0.00160550395958126,0,
00:00:02.008,-0.0429606586694717,0.0178477708250284,-0.00994756072759628,0,
00:00:02.012,-0.01852747797966,-0.00813114177435637,0.0118573782965541,0,
00:00:02.016,0.0225488319993019,-0.0131930960342288,0.0027951926458627,0,
00:00:02.02,0.0527447573840618,0.0100468285381794,-0.00915458891540766,0,
00:00:02.024,0.00577793223783374,0.0216359328478575,-0.0112369917333126,0,
00:00:02.028,-0.0340895354747772,0.00410805968567729,0.00692335702478886,0,
00:00:02.032,-0.000654586940072477,-0.0322144068777561,0.00036177103174850296,0,
00:00:02.036,-0.0157078895717859,-0.0185083318501711,0.00946384016424418,0,
00:00:02.04,-0.0127370581030846,0.00310291606001556,-0.00344473426230252,0,
00:00:02.044,0.00474102096632123,0.0313038267195225,-0.00228157127276063,0,
00:00:02.048,0.0230419114232063,0.0108040133491158,-0.0117296483367682,0,
00:00:02.052,0.0284936539828777,-0.0119769992306828,-0.0009327105362899599,0,
00:00:02.056,-0.0347312763333321,-0.0182717517018318,0.0142097920179367,0,
00:00:02.06,-0.00865630526095629,-0.00688575487583876,0.0198720339685678,0,
00:00:02.064,0.0219050571322441,0.025360181927681,-0.00540863908827305,0,
00:00:02.068,0.00290092476643622,1.5845302186789902e-05,-0.0177559088915586,0,
00:00:02.072,-0.0199955441057682,-0.00814161729067564,-0.0127320410683751,0,
00:00:02.076,-0.00103725306689739,0.00819467101246119,0.00392519030719996,0,
00:00:02.08,0.0050272112712264104,-0.0089100506156683,0.0100061921402812,0,
00:00:02.084,0.014862822368741,-0.0106556266546249,0.005643325857818129,0,
00:00:02.088,-0.0102051561698318,0.00829474534839392,-0.0041974904015660295,0,
00:00:02.092,-0.0213746689260006,0.007807835470885041,-0.0158311035484076,0,
00:00:02.096,0.0295706074684858,-0.0022961592767387603,0.0136887272819877,0,
00:00:02.1,0.0152696976438165,0.0012641599169001,0.026184881106018996,0,
00:00:02.104,-0.0323375873267651,0.00353231793269515,-0.0020909036975354,0,
00:00:02.108,-0.0393508896231651,-0.0332057401537895,-0.0210326593369246,0,
00:00:02.112,0.0285220891237259,0.0264046862721443,-0.0371528789401054,0,
00:00:02.116,0.0496171861886978,0.0202807877212763,-0.00301035563461483,0,
00:00:02.12,0.00596630526706576,-0.0107017681002617,0.0398524478077888,0,
00:00:02.124,-0.0205275993794203,-0.00518075656145811,0.0172862987965345,0,
00:00:02.128,-0.0262737441807985,-0.0179501790553331,0.0102135557681322,0,
00:00:02.132,-0.00749801844358444,-0.00298303482122719,-0.0208533070981503,0,
00:00:02.136,0.0058055417612195,0.0263813156634569,-0.020036818459630002,0,
00:00:02.14,0.00161990476772189,-0.00572376558557153,-0.00107233237940818,0,
00:00:02.144,-0.0014782439684495302,-0.0104648992419243,0.0191213563084602,0,
00:00:02.148,0.0223518684506416,0.0018371889600530301,0.00330210593529046,0,
00:00:02.152,0.0116470269858837,0.006781857460737229,-0.0328813381493092,0,
00:00:02.156,-0.00622490886598825,0.0030737682245671697,0.0143190789967775,0,
00:00:02.16,-0.0538827888667583,-0.0137578221037984,0.0214565582573414,0,
00:00:02.164,0.0276567414402962,0.006510057486593721,-0.0065078884363174395,0,
00:00:02.168,0.004183579701930279,0.00904943142086267,0.00420014886185527,0,
00:00:02.172,0.0117773590609431,-0.00047118932707235195,-0.00394719466567039,0,
00:00:02.176,0.0202451329678297,-0.00657536555081606,-0.015435516834258999,0,
00:00:02.18,-0.0179538391530514,-0.00430194800719619,-0.0015228014672175,0,
00:00:02.184,-0.0135050760582089,-0.000337767676683143,0.00506185460835695,0,
00:00:02.188,0.0010111292358487801,0.0229064039885998,0.0036915349774062603,0,
00:00:02.192,-0.0167541895061731,-0.0172301102429628,0.00945882871747017,0,
00:00:02.196,0.0075102797709405405,-0.0232102796435356,-0.00817183684557676,0,
00:00:02.2,0.0218260139226913,0.0125366151332855,-0.00287751015275717,0,
00:00:02.204,0.0217852387577295,0.0124906236305833,0.00984401814639568,0,
00:00:02.208,-0.0186282191425562,-0.0009411275386810301,0.0074457777664065404,0,
00:00:02.212,-0.0289806295186281,-0.00168845767620951,-0.0123572051525116,0,
00:00:02.216,-0.0108830081298947,0.00224550114944577,-0.016414238139987,0,
00:00:02.22,0.0136392489075661,-0.00920215994119644,0.0123481070622802,0,
00:00:02.224,0.027760112658143,0.0256361421197653,-0.0049426453188061705,0,
00:00:02.228,0.00421041110530496,0.0008641405147500339,-0.000491630635224283,0,
00:00:02.232,-0.0137923788279295,-0.0280326493084431,0.0136919924989343,0,
00:00:02.236,0.0005239233723841611,-0.00245474954135716,0.008928298018872741,0,
00:00:02.24,0.00535693159326911,-0.00384075054898858,-0.00666285678744316,0,
00:00:02.244,-0.015868442133069,0.0098943505436182,-0.0068595935590565205,0,
00:00:02.248,-0.0048567708581686,0.00627846317365766,-0.00282405549660325,0,
00:00:02.252,0.000566593487747014,-0.00389285525307059,-0.01199453137815,0,
00:00:02.256,0.00113578885793686,-0.00506286043673754,-0.00725184427574277,0,
00:00:02.26,-0.00042756387847475697,0.006636033300310371,0.0266881380230188,0,
00:00:02.264,0.0147214094176888,0.0190452449023724,0.0133439050987363,0,
00:00:02.268,0.0193021409213543,-0.0098712183535099,-0.009308688342571259,0,
00:00:02.272,0.00156172446440905,-0.00584705593064427,-0.00935300998389721,0,
00:00:02.276,-0.0249280203133821,0.005701053887605671,-0.00339067610912025,0,
00:00:02.28,-0.0345472134649754,-0.0313758738338947,-0.000835609738714993,0,
00:00:02.284,0.0049626701511442705,0.00290999305434525,-0.00571071496233344,0,
00:00:02.288,0.0457806214690208,0.0316150933504105,0.0112534044310451,0,
00:00:02.292,0.008993543684482571,0.00503923511132598,-0.00192625657655299,0,
00:00:02.296,-0.0304784364998341,-0.0269669312983751,-0.006196773145347829,0,
00:00:02.3,-0.00646491535007954,0.00342498533427715,0.0024871979840099803,0,
00:00:02.304,0.0127638354897499,0.0211745761334896,0.0114430766552687,0,
00:00:02.308,0.00264164060354233,-0.0116829117760062,0.0038852028083056203,0,
00:00:02.312,0.0036914660595357396,-0.0151837803423405,0.0020994939841330103,0,
00:00:02.316,-0.0217537749558687,0.0189865529537201,-0.0191384740173817,0,
00:00:02.32,-0.00323010049760342,-0.009421410970389841,-0.00624860730022192,0,
00:00:02.324,0.0235350895673037,0.00181504199281335,0.00489845452830195,0,
00:00:02.328,0.0117418356239796,0.0026371346320956898,0.00213983445428312,0,
00:00:02.332,-0.00235124328173697,-0.0015855375677347198,0.007522789761424059,0,
00:00:02.336,-0.0449661239981651,-0.00959562510251999,-0.00670948345214128,0,
00:00:02.34,-0.0090374331921339,0.0037710038013756297,0.008718481287360191,0,
00:00:02.344,0.0546925142407417,0.0217339638620615,0.00468398164957762,0,
00:00:02.348,0.0294540300965309,-0.000861553591676056,-0.00647596456110477,0,
00:00:02.352,-0.0270180255174637,-0.0168221648782492,-0.00588390603661537,0,
00:00:02.356,-0.0386227928102016,-0.00805956684052944,0.004467434249818329,0,
00:00:02.36,-0.0135092614218593,0.0026344689540565,-0.00230211950838566,0,
00:00:02.364,0.008065194822847841,-0.0031873567495495103,-8.85111367097124e-05,0,
00:00:02.368,0.0209669414907694,0.00320995296351612,-0.00204989872872829,0,
00:00:02.372,0.0412919297814369,0.0197198446840048,-0.00019818902364932,0,
00:00:02.376,-0.0206730682402849,0.00258024223148823,-0.00262394547462463,0,
00:00:02.38,-0.00549249723553658,-0.0156483855098486,0.00585255771875381,0,
00:00:02.384,-0.0204317811876535,-0.00104162050411105,0.0190117377787828,0,
00:00:02.388,-0.0222124475985765,-0.00295143551193178,-0.0299086514860392,0,
00:00:02.392,0.0258440542966127,-0.00218049599789083,0.0082819564267993,0,
00:00:02.396,0.0163126140832901,0.0188212208449841,0.00312372460030019,0,
00:00:02.4,-0.0018888320773839996,-0.00527001917362213,-0.00569925410673022,0,
00:00:02.404,-0.010767038911581,-0.0301709584891796,0.00959721114486456,0,
00:00:02.408,0.007390393409878021,0.0314185507595539,-0.0058548008091747795,0,
00:00:02.412,-0.0101725300773978,0.0012320620007813,0.00490020820870996,0,
00:00:02.416,0.00304243830032647,-0.0180578790605068,0.00832277629524469,0,
00:00:02.42,0.00518294842913747,0.0121307820081711,-0.0185793992131948,0,
00:00:02.424,-0.0226013828068972,-0.00526344263926148,0.00311286351643503,0,
00:00:02.428,-0.0023036685306578896,-0.0121271004900336,0.000795297906734049,0,
00:00:02.432,0.03225967660546299,0.0112529871985316,0.0030962212476879397,0,
00:00:02.436,0.0228957887738943,0.0126852253451943,-0.0006192065775394441,0,
00:00:02.44,0.00318834790959954,-0.00146109377965331,0.0036203132476657603,0,
00:00:02.444,-0.0557606890797615,-0.00557577190920711,-0.00780786061659455,0,
00:00:02.448,-0.0130154713988304,-0.00028673437191173396,0.0013557309284806301,0,
00:00:02.452,0.0173963364213705,-0.00766204623505473,0.00554123520851135,0,
00:00:02.456,0.0114054782316089,0.0201027169823647,-0.00811113603413105,0,
00:00:02.46,0.0113149611279368,-0.0230796188116074,0.00432926369830966,0,
00:00:02.464,0.00296608032658696,-0.0113787688314915,0.007206378970295191,0,
00:00:02.468,0.00639977166429162,0.0172555949538946,0.00386334280483425,0,
00:00:02.472,-0.0265178270637989,0.00861283112317324,-0.0009034841787070039,0,
00:00:02.476,-0.0133806774392724,-0.0116995731368661,-0.00389766343869269,0,
00:00:02.48,0.0156692061573267,0.0104597564786673,-0.016700716689228998,0,
00:00:02.484,0.0143919289112091,-0.0023781040217727397,-0.00748885655775666,0,
00:00:02.488,0.00194646406453103,0.00293975416570902,0.0166398510336876,0,
00:00:02.492,-0.0147248720750213,0.0035202368162572397,0.012490214779973,0,
00:00:02.496,0.00243530538864434,-0.0159720946103334,-0.0107983453199267,0,
00:00:02.5,0.0109785795211792,-0.00337486923672259,1.8946240743389397e-05,0,
00:00:02.504,0.00414973590523005,0.0124166961759329,0.00467516575008631,0,
00:00:02.508,-0.00579965114593506,7.31167119738529e-06,0.0035994735080748796,0,
00:00:02.512,-0.0174808446317911,-0.00263353367336094,0.000199247690034099,0,
00:00:02.516,-0.0108700282871723,-0.0056271580979228,-0.0108688995242119,0,
00:00:02.52,0.0110728796571493,0.00207334337756038,-0.00174800783861428,0,
00:00:02.524,0.0297878850251436,0.00839794147759676,-0.000486748671391979,0,
00:00:02.528,-0.0112469317391515,0.00310017936863005,-8.07569304015487e-05,0,
00:00:02.532,-0.0117597645148635,0.0015495577827096,0.0049461377784609795,0,
00:00:02.536,-0.03341955691576,-0.0190714728087187,0.00390236871317029,0,
00:00:02.54,0.0131322741508484,-0.00116018822882324,-0.0011152257211506401,0,
00:00:02.544,0.0537463016808033,0.00241654738783836,0.00271206093020737,0,
00:00:02.548,0.0384729839861393,0.0293245706707239,-0.0024432425852865,0,
00:00:02.552,-0.0324905216693878,-0.000900729210115969,0.0010684549342840901,0,
00:00:02.556,-0.0618001669645309,-0.0475837104022503,-0.011800373904406998,0,
00:00:02.56,-0.0291946604847908,0.007770639844238759,0.00480396952480078,0,
00:00:02.564,0.0110777504742146,0.0325651355087757,-0.00670790113508701,0,
00:00:02.568,0.0323853716254234,0.0069784955121576795,0.0116292852908373,0,
00:00:02.572,0.047836247831583,-0.0125795705243945,0.0103518879041076,0,
00:00:02.576,-0.00311760976910591,-0.007936460897326471,0.004283883143216371,0,
00:00:02.58,-0.0353210754692554,-0.008522319607436659,-0.00238413480110466,0,
00:00:02.584,-0.0168388355523348,-0.0032226094044745,-0.0228115059435368,0,
00:00:02.588,0.0259743705391884,0.00039023120189085603,-0.0175135936588049,0,
00:00:02.592,-0.0177348740398884,0.00733891874551773,0.0120127210393548,0,
00:00:02.596,0.00902168825268745,0.0212181303650141,0.0102674756199121,0,
00:00:02.6,0.0238658413290977,0.00161516387015581,0.0193441845476627,0,
00:00:02.604,-0.00578394671902061,-0.0113978581503034,-0.00494456011801958,0,
00:00:02.608,-0.0173483844846487,-0.00861080083996058,-0.0019403767073527,0,
00:00:02.612,-0.0157010648399591,-0.008555059321224691,0.000233779268455692,0,
00:00:02.616,-0.0016509008128196,-0.00871993787586689,-0.0127423480153084,0,
00:00:02.62,0.0127238659188151,0.0258706323802471,0.00166186108253896,0,
00:00:02.624,0.0149518540129066,0.00537174846976995,-0.00174966873601079,0,
00:00:02.628,-0.00241043348796666,-0.00290117249824107,0.0041120876558125,0,
00:00:02.632,-0.018151018768549,-0.0152036910876632,0.00632080296054482,0,
00:00:02.636,0.012570746243000001,-0.00839717872440815,-0.004517048597335821,0,
00:00:02.64,0.0138096548616886,0.0223543122410774,-0.0278253071010113,0,
00:00:02.644,-0.0191285721957684,-0.00422795955091715,0.0117724426090717,0,
00:00:02.648,0.00157897686585784,-0.0170366037636995,0.0294806212186813,0,
00:00:02.652,-0.00427949707955122,0.0101679768413305,0.0009225736721418801,0,
00:00:02.656,0.010980156250298,0.0231204722076654,-0.0021678654011338897,0,
00:00:02.66,0.0050670127384364605,-0.00905011408030987,-0.0157599132508039,0,
00:00:02.664,-0.00302132172510028,-0.023936802521348,0.0038383051287382798,0,
00:00:02.668,-0.00636637164279819,0.00306982034817338,0.00393433962017298,0,
00:00:02.672,-0.0174121391028166,0.000809155753813684,-0.000677076051943004,0,
00:00:02.676,0.00416402379050851,0.0345121920108795,-0.03676709160208701,0,
00:00:02.68,0.0297881998121738,-0.0124244820326567,0.00531031657010317,0,
00:00:02.684,-0.0217102635651827,-0.0265120342373848,0.0381070636212826,0,
00:00:02.688,-0.000373639195458964,-0.000375152856577188,0.0188411697745323,0,
00:00:02.692,0.0038576144725084296,0.00265832315199077,-0.0184428095817566,0,
00:00:02.696,0.0125899305567145,0.0202407147735357,-0.0184529703110456,0,
00:00:02.7,0.00256870477460325,0.00239846715703607,-0.0107133891433477,0,
00:00:02.704,-0.0107071194797754,-0.0074030933901667595,0.011735993437469,0,
00:00:02.708,-0.00486584287136793,-0.00409482605755329,0.0193072576075792,0,
00:00:02.712,-0.0106527414172888,0.00238265539519489,-0.0046252179890871,0,
00:00:02.716,0.0074858092702925205,-0.00406479695811868,-0.00330394948832691,0,
00:00:02.72,-0.00895894784480333,-0.00871642213314772,-0.0179002452641726,0,
00:00:02.724,0.00998560525476933,0.0024142034817487,0.0109999850392342,0,
00:00:02.728,0.0193055253475904,0.0237321555614471,0.0016301405848935199,0,
00:00:02.732,0.0152342012152076,-0.009861377067863941,-0.0180365666747093,0,
00:00:02.736,-0.0202674828469753,-0.00482673011720181,0.0021522617898881396,0,
00:00:02.74,-0.0350256413221359,-0.0046101198531687294,0.0250004976987839,0,
00:00:02.744,0.0143995145335793,-0.00101564778015018,0.0121618993580341,0,
00:00:02.748,-0.000662378792185336,0.006008111406117679,-0.00877098180353642,0,
00:00:02.752,0.0013560168445110302,-0.0157791040837765,-0.0127849504351616,0,
00:00:02.756,0.01780079677701,0.0124709475785494,-0.0141893858090043,0,
00:00:02.76,0.0128691429272294,0.0179262850433588,0.0130025576800108,0,
00:00:02.764,-0.0073517216369509706,-0.00353761436417699,0.008631435222923759,0,
00:00:02.768,-0.0374666191637516,-0.00766943721100688,-0.0156861506402493,0,
00:00:02.772,0.0192472487688065,-0.0134166888892651,-0.00484979571774602,0,
00:00:02.776,0.0324838198721409,-0.00395527668297291,0.00116404471918941,0,
00:00:02.78,-0.0138631602749228,0.0235283393412828,0.0248917825520039,0,
00:00:02.784,-0.0204890761524439,-0.00797801185399294,-0.00270354608073831,0,
00:00:02.788,-0.0246913004666567,-0.0153371701017022,-1.5123278899409302e-05,0,
00:00:02.792,0.0031710660550743302,0.0063591157086193605,-0.00686527928337455,0,
00:00:02.796,0.035689938813448,0.0111754182726145,-0.0152765214443207,0,
00:00:02.8,0.0195085257291794,0.0106085771694779,0.0024539944715797897,0,
00:00:02.804,-0.0221152994781733,-0.00223583355545998,0.00911113247275352,0,
00:00:02.808,-0.008056563325226309,-0.0286665558815002,0.0113976486027241,0,
00:00:02.812,-0.0129497470334172,-0.0124852554872632,-0.0144114997237921,0,
00:00:02.816,0.00580351380631328,0.0261523481458426,-0.00634266156703234,0,
00:00:02.82,0.0364984907209873,0.0253691431134939,0.0150414956733584,0,
00:00:02.824,0.0114116119220853,-0.0104982489719987,-0.00557249551638961,0,
00:00:02.828,-0.039676558226347004,-0.0191372353583574,-0.00689466204494238,0,
00:00:02.832,-0.0122239412739873,-0.00553479883819819,0.00251728668808937,0,
00:00:02.836,-0.0267206244170666,0.010278576053679002,0.0156656298786402,0,
00:00:02.84,0.0161876864731312,0.0093540558591485,0.00203442689962685,0,
00:00:02.844,0.0427443236112595,-0.00573233747854829,-0.0155805656686425,0,
00:00:02.848,0.0135360164567828,-0.00359282293356955,0.0011731672566384099,0,
00:00:02.852,-0.0036775884218514,0.0050121555104851705,-0.00881169084459543,0,
00:00:02.856,-0.0260596945881844,-0.0158180166035891,-0.00568416062742472,0,
00:00:02.86,-0.0333415791392326,0.00405374821275473,0.0179343335330486,0,
00:00:02.864,-0.0062782596796751,0.0169225316494703,0.0214744843542576,0,
00:00:02.868,0.026566032320261,-0.00244499975815415,-0.0110121788457036,0,
00:00:02.872,0.0370973683893681,-0.0122392410412431,-0.0369487591087818,0,
00:00:02.876,0.0161603093147278,0.0253519117832184,0.0005529117770493031,0,
00:00:02.88,-0.0343674533069134,-0.0168514046818018,0.0266034342348576,0,
00:00:02.884,-0.0144361006096005,-0.0157375615090132,0.00318232155404985,0,
00:00:02.888,-0.0249388422816992,-0.0129645196720958,0.0105618238449097,0,
00:00:02.892,0.0129100894555449,0.0232692249119282,0.0136828394606709,0,
00:00:02.896,0.028243076056242,0.0199321415275335,-0.0360293202102184,0,
00:00:02.9,0.00608426472172141,-0.00387231330387294,-0.0185058992356062,0,
00:00:02.904,-0.0137147018685937,-0.0143499122932553,0.0149325327947736,0,
00:00:02.908,0.00393304508179426,0.000648180372081697,-0.00891230255365372,0,
00:00:02.912,-0.00300656352192163,-0.00280669750645757,0.0213100258260965,0,
00:00:02.916,0.00412635179236531,-0.00313061266206205,0.0139889679849148,0,
00:00:02.92,-0.0143393026664853,-0.000922406907193363,-0.00292699970304966,0,
00:00:02.924,-0.00870607513934374,0.0119739389047027,-0.0201402772217989,0,
00:00:02.928,0.00804941263049841,-0.000763055344577879,-0.00696713011711836,0,
00:00:02.932,0.012456975877284998,-0.00109237630385906,0.00415990361943841,0,
00:00:02.936,-0.00253537739627063,-0.007948121055960659,0.0288135372102261,0,
00:00:02.94,0.00214164913631976,-0.0019122906960547,-0.00125813996419311,0,
00:00:02.944,0.01151611097157,0.00581581005826592,-0.0286396387964487,0,
00:00:02.948,0.00771784177049994,0.0176631435751915,-0.00529006496071815,0,
00:00:02.952,-0.00339144794270396,0.00011062169505748899,0.0122239720076323,0,
00:00:02.956,-0.0477212443947792,-0.0150481164455414,0.0021606611553579604,0,
00:00:02.96,-0.00395214417949319,-0.00967058725655079,0.00230187969282269,0,
00:00:02.964,-0.0193590186536312,-0.0130151370540261,0.00269368896260858,0,
00:00:02.968,0.0573542416095734,0.0146504510194063,-0.0235502645373344,0,
00:00:02.972,0.0400872826576233,0.008956078439950941,0.020967423915863,0,
00:00:02.976,-0.0194644667208195,-0.00301708048209548,0.0113247847184539,0,
00:00:02.98,-0.0226862579584122,-0.00119528849609196,-0.007216105237603191,0,
00:00:02.984,-0.0013380517484620198,0.00611102627590299,0.00254962523467839,0,
00:00:02.988,-0.0105270529165864,0.00910345371812582,-0.00237201992422342,0,
00:00:02.992,-0.0156046813353896,-0.011827701702714,-0.0249952431768179,0,
00:00:02.996,0.0018191011622548101,-0.00907036941498518,0.0100840497761965,0,
00:00:03,0.0285576861351728,0.0074468152597546595,0.0167573634535074,0,
00:00:03.004,0.0069594718515873,0.00697602052241564,-0.011795012280345,0,
00:00:03.008,-0.0182569809257984,-0.0194957926869392,0.0018244000384584102,0,
00:00:03.012,0.0175569336861372,-0.00424674339592457,0.00403225421905518,0,
00:00:03.016,0.00484889559447765,0.0275342240929604,0.0038428846746683103,0,
00:00:03.02,-0.01269571762532,0.0189887434244156,-0.00487726368010044,0,
00:00:03.024,-0.0146435722708702,-0.0291775371879339,-0.00585045432671905,0,
00:00:03.028,-0.00305518880486488,-0.018666947260499,0.007777810562402009,0,
00:00:03.032,0.00391260581091046,0.0163544192910194,0.0037030917592346703,0,
00:00:03.036,0.00385562865994871,0.0010351035743951802,-0.00859927479177713,0,
00:00:03.04,0.00645678350701928,-0.0117795448750257,0.00110306951683015,0,
00:00:03.044,0.0116642704233527,0.0120524102821946,-0.00286277662962675,0,
00:00:03.048,-0.0415434539318085,0.0118273608386517,-0.00265707820653915,0,
00:00:03.052,0.0266621988266706,0.000979178468696773,0.00597687996923923,0,
00:00:03.056,0.0190099813044071,-0.00879629235714674,0.0022968964185565697,0,
00:00:03.06,0.00561138894408941,-0.0163061488419771,0.0023736865259707,0,
00:00:03.064,-0.0117163863033056,-0.00346137583255768,-0.0026448268909007302,0,
00:00:03.068,-0.0250472724437714,0.0263095591217279,-0.0129308886826038,0,
00:00:03.072,-0.00293094711378217,-0.00322729954496026,0.0152267068624496,0,
00:00:03.076,0.0094638904556632,-0.0120370900258422,0.00280553055927157,0,
00:00:03.08,0.000501455971971154,0.008556068874895571,-0.00508172949776053,0,
00:00:03.084,0.0219657141715288,-0.0015819399850443,-0.00403562234714627,0,
00:00:03.088,-0.00833585858345032,-0.00308285234495997,0.0137376850470901,0,
00:00:03.092,-0.0272484254091978,-0.00965210143476725,-0.0165155660361052,0,
00:00:03.096,0.0264768712222576,0.0105273341760039,-0.00972624402493238,0,
00:00:03.1,0.00989910308271647,0.0060007069259882,0.0196994952857494,0,
00:00:03.104,-0.0113459993153811,0.00236272509209812,-0.00213258434087038,0,
00:00:03.108,-0.0067895594984293,-0.0029315585270524,-0.00872200541198254,0,
00:00:03.112,-0.0115854181349277,-0.015350797213613999,0.000680302735418081,0,
00:00:03.116,-0.000649885332677513,0.00615001888945699,0.0111191524192691,0,
00:00:03.12,0.009960923343896871,0.0154320755973458,0.0129040386527777,0,
00:00:03.124,0.0113542340695858,-0.0120988804847002,-0.019350852817297,0,
00:00:03.128,0.0100807100534439,-0.00693261902779341,-0.0070512373931706,0,
00:00:03.132,-0.019368527457118,-0.0034859413281083103,0.000767943391110748,0,
00:00:03.136,-0.000849837728310376,0.025265758857131,0.0122502855956554,0,
00:00:03.14,0.013339152559638,-0.00792995560914278,-4.77997309644707e-05,0,
00:00:03.144,-0.0062750936485827,-0.0147737273946404,-0.0107520325109363,0,
00:00:03.148,-0.0189299788326025,0.0024950434453785398,0.00207807659171522,0,
00:00:03.152,0.00201231823302805,0.00618290761485696,-0.0170306842774153,0,
00:00:03.156,0.0157143548130989,-0.00244563212618232,0.0234570521861315,0,
00:00:03.16,0.00204300275072455,0.0124097848311067,0.00772990845143795,0,
00:00:03.164,0.0125221135094762,-0.000854581536259502,0.000547508068848401,0,
00:00:03.168,-0.0179764814674854,-0.00657661678269506,-0.00497365184128284,0,
00:00:03.172,-0.0105380164459348,-0.0122444974258542,-0.00408548815175891,0,
00:00:03.176,-0.0017819940112531198,-0.00281695765443146,-0.0164040215313435,0,
00:00:03.18,0.0041956608183682,0.0200513433665037,0.0197777189314365,0,
00:00:03.184,0.0184528920799494,-0.0018930867081508,-0.0044687418267130895,0,
00:00:03.188,0.00515529559925199,-0.00818732473999262,-0.00390697363764048,0,
00:00:03.192,-0.0199086870998144,-0.0138305434957147,0.00333195272833109,0,
00:00:03.196,0.00304981041699648,0.0116882007569075,0.00169275735970587,0,
00:00:03.2,0.0050787515938282,0.0204245634377003,-0.00098627305123955,0,
00:00:03.204,0.0217424668371677,0.00641539413481951,-0.018622687086463,0,
00:00:03.208,-0.0158549882471561,-0.00935831572860479,0.0102227702736855,0,
00:00:03.212,-0.0336617678403854,-0.0373012237250805,0.0106532899662852,0,
00:00:03.216,0.00357743399217725,0.00335612799972296,0.0134620908647776,0,
00:00:03.22,-0.010292056016624,0.015513937920332,-0.000276463775662705,0,
00:00:03.224,0.0352611765265465,0.0100984210148454,-0.0183711759746075,0,
00:00:03.228,0.0216124560683966,0.0100289275869727,-0.0196886733174324,0,
00:00:03.232,-0.0063631013035774205,-0.00504115363582969,0.0226532761007547,0,
00:00:03.236,-0.0010610562749207,-0.00840842816978693,-0.000173501437529922,0,
00:00:03.24,-0.0197023581713438,-0.00557334953919053,-0.00939679984003305,0,
00:00:03.244,-0.0192435253411531,-0.007422255817800759,0.0138433249667287,0,
00:00:03.248,0.0197104457765818,0.0202826354652643,-0.00934976432472467,0,
00:00:03.252,-0.0017323617357760698,6.8972229200881e-05,0.00821958482265472,0,
00:00:03.256,0.00165681447833776,-0.0132276359945536,0.00253478926606476,0,
00:00:03.26,0.0058586741797626,-0.004147801548242571,0.0058243665844202,0,
00:00:03.264,-0.0074562537483871,-0.00335696991533041,-0.0162121187895536,0,
00:00:03.268,-0.0079330587759614,0.00701028713956475,0.0026320589240640398,0,
00:00:03.272,0.0018486737972125398,0.0107359550893307,-0.0103445379063487,0,
00:00:03.276,0.0117922639474273,0.0111511489376426,-4.9537546146893894e-05,0,
00:00:03.28,0.00514615559950471,-0.0159135535359383,0.0106905223801732,0,
00:00:03.284,0.007919883355498309,-0.004142551217228171,0.00317017850466073,0,
00:00:03.288,-0.000878000573720783,0.0260593853890896,0.0005822218372486531,0,
00:00:03.292,-0.018063036724925,-0.0172593668103218,0.0058008274063468,0,
00:00:03.296,-0.00287882215343416,-0.0222221985459328,-0.00472344318404794,0,
00:00:03.3,-0.009646859951317309,-0.0010995022021234,-0.0057907965965569,0,
00:00:03.304,-0.00771823432296515,0.00513413455337286,-0.000775916327256709,0,
00:00:03.308,0.0311444252729416,0.0140332113951445,0.00046479518641717694,0,
00:00:03.312,0.0293268170207739,0.0089008454233408,0.000547970936167985,0,
00:00:03.316,-0.022815003991127004,0.004851334728300571,-0.0141086243093014,0,
00:00:03.32,-0.0463019460439682,-0.0023792597930878396,0.0058448258787393605,0,
00:00:03.324,-0.0007664941949769849,-0.0294501092284918,0.0196431074291468,0,
00:00:03.328,0.0329341180622578,0.0151811772957444,0.0183606166392565,0,
00:00:03.332,-0.00586600368842483,0.00395774655044079,-0.000440659176092595,0,
00:00:03.336,0.0179308373481035,-0.0135221723467112,-0.0429526455700397,0,
00:00:03.34,0.00905408803373575,-0.00262545887380838,-0.023498423397541,0,
00:00:03.344,-0.000571418146137148,0.0330792814493179,0.0157583095133305,0,
00:00:03.348,-0.0051197144202888,0.00129589776042849,0.0274780001491308,0,
00:00:03.352,-0.0130147533491254,-0.0170284919440746,0.0103807374835014,0,
00:00:03.356,-0.0250966288149357,-0.017266908660531002,0.00683728419244289,0,
00:00:03.36,-0.008534468710422521,-0.00319699780084193,-0.0126739535480738,0,
00:00:03.364,0.0254588946700096,0.0179861541837454,-0.00498917419463396,0,
00:00:03.368,0.0125816809013486,0.004477797076106071,-0.0264856517314911,0,
00:00:03.372,-0.00165696465410292,0.00487883435562253,0.00431658606976271,0,
00:00:03.376,0.000704344536643475,-0.0169717725366354,0.0200998950749636,0,
00:00:03.38,0.00475917616859078,0.00512745557352901,0.00485272146761417,0,
00:00:03.384,-0.0256385188549757,0.00139780004974455,0.00677085062488914,0,
00:00:03.388,0.0142141776159406,-0.008047591894865041,-0.00897066481411457,0,
00:00:03.392,0.005239854101091621,0.0120970467105508,-0.0130894873291254,0,
00:00:03.396,0.00123056431766599,0.00058015895774588,-0.0035558433737605797,0,
00:00:03.4,-0.0133899673819542,0.0056398841552436395,0.008913662284612659,0,
00:00:03.404,0.00159468105994165,-0.00805181078612804,0.009519987739622591,0,
00:00:03.408,-0.0050116376951336895,-0.00933773629367352,0.00202503777109087,0,
00:00:03.412,0.034280076622963,0.004190373234450821,-0.0100946174934506,0,
00:00:03.416,-0.0171769913285971,-0.00409465376287699,-0.00567770889028907,0,
00:00:03.42,-0.0256492625921965,-0.005744949448853729,0.0155959250405431,0,
00:00:03.424,0.0107301212847233,0.0272670052945614,-0.00104961264878511,0,
00:00:03.428,0.00559882214292884,-0.00167022668756545,-0.00285087479278445,0,
00:00:03.432,0.0320207215845585,-0.0160815604031086,-0.0262442957609892,0,
00:00:03.436,-0.009751409292221071,-0.00777389062568545,0.0150420339778066,0,
00:00:03.44,-0.0344666615128517,0.021252078935503998,0.00440367357805371,0,
00:00:03.444,-0.00549070909619331,-0.00225536711513996,0.000596896046772599,0,
00:00:03.448,0.0196288581937552,-0.0062110302969813295,3.4292817872483304e-05,0,
00:00:03.452,0.00595432333648205,-0.0158259533345699,0.0108146565034986,0,
00:00:03.456,-0.0029551025945693302,0.00351932598277926,0.0136735653504729,0,
00:00:03.46,0.0032131806947290897,0.0110364137217402,-0.0189463254064322,0,
00:00:03.464,-0.0170380119234324,-0.00581879541277885,-0.022323552519082995,0,
00:00:03.468,-0.00239923084154725,0.0161831136792898,0.0129727423191071,0,
00:00:03.472,0.0148385874927044,0.0022195684723556,0.00332065252587199,0,
00:00:03.476,0.0231356024742126,-0.012583396397531,-0.0009262794628739359,0,
00:00:03.48,-0.008633242920041079,0.00017104319704230902,0.005076657515019179,0,
00:00:03.484,-0.0151563985273242,-0.00385318067856133,-0.00153549946844578,0,
00:00:03.488,-0.0073005608282983294,-0.00173964898567647,-0.0012027695775032,0,
00:00:03.492,0.00315889832563698,-0.007130614016205071,0.00445846747606993,0,
00:00:03.496,-0.0136389816179872,0.0146212615072727,-0.0009008873603306711,0,
00:00:03.5,0.00404311763122678,0.009016920812428001,0.00373464520089328,0,
00:00:03.504,0.020228736102581,-0.0200365539640188,0.000501455739140511,0,
00:00:03.508,0.0125233372673392,0.0128510482609272,-0.0154463425278664,0,
00:00:03.512,0.00580990966409445,0.0102350888773799,-0.0108409998938441,0,
00:00:03.516,-0.0270056407898664,-0.007113451603800059,0.006142781116068361,0,
00:00:03.52,-0.0215197633951902,-0.0228041782975197,0.012094653211533997,0,
00:00:03.524,0.0106302304193377,0.00591807812452316,0.00286093377508223,0,
00:00:03.528,0.0125292195007205,0.00984531827270985,0.0230309516191483,0,
00:00:03.532,0.00941061973571777,0.000664191727992147,-0.00340856378898025,0,
00:00:03.536,-0.00510289473459125,-0.00498746894299984,-0.0196933690458536,0,
00:00:03.54,-0.004851062782108779,-0.00036397029180079704,-0.016418345272541,0,
00:00:03.544,0.00309915491379797,0.0118151064962149,0.0031673195771873,0,
00:00:03.548,0.0100510064512491,0.00427626399323344,0.00100915809161961,0,
00:00:03.552,-0.00900106132030487,-0.0126294484362006,0.0108898561447859,0,
00:00:03.556,-0.0172795951366425,-0.0016199416713789099,0.00433049164712429,0,
00:00:03.56,0.0114723788574338,-0.00525258341804147,-0.00666213361546397,0,
00:00:03.564,-0.00908709689974785,0.000461351475678384,-0.000780066358856857,0,
00:00:03.568,0.0164221301674843,0.0151662714779377,0.0105509255081415,0,
00:00:03.572,0.0180359557271004,0.00348670850507915,-0.0034915842115879102,0,
00:00:03.576,-0.00399786420166492,-0.0155866630375385,-0.0076357489451766,0,
00:00:03.58,-0.0169827435165644,-0.00370988692156971,-0.00707943411543965,0,
00:00:03.584,-0.0362323820590973,0.0114601161330938,0.0037437472492456397,0,
00:00:03.588,-0.00277557666413486,-0.00933224055916071,0.0172685142606497,0,
00:00:03.592,0.0296032540500164,0.0108210053294897,0.0031860051676631,0,
00:00:03.596,0.0105768889188766,-0.00308544421568513,-0.00688676256686449,0,
00:00:03.6,0.0444702617824078,0.0023028627038002,-0.0152592724189162,0,
00:00:03.604,0.00588201964274049,-0.000662235892377794,-0.0100510288029909,0,
00:00:03.608,-0.0571752712130547,-0.0177401136606932,0.0162382777780294,0,
00:00:03.612,-0.038502361625433,-0.005925780162215229,0.00337759940885007,0,
00:00:03.616,0.0231072269380093,0.0383957698941231,-0.0039343885146081396,0,
00:00:03.62,0.0229163393378258,0.00311805075034499,0.00805213022977114,0,
00:00:03.624,-0.00160751596558839,-0.0209631603211164,-0.00274039432406425,0,
00:00:03.628,0.00878692418336868,-0.00540623720735312,-0.00320909731090069,0,
00:00:03.632,-0.005667922087013721,-0.00414167204871774,0.0115194534882903,0,
00:00:03.636,-0.0216903015971184,-0.00288497493602335,0.00346877635456622,0,
00:00:03.64,-0.00407070759683847,0.0189309120178223,-0.0183367915451527,0,
00:00:03.644,0.0135639142245054,-0.006180159281939271,-0.0199834164232016,0,
00:00:03.648,0.0190566219389439,-0.011873995885253,0.00856618769466877,0,
00:00:03.652,0.0220278948545456,0.0126309953629971,0.0187900997698307,0,
00:00:03.656,-0.00166097795590758,0.0134290466085076,-0.0071150003932416404,0,
00:00:03.66,-0.0412273481488228,-0.00215669884346426,0.0161983501166105,0,
00:00:03.664,-0.0106185497716069,-0.0218561850488186,0.0079645523801446,0,
00:00:03.668,0.00638931151479483,-0.000817058549728245,-0.017409136518836004,0,
00:00:03.672,-0.0035458414349705,0.0122913382947445,-0.0138850631192327,0,
00:00:03.676,0.0113019207492471,-0.0025894760619849,0.005644800607115029,0,
00:00:03.68,0.015321190468966997,0.00128159672021866,0.00378368981182575,0,
00:00:03.684,0.00487659778445959,-0.0077900569885969205,-0.007066245190799241,0,
00:00:03.688,-0.0172222796827555,0.00709873717278242,-0.00897075422108173,0,
00:00:03.692,-0.00054753030417487,0.0032472510356456,0.0155380805954337,0,
00:00:03.696,-0.0153466109186411,-0.0126867145299911,0.0277927238494158,0,
00:00:03.7,0.0198041368275881,0.0202791523188353,-0.0068368474021554,0,
00:00:03.704,0.0250041410326958,-0.00614036060869694,-0.0186414364725351,0,
00:00:03.708,-0.0013438855530694099,0.00614302651956677,-0.0121202822774649,0,
00:00:03.712,-0.0292128957808018,-0.0146156689152122,-0.00365434400737286,0,
00:00:03.716,-0.00927128456532955,-0.000984700862318277,0.0032276778947562,0,
00:00:03.72,0.00763499038293958,-0.008922828361392021,0.0125407418236136,0,
00:00:03.724,-0.0190261006355286,-0.00379931228235364,0.0101772844791412,0,
00:00:03.728,0.0120583027601242,0.0160329174250364,0.000756411056499928,0,
00:00:03.732,0.0171182230114937,0.0163811184465885,-0.009883373975753779,0,
00:00:03.736,0.00734280748292804,-0.0060750893317163,0.00127978064119816,0,
00:00:03.74,0.0182867217808962,-0.0108875799924135,-0.0110604530200362,0,
00:00:03.744,-0.0244569312781096,0.0016687458846718099,-0.00170931115280837,0,
00:00:03.748,-0.00970999337732792,0.0186361502856016,0.00464198179543018,0,
00:00:03.752,-0.00924705807119608,-0.012058001011610002,-0.00031742671853862703,0,
00:00:03.756,-0.0101473117247224,-0.025147270411253,0.0220559649169445,0,
00:00:03.76,0.0250808950513601,-0.008714019320905209,0.00810551643371582,0,
00:00:03.764,0.0184409469366074,0.0082743251696229,-0.0186513494700193,0,
00:00:03.768,-0.0109897349029779,0.0543498396873474,-0.0337589085102081,0,
00:00:03.772,-0.0106057310476899,-0.00705381808802485,-0.00437691528350115,0,
00:00:03.776,-0.009039743803441521,-0.0508820787072182,0.0354743413627148,0,
00:00:03.78,0.00867141224443913,0.0062470077537000205,0.0152529096230865,0,
00:00:03.784,-0.0015003836015239401,0.0191061329096556,0.000141048629302531,0,
00:00:03.788,-0.0018871693173423399,0.0053541734814643895,-0.0119254468008876,0,
00:00:03.792,0.0214033983647823,-0.000179163995198905,-0.025727728381753,0,
00:00:03.796,0.0014111778000369698,-0.00648034596815705,0.0109567968174815,0,
00:00:03.8,-0.029505729675293,-0.0154224764555693,0.00650901068001986,0,
00:00:03.804,-0.00452749943360686,0.0189386792480946,0.00572959892451763,0,
00:00:03.808,0.005990834441035989,0.00195428309962153,0.00963338185101748,0,
00:00:03.812,0.0284746903926134,-0.0047276318073272705,-0.0183063112199306,0,
00:00:03.816,-0.00218230090104043,-0.004737324547022579,0.000279274536296725,0,
00:00:03.82,-0.0267214812338352,-0.0102644972503185,0.0037073937710374602,0,
00:00:03.824,-0.00639237789437175,0.00450076162815094,0.0018666215473786,0,
00:00:03.828,0.0119820218533278,0.0125855291262269,-0.00867866352200508,0,
00:00:03.832,0.0136209344491363,-0.00237152329646051,0.00863393023610115,0,
00:00:03.836,0.00642556883394718,0.00174490793142468,0.0076571265235543294,0,
00:00:03.84,-0.00378355290740728,0.0109695177525282,-0.00310180173255503,0,
00:00:03.844,-0.00842918921262026,-0.0278480686247349,-0.012558157555759,0,
00:00:03.848,-0.00291224685497582,0.0157645437866449,-0.0110053326934576,0,
00:00:03.852,-0.00877765938639641,0.0172073300927877,0.00960557721555233,0,
00:00:03.856,-0.00625881319865584,-0.0170214232057333,0.0222248043864965,0,
00:00:03.86,0.0125562492758036,-0.0152686899527907,0.000118617797852494,0,
00:00:03.864,-0.00452521396800876,-0.000993355875834823,-0.0151191344484687,0,
00:00:03.868,0.00330317532643676,0.00219963327981532,-0.0150637207552791,0,
00:00:03.872,0.0340524800121784,0.007008725311607121,0.00868644937872887,0,
00:00:03.876,-0.0037983311340212796,0.013614515773952,0.0191615298390388,0,
00:00:03.88,-0.0424080789089203,-0.0101539166644216,0.00307734496891499,0,
00:00:03.884,-0.010072348639368999,0.00913872383534908,-0.0139802480116487,0,
00:00:03.888,0.0251090694218874,0.0035593057982623603,-0.014228630810976002,0,
00:00:03.892,0.00409030774608254,-0.010975188575684998,0.00686629908159375,0,
00:00:03.896,0.0075792963616549995,-0.00809474196285009,0.00816925056278706,0,
00:00:03.9,0.00405523926019669,0.00313848606310785,-0.00728030223399401,0,
00:00:03.904,-0.0182133484631777,-0.000173158769030124,0.0146511998027563,0,
00:00:03.908,-0.01032436452806,0.007658473681658509,-0.000910727481823415,0,
00:00:03.912,0.0145716434344649,-0.00122970051597804,-0.00863689463585615,0,
00:00:03.916,-0.007436700165271759,-0.0150971654802561,-0.00774360634386539,0,
00:00:03.92,-0.002083835657686,0.008491684682667259,0.00570659479126334,0,
00:00:03.924,0.00765878753736615,0.0245474111288786,-0.00352008268237114,0,
00:00:03.928,0.0263190865516663,-0.0289022717624903,0.00641847960650921,0,
00:00:03.932,-0.00236076698638499,0.0100826807320118,0.00850933231413364,0,
00:00:03.936,-0.026285158470273,0.0276246126741171,-0.0165787134319544,0,
00:00:03.94,-0.0195308718830347,-0.0148158753290772,0.00567220244556665,0,
00:00:03.944,0.00101603800430894,-0.0383957177400589,0.0064506013877689795,0,
00:00:03.948,0.0344034731388092,-0.0020141045097261698,-0.0050986260175705,0,
00:00:03.952,0.00280981510877609,0.0015421244315803099,-0.00117291091009974,0,
00:00:03.956,0.0018046695040538898,0.0223684255033731,0.0071367216296494,0,
00:00:03.96,-0.007906016893684859,0.0319287106394768,-0.0150448540225625,0,
00:00:03.964,-0.0426080264151096,-0.0137632172554731,0.013913381844759,0,
00:00:03.968,0.0155079299584031,-0.0157291870564222,0.0142050683498383,0,
00:00:03.972,0.0207863971590996,-0.0014401185326278199,-0.0196182429790497,0,
00:00:03.976,0.0045528928749263295,-0.00140810734592378,-0.0140412813052535,0,
00:00:03.98,0.00539295328781009,0.00795525405555964,0.01250144187361,0,
00:00:03.984,0.0085803410038352,-0.00715178065001965,-0.007267310749739409,0,
00:00:03.988,-0.0288955792784691,-0.0136074302718043,0.007655863184481859,0,
00:00:03.992,-0.0153265176340938,0.00623904494568706,0.0116367368027568,0,
00:00:03.996,0.0174492578953505,0.0145923681557178,0.000327960529830307,0,
00:00:04,0.00909551326185465,-0.00375997740775347,-0.011737585067748997,0,
00:00:04.004,0.0198219176381826,0.0115354005247355,-0.006171425338834521,0,
00:00:04.008,8.25177412480116e-05,-0.00244115781970322,0.013928216882050001,0,
00:00:04.012,-0.0460501946508884,-0.0103518832474947,-0.0129215903580189,0,
00:00:04.016,0.0028619852382689697,-0.00926356110721827,0.0151720512658358,0,
00:00:04.02,0.00717605371028185,0.0028888094238936897,-0.0060644922778010394,0,
00:00:04.024,0.0149014452472329,0.0027459631673991697,-0.0170223321765661,0,
00:00:04.028,0.0193832069635391,0.00272233108989894,0.0189347006380558,0,
00:00:04.032,0.000890921626705676,0.0019233064958825699,0.00527242757380009,0,
00:00:04.036,-0.0210844371467829,0.00484545202925801,-0.0137604456394911,0,
00:00:04.04,-0.0108683798462152,-0.000151567786815576,0.00406863028183579,0,
00:00:04.044,-0.0101943798363209,-0.0101641425862908,0.014552179723978001,0,
00:00:04.048,0.00327828340232372,-0.00039676993037574,-0.0161310750991106,0,
00:00:04.052,0.0114605221897364,-0.00568279437720776,-0.00918220635503531,0,
00:00:04.056,0.0108924452215433,0.00191508361604065,0.0072211865335702905,0,
00:00:04.06,0.0009601092897355561,0.0133415311574936,0.00471097882837057,0,
00:00:04.064,0.0153499767184258,0.0152557939291,-0.0128618674352765,0,
00:00:04.068,0.0034755782689899197,-0.00560605665668845,0.0154278455302119,0,
00:00:04.072,-0.0322140119969845,-0.0210914351046085,0.0061317952349782,0,
00:00:04.076,-0.008609781041741371,-0.0102438339963555,-0.005780633073300121,0,
00:00:04.08,0.00918072834610939,0.011467189528048002,0.0051610111258924,0,
00:00:04.084,-0.0138336475938559,0.0120612476021051,-0.00300045008771122,0,
00:00:04.088,0.00207833456806839,-0.00580331729725003,-0.016830462962389,0,
00:00:04.092,0.0214467383921146,-0.00717417756095529,0.000759489485062659,0,
00:00:04.096,0.00938860233873129,-0.006458786781877279,0.0108445435762405,0,
00:00:04.1,0.00601264461874962,0.0063088499009609205,0.00804136600345373,0,
00:00:04.104,0.0115315895527601,0.0365757793188095,-0.023524509742856,0,
00:00:04.108,-0.0389769151806831,-0.0113833351060748,0.0138879716396332,0,
00:00:04.112,-0.0125036258250475,-0.0246979054063559,0.00813829060643911,0,
00:00:04.116,0.0087386341765523,0.000237979314988479,0.00276305433362722,0,
00:00:04.12,0.00268624606542289,-0.00511141587048769,-0.0015922720776870801,0,
00:00:04.124,-0.00278834905475378,-0.00590059161186218,-0.0100389495491982,0,
00:00:04.128,0.0206583943217993,0.0152962934225798,-0.0165408439934254,0,
00:00:04.132,0.00481183221563697,0.0008057234808802599,0.0141344154253602,0,
00:00:04.136,0.0190914738923311,0.0193528812378645,0.0102567514404655,0,
00:00:04.14,-0.0134219760075212,-0.0175969377160072,0.00203905184753239,0,
00:00:04.144,-0.0450050197541714,-0.00872395839542151,-0.00147651263978332,0,
00:00:04.148,-0.00542040355503559,0.00051512784557417,-0.0151463747024536,0,
00:00:04.152,0.0234823450446129,0.0153363579884171,-0.0073037198744714295,0,
00:00:04.156,0.0101075666025281,0.007275348063558341,0.0115116871893406,0,
00:00:04.16,-0.004253767430782321,-0.0138674462214112,0.0274514500051737,0,
00:00:04.164,0.0062883822247386,-0.00911589246243238,-0.0164338257163763,0,
00:00:04.168,0.0213804543018341,-0.00606530252844095,-0.0119802942499518,0,
00:00:04.172,-0.00150644744280726,-0.00121574371587485,-0.00129468052182347,0,
00:00:04.176,-0.0369835942983627,0.0116772204637527,0.0112429270520806,0,
00:00:04.18,-0.009338654577732091,0.0163860134780407,-0.004628942813724279,0,
00:00:04.184,0.00347690703347325,-0.00470071472227573,-0.0109423846006393,0,
00:00:04.188,0.0225679446011782,-0.00560227129608393,0.00338171655312181,0,
00:00:04.192,0.00417495612055063,-0.00191344635095447,0.0115993730723858,0,
00:00:04.196,0.0103766536340117,0.00679027987644076,0.00957948341965675,0,
00:00:04.2,-0.00452192686498165,-0.007088914047926659,-0.0101087829098105,0,
00:00:04.204,-0.0280793756246567,-0.0194834638386965,-0.0110376095399261,0,
00:00:04.208,0.00819883309304714,0.00984808057546616,0.0102799059823155,0,
00:00:04.212,0.00548426387831569,0.010176507756114,-0.007224550005048509,0,
00:00:04.216,-0.0148626351729035,0.00915408413857222,-0.00159743288531899,0,
00:00:04.22,0.0131586017087102,0.0019762427546083897,0.0070760701783001406,0,
00:00:04.224,0.007720563560724259,-0.0227522719651461,-0.0103275263682008,0,
00:00:04.228,-1.40534939419013e-05,0.00539573607966304,0.0194842591881752,0,
00:00:04.232,0.00838342867791653,0.00970690511167049,0.004481884185224771,0,
00:00:04.236,-0.00340275885537267,-0.0101925162598491,-0.0128840357065201,0,
00:00:04.24,-0.0172109790146351,-0.00040176420588977597,-0.00973794423043728,0,
00:00:04.244,-0.0016685519367456401,0.006151997018605471,-0.00565531849861145,0,
00:00:04.248,0.0037568933330476297,0.00201265886425972,0.0143617372959852,0,
00:00:04.252,-0.000173985521541908,0.00627454137429595,0.00277491798624396,0,
00:00:04.256,-8.763167716097091e-05,-0.000518133514560759,0.00307537708431482,0,
00:00:04.26,0.011603320017457,-0.00562567729502916,0.00486755790188909,0,
00:00:04.264,-0.00161062111146748,-0.0183795765042305,-0.0161712616682053,0,
00:00:04.268,-0.0018820944242179398,0.0067692766897380395,-0.0151398768648505,0,
00:00:04.272,0.0040500285103917105,0.0184745062142611,0.0250087361782789,0,
00:00:04.276,0.000671204878017306,-0.00902239233255386,-0.00475834542885423,0,
00:00:04.28,-0.0301785115152597,-0.011578238569200002,-0.0032509088050574103,0,
00:00:04.284,0.00263641099445522,0.00854009762406349,0.0091357147321105,0,
00:00:04.288,0.0319137126207352,0.00649233208969235,-0.00307305809110403,0,
00:00:04.292,0.00567822484299541,0.0083806486800313,0.0019472148269414897,0,
00:00:04.296,-0.0120492922142148,-0.007341661490499971,0.0026943513657897698,0,
00:00:04.3,-0.00636482145637274,-0.00368510722182691,-0.020356759428978,0,
00:00:04.304,-0.00513546448200941,-0.00493058795109391,0.0009342995472252369,0,
00:00:04.308,0.00763385696336627,-0.0101605942472816,0.00804588105529547,0,
00:00:04.312,-0.013586113229393999,0.00918513629585505,0.00678074639290571,0,
00:00:04.316,0.00890055578202009,0.0133979935199022,0.00455826334655285,0,
00:00:04.32,-0.00199065869674087,0.00945387780666351,-0.00943384692072868,0,
00:00:04.324,-0.00719676399603486,-0.0154682043939829,0.00351158948615193,0,
00:00:04.328,0.0329659916460514,-0.0190655905753374,0.00233256281353533,0,
00:00:04.332,0.0033245924860239,0.00129543361254036,0.000707659055478871,0,
00:00:04.336,-0.0198353044688702,0.0202688965946436,-0.0175386723130941,0,
00:00:04.34,-0.015860578045249,-0.000733160588424653,-0.00473010400310159,0,
00:00:04.344,-0.00599915953353047,-0.00832345895469189,0.0166325625032187,0,
00:00:04.348,0.005116976797580721,0.0020649859216064197,0.0206626337021589,0,
00:00:04.352,0.0013538314960897,0.0100899189710617,0.00822432152926922,0,
00:00:04.356,0.005273816641420129,-0.00823320727795362,-0.0200273189693689,0,
00:00:04.36,0.0276335552334785,0.00255169766023755,-0.0276637561619282,0,
00:00:04.364,0.00783686153590679,-0.00104739400558174,-0.0077629811130464094,0,
00:00:04.368,0.0023185524623841,0.00406622420996428,0.0182958990335464,0,
00:00:04.372,-0.0302729681134224,-0.00326722557656467,0.0161607172340155,0,
00:00:04.376,-0.0430304110050201,-0.0111856563016772,-0.00510065630078316,0,
00:00:04.38,-0.00877121184021235,-0.00527249462902546,-0.00411725975573063,0,
00:00:04.384,0.0393695794045925,0.008785359561443329,0.0111961178481579,0,
00:00:04.388,0.0318285338580608,0.00277857691980898,0.007791930809617041,0,
00:00:04.392,0.00809665024280548,0.017995098605751998,0.0010933710727840699,0,
00:00:04.396,-0.0225315503776073,-0.000127989740576595,-0.0422487780451775,0,
00:00:04.4,-0.00813362281769514,-0.0178576223552227,-0.01128123793751,0,
00:00:04.404,-0.00623112637549639,-0.0122506357729435,0.0296248588711023,0,
00:00:04.408,0.0022028423845768,0.00740180164575577,0.0233505647629499,0,
00:00:04.412,0.0146673703566194,0.0154660763218999,0.004535454791039229,0,
00:00:04.416,-0.0131052974611521,0.00458687683567405,-0.0173542574048042,0,
00:00:04.42,0.00680697103962302,-0.0137606048956513,-0.00877451524138451,0,
00:00:04.424,-0.00470349751412869,-0.00682657677680254,0.004084152169525621,0,
00:00:04.428,-0.00737198302522302,-0.009920647367835041,0.00204771663993597,0,
00:00:04.432,0.0130685428157449,0.0161690954118967,-0.00168057205155492,0,
00:00:04.436,-0.00366921932436526,0.008423200808465479,-0.0153175732120872,0,
00:00:04.44,0.00478135794401169,0.00344423111528158,0.00599570479243994,0,
00:00:04.444,0.0111418860033154,0.00757490005344152,0.0160750895738602,0,
00:00:04.448,-0.00510553224012256,-0.0175023563206196,-0.00233313511125743,0,
00:00:04.452,-0.0412852838635445,-0.0150048732757568,-0.000692604051437229,0,
00:00:04.456,-0.00272785034030676,0.0069730500690639,-0.008166897110641001,0,
00:00:04.46,0.0213976111263037,0.00439373031258583,0.0055136401206255,0,
00:00:04.464,0.0296785961836576,-0.000823780719656497,-0.005035605281591421,0,
00:00:04.468,0.0163826514035463,-0.00234789191745222,0.004367942456156021,0,
00:00:04.472,-0.0185323804616928,0.00960633158683777,0.00285349413752556,0,
00:00:04.476,-0.0103668617084622,0.0144756287336349,-0.00686583109200001,0,
00:00:04.48,-0.0197080094367266,-0.0063758473843336105,0.0138222072273493,0,
00:00:04.484,-0.0109488675370812,0.0137714492157102,-0.0155055960640311,0,
00:00:04.488,0.0144265741109848,-0.0371691025793552,-0.0152240423485637,0,
00:00:04.492,0.0149037726223469,-0.023288968950509997,0.0215469598770142,0,
00:00:04.496,0.00213804631493986,0.0095338486135006,0.010480853728950001,0,
00:00:04.5,-0.00618874840438366,0.0294505693018436,-0.00525248888880014,0,
00:00:04.504,0.00560146290808916,0.0128330877050757,-0.00497140130028129,0,
00:00:04.508,0.00597647158429027,-0.0153522556647658,-0.00137345434632152,0,
00:00:04.512,-0.0260319653898478,0.00406864052638412,-0.00745012471452355,0,
00:00:04.516,0.00729157915338874,0.01371187902987,0.000676877447403967,0,
00:00:04.52,0.025304364040493996,-0.00348720885813236,0.00846069864928722,0,
00:00:04.524,0.0006421305006369951,-0.0230409037321806,0.00213265139609575,0,
00:00:04.528,-0.0278536323457956,-0.007747638039290909,0.0006752719637006519,0,
00:00:04.532,-0.0227926801890135,0.009577382355928421,-0.00016536528710275902,0,
00:00:04.536,0.016312800347805,0.0017883641412481698,-0.00102787860669196,0,
00:00:04.54,0.0265308022499084,-0.0024737699422985302,-0.0181596446782351,0,
00:00:04.544,-0.0106230406090617,0.00015290023293346202,-0.00438660150393844,0,
00:00:04.548,0.0219447668641806,-0.00121985434088856,0.0174508634954691,0,
00:00:04.552,-0.00613093934953213,0.0344883985817432,0.0172972828149796,0,
00:00:04.556,-0.019114475697279,0.0110645592212677,0.000174157292349264,0,
00:00:04.56,-0.00721702491864562,-0.0501333735883236,-0.0110419197008014,0,
00:00:04.564,-0.0038715850096195897,-0.0232734642922878,-0.0158543903380632,0,
00:00:04.568,-0.0170900467783213,0.0300955604761839,0.0106287049129605,0,
00:00:04.572,0.0229638610035181,0.00778292631730437,0.00702134473249316,0,
00:00:04.576,0.0452996268868446,-0.00127684185281396,-0.0140686333179474,0,
00:00:04.58,-0.010108046233654,0.013814240694046001,-0.025118550285697,0,
00:00:04.584,-0.0195700265467167,-0.008740240707993509,0.0387505032122135,0,
00:00:04.588,-0.009807743132114409,-0.0121577708050609,0.0202967878431082,0,
00:00:04.592,-0.0228297263383865,-0.0061324373818934,-0.0289134569466114,0,
00:00:04.596,-0.0156967341899872,0.00117257249075919,0.0013682364951819199,0,
00:00:04.6,0.0317825153470039,0.017789401113987,-0.00374311069026589,0,
00:00:04.604,0.0276230499148369,0.0061734146438539,0.0205629505217075,0,
00:00:04.608,0.028210636228322997,-0.00593900354579091,-0.0146077796816826,0,
00:00:04.612,-0.0263519641011953,-0.007695017382502559,-0.0252368245273829,0,
00:00:04.616,-0.0324628837406635,-0.00233625783585012,0.025004068389535002,0,
00:00:04.62,-0.0368904732167721,-0.0106032993644476,0.0171366166323423,0,
00:00:04.624,0.00970850884914398,0.000177882073330693,-0.0121660744771361,0,
00:00:04.628,0.0659009963274002,0.0232302434742451,-0.0128377173095942,0,
00:00:04.632,0.0115650109946728,0.0060558095574379,-0.00207671197131276,0,
00:00:04.636,-0.012579414062202,-0.0143145509064198,0.0013872730778530199,0,
00:00:04.64,-0.0113131869584322,0.0171173121780157,0.0044511747546494,0,
00:00:04.644,-0.0556803122162819,-0.0178487338125706,-0.0141295194625854,0,
00:00:04.648,0.0199624616652727,-0.0323424525558949,0.0244155954569578,0,
00:00:04.652,0.0158515516668558,0.0171899050474167,0.0170630309730768,0,
00:00:04.656,-0.00278173596598208,0.0142108220607042,-0.0050518610514700395,0,
00:00:04.66,0.0150433359667659,0.009781818836927409,-0.0228861123323441,0,
00:00:04.664,0.008348235860466959,-0.0071093337610364,-0.008757596835494041,0,
00:00:04.668,-0.0107184434309602,0.00326193985529244,0.0117853078991175,0,
00:00:04.672,-0.0085882181301713,0.00272442656569183,-0.0101836761459708,0,
00:00:04.676,0.0191547702997923,-0.0155809177085757,-0.0111165791749954,0,
00:00:04.68,-0.0042503667064011106,0.0039187907241284795,0.0291930884122849,0,
00:00:04.684,-0.0326875299215317,0.0010620690882206,0.0188588220626116,0,
00:00:04.688,-0.001494744210504,0.00109009584411979,-0.0224941615015268,0,
00:00:04.692,0.0243084877729416,0.00954632833600044,-0.0170653369277716,0,
00:00:04.696,0.0171511452645063,-0.00082011433551088,0.0194603838026524,0,
00:00:04.7,0.00179918273352087,-0.016473351046443003,-0.004836484789848329,0,
00:00:04.704,-0.01076231431216,1.7908469089889e-06,-0.00839650817215443,0,
00:00:04.708,-0.0462770983576775,-0.0068429671227932,-0.00119673635344952,0,
00:00:04.712,0.0175874773412943,0.0313200280070305,0.0128937037661672,0,
00:00:04.716,0.0337211787700653,0.0062773907557129895,0.0060763992369175,0,
00:00:04.72,0.0122689651325345,-0.0273470710963011,-0.00905551109462976,0,
00:00:04.724,-0.0295752324163914,-0.00480804406106472,-0.0153429927304387,0,
00:00:04.728,-0.0134425368160009,0.0039420714601874395,0.0194430686533451,0,
00:00:04.732,0.0113371191546321,-0.00529374880716205,0.0062297708354890294,0,
00:00:04.736,0.0107700582593679,0.0211747568100691,-0.0131036704406142,0,
00:00:04.74,0.000784637988545001,-0.0033558416180312603,-0.00447574630379677,0,
00:00:04.744,0.000714967667590827,-0.0110947703942657,-0.00970493722707033,0,
00:00:04.748,-0.00550123397260904,0.00279511092230678,0.00427578296512365,0,
00:00:04.752,-0.00508667435497046,0.0062151700258255,0.0207048449665308,0,
00:00:04.756,-0.0164375677704811,0.00141981465276331,0.00885044597089291,0,
00:00:04.76,0.0045118792913854105,-0.0194211564958096,-0.0112296240404248,0,
00:00:04.764,0.0217305179685354,0.0222953595221043,-0.00913560949265957,0,
00:00:04.768,0.0157080572098494,-0.00337516190484166,0.00616773962974548,0,
00:00:04.772,0.00407547410577536,-0.0031621758826077,-0.0303108599036932,0,
00:00:04.776,-0.0166286770254374,-0.0030924656894058,0.0163682699203491,0,
00:00:04.78,-0.0259117856621742,-0.0040114913135767,0.0268829222768545,0,
00:00:04.784,-0.019254969432950002,-0.00247544981539249,0.000391396635677665,0,
00:00:04.788,0.0113408118486404,-0.0142161231487989,-0.0215334054082632,0,
00:00:04.792,0.0385334677994251,0.0412082187831402,0.00518580246716738,0,
00:00:04.796,0.0090266028419137,0.0136992326006293,-0.0110730677843094,0,
00:00:04.8,0.00874739047139883,-0.0378747694194317,-0.00554191367700696,0,
00:00:04.804,-0.019868915900588,-0.0126525312662125,0.00348062487319112,0,
00:00:04.808,-0.0361395254731178,0.00554095068946481,0.026671851053834,0,
00:00:04.812,-0.0068687042221427,0.00113886536564678,0.00590599654242396,0,
00:00:04.816,0.0108839897438884,0.0058971517719328395,-0.0169666390866041,0,
00:00:04.82,0.0258909706026316,0.0284383874386549,-0.00861492473632097,0,
00:00:04.824,-0.00291476980783045,-0.0147201810032129,-0.003970956895500421,0,
00:00:04.828,0.00973460264503956,-0.00956522207707167,-0.00216876599006355,0,
00:00:04.832,0.006769576109945771,-0.0021438412368297603,0.0170466993004084,0,
00:00:04.836,-0.0118280407041311,-0.00411257054656744,0.0058034616522491,0,
00:00:04.84,-0.0017109077889472198,0.00450893817469478,-0.0165310595184565,0,
00:00:04.844,-0.0109174493700266,0.0080895684659481,-0.0101694669574499,0,
00:00:04.848,-0.0210551600903273,-0.015427203848958,0.0243664029985666,0,
00:00:04.852,0.00833385810256004,0.00116064003668725,0.00720029370859265,0,
00:00:04.856,0.0288511551916599,0.0116175562143326,-0.00892368704080582,0,
00:00:04.86,0.0183336976915598,0.00437203235924244,-0.0194393824785948,0,
00:00:04.864,-0.0311990492045879,0.00918021611869335,-0.00227678148075938,0,
00:00:04.868,-0.0118486499413848,-0.0135229099541903,-0.0017003209795802801,0,
00:00:04.872,0.000145747588248923,-0.00535316905006766,0.015736261382699,0,
00:00:04.876,-0.00678013730794191,-0.00643698498606682,0.0153862535953522,0,
00:00:04.88,0.0367266796529293,-0.00681270193308592,-0.000572066637687385,0,
00:00:04.884,0.0167402885854244,0.0120988553389907,-0.008670301176607609,0,
00:00:04.888,-0.015842616558075,0.0122413272038102,-0.0129672596231103,0,
00:00:04.892,-0.0108211431652308,0.00453601079061627,-0.0068395733833313,0,
00:00:04.896,-0.0428470335900784,-0.0194968711584806,0.00939144473522902,0,
00:00:04.9,0.00682084169238806,0.00120886613149196,0.0082995668053627,0,
00:00:04.904,0.0283842701464891,0.000882683845702559,-0.00601603696122766,0,
00:00:04.908,-0.00520265242084861,0.0044869752600789105,0.007624778896570209,0,
00:00:04.912,0.0165449362248182,-0.00137606984935701,-0.0012564279604703199,0,
00:00:04.916,0.0149648347869515,0.00397914135828614,-0.0037349315825849798,0,
00:00:04.92,-0.0034751994535327,-0.000450623920187354,-0.00272997561842203,0,
00:00:04.924,-0.0231258720159531,0.00876269862055779,0.00552709959447384,0,
00:00:04.928,-0.0189852323383093,-0.00698685785755515,-0.0113165592774749,0,
00:00:04.932,0.0197717323899269,-0.0105696218088269,0.00235929805785418,0,
00:00:04.936,-0.00651912484318018,-0.0101699605584145,0.00129864236805588,0,
00:00:04.94,-0.0117598930373788,0.00239310623146594,0.0136418296024203,0,
00:00:04.944,0.0162670109421015,0.0245859753340483,0.0019030770054087,0,
00:00:04.948,0.0306698475033045,0.0144792720675468,-0.00599117856472731,0,
00:00:04.952,-0.0149191739037633,-0.0207142997533083,-0.0135775730013847,0,
00:00:04.956,-0.0167250782251358,-0.0169643834233284,-0.0336913280189037,0,
00:00:04.96,-0.0181388612836599,-0.0134161496534944,0.0465413741767406,0,
00:00:04.964,0.000770051730796695,0.012633983977139001,0.0354604981839657,0,
00:00:04.968,0.0425454825162888,0.0296642258763313,-0.0252009965479374,0,
00:00:04.972,0.00731652695685625,0.00847371201962233,-0.0241854004561901,0,
00:00:04.976,-0.0333963334560394,-0.0131709771230817,0.00188445346429944,0,
00:00:04.98,-0.007180867716670041,-0.0106603996828198,-0.0050442214123904705,0,
00:00:04.984,-0.00704832002520561,-0.0135366469621658,0.0017282410990446802,0,
00:00:04.988,-0.017927298322320002,-0.00706087332218885,0.0154139390215278,0,
00:00:04.992,0.0497664399445057,0.0183918457478285,-0.0048650810495019,0,
00:00:04.996,0.0411317311227322,0.0124296173453331,0.00725307082757354,0,
00:00:05,-0.0184282176196575,0.00029941130196675696,0.0086653595790267,0,
00:00:05.004,-0.041067473590374,-0.021489541977643998,-0.0159753374755383,0,
00:00:05.008,-0.0370064228773117,-0.00613024504855275,-0.00707954633980989,0,
00:00:05.012,-0.0158499628305435,0.009013260714709759,0.00829179584980011,0,
00:00:05.016,0.0288183055818081,0.004596491809934379,-0.00437472388148308,0,
00:00:05.02,0.0771306753158569,0.0344395264983177,-0.0006834106752648951,0,
00:00:05.024,0.0060540223494172105,-0.0110158491879702,-0.0108318785205483,0,
00:00:05.028,-0.0302933473140001,-0.0213120318949223,0.0119199408218265,0,
00:00:05.032,-0.0311780963093042,-0.0157070513814688,0.011195607483386999,0,
00:00:05.036,-0.0114151369780302,-0.008152093738317491,0.0008968655602075161,0,
00:00:05.04,-0.00914128217846155,0.0177633035928011,0.0127280140295625,0,
00:00:05.044,0.00887847691774368,0.0170078705996275,-0.0161325093358755,0,
00:00:05.048,-0.0133945755660534,-0.0208695903420448,-0.0385785102844238,0,
00:00:05.052,0.0501984544098377,0.0177020337432623,0.0165754668414593,0,
00:00:05.056,0.0360093750059605,0.00886276923120022,0.0118280574679375,0,
00:00:05.06,-0.0199640542268753,-0.0122599145397544,0.0154577661305666,0,
00:00:05.064,-0.0329622551798821,7.179281965363771e-05,0.019625099375844,0,
00:00:05.068,-0.0154125383123755,-0.0058817146345973,-0.0164861213415861,0,
00:00:05.072,-0.0265122335404158,-0.0167126674205065,-0.0137109095230699,0,
00:00:05.076,0.00488723674789071,0.011481761932373,-0.0196897424757481,0,
00:00:05.08,0.0469703935086727,0.022703655064106,-0.009805661626160141,0,
00:00:05.084,0.0207550413906574,-0.0160039644688368,0.0283791571855545,0,
00:00:05.088,-0.0117704011499882,-0.0115186832845211,0.0169239155948162,0,
00:00:05.092,-0.0241530276834965,0.0179818235337734,-0.0019232489867135898,0,
00:00:05.096,-0.0260450262576342,0.00724878814071417,-0.0219924934208393,0,
00:00:05.1,0.0248586907982826,-0.0147966500371695,-0.000865440932102501,0,
00:00:05.104,0.0109648937359452,-0.0135431531816721,0.008014176972210409,0,
00:00:05.108,0.0134481489658356,0.0131933148950338,-0.00102017633616924,0,
00:00:05.112,0.00947440043091774,0.00414843065664172,0.00612651044502854,0,
00:00:05.116,-0.0145857939496636,0.00461101345717907,5.52352285012603e-05,0,
00:00:05.12,-0.0361729972064495,0.009759446606040001,-0.00264521571807563,0,
00:00:05.124,-0.0187568161636591,-0.036811426281929,0.00148356647696346,0,
00:00:05.128,0.009314099326729771,0.0217745434492826,0.00299576623365283,0,
00:00:05.132,0.0521518178284168,0.00941428728401661,-0.0298095960170031,0,
00:00:05.136,0.0195625331252813,-0.0301499310880899,0.00550625659525394,0,
00:00:05.14,-0.0337683670222759,0.0112872999161482,0.028890710324049,0,
00:00:05.144,-0.0116514842957258,0.0208759922534227,0.0253195371478796,0,
00:00:05.148,0.0135538950562477,-0.00700826244428754,-0.0304764602333307,0,
00:00:05.152,-0.0109111620113254,-0.0109420772641897,-0.0311347544193268,0,
00:00:05.156,-0.00631652772426605,0.0115692559629679,0.00420994544401765,0,
00:00:05.16,0.008917766623198991,0.0044821570627391295,0.0304839629679918,0,
00:00:05.164,-0.0053306785412132705,-0.0239170901477337,0.0032047622371465,0,
00:00:05.168,-0.0038643253501504703,-0.0114654516801238,-0.0131255127489567,0,
00:00:05.172,0.00556012568995357,0.028775293380022004,0.00296346447430551,0,
00:00:05.176,0.0173129197210073,0.0109374513849616,-0.00447436701506376,0,
00:00:05.18,-0.00615943688899279,0.0113276271149516,0.00582142965868115,0,
00:00:05.184,-0.023038087412715,-0.0393412262201309,0.00137894332874566,0,
00:00:05.188,0.0330134816467762,-0.00534636899828911,-0.0221672616899014,0,
00:00:05.192,-0.00290807615965605,0.00665617501363158,0.0028642409015446897,0,
00:00:05.196,-0.0383083336055279,0.00781380012631416,0.0283247958868742,0,
00:00:05.2,0.00972047634422779,0.0213500093668699,0.00408221827819943,0,
00:00:05.204,0.0236468650400639,-3.42808380082715e-05,-0.0220398716628551,0,
00:00:05.208,0.0175502896308899,-0.0237761233001947,-0.0142734069377184,0,
00:00:05.212,-0.0115586146712303,0.00232467870227993,0.00459206756204367,0,
00:00:05.216,-0.0429297871887684,-0.0103318803012371,0.0241398401558399,0,
00:00:05.22,-0.0103633021935821,0.0036987301427871,0.00366354361176491,0,
00:00:05.224,0.0402570404112339,0.0107975490391254,-0.00864989869296551,0,
00:00:05.228,0.0217384267598391,-0.00553949503228068,0.00419631926342845,0,
00:00:05.232,-0.0030106769409030698,0.0124605176970363,-0.0173008684068918,0,
00:00:05.236,-0.0195685531944036,0.0229302123188972,-0.0109783606603742,0,
00:00:05.24,2.4150851913873297e-06,-0.0149481054395437,0.01172308716923,0,
00:00:05.244,-0.0106877759099007,-0.0333121903240681,0.0156133761629462,0,
00:00:05.248,-0.009826868772506709,-0.0161014925688505,-0.00629967171698809,0,
00:00:05.252,0.0166644360870123,0.0136562371626496,-0.00198153895325959,0,
00:00:05.256,0.0148105537518859,0.0418355762958527,0.011989158578217,0,
00:00:05.26,-0.0128633584827185,0.0149680031463504,-0.0140652535483241,0,
00:00:05.264,0.00014564432785846298,-0.0232074428349733,-0.022552628070116,0,
00:00:05.268,-0.00398016627877951,-0.0275640580803156,0.0121838003396988,0,
00:00:05.272,0.0210793316364288,-0.0116678765043616,0.0186221282929182,0,
00:00:05.276,-0.00995617546141148,0.0129645792767406,0.0102904681116343,0,
00:00:05.28,-0.0208356138318777,0.006701478268951179,0.0138142732903361,0,
00:00:05.284,0.000978119438514113,0.0154862385243177,-0.0420386008918285,0,
00:00:05.288,0.0173577796667814,0.0165292285382748,-0.0166965574026108,0,
00:00:05.292,0.00838362146168947,-0.0222643241286278,0.0173904784023762,0,
00:00:05.296,-0.0195904951542616,-0.0212234519422054,0.0233591720461845,0,
00:00:05.3,-0.000601685547735542,0.0084259919822216,-0.008315344341099259,0,
00:00:05.304,0.0183652024716139,0.0263728350400925,-0.00273448089137673,0,
00:00:05.308,-0.0046901227906346295,-0.0125352256000042,-0.00335997203364968,0,
00:00:05.312,-0.0101863872259855,-0.0108923744410276,0.00932936742901802,0,
00:00:05.316,0.0126002579927444,-0.00460842298343778,-0.0027311586309224397,0,
00:00:05.32,-0.0362447164952755,0.00149225280620158,-0.0125914067029953,0,
00:00:05.324,0.00521323038265109,0.0192029289901257,-0.0067925117909908295,0,
00:00:05.328,0.0450426749885082,0.00120279553811997,0.00591146014630795,0,
00:00:05.332,0.009053630754351621,-0.00414430210366845,0.00267229764722288,0,
00:00:05.336,-0.0057430546730756794,-0.0104062799364328,0.0282936301082373,0,
00:00:05.34,-0.0520040243864059,0.00548700476065278,0.0045842602849006705,0,
00:00:05.344,0.00276702386327088,-0.0228140819817781,-0.0497110635042191,0,
00:00:05.348,0.0189585853368044,0.0144449342042208,0.0111524956300855,0,
00:00:05.352,-0.00411959690973163,0.0212250836193562,0.00839825253933668,0,
00:00:05.356,0.0175512451678514,-0.00170030328445137,-0.00132155581377447,0,
00:00:05.36,0.0019628305453807103,-0.0220411401242018,0.0157793164253235,0,
00:00:05.364,-0.017418559640645998,-0.0044785519130528,-0.00165674090385437,0,
00:00:05.368,0.0227230060845613,0.0397505760192871,-0.0283683687448502,0,
00:00:05.372,-0.0114069553092122,-0.0186828766018152,0.00935662910342216,0,
00:00:05.376,0.00185111328028142,-0.0165978856384754,0.0223732385784388,0,
00:00:05.38,-0.0402329228818417,-0.0135641470551491,0.0107694994658232,0,
00:00:05.384,0.008125064894557,0.0036902020219713397,-0.0205446369946003,0,
00:00:05.388,0.0376481711864471,0.0199387893080711,-0.0165840927511454,0,
00:00:05.392,0.00759651092812419,0.0152395451441407,-0.0010304894531145698,0,
00:00:05.396,0.0035432267468422703,-0.000832870835438371,0.000561513414140791,0,
00:00:05.4,-0.0115581750869751,-0.00635592639446259,0.0218383371829987,0,
00:00:05.404,-0.0126090571284294,-0.0125659024342895,-0.00889341719448566,0,
00:00:05.408,-0.00899593904614449,-0.0187678840011358,-0.00804500468075275,0,
00:00:05.412,-0.00886576995253563,0.0151244616135955,0.052201934158802005,0,
00:00:05.416,0.0170492902398109,0.0399459414184093,-0.0271641574800015,0,
00:00:05.42,-0.0184750612825155,-0.0192586239427328,-0.0365161076188087,0,
00:00:05.424,-0.008572748862206941,-0.0426697283983231,-0.0140013005584478,0,
00:00:05.428,0.0413531288504601,-0.0019126946572214398,0.0145979011431336,0,
00:00:05.432,0.0173710640519857,0.0522659383714199,0.0161645337939262,0,
00:00:05.436,0.00288728112354875,-0.00744921481236815,0.0166846755892038,0,
00:00:05.44,-0.017503634095192,-0.0015346036525443198,-0.01761738024652,0,
00:00:05.444,-0.02679836563766,-0.0105501879006624,0.0331671051681042,0,
00:00:05.448,-0.0289113447070122,-0.027343962341547002,0.0158271007239819,0,
00:00:05.452,0.0217264071106911,0.0109430709853768,-0.0425723679363728,0,
00:00:05.456,0.0271950475871563,0.0232090428471565,-0.0299621745944023,0,
00:00:05.46,0.00282558565959334,0.00530496006831527,-0.0060855993069708295,0,
00:00:05.464,-0.000659277895465493,-0.0114133413881063,0.00939952488988638,0,
00:00:05.468,-0.0088948393240571,-0.00190047803334892,0.0333824642002583,0,
00:00:05.472,0.0210637133568525,0.00369216990657151,0.0128883495926857,0,
00:00:05.476,-0.00985946599394083,-0.0234748814254999,-0.00824497640132904,0,
00:00:05.48,-0.0492575578391552,0.00117594958283007,-0.007441386580467221,0,
00:00:05.484,-0.00281413784250617,0.0467078909277916,-0.00267200428061187,0,
00:00:05.488,0.014271654188633002,-0.00214736815541983,-0.0123709086328745,0,
00:00:05.492,0.0511445216834545,-0.0303672309964895,-0.0127013027667999,0,
00:00:05.496,0.0184140540659428,-0.0177062582224607,0.0309447422623634,0,
00:00:05.5,-0.00757667468860745,-0.0110037727281451,0.00895175244659185,0,
00:00:05.504,-0.0465848036110401,0.0301846694201231,-0.0324353985488415,0,
00:00:05.508,-0.0115229273214936,0.0431804955005646,-0.0134514197707176,0,
00:00:05.512,-0.0188096463680267,-0.0273914840072393,0.0268115010112524,0,
00:00:05.516,0.00328712142072618,-0.0316914841532707,0.0303040705621243,0,
00:00:05.52,0.0530254431068897,0.0215713195502758,-0.0163937266916037,0,
00:00:05.524,0.0187862906605005,0.000709194864612073,-0.0209775883704424,0,
00:00:05.528,-0.0126153202727437,-0.0158754158765078,-0.000899216742254794,0,
00:00:05.532,0.0013726991601288301,0.00175657379440963,0.0033704643137753,0,
00:00:05.536,-0.0181312337517738,-0.0026608321350067897,0.0129872588440776,0,
00:00:05.54,-0.0416337735950947,0.0057845232076942895,0.0141510041430593,0,
00:00:05.544,-0.0242439601570368,0.0451239347457886,-0.0253897849470377,0,
00:00:05.548,0.0417128428816795,-0.0160213392227888,-0.008155884221196171,0,
00:00:05.552,0.056316789239645,-0.0321705900132656,-0.00209738523699343,0,
00:00:05.556,0.00428802566602826,-0.0101482588797808,0.0014503977727145,0,
00:00:05.56,-0.0321244858205318,0.007531322538852691,0.0224777963012457,0,
00:00:05.564,-0.0205990690737963,0.0131319649517536,-0.0007863990031182769,0,
00:00:05.568,0.00253177783451974,0.00517265219241381,-0.00631084851920605,0,
00:00:05.572,0.0111976796761155,0.0102447476238012,-0.0065368725918233395,0,
00:00:05.576,-0.0102193243801594,-0.02077398262918,0.00503683090209961,0,
00:00:05.58,-0.0057267751544714,-0.0134367290884256,0.0092195114120841,0,
00:00:05.584,-0.00939012598246336,0.0139206983149052,-0.0071299350820481795,0,
00:00:05.588,0.0109031992033124,0.0273561161011457,-0.0247077122330666,0,
00:00:05.592,0.0323419310152531,-0.00851741526275873,0.0188898388296366,0,
00:00:05.596,-0.010244132950902,-0.0302603058516979,0.0130582097917795,0,
00:00:05.6,0.0101720811799169,0.008561885915696621,-0.0119056366384029,0,
00:00:05.604,-0.0194573812186718,0.0007310868240892889,-0.009646374732255941,0,
00:00:05.608,-0.018970925360918,0.000537138141226023,0.00574632454663515,0,
00:00:05.612,0.0166632756590843,0.0249680876731873,0.0268054585903883,0,
00:00:05.616,0.0192971713840961,-0.00644624931737781,-0.0135497990995646,0,
00:00:05.62,-0.00967074371874332,-0.0131991663947701,-0.0215401370078325,0,
00:00:05.624,-0.0232084020972252,-0.0164569951593876,0.0114290015771985,0,
00:00:05.628,-0.0105965482071042,-0.0032015515025705103,0.0053603807464242,0,
00:00:05.632,-0.0160539969801903,0.0184250697493553,0.0122248260304332,0,
00:00:05.636,0.0423982106149197,0.0200451761484146,-0.0249469708651304,0,
00:00:05.64,0.0426805093884468,0.00471167592331767,-0.0148815056309104,0,
00:00:05.644,-0.0267371721565723,-0.024884132668376,0.0160199888050556,0,
00:00:05.648,-0.0171331632882357,-0.0111042484641075,0.026639848947525,0,
00:00:05.652,-0.00163081020582467,-0.004928526468575,-0.00820466410368681,0,
00:00:05.656,-0.000401141820475459,0.00479575898498297,-0.0119371805340052,0,
00:00:05.66,-0.013930338434875,0.0259439311921597,-0.00306094600819051,0,
00:00:05.664,0.0126238977536559,0.0315377004444599,0.0037123104557395,0,
00:00:05.668,0.00782492570579052,-0.0327503904700279,-0.001245187362656,0,
00:00:05.672,-0.007689909078180791,-0.028699504211545,0.0126225538551807,0,
00:00:05.676,0.000230012330575846,-0.00626959279179573,0.00239615351893008,0,
00:00:05.68,0.0294734332710505,-0.00844441074877977,-0.0218786764889956,0,
00:00:05.684,-0.0322046652436256,0.0300769917666912,-0.00597653444856405,0,
00:00:05.688,-0.0360278412699699,0.0179141070693731,0.007508430164307359,0,
00:00:05.692,0.0293035451322794,-0.00372406677342951,0.00480188801884651,0,
00:00:05.696,0.0163460839539766,0.00270512141287327,0.00251508317887783,0,
00:00:05.7,0.0157611109316349,-0.00868045352399349,0.0029697259888052897,0,
00:00:05.704,0.00701785599812865,-0.00727825472131372,0.018749862909317,0,
00:00:05.708,-0.00987368822097778,-0.00461734179407358,0.00313641293905675,0,
00:00:05.712,-0.0146678211167455,-0.00527708139270544,-0.0302677340805531,0,
00:00:05.716,-0.0333540178835392,-0.000629802874755114,-0.0182090308517218,0,
00:00:05.72,-0.00844130758196115,0.00785056129097939,0.0059777749702334395,0,
00:00:05.724,0.0526453293859959,0.0178715884685516,0.0258378442376852,0,
00:00:05.728,0.012036700733006,0.00366910779848695,-0.0119368452578783,0,
00:00:05.732,-0.0267752967774868,-0.0295532289892435,0.0056123984977603,0,
00:00:05.736,-0.007726897951215509,-0.0128291193395853,-0.0052109113894403,0,
00:00:05.74,-0.00554335629567504,0.0328206866979599,0.00776254804804921,0,
00:00:05.744,0.0280841812491417,0.0112053798511624,0.0044762250036001205,0,
00:00:05.748,0.00709528941661119,-0.0125053552910686,-0.00579258380457759,0,
00:00:05.752,-0.0218289326876402,-0.0188842508941889,0.00948373787105083,0,
00:00:05.756,-0.0143203372135758,-0.000825632363557816,-0.00478870002552867,0,
00:00:05.76,0.012724001891911002,0.0218292996287346,-0.0199432652443647,0,
00:00:05.764,-0.00709096807986498,-0.00425745360553265,-0.0134698003530502,0,
00:00:05.768,-0.00062318576965481,-0.0138726765289903,0.0249018557369709,0,
00:00:05.772,0.0360796749591827,0.000764994008932263,-0.00350568583235145,0,
00:00:05.776,-0.0110501991584897,0.010532908141613001,0.00961843878030777,0,
00:00:05.78,-0.0263666696846485,-0.000506211072206497,0.0204318687319756,0,
00:00:05.784,-0.009496571496129041,-0.0055562751367688205,-0.0130213499069214,0,
00:00:05.788,0.0115603525191545,0.0163735412061214,-0.0314071513712406,0,
00:00:05.792,0.0178440175950527,-0.00782883260399103,0.00758091546595097,0,
00:00:05.796,0.0175287295132875,0.0034963900689035697,0.0169036630541086,0,
00:00:05.8,-0.0198757760226727,-0.008467391133308409,0.00818230677396059,0,
00:00:05.804,-0.0211181901395321,-0.0216869357973337,-0.0063807824626565,0,
00:00:05.808,0.0109413350000978,0.0123023698106408,-0.0221399161964655,0,
00:00:05.812,0.0247655399143696,0.0123900109902024,-0.0024378439411521,0,
00:00:05.816,-0.0103135881945491,0.011776932515204,0.00895548518747091,0,
00:00:05.82,-0.0408668667078018,0.00133100303355604,0.008427205495536329,0,
00:00:05.824,0.013418341986834998,-0.0233443919569254,0.00800343509763479,0,
00:00:05.828,0.0270739905536175,-0.00324692064896226,0.0165043566375971,0,
00:00:05.832,-0.0040248166769743,-0.00360479252412915,-0.0170342512428761,0,
00:00:05.836,-0.0131675582379103,0.00921615865081549,-0.0206980388611555,0,
00:00:05.84,0.0206151269376278,0.0260510761290789,-0.00124032632447779,0,
00:00:05.844,0.005795166362077,-0.0178987737745047,-0.0006787118036299941,0,
00:00:05.848,-0.0337949134409428,-0.0126093067228794,0.0222305133938789,0,
00:00:05.852,-0.0039129341021180205,0.0138520011678338,0.0194810479879379,0,
00:00:05.856,0.0207592528313398,-0.00112539005931467,-0.0159371457993984,0,
00:00:05.86,0.0204485524445772,0.0061888350173831,-0.0282084904611111,0,
00:00:05.864,-0.0260955840349197,-0.0391762927174568,0.0129470182582736,0,
00:00:05.868,-0.0141601674258709,0.0218920577317476,-0.00713705504313111,0,
00:00:05.872,-0.00504100881516933,0.00989638548344374,0.0017596393590793,0,
00:00:05.876,0.0403860472142696,0.0232112556695938,0.0285183638334274,0,
00:00:05.88,0.00133664230816066,0.005939626600593329,-0.010235033929348,0,
00:00:05.884,-0.00937496405094862,-0.036101795732975,-0.0151274250820279,0,
00:00:05.888,-0.00808399263769388,-0.0140617238357663,0.00579443667083979,0,
00:00:05.892,-0.00564053701236844,-0.0105399871245027,0.000982013414613903,0,
00:00:05.896,0.0165813788771629,0.0147188203409314,0.0016086930409073801,0,
00:00:05.9,-0.0126313650980592,0.0391622520983219,0.0121639305725694,0,
00:00:05.904,-0.0099435281008482,0.0052000009454786795,-0.027859702706337003,0,
00:00:05.908,-0.016599802300334,-0.0361176356673241,-0.0119166783988476,0,
00:00:05.912,-0.0111495982855558,-0.0216440670192242,0.0320556946098804,0,
00:00:05.916,0.0555878728628159,0.0210971273481846,0.00193698925431818,0,
00:00:05.92,0.0106299947947264,0.0167703200131655,0.00777323869988322,0,
00:00:05.924,-0.00618912233039737,0.00199868227355182,-0.00873694010078907,0,
00:00:05.928,-0.0163544956594706,0.000867218594066799,-0.0203884243965149,0,
00:00:05.932,0.00380541337653995,-0.0123188532888889,0.00921597331762314,0,
00:00:05.936,-0.0305993165820837,-0.0170966889709234,0.0112053072080016,0,
00:00:05.94,-0.0152447111904621,-0.0015378243988379801,-0.00882318615913391,0,
00:00:05.944,0.0281854961067438,0.0248127449303865,-0.0039060784038156297,0,
00:00:05.948,0.0240052528679371,0.0252974312752485,0.007500023581087591,0,
00:00:05.952,-0.00648657791316509,-0.0281208418309689,0.007950693368911741,0,
00:00:05.956,-0.004377791192382571,-0.0326835550367832,-0.0118763847276568,0,
00:00:05.96,0.0138990664854646,0.0117489984259009,-0.0118305282667279,0,
00:00:05.964,0.0137668866664171,0.0174130406230688,0.000797713990323246,0,
00:00:05.968,-0.0373343229293823,0.00876593682914972,0.01723537966609,0,
00:00:05.972,-0.0384849458932877,0.0450488552451134,0.0136881805956364,0,
00:00:05.976,-0.00112901977263391,-0.0404879450798035,-0.00567462015897036,0,
00:00:05.98,0.0354678630828857,-0.0492476671934128,-0.0172266121953726,0,
00:00:05.984,0.035005196928978,-0.000517954176757485,-0.00601595966145396,0,
00:00:05.988,0.010564599186182,0.0375007651746273,0.00485902838408947,0,
00:00:05.992,-0.012855670414865001,0.0009770930046215651,0.00830176472663879,0,
00:00:05.996,-0.0272237472236156,-0.00494114123284817,0.0035415100865066104,0,
00:00:06,-0.0201278235763311,0.00295883999206126,0.004861543420702221,0,
00:00:06.004,0.0119910920038819,0.0006088860682211821,-0.0259968098253012,0,
00:00:06.008,-0.0036416347138583703,0.0353942587971687,-0.00448175985366106,0,
00:00:06.012,0.0184891186654568,-0.0149127831682563,0.0233556367456913,0,
00:00:06.016,0.00264260591939092,-0.033375721424818,-0.00017336341261398,0,
00:00:06.02,-0.00608310988172889,-0.0153625840321183,0.0250461138784885,0,
00:00:06.024,0.0142246736213565,0.00537006789818406,0.0019874416757375,0,
00:00:06.028,-0.0139957228675485,0.0151438340544701,-0.0286634042859077,0,
00:00:06.032,-0.012232281267643001,0.0218077972531319,-0.0302998274564743,0,
00:00:06.036,0.0209546834230423,0.0105493199080229,-0.0130929825827479,0,
00:00:06.04,-0.00964462012052536,-0.030247688293457,0.0291306674480438,0,
00:00:06.044,-0.0141835892572999,0.00425685942173004,0.0264881625771523,0,
00:00:06.048,0.0212467294186354,-0.000764482480008155,0.00265432242304087,0,
00:00:06.052,0.0053688841871917204,-0.0033256311435252398,0.0019264742732048,0,
00:00:06.056,0.00147769355680794,0.0102127017453313,-0.008962420746684071,0,
00:00:06.06,-0.0298850387334824,-0.0114780012518167,-0.00878740288317204,0,
00:00:06.064,0.008041607216000559,-0.0033069287892431,-0.019017405807972,0,
00:00:06.068,0.015917394310236,0.0186433121562004,0.00525137456133962,0,
00:00:06.072,-0.00370785989798605,-0.00548596167936921,0.0131023013964295,0,
00:00:06.076,-0.0017748747486621102,0.00109249411616474,-0.000707626924850047,0,
00:00:06.08,-0.0206993389874697,-0.0162268225103617,0.00801711995154619,0,
00:00:06.084,0.0202205050736666,0.005744458176195621,0.00445220666006207,0,
00:00:06.088,0.0142936706542969,0.0120937554165721,-0.0120764952152967,0,
00:00:06.092,-0.0156219098716974,-0.00695076817646623,-0.0016619875095784699,0,
00:00:06.096,-0.008641985245049,-0.00497121270745993,-0.00156778516247869,0,
00:00:06.1,-0.00324227870441973,0.00302190333604813,0.0022688580211252,0,
00:00:06.104,0.0117760496214032,0.00831488706171513,-0.00462980242446065,0,
00:00:06.108,0.0295404139906168,0.00434052105993032,0.0081633199006319,0,
00:00:06.112,-0.014471928589046001,-0.013782967813313,-0.00598198035731912,0,
00:00:06.116,-0.0328947454690933,-0.00105837918817997,0.010305748321116,0,
00:00:06.12,0.00366926589049399,0.008912343531847,-0.00446664681658149,0,
00:00:06.124,0.007220698986202479,-0.00983262155205011,-0.0048250099644064895,0,
00:00:06.128,-0.0012691899901256,0.0038709316868335,0.0071944217197597,0,
00:00:06.132,0.0182889420539141,-6.0957070672884604e-05,8.96807687240653e-05,0,
00:00:06.136,-0.0007000140030868349,-0.00366663211025298,-0.00379931181669235,0,
00:00:06.14,-0.008001189678907391,0.00730399740859866,-0.0162135604768991,0,
00:00:06.144,0.00767992762848735,0.00247518136166036,0.00612102495506406,0,
00:00:06.148,0.00260262307710946,0.00951465778052807,0.00412737904116511,0,
00:00:06.152,-0.0398912169039249,-0.0100079113617539,0.0140559636056423,0,
00:00:06.156,-0.000564117857720703,-0.00383675168268383,-0.0009461533045396211,0,
00:00:06.16,0.0588101781904697,-0.0030658391769975398,0.007809716742485759,0,
00:00:06.164,0.0131464013829827,-0.0186759624630213,-0.0153969312086701,0,
00:00:06.168,-0.0578931905329227,0.0009949484374374151,-0.00907421018928289,0,
00:00:06.172,-0.0199074018746614,0.0449204631149769,0.00562660675495863,0,
00:00:06.176,0.0268751420080662,-0.0153610575944185,0.00270801992155612,0,
00:00:06.18,0.0218534152954817,-0.0133999735116959,-0.00781267695128918,0,
00:00:06.184,-0.00853519700467587,-0.0118830474093556,0.00536414002999663,0,
00:00:06.188,-0.0154011379927397,0.0156169198453426,0.0101488633081317,0,
00:00:06.192,-0.00434333924204111,0.0267317090183496,0.00236395909450948,0,
00:00:06.196,0.0223674494773149,-0.0168274361640215,-0.010699593462049998,0,
00:00:06.2,0.0200567469000816,-0.0180247463285923,-0.0045059169642627205,0,
00:00:06.204,-0.00355805899016559,0.0004755649715662,0.0006108077941462401,0,
00:00:06.208,-0.0137007385492325,0.0112580144777894,0.00086703069973737,0,
00:00:06.212,-0.052354883402586004,-0.00838448200374842,0.00476170470938087,0,
00:00:06.216,-0.00025195558555424197,-0.00610305042937398,-0.0011506696464493901,0,
00:00:06.22,0.0482948608696461,0.013762841001153,0.0102287027984858,0,
00:00:06.224,0.0062602828256785896,-0.0101261716336012,0.0059254877269268,0,
00:00:06.228,-0.0009275239426642661,0.00628425879403949,-0.0269107148051262,0,
00:00:06.232,0.00778473587706685,0.0389435775578022,-0.00598788540810347,0,
00:00:06.236,-0.0253222920000553,-0.0204174909740686,0.0219056122004986,0,
00:00:06.24,-0.00548456283286214,-0.0284186974167824,-0.009527923539280891,0,
00:00:06.244,0.00840443093329668,-0.0179497171193361,0.00126946379896253,0,
00:00:06.248,-0.0122033106163144,0.0152272619307041,0.0152434958145022,0,
00:00:06.252,0.0187643729150295,0.0177185032516718,0.0060923658311367,0,
00:00:06.256,0.0287710893899202,0.00624987669289112,-0.0174993202090263,0,
00:00:06.26,-0.00703825894743204,-0.0055534187704324705,-0.00624547433108091,0,
00:00:06.264,-0.0531941615045071,-0.00480066007003188,-0.0006371442577801639,0,
00:00:06.268,-0.00538242654874921,-0.00327581143938005,-0.0209029540419579,0,
00:00:06.272,0.029908362776041,0.0281001273542643,0.0221985504031181,0,
00:00:06.276,0.0263314191251993,-0.0141595276072621,0.0178690850734711,0,
00:00:06.28,-0.012884889729321001,-0.0224920734763145,0.00850748270750046,0,
00:00:06.284,-0.0300221163779497,-0.0141820479184389,-0.0119690299034119,0,
00:00:06.288,0.0141867166385055,0.0121263759210706,-0.0125216552987695,0,
