Elapsed Time,EMG1,EMG2,EMG3,BioRadio Event,Unnamed: 5
00:00:00,0.462898969650269,-2.10899257659912,1.4779554605484,0,
00:00:00.004,-0.44049689173698403,2.00070023536682,-1.41265690326691,0,
00:00:00.008,-0.36617559194564797,1.6721658706665001,-1.16320860385895,0,
00:00:00.012,-0.0394795723259449,0.190924078226089,-0.127352580428123,0,
00:00:00.016,0.187929928302765,-0.860072135925293,0.6106360554695129,0,
00:00:00.02,0.237465277314186,-1.0415077209472698,0.723894596099854,0,
00:00:00.024,0.124411419034004,-0.649216890335083,0.44074872136116,0,
00:00:00.028,0.00916599109768867,-0.0951841101050377,0.0724277943372726,0,
00:00:00.032,-0.0430806688964367,0.309460282325745,-0.21269708871841397,0,
00:00:00.036,-0.0764171779155731,0.423848330974579,-0.30086562037467995,0,
00:00:00.04,-0.0947010815143585,0.31756591796875,-0.221765339374542,0,
00:00:00.044,-0.0217312183231115,0.11415176093578301,-0.0864719673991203,0,
00:00:00.048,0.00520949345082045,-0.0580987334251404,0.0446720793843269,0,
00:00:00.052,0.0344030372798443,-0.122058138251305,0.0919596552848816,0,
00:00:00.056,0.027282252907753,-0.0934424921870232,0.0800910815596581,0,
00:00:00.06,0.0181415248662233,-0.06238081306219099,0.0368765369057655,0,
00:00:00.064,-0.0117640886455774,-0.0248501803725958,0.000324916181853041,0,
00:00:00.068,-0.007481313310563559,0.0173275638371706,-0.0249990876764059,0,
00:00:00.072,-0.00796500407159328,0.0406061708927155,-0.0293476451188326,0,
00:00:00.076,-0.022433202713727996,0.0524890720844269,-0.00621962919831276,0,
00:00:00.08,0.0225350335240364,0.0288027618080378,-0.00527639500796795,0,
00:00:00.084,0.0137300733476877,-0.0206386838108301,-0.00241755344904959,0,
00:00:00.088,-0.000822970294393599,-0.0326170511543751,0.0037639164365828,0,
00:00:00.092,-0.00638728821650147,-0.0152517184615135,0.00470158597454429,0,
00:00:00.096,-0.0017166448524221802,0.0109665580093861,0.00565314665436745,0,
00:00:00.1,-0.00873472075909376,0.0028417080175131603,0.0103355078026652,0,
00:00:00.104,-0.00508930860087276,-0.00540938833728433,-0.0026638472918421,0,
00:00:00.108,0.00931204203516245,0.00257776957005262,-0.0144609240815043,0,
00:00:00.112,0.0114609096199274,0.0201741680502892,0.007536416873335841,0,
00:00:00.116,-0.0027335393242538,-0.00124223390594125,0.00126215501222759,0,
00:00:00.12,-0.0125242918729782,-0.0162140186876059,0.00265025766566396,0,
00:00:00.124,0.0016516160685569,-0.0134033747017384,-0.00570106506347656,0,
00:00:00.128,0.0165748726576567,0.0029303824994713103,-0.00618518097326159,0,
00:00:00.132,-0.0221209693700075,0.0181658063083887,-0.0023378671612590603,0,
00:00:00.136,-0.00439761020243168,0.0151582267135382,0.008020513691008091,0,
00:00:00.14,0.0133487014099956,-0.010804352350533002,0.00626731757074595,0,
00:00:00.144,0.00142148684244603,-0.0216915477067232,0.00535422330722213,0,
00:00:00.148,0.0110108368098736,-0.00676212133839726,-0.0064467489719390895,0,
00:00:00.152,-0.00225237081758678,0.0135741056874394,-0.0129918279126287,0,
00:00:00.156,-0.008932646363973621,0.0101794386282563,0.00523144844919443,0,
00:00:00.16,-0.00156950729433447,0.0058710002340376394,0.00606141472235322,0,
00:00:00.164,-0.000354109331965446,0.00271336897276342,-0.000308109738398343,0,
00:00:00.168,0.00377579359337687,-0.00738084129989147,-0.00599088985472918,0,
00:00:00.172,-0.0103472983464599,-0.0127114932984114,-0.00142308452632278,0,
00:00:00.176,0.00291674747131765,-0.00486694043502212,0.0112312082201242,0,
00:00:00.18,-0.00310358125716448,0.00108272605575621,-0.0018535519484430601,0,
00:00:00.184,0.00873819645494223,0.0125865461304784,-0.004049079958349471,0,
00:00:00.188,0.0106538897380233,0.00919915828853846,0.00201909011229873,0,
00:00:00.192,-0.00123451615218073,-0.00700172036886215,-0.005866254679858679,0,
00:00:00.196,-0.0107536027207971,-0.0028975047171115897,0.0104016968980432,0,
00:00:00.2,-0.00218963483348489,4.6139353798935203e-05,-0.00521564949303865,0,
00:00:00.204,0.000497069384437054,-0.00748602394014597,-0.00771213555708528,0,
00:00:00.208,-0.0032004555687308303,-0.0022339855786413,-0.0014317744644358802,0,
00:00:00.212,-0.00154116842895746,0.00132609403226525,0.00374484597705305,0,
00:00:00.216,0.0075664515607059,0.0113463466987014,0.00496046245098114,0,
00:00:00.22,0.0178437456488609,0.00758254528045654,0.00731060467660427,0,
00:00:00.224,-0.0176089964807034,-0.0123368501663208,-0.0055729080922901604,0,
00:00:00.228,-0.0109168021008372,-0.0076993722468614596,0.0013416357105597901,0,
00:00:00.232,0.00227758218534291,0.00101037148851901,-0.0047543649561703205,0,
00:00:00.236,0.0148714780807495,0.0180535949766636,-0.00300249503925443,0,
00:00:00.24,0.00966596510261297,0.014113993383943998,0.00646559940651059,0,
00:00:00.244,-0.0209769979119301,-0.0212174244225025,0.000346921820892021,0,
00:00:00.248,-0.00169274944346398,-0.0222513321787119,-0.0108450511470437,0,
00:00:00.252,-0.0152735924348235,-0.00198708497919142,0.0033582104369998,0,
00:00:00.256,0.0164186675101519,0.0184519495815039,0.0055154534056782705,0,
00:00:00.26,0.0258363522589207,0.00608245888724923,-0.00757012283429503,0,
00:00:00.264,0.0109556224197149,0.0047593968920409705,0.019906397908926003,0,
00:00:00.268,-0.0559528842568398,-0.0116636166349053,-0.00575716840103269,0,
00:00:00.272,0.00158131215721369,-0.005418729502707721,0.000940337602514774,0,
00:00:00.276,0.0242795906960964,0.00292628398165107,-0.0124135436490178,0,
00:00:00.28,0.0140540106222034,0.0124488631263375,-0.009376310743391509,0,
00:00:00.284,-0.0031728798057884,0.0174066461622715,0.000999006093479693,0,
00:00:00.288,-0.0073673524893820294,-0.0112544102594256,0.0032514960039407,0,
00:00:00.292,-0.013902897015214,-0.022924056276679,0.013649077154696002,0,
00:00:00.296,-0.00471231061965227,-0.0100973695516586,0.0115318046882749,0,
00:00:00.3,0.00853099953383207,0.00836399849504232,-0.005331773310899729,0,
00:00:00.304,0.00586697831749916,0.0109721329063177,-0.0094545865431428,0,
00:00:00.308,0.0027523790486156897,-0.00196292088367045,-0.0147757986560464,0,
00:00:00.312,-0.00202380167320371,0.0023268207442015396,0.0105172600597143,0,
00:00:00.316,-0.00159608677495271,0.00963784754276276,0.004697765223681929,0,
00:00:00.32,0.00806633662432432,0.00209702760912478,0.0006939478334970769,0,
00:00:00.324,-0.00531682465225458,-0.0030731128063052897,-0.00328332418575883,0,
00:00:00.328,-0.00804774835705757,-0.015377264469862,0.000514491111971438,0,
00:00:00.332,-0.000170917337527499,-0.00263343774713576,-0.00127769156824797,0,
00:00:00.336,0.00509828515350819,0.0036404018756002205,0.00415371637791395,0,
00:00:00.34,0.0051613375544548,0.00275587104260921,-0.00283386441878974,0,
00:00:00.344,-0.0124219506978989,0.00305621419101954,-0.00206791586242616,0,
00:00:00.348,0.00642450945451856,0.00853133946657181,-0.00182559562381357,0,
00:00:00.352,0.00619311677291989,0.00106891547329724,-0.000619396741967648,0,
00:00:00.356,0.00913631916046143,-0.0114949299022555,0.0174549724906683,0,
00:00:00.36,-0.0150899980217218,-0.0109389340505004,0.0046026613563299205,0,
00:00:00.364,-0.0188283026218414,0.00470422999933362,-0.0208887178450823,0,
00:00:00.368,0.0100883096456528,0.0123453252017498,-0.00638972921296954,0,
00:00:00.372,0.0132715292274952,0.00542696006596088,-0.0023742436897009602,0,
00:00:00.376,0.00831455178558826,-0.000272321805823594,0.004485331941396,0,
00:00:00.38,-0.00326634384691715,-0.0077404398471117,0.0113116409629583,0,
00:00:00.384,-0.00672130612656474,-0.0127332909032702,0.0035144907888025,0,
00:00:00.388,-0.00506973080337048,-0.00237537967041135,-0.0056608491577208,0,
00:00:00.392,-0.0016561895608902,0.004262587055563929,0.0005703548667952419,0,
00:00:00.396,0.00526748271659017,0.0269962139427662,0.00662739761173725,0,
00:00:00.4,-0.00169614236801863,0.0036748950369656103,-0.011049029417336001,0,
00:00:00.404,-0.00342532759532332,-0.0260909162461758,0.00371670932509005,0,
00:00:00.408,0.00252286437898874,-0.0126661136746407,-0.00636614905670285,0,
00:00:00.412,0.00322844716720283,0.00689871702343225,-0.00657009519636631,0,
00:00:00.416,0.00366135546937585,0.0144852958619595,0.0130088794976473,0,
00:00:00.42,-0.004324286244809629,0.00218772538937628,0.0062923436053097205,0,
00:00:00.424,0.00319881504401565,-0.00890443101525307,-0.00499387085437775,0,
00:00:00.428,-0.00587706733494997,0.00476257409900427,-0.0086989663541317,0,
00:00:00.432,-0.0031136926263570803,0.00105065770912915,0.00496798474341631,0,
00:00:00.436,0.0054427529685199295,0.000655716052278876,0.0152347031980753,0,
00:00:00.44,-0.000590692565310746,-0.00192029040772468,-0.0131530174985528,0,
00:00:00.444,0.00163372221868485,-0.0111736049875617,-0.00430183811113238,0,
00:00:00.448,-0.0012758212396875,-0.00237024622038007,-0.00030590989626944103,0,
00:00:00.452,0.0015018807025626302,0.012059548869728997,-0.007076904643327,0,
00:00:00.456,0.00263074715621769,0.020578395575285,0.00726677244529128,0,
00:00:00.46,-0.0027422767598182,-0.00950256921350956,0.00541289616376162,0,
00:00:00.464,-0.00496784597635269,-0.0227086618542671,0.0025858404114842398,0,
00:00:00.468,-0.00118901184760034,-0.00619814498350024,-0.00013064660015516002,0,
00:00:00.472,0.00629783654585481,0.0148317143321037,-0.0079791471362114,0,
00:00:00.476,0.0177917666733265,0.00659798318520188,0.0204949285835028,0,
00:00:00.48,-0.0169464610517025,0.0009452917147427801,-0.0122658768668771,0,
00:00:00.484,-0.031260721385479,-0.00194619712419808,-0.00890101213008165,0,
00:00:00.488,0.0114058321341872,-0.00459390971809626,-0.009691618382930759,0,
00:00:00.492,0.0196696203202009,-0.0059548569843173,0.007078974042087791,0,
00:00:00.496,0.0178137347102165,0.0112220784649253,0.0062432913109660105,0,
00:00:00.5,0.0008484736317768691,0.00778305996209383,0.0037186548579484203,0,
00:00:00.504,-0.0171827040612698,-0.0129318339750171,-0.00121801905333996,0,
00:00:00.508,-0.0129569210112095,-0.0105016902089119,-0.00331533281132579,0,
00:00:00.512,0.00134833913762122,0.00276654469780624,-0.00038449777639471,0,
00:00:00.516,0.00476652150973678,0.0221686959266663,0.00802738778293133,0,
00:00:00.52,-0.0005950163467787209,0.000588315597269684,0.0105662047863007,0,
00:00:00.524,0.0052181109786033604,-0.0173953417688608,-0.0116872685030103,0,
00:00:00.528,0.000806152820587158,-0.00728002842515707,-0.0204630084335804,0,
00:00:00.532,-0.000749426777474582,0.00221257121302187,-0.00487739127129316,0,
00:00:00.536,-0.0030102317687124,0.0104795303195715,0.0254648216068745,0,
00:00:00.54,-0.0006906584603711959,0.00983402226120234,0.0072332164272666,0,
00:00:00.544,0.0055127046070992895,-0.00477036461234093,-0.0124481460079551,0,
00:00:00.548,-0.0021470794454217,-0.0116723822429776,-0.009950680658221241,0,
00:00:00.552,-0.00016483706713188402,-0.00673329923301935,-0.00137711444403976,0,
00:00:00.556,0.0059453365392983,0.0026780946645885697,0.0234957654029131,0,
00:00:00.56,-0.0023785654921084603,0.0176854375749826,0.0113058490678668,0,
00:00:00.564,-0.0218958649784327,0.000577769707888365,-0.0219582989811897,0,
00:00:00.568,0.00779438205063343,-0.00557361170649529,-0.0119485948234797,0,
00:00:00.572,0.0142096756026149,-0.00937484577298164,0.0009614495211280881,0,
00:00:00.576,0.0103871375322342,0.00371571001596749,-0.0009209746494889259,0,
00:00:00.58,-0.00836699921637774,0.00383436190895736,0.00856714136898518,0,
00:00:00.584,-0.0137232709676027,-0.00351479207165539,0.0070403441786766096,0,
00:00:00.588,-0.000216948741581291,0.000258950953138992,-0.00220464449375868,0,
00:00:00.592,0.00653756782412529,-0.00293988129124045,-0.00235511944629252,0,
00:00:00.596,3.66990570910275e-06,0.00270068412646651,0.0139956884086132,0,
00:00:00.6,-0.00209282129071653,0.00953636411577463,-0.0049340152181685,0,
00:00:00.604,0.0153805995360017,0.0018468790221959398,-0.0125269433483481,0,
00:00:00.608,0.0012895925901830199,-0.0071289921179413795,-0.0136149395257235,0,
00:00:00.612,-0.0356272868812084,-0.0129743237048388,-0.000141461612656713,0,
00:00:00.616,0.0033810315653681803,0.00334909372031689,0.0218615047633648,0,
00:00:00.62,0.0237842779606581,0.00625296402722597,0.00282574398443103,0,
00:00:00.624,0.00821909215301275,-0.00257265265099704,-0.0058086896315217,0,
00:00:00.628,-0.00302647682838142,-0.00207859580405056,-0.00413052132353187,0,
00:00:00.632,-0.00317267165519297,-0.0012952918186783801,0.00156965991482139,0,
00:00:00.636,-0.0121562071144581,0.0211722981184721,0.00798155181109905,0,
00:00:00.64,-0.00174986536148936,0.0174821335822344,-0.00769062014296651,0,
00:00:00.644,0.00219035660848022,-0.0184547584503889,-0.00584808131679893,0,
00:00:00.648,0.0006916489801369611,-0.0366581231355667,-0.0042309947311878204,0,
00:00:00.652,0.00176573602948338,-0.0073762894608080404,0.0074903788045048705,0,
00:00:00.656,-0.00401581823825836,0.0107556935399771,0.0195727739483118,0,
00:00:00.66,0.0136840166524053,0.0238952673971653,-0.00322845834307373,0,
00:00:00.664,0.00142879562918097,0.0261171478778124,-0.0217136442661285,0,
00:00:00.668,-0.00489314086735249,-0.00810986757278442,-0.00137022801209241,0,
00:00:00.672,-0.00141889159567654,-0.0246005263179541,0.000944980711210519,0,
00:00:00.676,-0.0153361083939672,-0.0140148410573602,0.0045011006295681,0,
00:00:00.68,-0.00583270844072104,0.00266479793936014,0.0134182879701257,0,
00:00:00.684,0.0137564893811941,0.00478724949061871,0.00558525463566184,0,
00:00:00.688,0.0229570213705301,0.005474952980875971,-0.0223300792276859,0,
00:00:00.692,0.000462246331153438,0.0104798683896661,-0.00045420695096254295,0,
00:00:00.696,-0.0194244682788849,0.0127022732049227,0.00751176290214062,0,
00:00:00.7,-0.0161861963570118,-0.004159423988312479,0.00216775201261044,0,
00:00:00.704,0.0103375697508454,-0.0161329675465822,-0.00473381532356143,0,
00:00:00.708,0.0108182216063142,-0.0126755917444825,0.000551176082808524,0,
00:00:00.712,0.0033924013841897197,0.0008974853553809231,0.00225156196393073,0,
00:00:00.716,-0.00483170943334699,0.00688142562285066,0.00583490217104554,0,
00:00:00.72,-0.00696619460359216,0.00257363193668425,-0.00359477521851659,0,
00:00:00.724,-0.00414074631407857,0.00534796295687556,-0.0039663473144173605,0,
00:00:00.728,0.0125757977366447,-0.000973896298091859,-0.00553798628970981,0,
00:00:00.732,-0.00048873684136197,0.00794485583901405,0.0110621582716703,0,
00:00:00.736,-0.00780360493808985,0.00945879425853491,0.0032442486844956897,0,
00:00:00.74,0.00360346795059741,-0.0154056334868073,-0.00923635438084602,0,
00:00:00.744,0.0031092572025954697,-0.015648141503334,-0.00513129215687513,0,
00:00:00.748,-0.0042335451580584,-0.0077038421295583205,0.00758223049342632,0,
00:00:00.752,-0.00224835681729019,0.0142709454521537,-0.00342975463718176,0,
00:00:00.756,0.00930162146687508,0.0124484542757273,0.0052719046361744395,0,
00:00:00.76,-0.00751267885789275,-0.00475190952420235,0.0008905697613954539,0,
00:00:00.764,0.0015660042408853802,-0.0038743263576179704,-0.00949171185493469,0,
00:00:00.768,0.0038607669994235,0.0190557092428207,0.0042513688094914,0,
00:00:00.772,-0.0145336138084531,-0.00277938437648118,0.0261927917599678,0,
00:00:00.776,0.0110004507005215,-0.0162103660404682,-0.00323649123311043,0,
00:00:00.78,0.00644851941615343,-0.0168176405131817,-0.0336885675787926,0,
00:00:00.784,-0.00440096948295832,-0.0009739991510286929,-0.0182027481496334,0,
00:00:00.788,-0.00206760526634753,0.0104343667626381,0.0125519214197993,0,
00:00:00.792,0.0074674035422503905,0.0183707401156425,0.0208490751683712,0,
00:00:00.796,-0.0100977225229144,0.00948622915893793,0.0118585471063852,0,
00:00:00.8,-0.0209452770650387,-0.0144140208140016,-0.00604202365502715,0,
00:00:00.804,0.0254000797867775,-0.0111636323854327,-0.00710236886516213,0,
00:00:00.808,0.0132211949676275,0.0169864632189274,0.00518861738964915,0,
00:00:00.812,-0.014000223018228999,-0.00906575378030539,0.00496563734486699,0,
00:00:00.816,0.000740232062526047,-0.00894955825060606,-0.0145251955837011,0,
00:00:00.82,0.00731665175408125,0.0110500920563936,-0.00484303245320916,0,
00:00:00.824,-0.00945016741752625,-0.009651897475123409,0.00342768849804997,0,
00:00:00.828,-0.0117286155000329,-0.00649168854579329,-0.000229445795412175,0,
00:00:00.832,0.00523505313321948,0.0122279236093163,-0.00035663804737851,0,
00:00:00.836,0.0032096030190587,0.0113905631005764,0.00301174935884774,0,
00:00:00.84,0.0118337348103523,-0.0050730113871395605,0.0020436553750187198,0,
00:00:00.844,-0.00509160943329334,-0.0105691608041525,0.0108450623229146,0,
00:00:00.848,-0.0117208464071155,0.0074505144730210296,0.010475573129951999,0,
00:00:00.852,0.00873573590070009,0.0022733425721526103,-0.0201473012566566,0,
00:00:00.856,0.00280267326161265,-0.00836414564400911,-0.0108312936499715,0,
00:00:00.86,0.006060594227164979,0.000431711552664638,-0.00322069227695465,0,
00:00:00.864,0.0094038276001811,0.0025564851239323603,0.00658708531409502,0,
00:00:00.868,-0.0406756885349751,-0.00447800662368536,-0.000927508750464767,0,
00:00:00.872,0.007522279862314459,0.00623998045921326,0.0056321695446968105,0,
00:00:00.876,0.0138531727716327,0.0105182426050305,0.010520163923501998,0,
00:00:00.88,0.00429133232682943,0.00206083804368973,0.0220377705991268,0,
00:00:00.884,0.00489660399034619,-0.0262851025909185,-0.0215993579477072,0,
00:00:00.888,0.0036720831412822,-0.00663830759003758,-0.019221281632781004,0,
00:00:00.892,-0.00619044434279203,0.0184348449110985,-0.00864281691610813,0,
00:00:00.896,-0.00995011255145073,0.0125440564006567,0.00412276806309819,0,
00:00:00.9,-0.00467611290514469,0.00246399082243443,0.010092212818563,0,
00:00:00.904,0.00342025537975132,-0.0131368394941092,0.0150755094364285,0,
00:00:00.908,0.00657244771718979,-0.00745388260111213,-0.00410098349675536,0,
00:00:00.912,-0.00763962883502245,-0.00532759632915258,-0.00805483106523752,0,
00:00:00.916,0.00459880055859685,0.0025910823605954604,0.00774773024022579,0,
00:00:00.92,0.00742508471012115,0.008941723965108391,-0.0014733818825334302,0,
00:00:00.924,-0.00425507454201579,-0.00209770770743489,-0.0147470105439425,0,
00:00:00.928,-0.0032567521557211898,0.0006452542147599161,0.0190685726702213,0,
00:00:00.932,0.0105214919894934,0.0180677715688944,-0.00652877753600478,0,
00:00:00.936,-0.0016660294495523,0.0163964927196503,-0.00794387608766556,0,
00:00:00.94,-0.00609690323472023,-0.0217429511249065,-0.0019161358941346398,0,
00:00:00.944,-0.00906222872436047,-0.0378514230251312,0.007238135207444429,0,
00:00:00.948,-0.00171976117417216,-0.0104324705898762,0.000545098970178515,0,
00:00:00.952,0.00654107658192515,0.0208696108311415,-0.000213042527320795,0,
00:00:00.956,0.00405099475756288,0.0289829038083553,0.0044753747060895,0,
00:00:00.96,0.00440160604193807,0.0052979220636189,-0.0013458017492666802,0,
00:00:00.964,0.0131269646808505,-0.00821884628385305,-0.0133136678487062,0,
00:00:00.968,-0.0204248800873756,-0.00043648181599564905,0.00572193413972855,0,
00:00:00.972,-0.0195133462548256,-0.0061857164837419995,0.0200689155608416,0,
00:00:00.976,0.0218691304326057,-0.00654059369117022,-0.00457879947498441,0,
00:00:00.98,0.00490436796098948,-0.00749155320227146,-0.013126471079886001,0,
00:00:00.984,-0.00544659094884992,-0.0018544242484495,-0.0138846756890416,0,
00:00:00.988,0.0036428105086088202,0.00569615978747606,0.00403998186811805,0,
00:00:00.992,0.00807209964841604,0.0163103565573692,0.0117256594821811,0,
00:00:00.996,-0.00546076847240329,0.00584822567179799,0.0032910187728703,0,
00:00:01,-0.0224853996187449,-0.0112838307395577,0.000513441220391542,0,
00:00:01.004,0.0113504324108362,-0.00941844098269939,0.0160876978188753,0,
00:00:01.008,0.0115848537534475,-0.000233721453696489,-0.0147036472335458,0,
00:00:01.012,0.000481353752547875,0.0072689768858254,-0.0120376572012901,0,
00:00:01.016,-0.0064331106841564204,0.00320935831405222,-0.00373888178728521,0,
00:00:01.02,-0.00026694149710237996,-0.0036807304713875103,0.0029646975453943,0,
00:00:01.024,-0.00852928124368191,-0.00565644539892673,-0.0007508078706450759,0,
00:00:01.028,0.00283276219852269,-0.00532935140654445,0.00619184784591198,0,
00:00:01.032,0.00761951692402363,0.00450190203264356,0.00442353449761868,0,
00:00:01.036,-0.000399621203541756,0.00264136912301183,0.0112096937373281,0,
00:00:01.04,-0.005285151302814479,0.00407287525013089,0.0176825169473886,0,
00:00:01.044,0.0100291939452291,0.0118538234382868,-0.0295222140848637,0,
00:00:01.048,0.00197670538909733,0.0057991691865027,-0.0246545244008303,0,
00:00:01.052,-0.00397478556260467,-0.007114250678569079,0.0079276766628027,0,
00:00:01.056,-0.00323940301313996,-0.0144392568618059,0.00923441629856825,0,
00:00:01.06,-0.0156951118260622,-0.0176493544131517,0.00966926943510771,0,
00:00:01.064,-0.000492909573949873,-0.00135848601348698,0.00186922447755933,0,
00:00:01.068,0.0258861258625984,0.0276656914502382,-0.00779835740104318,0,
00:00:01.072,0.000563328212592751,-0.000478825939353555,-0.00476407911628485,0,
00:00:01.076,-0.0157807879149914,-0.007082575000822541,0.0110208280384541,0,
00:00:01.08,0.009790009818971159,-0.000103505059087183,0.0125468550249934,0,
00:00:01.084,-0.0140469139441848,0.00466331606730819,0.00477797910571098,0,
00:00:01.088,0.0030469696503132603,0.00011274953430984199,-0.0269045364111662,0,
00:00:01.092,0.0127900056540966,0.00287267845124006,-0.0140296034514904,0,
00:00:01.096,0.00207975530065596,0.00311177503317595,0.00421850709244609,0,
00:00:01.1,-0.00468361144885421,-0.0181245841085911,0.00864877738058567,0,
00:00:01.104,-0.0121212843805552,-0.00533641874790192,0.00873935222625732,0,
00:00:01.108,-0.00172942422796041,0.0141281085088849,0.0050448272377252605,0,
00:00:01.112,0.0127679770812392,0.0158742070198059,-0.0016263409052044199,0,
00:00:01.116,-0.00236192694865167,-0.0035961929243058,0.00760672288015485,0,
00:00:01.12,-0.00112593022640795,-0.0206946507096291,-0.009763284586369991,0,
00:00:01.124,-0.00019295734819024799,-0.00237360689789057,0.00141820148564875,0,
00:00:01.128,-0.0018508933717384898,0.007591096218675379,-0.0123869422823191,0,
00:00:01.132,0.0042971926741302,0.0021266846451908398,-0.00133795861620456,0,
00:00:01.136,-0.00439765676856041,0.00162189861293882,0.0017109202453866599,0,
00:00:01.14,0.00241234828718007,0.0035817478783428704,0.00439320411533117,0,
00:00:01.144,0.00211654743179679,0.00293826730921865,0.00228055799379945,0,
00:00:01.148,3.72959584638011e-05,-0.0037406450137496,0.00224657892249525,0,
00:00:01.152,-0.0013552255695685699,-0.00840926822274923,0.00361370574682951,0,
00:00:01.156,-0.00150631670840085,0.00394601514562964,-0.00175686040893197,0,
00:00:01.16,-0.00291480333544314,0.0119542051106691,-0.0004937881021760401,0,
00:00:01.164,0.00611725030466914,-0.0117015382274985,-0.009774495847523209,0,
00:00:01.168,-0.0038589572068303797,-0.0148064596578479,0.016400970518589,0,
00:00:01.172,-0.00464739929884672,0.00628342339769006,0.00785179901868105,0,
00:00:01.176,0.00690942769870162,0.0107293492183089,-0.0175548624247313,0,
00:00:01.18,0.00435736496001482,0.00658826669678092,-0.0176187176257372,0,
00:00:01.184,-0.0048524616286158605,-0.00147544301580638,-0.006001267116516829,0,
00:00:01.188,0.000507774180732667,0.0152447819709778,0.0136904995888472,0,
00:00:01.192,0.00417373608797789,-0.0121318595483899,0.0193195268511772,0,
00:00:01.196,-0.00921097304672003,-0.0196621976792812,0.00368034932762384,0,
00:00:01.2,-0.0130638806149364,-0.0120365861803293,-0.00616247346624732,0,
00:00:01.204,0.0120855048298836,0.0062853149138391,0.00221512163989246,0,
00:00:01.208,0.016150763258338,0.0129535421729088,-0.0086863161996007,0,
00:00:01.212,-0.0023361230269074397,0.0143563337624073,-0.0022698238026350698,0,
00:00:01.216,-0.00467308470979333,0.00167376198805869,0.00143883633427322,0,
00:00:01.22,-0.00460300920531154,-0.0033261498901993,3.96238574467134e-05,0,
00:00:01.224,-0.0027008007746189802,-0.008671861141920091,-0.0073526040650904205,0,
00:00:01.228,-0.00040333648212254,-0.00806661602109671,-0.00333042140118778,0,
00:00:01.232,0.0053134406916797204,-0.0012990410905331401,0.0107129998505116,0,
00:00:01.236,-0.000259102671407163,0.00584880728274584,0.00363816833123565,0,
00:00:01.24,-0.00820112694054842,0.0029761572368443,0.0109930578619242,0,
00:00:01.244,-0.00173247663769871,0.00574879115447402,-0.0106500303372741,0,
00:00:01.248,0.0106535134837031,0.00066285184584558,-0.0115654533728957,0,
00:00:01.252,0.00202444335445762,-0.009747550822794441,-0.00218055094592273,0,
00:00:01.256,-0.0012197985779494,0.00367631716653705,0.0215843338519335,0,
00:00:01.26,0.0064882095903158205,0.0044872863218188295,-0.0050846799276769205,0,
00:00:01.264,-0.00919119268655777,-0.0135965319350362,-0.008836755529046059,0,
00:00:01.268,-0.00501294620335102,-0.00497048813849688,-0.0060911523178219795,0,
00:00:01.272,-0.0026334861759096397,0.0116599695757031,0.0032049678266048397,0,
00:00:01.276,0.0040955427102744605,0.0176578778773546,0.00946317985653877,0,
00:00:01.28,0.00430024042725563,-0.0040098037570715,-0.0025755437090992897,0,
00:00:01.284,0.0143955023959279,-0.0185032673180103,-0.00694041978567839,0,
00:00:01.288,-0.0205483101308346,-0.00993284303694963,0.00788811780512333,0,
00:00:01.292,-0.0138846132904291,0.0061942543834447895,0.00492162117734551,0,
00:00:01.296,0.0159502122551203,0.0274116657674313,-0.00538655230775476,0,
00:00:01.3,0.0174378100782633,0.00619362154975533,-0.000557779741939157,0,
00:00:01.304,-0.00596697488799691,-0.025417497381567997,0.00121158268302679,0,
00:00:01.308,-0.0051216492429375605,-0.007551818620413541,-0.007580966688692571,0,
00:00:01.312,0.00166353373788297,0.0118232285603881,0.0032703860197216303,0,
00:00:01.316,-0.0148822693154216,-0.0074851354584097906,-0.0032263619359582697,0,
00:00:01.32,-0.00148202711716294,-0.0064577390439808395,-4.13880152336787e-05,0,
00:00:01.324,0.00144085206557065,-0.00165126903448254,0.00941463652998209,0,
00:00:01.328,0.0021205919329077,0.009400879964232441,0.0018755818018689801,0,
00:00:01.332,0.0170206408947706,0.0120035149157047,-0.00480222562327981,0,
00:00:01.336,0.00529671413823962,0.00683187413960695,-0.0100709963589907,0,
00:00:01.34,-0.0044986461289227,-0.00261624017730355,0.0133524565026164,0,
00:00:01.344,-0.008007807657122609,-0.00563626596704125,-0.00377186853438616,0,
00:00:01.348,-0.00621454045176506,-0.00503762438893318,-0.004277971573174001,0,
00:00:01.352,0.00402877666056156,-0.0070364885032177,-0.00042124927858822004,0,
00:00:01.356,-0.00465688621625304,-0.005049255210906271,0.006458260584622621,0,
00:00:01.36,-0.00416107848286629,-0.00058261671802029,0.0070027858018875105,0,
00:00:01.364,0.00402406556531787,0.00533972447738051,-0.0139227770268917,0,
00:00:01.368,0.0034293252974748603,0.00483519118279219,0.00313151394948363,0,
00:00:01.372,-0.000953646667767316,0.00858190003782511,0.00554948206990957,0,
00:00:01.376,0.00995745696127415,0.008776909671723841,-0.0062159169465303395,0,
00:00:01.38,0.00354876811616123,-0.009277794510126109,-0.00621534744277596,0,
00:00:01.384,-0.00396485067903996,-0.0207885354757309,0.00264667719602585,0,
00:00:01.388,-0.006740961689502,0.007227051071822641,0.00919865723699331,0,
00:00:01.392,-0.007116033229976891,0.0176916792988777,-0.000455648521892726,0,
00:00:01.396,-0.00157904310617596,-0.0024941102601587803,0.0016202429542318,0,
00:00:01.4,-0.0031837192364037,-0.0147705618292093,-0.0118265934288502,0,
00:00:01.404,0.00831276923418045,-0.0127713149413466,0.006510780192911621,0,
00:00:01.408,0.0101384231820703,0.00714126834645867,0.00115818507038057,0,
00:00:01.412,0.005249795038253071,0.0206941720098257,0.00167180295102298,0,
00:00:01.416,-0.00307145062834024,0.0128862438723445,-0.00036010646726936096,0,
00:00:01.42,-0.00912246573716402,-0.0148276640102267,-0.00169209693558514,0,
00:00:01.424,0.00012205623352201699,-0.0180972330272198,-0.0141019495204091,0,
00:00:01.428,-0.0130280172452331,-0.000327431072946638,0.0110922502353787,0,
00:00:01.432,0.0037193815223872705,0.0131345493718982,0.0100534968078136,0,
00:00:01.436,0.0017736334120854699,0.00907298270612955,0.008034889586269859,0,
00:00:01.44,0.0135582238435745,-0.00970645435154438,-0.0102038029581308,0,
00:00:01.444,0.012525437399745001,-0.0117425676435232,-0.0189154427498579,0,
00:00:01.448,-0.0212498884648085,0.007496409118175509,-0.00253543187864125,0,
00:00:01.452,-0.0022521156352013397,0.00951142702251673,0.0185269434005022,0,
00:00:01.456,0.00725130829960108,-0.00223332294262946,0.0104816453531384,0,
00:00:01.46,0.0007253354997374121,-0.00430207792669535,-0.0038420145865529797,0,
00:00:01.464,-0.0046061878092587,-0.0065471837297081895,-0.0206479392945766,0,
00:00:01.468,-0.00895249098539352,0.0018912741215899602,0.00375512917526066,0,
00:00:01.472,0.00636428687721491,0.0066332141868770105,0.0101979924365878,0,
00:00:01.476,0.0112951062619686,0.00554784340783954,0.000399298500269651,0,
00:00:01.48,-0.00328617449849844,-0.0005866182618774469,-0.00400437833741307,0,
00:00:01.484,-0.00269398675300181,-0.00855429656803608,-0.0035289106890559205,0,
00:00:01.488,0.00230643060058355,-0.00467164581641555,0.005343491677194829,0,
00:00:01.492,-0.00682703498750925,0.000844708469230682,0.0142593141645193,0,
00:00:01.496,0.00292600668035448,0.0140973897650838,-0.0140034202486277,0,
00:00:01.5,-3.08563576254528e-05,-0.00011695584544213501,-0.00671010790392756,0,
00:00:01.504,-0.015249302610755,-0.0166247244924307,-0.000333807547576725,0,
00:00:01.508,0.0176758095622063,-0.00838900543749332,0.0009160777553915981,0,
00:00:01.512,0.00576170720160007,0.0135630983859301,0.007388134486973291,0,
00:00:01.516,-0.00569526385515928,0.017786206677556,0.0140690067782998,0,
00:00:01.52,-0.00228812033310533,-0.00122500350698829,-0.019316004589200002,0,
00:00:01.524,0.00175576901528984,-0.009020231664180759,-0.007924264296889309,0,
00:00:01.528,0.00467160809785128,-0.0103175016120076,0.00239406013861299,0,
00:00:01.532,-0.00508371274918318,-0.00782157760113478,0.0149872247129679,0,
00:00:01.536,-0.00281200767494738,0.0106149259954691,0.00187589565757662,0,
00:00:01.54,-0.00335184065625072,0.00850639585405588,-0.0146166617050767,0,
00:00:01.544,-0.00212807953357697,-0.0068872598931193395,0.000849237956572324,0,
00:00:01.548,0.000283424335066229,-0.00590883428230882,0.0177756827324629,0,
00:00:01.552,0.0147023852914572,0.0141423149034381,-0.00797287467867136,0,
00:00:01.556,-0.000690356304403394,0.000130378917674534,-0.007041567470878359,0,
00:00:01.56,0.00107014388777316,-0.00251129688695073,0.00575387431308627,0,
00:00:01.564,-0.0141309415921569,-0.00807112455368042,-0.00873310584574938,0,
00:00:01.568,-0.0126351090148091,-0.0032889379654079697,0.0023422755766659997,0,
00:00:01.572,0.0156031614169478,0.00199457118287683,-0.00067342456895858,0,
00:00:01.576,0.0128983724862337,0.00415870640426874,-0.0008295353036373849,0,
00:00:01.58,3.67375105270185e-05,0.00541029637679458,0.0066753197461366705,0,
00:00:01.584,-0.0077326670289039594,-0.000810640514828265,-0.000164288401720114,0,
00:00:01.588,-0.0037180914077907796,0.0017450734740123198,-0.000736741349101067,0,
00:00:01.592,0.00288029387593269,0.00460167741402984,-2.5841705792117898e-05,0,
00:00:01.596,-0.0036861784756183603,-0.00551360752433538,0.0127511098980904,0,
00:00:01.6,0.0101627856492996,-0.0203729700297117,-0.009676177985966209,0,
00:00:01.604,-0.027772031724453,-0.00329690356738865,-0.0120919533073902,0,
00:00:01.608,0.0020861602388322397,0.0113188065588474,0.00303273252211511,0,
00:00:01.612,0.0264965444803238,0.0140429856255651,0.000550896627828479,0,
00:00:01.616,0.0066071362234652,0.00594608346000314,-0.000189572325325571,0,
00:00:01.62,-0.0050682364962995104,-0.0023180369753390603,0.00878959614783525,0,
00:00:01.624,-0.0103965494781733,-0.00205078115686774,-0.00652395188808441,0,
00:00:01.628,0.00217364937998354,-0.0054313391447067295,0.0034394245594739897,0,
00:00:01.632,-0.00822005420923233,-0.00994513835757971,0.00935707800090313,0,
00:00:01.636,-0.0013234629295766401,-0.00128868198953569,-0.00380861316807568,0,
00:00:01.64,0.0030436993110925,-0.00283302459865808,-0.0111061548814178,0,
00:00:01.644,-0.000121473560284358,-0.00426860991865397,0.00151220266707242,0,
00:00:01.648,0.004571124445647,0.017533091828227,-0.00349299097433686,0,
00:00:01.652,0.005915643647313121,0.0251233484596014,0.00470502115786076,0,
00:00:01.656,0.00735426181927323,0.00374878547154367,0.00626207794994116,0,
00:00:01.66,-0.0109203085303307,-0.034691046923399006,-0.0029221756849438,0,
00:00:01.664,-0.0069780140183866,-0.0191010814160109,-0.0071504800580442,0,
00:00:01.668,-0.00581180676817894,0.00363405211828649,0.00539405411109328,0,
00:00:01.672,0.005964688491076229,0.019138328731060004,0.00034998398041352597,0,
00:00:01.676,0.0168244782835245,0.0138292824849486,0.00632998580113053,0,
00:00:01.68,-0.00506037985906005,-0.00778953544795513,-0.00327397999353707,0,
00:00:01.684,-0.015162630006671,-0.0103243216872215,-0.0125739937648177,0,
00:00:01.688,-0.0114359883591533,-0.000576977501623333,0.00593801168724895,0,
00:00:01.692,0.0128564508631825,0.00784163642674685,0.019472086802125,0,
00:00:01.696,0.0195939969271421,0.0038456672336906203,-0.00744243524968624,0,
00:00:01.7,0.00327872880734503,-0.007732885424047709,-0.01989721134305,0,
00:00:01.704,-0.00950339157134295,-0.0063324123620986895,-0.0042930371128022705,0,
00:00:01.708,-0.0160187967121601,0.0136263491585851,0.0173894260078669,0,
00:00:01.712,0.007509227376431229,0.008108813315629959,0.0144084598869085,0,
00:00:01.716,-0.000346565502695739,-0.0144990049302578,-0.0177828054875135,0,
00:00:01.72,-0.0009132656268775461,-0.0103051485493779,-0.0072764134965837,0,
00:00:01.724,0.0046766777522862,-0.00438508205115795,0.00399747304618359,0,
00:00:01.728,-0.00660450430586934,0.00588823948055506,0.00577870337292552,0,
00:00:01.732,-0.00412899209186435,0.0222870204597712,0.00942599400877953,0,
00:00:01.736,0.0137130944058299,0.00990009400993586,-0.00385526847094297,0,
00:00:01.74,0.00292595778591931,-0.0114324297755957,-0.0108837755396962,0,
00:00:01.744,-0.00294204847887158,-0.0249890945851803,-0.0023520216345787,0,
00:00:01.748,-0.00429364200681448,-0.0066379732452333,0.000591074931435287,0,
00:00:01.752,-0.000817035150248557,0.0117996260523796,0.00791333802044392,0,
00:00:01.756,-0.00475603109225631,0.0141974221915007,0.00641075614839792,0,
00:00:01.76,-0.000830633623991162,0.00337053160183132,-0.00067071511875838,0,
00:00:01.764,0.00490845367312431,-0.004986276850104329,-0.011218810454011,0,
00:00:01.768,0.00381902023218572,-0.0027152530383318697,-0.00531656295061111,0,
00:00:01.772,-0.0012411018833518,-0.0018378850072622301,0.00840325653553009,0,
00:00:01.776,-0.00147457455750555,-0.0031090970151126398,0.00586075242608786,0,
00:00:01.78,0.0057586985640227795,0.00592730520293117,-0.0144575731828809,0,
00:00:01.784,-0.00356827932409942,0.0022568053100258103,0.00630588224157691,0,
00:00:01.788,-0.004375412128865721,-0.00433310586959124,0.0222660321742296,0,
00:00:01.792,0.00023366349341813502,-0.00798529572784901,-0.0133766485378146,0,
00:00:01.796,-0.00124040781520307,-0.00116374460048974,-0.0138292219489813,0,
00:00:01.8,-0.00177326740231365,0.00448426231741905,-0.00162977760192007,0,
00:00:01.804,-0.000588801747653633,0.0035757003352046,0.00458204373717308,0,
00:00:01.808,0.005210126750171179,0.0095852455124259,0.0116315660998225,0,
00:00:01.812,0.0312905088067055,0.0042559248395264105,-0.00897662155330181,0,
00:00:01.816,-0.0370621345937252,-0.0067288726568222,-0.000722476106602699,0,
00:00:01.82,-0.0193778183311224,-0.00836552307009697,0.0214749556034803,0,
00:00:01.824,0.025378817692398997,-0.0109780598431826,-0.0192815437912941,0,
00:00:01.828,-0.00356546021066606,0.00162519502919167,-0.00370365218259394,0,
00:00:01.832,0.0124764312058687,0.011661478318273999,-0.000843228597659618,0,
00:00:01.836,0.000562282220926136,0.00717861810699105,0.00171003898140043,0,
00:00:01.84,-0.00512521713972092,-0.0102834235876799,-0.0015303366817534,0,
00:00:01.844,-0.007529850583523509,-0.00254200864583254,0.00392256397753954,0,
00:00:01.848,-0.000960170640610158,0.0178140718489885,-0.00015212656580843002,0,
00:00:01.852,0.0057415664196014396,0.00519550452008843,0.0076475259847939,0,
00:00:01.856,-0.0020662397146225,-0.0144989797845483,0.004685566760599611,0,
00:00:01.86,-0.00418805098161101,-0.0146165685728192,-0.00304698920808733,0,
00:00:01.864,0.00607299618422985,-0.009820210747420791,-0.0130190448835492,0,
00:00:01.868,-0.00297717447392643,0.011382426135242,-0.00386664317920804,0,
00:00:01.872,-0.0036821626126766205,0.0194203983992338,0.00267789443023503,0,
00:00:01.876,0.007395595312118529,-0.00354858953505754,0.00074574095197022,0,
00:00:01.88,0.000119678486953489,-0.00377700780518353,0.00773908523842692,0,
00:00:01.884,-0.00133452843874693,4.07094630645588e-05,0.015007883310318,0,
00:00:01.888,0.00539319636300206,0.0017059778328985,-0.010265932418406001,0,
00:00:01.892,-0.00398114370182157,-0.00529580330476165,-0.0115761207416654,0,
00:00:01.896,-0.00461755553260446,-0.00100605096668005,-0.0065358201973140205,0,
00:00:01.9,-0.00395791977643967,0.00487085012719035,-0.00415171263739467,0,
00:00:01.904,0.0027993188705295303,-0.007068397942930459,0.0248883590102196,0,
00:00:01.908,0.00993503071367741,-0.00278195296414196,0.00106793979648501,0,
00:00:01.912,-0.018430370837450003,0.00918778218328953,-0.00244790664874017,0,
00:00:01.916,0.0151613438501954,0.0094688544049859,-0.0139459874480963,0,
00:00:01.92,0.00805698521435261,-0.00707503221929073,0.00256083020940423,0,
00:00:01.924,-0.00639117043465376,-0.0119221638888121,-0.004337334539741279,0,
00:00:01.928,-0.0136411162093282,-0.00519165070727468,0.0069460682570934296,0,
00:00:01.932,0.00266688340343535,0.0149197662249207,0.0115263862535357,0,
00:00:01.936,0.00791894737631083,0.0130447307601571,-0.00744395283982158,0,
00:00:01.94,0.007704882882535459,-0.0115536078810692,-0.00971346627920866,0,
00:00:01.944,-0.011525652371346999,-0.0166524704545736,-0.00431014550849795,0,
00:00:01.948,-0.009121329523622991,0.00371362757869065,0.0120978923514485,0,
00:00:01.952,0.0220599938184023,0.0192163940519094,0.0032660688739270002,0,
00:00:01.956,-0.0186221189796925,-0.008046031929552559,-0.00523020187392831,0,
00:00:01.96,0.000712551292963326,-0.00110827351454645,0.00991076044738293,0,
00:00:01.964,0.00855210795998573,0.00011040864774258799,-0.00439175218343735,0,
00:00:01.968,0.00910906121134758,0.00589607702568173,-0.00686257891356945,0,
00:00:01.972,-0.00446139229461551,-0.00453974446281791,-0.0120557732880116,0,
00:00:01.976,-0.00686327088624239,-0.00954727549105883,0.0164155550301075,0,
00:00:01.98,-0.00606795493513346,-0.00659656617790461,-0.000856054248288274,0,
00:00:01.984,0.00174818653613329,0.008046304807066921,-0.00938002392649651,0,
00:00:01.988,0.00374689069576561,0.0176075380295515,0.007173275109380479,0,
00:00:01.992,0.0026870567817241,-0.0054901796393096395,0.00630469247698784,0,
00:00:01.996,0.00284584774635732,-0.00329849938862026,0.0007794047705829139,0,
00:00:02,-0.00472116749733686,-0.000533834798261523,-0.005243318621069189,0,
00:00:02.004,-0.00292429071851075,-0.00578424520790577,-0.0061116423457860895,0,
00:00:02.008,0.00250236853025854,0.005958883091807371,0.00106920266989619,0,
00:00:02.012,0.000215642314287834,-0.00410899799317122,0.007165490649640559,0,
00:00:02.016,0.00869695842266083,-0.00724112708121538,-0.0017619370482862,0,
00:00:02.02,-0.00514869345352054,0.00231090746819973,-0.00686194933950901,0,
00:00:02.024,-0.0142706008628011,0.009918982163071629,-0.00119353900663555,0,
00:00:02.028,0.00778521643951535,0.0047097853384912,0.0078712347894907,0,
00:00:02.032,0.00592012191191316,-0.0037836956325918397,0.0194119308143854,0,
00:00:02.036,-0.000245177914621308,-0.00481665227562189,-0.0142039321362972,0,
00:00:02.04,0.00279215024784207,-0.0129733439534903,-0.0170163456350565,0,
00:00:02.044,0.00147484999615699,0.00985270459204912,-0.0049223182722926105,0,
00:00:02.048,-0.0113959908485413,0.020048052072525,0.0117392707616091,0,
00:00:02.052,0.00314226723276079,-0.00112730625551194,0.0029866122640669302,0,
00:00:02.056,0.007454087492078541,-0.0215127747505903,-0.0046594743616879,0,
00:00:02.06,-0.0224629361182451,-0.0130709586665034,0.0134703265503049,0,
00:00:02.064,0.00649086711928248,0.00724966544657946,0.012055953964591,0,
00:00:02.068,0.0164949987083673,0.0201642923057079,-0.0186835993081331,0,
00:00:02.072,0.0115791466087103,0.008103001862764359,-0.0119585497304797,0,
00:00:02.076,-0.00692805787548423,-0.0152223166078329,0.00927151087671518,0,
00:00:02.08,-0.0276176426559687,-0.0105248019099236,-0.0042504477314651,0,
00:00:02.084,0.00874323304742575,-0.00229252222925425,-0.0015426133759319802,0,
00:00:02.088,0.0140868946909904,0.0120897805318236,0.0031187452841550103,0,
00:00:02.092,0.0024344059638679,0.0144533207640052,0.0150618860498071,0,
00:00:02.096,-0.00840487144887447,-0.00552320294082165,-0.00667536770924926,0,
00:00:02.1,0.00477692531421781,-0.0115659730508924,-0.00348293478600681,0,
00:00:02.104,-0.0141250137239695,-0.00795381888747215,-0.00629906449466944,0,
00:00:02.108,0.00519016617909074,0.009163581766188141,0.00498743215575814,0,
00:00:02.112,-0.00832754280418158,0.00433968612924218,0.00336534855887294,0,
00:00:02.116,0.0115204434841871,-0.000233655096963048,-0.0046864440664649,0,
00:00:02.12,0.0116444742307067,-0.00440563168376684,-0.00691454764455557,0,
00:00:02.124,-0.000413391797337681,-0.0043294741772115205,0.00267147552222013,0,
00:00:02.128,-0.00803122483193874,0.0047188219614327,0.0120215602219105,0,
00:00:02.132,-0.00186831830069423,0.0017689209198579199,0.000381053949240595,0,
00:00:02.136,-0.007498306222260001,-0.0016476877499371802,-0.00175356748513877,0,
00:00:02.14,0.00260983291082084,-0.00029500518576242,-0.015997251495719,0,
00:00:02.144,0.0042214924469590204,0.0031930976547300803,0.0106917507946491,0,
00:00:02.148,0.000295357749564573,0.00141035194974393,0.0146539406850934,0,
00:00:02.152,0.00831402465701103,0.00114566122647375,-0.012339735403657,0,
00:00:02.156,-0.0033877580426633397,0.00021067463967483502,-0.00650562811642885,0,
00:00:02.16,-0.0163495689630508,-0.00929859187453985,-0.00752615509554744,0,
00:00:02.164,0.00620062043890357,-0.00419405149295926,0.0036627096123993397,0,
00:00:02.168,0.00585573120042682,0.00024579794262535897,0.007519983220845459,0,
00:00:02.172,0.00483442004770041,0.00922782346606255,0.0140047706663609,0,
00:00:02.176,-0.0021807833109051,0.00808925274759531,-0.0041395747102797,0,
00:00:02.18,-0.0075300354510545705,-0.00383265130221844,-0.0143411848694086,0,
00:00:02.184,0.0019825054332613897,-0.00103114254307002,0.00274591566994786,0,
00:00:02.188,0.00520783476531506,-0.00654527544975281,0.0020456223282963,0,
00:00:02.192,0.00556327821686864,-0.0010417251614853699,0.007138859014958141,0,
00:00:02.196,-0.0164109729230404,0.0013158897636458302,0.00243789795786142,0,
00:00:02.2,-0.00476050144061446,0.00170437258202583,-0.0152185996994376,0,
00:00:02.204,0.017913930118084,0.009417560882866379,-0.0075138490647077595,0,
00:00:02.208,0.0028285295702517,-0.0075907846912741704,0.0053024077787995295,0,
00:00:02.212,-0.00385411316528916,-0.0109759634360671,0.0103958798572421,0,
00:00:02.216,-0.00883974973112345,-0.00135826633777469,0.0055780503898859,0,
00:00:02.22,0.00337584712542593,0.0123294424265623,-0.00881002843379974,0,
00:00:02.224,0.00527745857834816,0.00771405175328255,0.00402529537677765,0,
00:00:02.228,-0.0038921090308576796,-0.000296866317512468,-0.00782112590968609,0,
00:00:02.232,-0.0035082027316093397,-0.0112171629443765,0.0146048320457339,0,
00:00:02.236,-0.00463611306622624,-0.00348772364668548,0.007115366868674759,0,
00:00:02.24,0.0036033850628882603,-0.000187376805115491,-0.0231250654906034,0,
00:00:02.244,0.00746010104194283,0.00145371188409626,-0.0106529146432877,0,
00:00:02.248,0.01170639321208,0.0228288341313601,0.00573219219222665,0,
00:00:02.252,-0.0153915910050273,-0.00334523967467248,0.0144070275127888,0,
00:00:02.256,-0.008286322467029091,-0.0145235992968082,0.00536055117845535,0,
00:00:02.26,0.00709687219932675,-0.0142212053760886,0.00486420933157206,0,
00:00:02.264,0.009986984543502329,-0.00385329499840736,-0.0101491492241621,0,
00:00:02.268,-0.009525083005428309,0.00530022056773305,-0.00876909587532282,0,
00:00:02.272,0.001951485988684,0.0191180277615786,-0.00239728298038244,0,
00:00:02.276,-0.0130953276529908,0.0137266283854842,0.00265858951024711,0,
00:00:02.28,0.0147837577387691,-0.00866658333688974,0.00433627888560295,0,
00:00:02.284,0.00528845423832536,-0.0163186434656382,-0.00296248984523118,0,
00:00:02.288,8.61871594679542e-05,0.00113665207754821,0.0111745968461037,0,
00:00:02.292,-0.0149538684636354,0.0009615619783289731,0.00232813460752368,0,
00:00:02.296,-0.00161386595573276,-0.00759938918054104,-0.00209500966593623,0,
00:00:02.3,0.004925016313791279,-0.0018446500180289102,-0.0056731174699962104,0,
00:00:02.304,0.007576259318739179,0.0170479044318199,-0.0115636400878429,0,
00:00:02.308,0.00715473061427474,0.009412029758095741,-0.000653566676191986,0,
00:00:02.312,-0.00561098754405975,-0.00633432995527983,0.0054170833900570895,0,
00:00:02.316,-0.00486110057681799,0.0019537368789315198,0.0019234617939218898,0,
00:00:02.32,-0.00540161691606045,-0.0103487279266119,0.0115804737433791,0,
00:00:02.324,0.0029349587857723197,-0.0123102441430092,-0.000405973201850429,0,
00:00:02.328,-0.00163454469293356,0.00035824679071083703,-0.0109897777438164,0,
00:00:02.332,-0.006112747360020879,0.00882479548454285,0.0036502927541732797,0,
00:00:02.336,0.00595155823975801,-0.0033071271609515,0.007193464320153001,0,
00:00:02.34,0.0114052034914494,0.0079345628619194,-0.00883650500327349,0,
00:00:02.344,0.0036816862411797,0.0105198193341494,-0.0062883966602385,0,
00:00:02.348,-0.0038511645980179297,0.0031852964311838198,0.004390050657093521,0,
00:00:02.352,-0.006529401522129771,-0.0103582637384534,0.0064858216792345,0,
00:00:02.356,-0.00490292022004724,-0.0115950303152204,-0.00478404480963945,0,
00:00:02.36,-0.0035912515595555297,0.00266088568605483,-0.00502741523087025,0,
00:00:02.364,-0.000852134427987039,-0.0024758556392043803,0.00508551485836506,0,
00:00:02.368,0.008119703270494941,-0.0010745048057287901,0.004700379446148871,0,
00:00:02.372,-0.000568750081583858,0.0038920310325920604,0.00110968062654138,0,
00:00:02.376,0.0106715159490705,0.0180427301675081,0.00448443647474051,0,
00:00:02.38,-0.0100674331188202,-0.0039368430152535395,-0.0126833757385612,0,
00:00:02.384,-0.00442690728232265,-0.0131989195942879,-0.0049297064542770394,0,
00:00:02.388,0.0054440344683826,-0.00202937168069184,1.8513937902753197e-05,0,
00:00:02.392,0.010022553615272,0.004317504819482561,0.0131333526223898,0,
00:00:02.396,-0.008240940049290659,-0.00345467450097203,0.00599913159385324,0,
00:00:02.4,-0.0035123878624290198,0.00172796484548599,-0.0133123770356178,0,
00:00:02.404,-0.0056493394076824206,0.00524462247267365,-0.0052109197713434705,0,
00:00:02.408,-0.00664349133148789,-0.0019384296610951398,0.0105817364528775,0,
00:00:02.412,0.0200426783412695,0.0047830417752265895,0.00761218834668398,0,
00:00:02.416,0.00366629543714225,0.0110164554789662,-0.0103723332285881,0,
00:00:02.42,-0.00687338318675756,-0.0133599666878581,-0.00139154330827296,0,
00:00:02.424,-0.0063507012091577105,-0.0229009445756674,-0.008245064876973629,0,
00:00:02.428,-0.00219580298289657,0.00229213736020029,0.0035408074036240604,0,
00:00:02.432,0.00133796827867627,0.0142120085656643,0.00403363257646561,0,
00:00:02.436,0.0006451550289057201,0.0128823770210147,0.0058519346639514,0,
00:00:02.44,0.00420280219987035,-0.00328132649883628,-0.00196472718380392,0,
00:00:02.444,0.00460522715002298,0.0011279840255156198,-0.00380960828624666,0,
00:00:02.448,0.004097053781151771,0.00203183782286942,0.00816578138619661,0,
00:00:02.452,-0.0051890909671783395,-0.006330860778689379,0.0027533397078514103,0,
00:00:02.456,-0.0192768778651953,-0.0153956469148397,-0.0017428656574338698,0,
00:00:02.46,0.0038065118715167,-0.0059803402982652205,-0.007977592758834359,0,
00:00:02.464,0.009640544652938841,0.0108843110501766,-0.009976450353860859,0,
00:00:02.468,0.00871606543660164,0.011718456633389001,-0.0012416035169735599,0,
00:00:02.472,-0.0006124509964138269,0.00545707065612078,0.00981870293617249,0,
00:00:02.476,0.00218891655094922,0.007202287670224909,0.00111341150477529,0,
00:00:02.48,-0.0137472655624151,-0.0103954691439867,-0.0030063355807215,0,
00:00:02.484,-0.0047573703341186,-0.0173019040375948,0.0120918937027454,0,
00:00:02.488,0.000761647999752313,0.00522810174152255,0.0049748863093555,0,
00:00:02.492,0.0158838052302599,0.0065082437358796605,0.00410298211500049,0,
00:00:02.496,0.00223626638762653,-0.00431484961882234,-0.0178862288594246,0,
00:00:02.5,-0.00684517016634345,7.415634172502909e-05,-0.0190610159188509,0,
00:00:02.504,-0.0058125061914324795,4.81205024698284e-05,0.00268069212324917,0,
00:00:02.508,0.0024349621962755897,0.0040319883264601205,0.00945599842816591,0,
00:00:02.512,-0.004487712867558,0.000493563013151288,0.0164039898663759,0,
00:00:02.516,-0.00279338913969696,-0.000159820570843294,0.00211135693825781,0,
00:00:02.52,0.005214049015194179,-0.00016374014376197,-0.0063873054459691,0,
00:00:02.524,0.011993252672255,-0.000185800905455835,-0.00330664543434978,0,
00:00:02.528,0.00506592402234674,0.0121856182813644,-0.00589624745771289,0,
00:00:02.532,-0.0114160319790244,-0.0080163860693574,0.00949438102543354,0,
00:00:02.536,-0.0136385792866349,-0.0182300414890051,0.007803899701684709,0,
00:00:02.54,0.00377630861476064,-0.000564198417123407,-0.0181338638067245,0,
00:00:02.544,0.0045732487924397,0.0141642773523927,-0.0017976245144382102,0,
00:00:02.548,0.005699248518794779,0.006465957500040529,0.00135982583742589,0,
00:00:02.552,-0.000301078864140436,-0.000504736206494272,-0.000816865649539977,0,
00:00:02.556,-0.0018051571678370198,-0.0059373751282692,0.007182475645095109,0,
00:00:02.56,0.00278973951935768,-0.00596263259649277,0.0009114936110563581,0,
00:00:02.564,-0.00647731591016054,-0.00252482132054865,0.00650232704356313,0,
00:00:02.568,-0.00109696574509144,0.00953400414437056,-0.00338981975801289,0,
00:00:02.572,0.00380019773729146,0.0057655624113977,0.0016056124586612,0,
00:00:02.576,0.000217655702726915,-0.00278824148699641,-0.0124852349981666,0,
00:00:02.58,0.00174444238655269,-0.00646231370046735,-0.0071310899220407,0,
00:00:02.584,0.0125176487490535,-0.004846266005188229,0.00593894813209772,0,
00:00:02.588,-0.0401753112673759,0.00526162562891841,0.0277735572308302,0,
00:00:02.592,0.00807864498347044,0.00878711603581905,0.00465332111343741,0,
00:00:02.596,0.0295306537300348,-0.00708693265914917,-0.0318836458027363,0,
00:00:02.6,0.010452426970004999,-0.00311217736452818,-0.015567583963275,0,
00:00:02.604,-0.00891239009797573,0.00248128082603216,0.00398440565913916,0,
00:00:02.608,-0.0154650621116161,0.00203663320280612,0.0237286780029535,0,
00:00:02.612,-0.0109740635380149,-0.00190003809984773,0.00837568566203117,0,
00:00:02.616,0.005957439076155421,0.0071628768928349,-0.011000020429491998,0,
00:00:02.62,-0.00134541082661599,-0.00131912901997566,0.00499235326424241,0,
00:00:02.624,0.00878256373107433,-0.0134978732094169,-0.00344918388873339,0,
00:00:02.628,0.00581673067063093,-0.0027584643103182303,-0.0197425708174706,0,
00:00:02.632,-0.00402204180136323,0.00893129501491785,0.0190097223967314,0,
00:00:02.636,0.000551771838217974,0.0026088475715369,0.007595650851726529,0,
00:00:02.64,0.0036296155303716703,0.00511973537504673,-0.017839889973402,0,
00:00:02.644,-0.0141005581244826,-0.0035724984481930702,0.00430501904338598,0,
00:00:02.648,0.00275690690614283,0.00279986392706633,0.00152418448124081,0,
00:00:02.652,0.00117226014845073,-0.0047804447822272795,0.0030679430346936,0,
00:00:02.656,0.0024190682452172,-0.012191086076200001,-0.0011841730447486,0,
00:00:02.66,0.00473426142707467,0.0030997903086245103,-0.005374673288315529,0,
00:00:02.664,0.0016448642127215901,0.0143149644136429,0.0037502150516957,0,
00:00:02.668,-0.00153597176540643,0.0126284714788198,0.00794726610183716,0,
00:00:02.672,0.0013615267816931,-0.00892094895243645,-0.00298050022684038,0,
00:00:02.676,-0.00824898760765791,-0.0245128069072962,-0.0067214434966445,0,
00:00:02.68,-0.0062927696853876105,0.0011997193796560199,0.00574881955981255,0,
00:00:02.684,0.0139492619782686,0.0265071261674166,-0.00620839232578874,0,
00:00:02.688,0.000317426980473101,-0.00535746430978179,-0.007414186373353001,0,
00:00:02.692,-0.00396945886313915,-0.012036700733006,0.0161609966307878,0,
00:00:02.696,-0.0115030147135258,-0.0045852591283619395,0.00378070678561926,0,
00:00:02.7,-0.00123406713828444,0.00301845092326403,-0.0124738849699497,0,
00:00:02.704,0.0155105702579021,0.005915522575378421,0.00186442025005817,0,
00:00:02.708,0.0151880439370871,0.0107826385647058,-0.00974066182971001,0,
00:00:02.712,-0.0114373518154025,-0.00452449498698115,0.00994688086211681,0,
00:00:02.716,-0.0121176037937403,-0.00621417351067066,0.00820424035191536,0,
00:00:02.72,-0.00014253708650358,-0.0029654633253812803,-0.00522992992773652,0,
00:00:02.724,0.00692548369988799,-0.0016650562174618199,0.00192409963347018,0,
00:00:02.728,-0.0101328110322356,0.00608774600550532,1.22056223972322e-06,0,
00:00:02.732,0.0074126902036368795,0.0140347760170698,-0.00663794623687863,0,
00:00:02.736,-0.0063830288127064705,-0.0124367922544479,-0.00102631072513759,0,
00:00:02.74,0.00802355725318193,-0.0172810405492783,-0.000507926743011922,0,
00:00:02.744,0.0104165095835924,0.0080661391839385,0.00395897403359413,0,
00:00:02.748,-0.0035625533200800397,0.0118621019646525,0.009116098284721371,0,
00:00:02.752,-0.00898512173444033,-0.000365742220310494,0.00074061204213649,0,
00:00:02.756,-0.000598311598878354,-0.0015551053220406199,-0.0183356311172247,0,
00:00:02.76,0.000785052485298365,-0.00259574223309755,-0.00740182492882013,0,
00:00:02.764,-0.00177536020055413,-0.0063768965192139105,0.0200632940977812,0,
00:00:02.768,-0.00229173339903355,0.00300446269102395,0.0049978112801909395,0,
00:00:02.772,0.00342006050050259,-0.000533271813765168,-0.007258253172039991,0,
00:00:02.776,0.0035066879354417302,-0.0029705383349209994,-0.00947544537484646,0,
00:00:02.78,0.00347626022994518,0.00846676342189312,0.009757691994309429,0,
00:00:02.784,-0.0025873843114823103,0.0116225881502032,0.00204116408713162,0,
00:00:02.788,-0.0031817548442632,-0.00857081823050976,-0.00156664336100221,0,
00:00:02.792,-0.00364544126205146,-0.00911326240748167,-0.00223750923760235,0,
00:00:02.796,0.00421369774267077,0.00509711867198348,-0.00346147269010544,0,
00:00:02.8,0.00696927541866899,-0.00799617264419794,-0.00238825753331184,0,
00:00:02.804,-0.0249791834503412,-0.00270817149430513,0.00824189651757479,0,
00:00:02.808,0.0228050537407398,0.0102165024727583,0.00018554044072516298,0,
00:00:02.812,0.0125112598761916,0.00238134781830013,0.000393633439671248,0,
00:00:02.816,-0.0243817716836929,0.0057530915364623104,0.0051520885899663,0,
00:00:02.82,0.00834392104297876,0.0012186268577352199,-0.0180967412889004,0,
00:00:02.824,-0.00594410626217723,-0.0158849079161882,0.00769552495330572,0,
00:00:02.828,0.0036261396016925604,-0.0015342244878411302,0.0157091226428747,0,
00:00:02.832,0.00320540438406169,0.0014004705008119301,-0.0175908673554659,0,
00:00:02.836,-0.00378649844788015,-0.000667688203975558,-0.00881866365671158,0,
00:00:02.84,0.0024147282820195,0.00939892139285803,0.0069305757060647,0,
00:00:02.844,-0.0005796793848276139,0.0030982352327555396,0.00837891921401024,0,
00:00:02.848,0.00551083777099848,-0.0012923311442136801,0.00396656291559339,0,
00:00:02.852,-0.0143169136717916,-0.0029872560407966397,-0.000723077857401222,0,
00:00:02.856,0.00334336492232978,-0.00255235657095909,-0.0072948900051415,0,
00:00:02.86,0.00439297314733267,-0.00529705872759223,0.000843874062411487,0,
00:00:02.864,0.00336766452528536,0.00828949175775051,0.00577300693839788,0,
00:00:02.868,0.0074601965025067295,0.00437469920143485,-0.00987189542502165,0,
00:00:02.872,-0.00453034555539489,-0.00596333062276244,-0.000172386397025548,0,
00:00:02.876,-0.00643303571268916,-0.0110131856054068,0.007704250980168579,0,
00:00:02.88,-0.00566711276769638,-0.000941682956181467,0.0013871485134586698,0,
00:00:02.884,0.0019400404999032601,0.0193403176963329,-0.0018799756653606898,0,
00:00:02.888,0.00374733097851276,0.0106855081394315,-0.00243072863668203,0,
00:00:02.892,0.00466736638918519,-0.0150949470698833,-0.00352150085382164,0,
00:00:02.896,0.00284726405516267,-0.0145863918587565,-0.000238612643443048,0,
00:00:02.9,-0.0146178314462304,-0.00249035004526377,0.00641851453110576,0,
00:00:02.904,0.00325959851033986,0.0126973809674382,-0.0033786166459322,0,
00:00:02.908,0.0186068322509527,0.0128675606101751,0.00229254341684282,0,
00:00:02.912,-0.0191416665911675,-0.0074347122572362406,0.0097449067980051,0,
00:00:02.916,-0.0046549877151846894,-0.00790784694254398,-0.0105832954868674,0,
00:00:02.92,0.0107881808653474,-0.00241227238439023,-0.014554544351995,0,
00:00:02.924,0.0028656788635999,3.58664510713425e-05,0.00530474819242954,0,
00:00:02.928,0.00771244382485747,0.009686850011348721,0.0198054425418377,0,
00:00:02.932,-0.0094866780564189,0.00439983000978827,-0.00410464219748974,0,
00:00:02.936,-0.00583036709576845,-0.00848279986530542,-0.00975719094276428,0,
00:00:02.94,0.0008078039390966299,-0.005450333002954721,-0.00178023136686534,0,
00:00:02.944,-0.00642424868419766,0.00039875676156953,0.0105801876634359,0,
00:00:02.948,0.00902523938566446,0.0181689634919167,-0.00290050660260022,0,
00:00:02.952,0.0109613500535488,0.00427433103322983,-0.0068538929335773,0,
00:00:02.956,-0.00760546326637268,-0.0216023325920105,-0.00433614384382963,0,
00:00:02.96,-0.00710199400782585,-0.0172010976821184,0.0104574877768755,0,
00:00:02.964,-0.00145502598024905,-0.000723208650015295,0.00159291492309421,0,
00:00:02.968,0.00685722613707185,0.0293401833623648,-0.0039573204703629,0,
00:00:02.972,-0.000283917295746505,0.0155298039317131,-0.000210840022191405,0,
00:00:02.976,0.00734340865164995,-0.0163764115422964,0.00465018441900611,0,
00:00:02.98,0.0024400644470006197,-0.018337968736887002,-0.0141501864418387,0,
00:00:02.984,-0.0324854627251625,0.0050376057624816895,0.010549258440733001,0,
00:00:02.988,0.0136256646364927,0.0126288384199142,0.00982131529599428,0,
00:00:02.992,0.00772880902513862,-0.0059801437892019705,-0.00269243284128606,0,
00:00:02.996,0.008588240481913091,-0.0021677906624972803,-0.0155622363090515,0,
00:00:03,0.00376581423915923,0.0137158259749413,-0.00609280727803707,0,
00:00:03.004,-0.00800229143351316,-0.00539074232801795,0.0107061052694917,0,
00:00:03.008,-0.00309516885317862,-0.0060759801417589205,0.00264798197895288,0,
00:00:03.012,0.0019108761334791801,0.00227251322939992,-0.00248178862966597,0,
00:00:03.016,-0.009597011841833591,-0.013011964969337,0.0054458319209516,0,
00:00:03.02,-0.0120912529528141,-0.0037466601934284,0.0205397978425026,0,
00:00:03.024,0.0114169372245669,0.00641412613913417,-0.0076110134832561,0,
00:00:03.028,0.0212889444082975,0.0137104410678148,-0.021847290918231,0,
00:00:03.032,0.00192899617832154,0.00882550235837698,-0.0112284161150455,0,
00:00:03.036,-0.0122783947736025,-0.00166154839098454,0.00235059997066855,0,
00:00:03.04,-0.00732252839952707,-0.0139267705380917,0.0073275426402688,0,
00:00:03.044,-0.00198239809833467,-0.0058368262834847,0.0109990444034338,0,
00:00:03.048,0.0016404550988227099,0.007080231793224809,0.0102766156196594,0,
00:00:03.052,0.00289884046651423,0.0021205460652709,-1.0821933756233198e-05,0,
00:00:03.056,0.00232973205856979,-0.00520229432731867,-0.0154598550871015,0,
00:00:03.06,0.0030535499099642,-0.004101931117475029,-0.00222190469503403,0,
00:00:03.064,-0.00636273855343461,0.00190600682981312,0.00803024228662252,0,
00:00:03.068,0.0035415678285062296,0.00918519496917725,0.000143276833114214,0,
00:00:03.072,0.0002979701384902,0.00862841866910458,-0.0121234618127346,0,
00:00:03.076,-0.0009141038171947,-0.00343861035071313,-0.00399129930883646,0,
00:00:03.08,-0.0029638884589076,-0.00977211073040962,0.0132077392190695,0,
00:00:03.084,-0.00046928360825404503,-0.0039906925521791,-8.322037501784509e-06,0,
00:00:03.088,0.00581888156011701,0.00392113672569394,0.00526729971170425,0,
00:00:03.092,0.000206092328880914,-0.00841749459505081,-0.00324467988684773,0,
00:00:03.096,-0.00196875375695527,-0.0013905676314607302,0.000588679977227002,0,
00:00:03.1,-0.003949202131479979,0.0100210020318627,-0.00530194351449609,0,
00:00:03.104,0.00531041761860251,0.0035308958031237104,-0.00479816691949964,0,
00:00:03.108,-0.0020981733687222,0.00955431628972292,0.0049759317189455,0,
00:00:03.112,-0.00653040641918778,0.00240978598594666,0.00234921835362911,0,
00:00:03.116,0.00346577074378729,-0.0195207893848419,0.000894533004611731,0,
00:00:03.12,0.00225544301792979,-0.0104287294670939,0.0165612548589706,0,
00:00:03.124,0.0100097088143229,0.0152183482423425,-0.0184351578354836,0,
00:00:03.128,0.00123946159146726,0.00988014601171017,-0.0118281384930015,0,
00:00:03.132,-0.022891579195857003,-0.0071525000967085405,-0.0023440523073077198,0,
00:00:03.136,-0.00635056151077151,-0.00296131055802107,0.0149086080491543,0,
00:00:03.14,0.0267288647592068,-0.012075262144208001,0.00727090751752257,0,
00:00:03.144,0.000630208058282733,0.00495846569538116,-0.00246241479180753,0,
00:00:03.148,-0.00422532390803099,0.00818816013634205,-0.00646169343963265,0,
00:00:03.152,-0.008823659271001821,0.00273349485360086,0.00332813314162195,0,
00:00:03.156,0.00328746601007879,-0.00401177909225225,-0.0049235438928008106,0,
00:00:03.16,0.0071415901184082,0.00288049061782658,-0.0043404670432209995,0,
00:00:03.164,-0.0123040620237589,0.006046673282980921,0.00985940732061863,0,
00:00:03.168,0.000665552914142609,0.00773336458951235,0.0010659631807357099,0,
00:00:03.172,0.00427037151530385,-0.0111956270411611,-0.00419276254251599,0,
00:00:03.176,0.0031813415698707104,-0.0162181723862886,-0.00226575881242752,0,
00:00:03.18,0.000792497768998146,-0.0114981764927506,0.00469254003837705,0,
00:00:03.184,-0.000982331926934421,0.0027666913811117398,-0.00209041405469179,0,
00:00:03.188,-0.00362071138806641,0.0239320751279593,0.00246087810955942,0,
00:00:03.192,0.0028968784026801603,0.0204594377428293,0.0024820338003337396,0,
00:00:03.196,-0.0007251265342347321,-0.0130203450098634,-0.00792910531163216,0,
00:00:03.2,-0.00329707050696015,-0.0127791380509734,-0.0040820986032486,0,
00:00:03.204,-0.000598983780946583,-0.00594538636505604,0.0057841758243739605,0,
00:00:03.208,0.0101240519434214,0.0005519621772691611,-0.00169471732806414,0,
00:00:03.212,-0.005552378017455339,0.0120995035395026,-0.0038198709953576296,0,
00:00:03.216,-0.00514494674280286,0.00834414456039667,0.0231935866177082,0,
00:00:03.22,-0.0006153739523142581,-0.0185082796961069,-0.00566450646147132,0,
00:00:03.224,0.0046135950833559,-0.0106734614819288,-0.0114192645996809,0,
00:00:03.228,-0.00101373856887221,0.0026298817247152302,-0.0109140025451779,0,
00:00:03.232,0.00415266584604979,0.0115406643599272,0.0077956048771739,0,
00:00:03.236,0.00368538429029286,0.0170335602015257,0.0008956099045462911,0,
00:00:03.24,-0.00357568892650306,-0.00158277526497841,0.00119867222383618,0,
00:00:03.244,-0.00657785031944513,-0.0114002861082554,0.00626681046560407,0,
00:00:03.248,0.00997884385287762,-0.00655331928282976,-7.54637949285097e-05,0,
00:00:03.252,-0.0101672718301415,-0.00836300104856491,-0.0004978472134098411,0,
00:00:03.256,-0.0189720466732979,0.0028337014373391897,-0.00236257817596197,0,
00:00:03.26,0.0217501949518919,0.00512633379548788,-0.00688260979950428,0,
00:00:03.264,0.0121042942628264,0.0203588865697384,-0.0018234194722026602,0,
00:00:03.268,0.00236622197553515,0.0023673998657614,0.0009308503358624881,0,
00:00:03.272,-0.0124605437740684,-0.0144789712503552,0.0188729949295521,0,
00:00:03.276,-0.00251758610829711,-0.0187643282115459,-0.0113184284418821,0,
00:00:03.28,-0.0193138755857944,-0.0105223394930363,-0.00300590205006301,0,
00:00:03.284,0.021438155323266997,0.0158957578241825,-0.00180344190448523,0,
00:00:03.288,0.00235292292200029,0.016331747174263,0.00710710464045405,0,
00:00:03.292,0.00867663603276014,0.010869768448174,0.000411952467402443,0,
00:00:03.296,-0.00668288627639413,-0.00852139201015234,-0.0091096293181181,0,
00:00:03.3,-0.0098938662558794,-0.0164106134325266,-0.00324158580042422,0,
00:00:03.304,0.0005967912147752941,0.0008882042020559311,0.0095243975520134,0,
00:00:03.308,0.0047702225856483,0.0156422909349203,0.00584336975589395,0,
00:00:03.312,-0.008568111807107929,0.00208125216886401,-0.008984934538602829,0,
00:00:03.316,0.000342539307894185,-0.015463256277144,0.0077731148339808,0,
00:00:03.32,0.00768142938613892,-0.0130069823935628,-0.00572695909067988,0,
00:00:03.324,0.00984731782227755,0.00555679388344288,-0.0006346387090161441,0,
00:00:03.328,-0.0029589780606329398,0.0105107733979821,-9.325990686193109e-05,0,
00:00:03.332,-0.0057779741473496,0.0156094999983907,0.00170060386881232,0,
00:00:03.336,-0.00176811020355672,0.0020702178589999697,-0.0085418438538909,0,
00:00:03.34,0.00340807787142694,-0.0170164052397013,0.00429074093699455,0,
00:00:03.344,-0.00427260808646679,-0.0091577647253871,0.0009549202513881029,0,
00:00:03.348,-0.0011210716329515,-0.00238425680436194,0.0079038105905056,0,
00:00:03.352,-0.00398240610957146,-0.0016041840426623802,-0.0059959478676319105,0,
00:00:03.356,0.00257007521577179,0.012786858715116999,0.00447966391220689,0,
00:00:03.36,0.00813315715640783,0.0160327851772308,-0.0027830335311591604,0,
00:00:03.364,-0.00764822028577328,0.0104253860190511,-0.0030773428734391897,0,
00:00:03.368,-0.00112563336733729,-0.0207910370081663,0.00104097707662731,0,
00:00:03.372,0.0136543605476618,-0.0218677520751953,-0.0011946437880396802,0,
00:00:03.376,-0.0102250343188643,-0.004606691654771571,-0.00225416384637356,0,
00:00:03.38,-0.000299774139421061,0.0131988301873207,0.00295414868742228,0,
00:00:03.384,0.0124439699575305,0.0149211902171373,0.00497957738116384,0,
00:00:03.388,-0.0065897856839001205,0.00968173705041409,-0.000998764531686902,0,
00:00:03.392,-0.0124721480533481,-0.0112461689859629,-0.00653312494978309,0,
00:00:03.396,0.00259256293065846,-0.0164009165018797,0.0064947665669024,0,
00:00:03.4,0.000729074527043849,0.00933426339179277,0.00106569612398744,0,
00:00:03.404,0.00443376647308469,0.0101919639855623,-0.0126834828406572,0,
00:00:03.408,0.0114101730287075,-0.00559059716761112,0.0132867451757193,0,
00:00:03.412,-0.0115495789796114,-0.0124568594619632,0.000736648973543197,0,
00:00:03.416,-0.00186022464185953,-0.00017130869673565,-0.00811742711812258,0,
00:00:03.42,-0.007407168857753279,0.0189513470977545,0.00238492502830923,0,
00:00:03.424,0.00469911377876997,0.00106386735569686,-0.0041709742508828605,0,
00:00:03.428,0.006727162282913921,-0.00630945153534412,0.005524632986634971,0,
00:00:03.432,0.0058017554692924,-0.00833593402057886,0.00117584224790335,0,
00:00:03.436,0.006222231779247521,-0.0071177426725626,-0.00304106762632728,0,
00:00:03.44,-0.0182045437395573,-0.00015224286471493502,0.000628533831331879,0,
00:00:03.444,-0.0035808272659778604,0.0154090886935592,0.00292945932596922,0,
00:00:03.448,0.007464885246008629,0.0107665350660682,-0.00391856394708157,0,
00:00:03.452,0.00267127878032625,-0.0055079753510654,-0.00422684336081147,0,
00:00:03.456,0.00169741897843778,-0.00865652412176132,-0.0013075093738734698,0,
00:00:03.46,-0.0075852675363421405,-0.0136470636352897,0.0078821899369359,0,
00:00:03.464,-0.000950532441493124,0.0071708410978317295,0.00745961861684918,0,
00:00:03.468,0.0109239649027586,0.0130179654806852,0.00237226719036698,0,
00:00:03.472,-0.004864841699600221,0.00599645171314478,-0.0129190646111965,0,
00:00:03.476,-0.000768702477216721,-0.00843695364892483,-0.00527598429471254,0,
00:00:03.48,-0.000548335199709982,-0.0170090980827808,0.00140603852923959,0,
00:00:03.484,-0.0111796846613288,0.000281598244328052,0.0187828205525875,0,
00:00:03.488,0.0155126871541142,0.0141340121626854,-0.00805753655731678,0,
00:00:03.492,0.000144380755955353,0.00378110096789896,-0.007788462098687891,0,
00:00:03.496,-0.0182685069739819,-0.007523410022258759,-0.0052843289449811,0,
00:00:03.5,0.0153626790270209,0.00110172247514129,0.00304553098976612,0,
00:00:03.504,0.0112912617623806,0.004755900707095861,-0.00151661003474146,0,
00:00:03.508,-0.00702414521947503,0.00547987129539251,0.0110086677595973,0,
00:00:03.512,-0.00415208283811808,-0.0039848089218139605,0.00143702072091401,0,
00:00:03.516,-0.0012110483366996,-0.00845174118876457,-0.000237695116084069,0,
00:00:03.52,-0.0101193925365806,-0.004236149601638321,-0.0046991473063826604,0,
00:00:03.524,0.0040875258855521705,-0.007329379208385941,0.000865727139171213,0,
00:00:03.528,0.0037762180436402603,0.0178370587527752,-0.0024017165414989,0,
00:00:03.532,0.00490317307412624,0.0125466259196401,-0.00185652961954474,0,
00:00:03.536,-0.000683696533087641,-0.0123285735026002,-0.00638641230762005,0,
00:00:03.54,-0.0038630990311503397,-0.01475840061903,0.00495047587901354,0,
00:00:03.544,0.00291259377263486,-0.00213203695602715,0.0124634504318237,0,
00:00:03.548,-0.00470570148900151,0.0198191609233618,-0.00702218152582645,0,
00:00:03.552,0.006973236799240111,0.007614957168698309,0.00266347033903003,0,
00:00:03.556,-0.00539823668077588,-0.0123258819803596,-0.0119506055489182,0,
00:00:03.56,-0.000981251243501902,-0.0027275420725345603,0.0153737645596266,0,
00:00:03.564,0.0036292951554059995,-0.00237058335915208,-0.00368692958727479,0,
00:00:03.568,0.004099447745829821,0.00197533029131591,-0.0102805690839887,0,
00:00:03.572,-0.000419802468968555,0.00374974613077939,0.00141035998240113,0,
00:00:03.576,-0.00751708820462227,-0.0036801886744797204,0.0148385725915432,0,
00:00:03.58,-0.0035919963847845797,-0.00635963166132569,-0.00467011518776417,0,
00:00:03.584,-0.000608589849434793,0.00887960009276867,-0.0136806378141046,0,
00:00:03.588,0.009921564720571041,0.0036951315123587795,0.000305697147268802,0,
00:00:03.592,0.00924460962414742,-0.009125092998147009,0.0160633940249681,0,
00:00:03.596,-0.0138704320415854,-0.00110599992331117,-0.0047333063557744,0,
00:00:03.6,-0.00645884685218334,0.0100355483591557,-0.00817942712455988,0,
00:00:03.604,0.009939850308001041,0.00251268711872399,0.00241564726457,0,
00:00:03.608,0.0035801928024739,-0.00262123439460993,0.0079668452963233,0,
00:00:03.612,0.000329842936480418,7.6478929258883e-05,-0.00428538536652923,0,
00:00:03.616,-0.018048258498311,-0.008901510387659071,-0.005953751970082521,0,
00:00:03.62,0.0033547580242157,-0.0145291583612561,-0.00046317020314745594,0,
00:00:03.624,0.0149901742115617,0.0223264843225479,0.009766204282641409,0,
00:00:03.628,0.00621038023382425,0.0198509301990271,0.00223349244333804,0,
00:00:03.632,-0.00781009392812848,-0.0210329946130514,-0.00468746945261955,0,
00:00:03.636,-0.007846071384847159,-0.0104439752176404,0.00021439636475406598,0,
00:00:03.64,-0.00295356125570834,-0.007426963653415441,-0.00292064412496984,0,
00:00:03.644,0.00147200550418347,0.00570896826684475,-0.0020361568313092,0,
00:00:03.648,0.00957177393138409,0.0137436138466001,-0.00423399172723293,0,
00:00:03.652,-0.0134430732578039,-0.00132869032677263,0.00106693664565682,0,
00:00:03.656,0.00204196129925549,-0.00183176132850349,0.010850815102458,0,
00:00:03.66,0.0134039297699928,0.0128483455628157,0.0006107256049290299,0,
00:00:03.664,0.0036137513816356702,-0.008445450104773041,-0.0048868409357965,0,
00:00:03.668,-0.00768953142687678,-0.00278197904117405,0.00759351113811135,0,
00:00:03.672,-0.0018091690726578199,-0.000607414171099663,0.000770458369515836,0,
00:00:03.676,-0.000935598684009165,-0.00442035309970379,-0.0204630605876446,0,
00:00:03.68,0.00115050747990608,-0.0048489714972674795,0.00061356060905382,0,
00:00:03.684,-0.0025504776276648,-0.010203318670392,0.00533582549542189,0,
00:00:03.688,0.00254170899279416,0.0178641434758902,0.00614193920046091,0,
00:00:03.692,-0.0119063192978501,0.0148091558367014,0.0163072347640991,0,
00:00:03.696,0.0102983750402927,-0.0036845521535724397,-0.0132541265338659,0,
00:00:03.7,0.00175723468419164,-0.0132741704583168,-0.0136412279680371,0,
00:00:03.704,-0.0042607658542692705,-0.00286655500531197,0.0063435179181397,0,
00:00:03.708,0.012191972695291,0.00336441956460476,0.00484254164621234,0,
00:00:03.712,-0.00659959157928824,0.00019440229516476398,0.00383836752735078,0,
00:00:03.716,-0.00425050128251314,-0.00629328284412622,-0.00467562256380916,0,
00:00:03.72,-0.000981583027169108,-0.00401191040873528,0.00291294720955193,0,
00:00:03.724,0.00527595076709986,0.0113851008936763,-0.0058895954862237,0,
00:00:03.728,0.00185525324195623,0.0133058680221438,-0.000835276150610298,0,
00:00:03.732,-0.00404942035675049,0.00812794361263514,-0.000423386722104624,0,
00:00:03.736,-0.00330286077223718,-0.0129513302817941,0.00190664222463965,0,
00:00:03.74,-0.00270207575522363,-0.0222086254507303,0.00273155677132308,0,
00:00:03.744,0.00336285377852619,0.0016510590212419599,0.0018623959040269301,0,
00:00:03.748,0.00358669785782695,0.0102480389177799,0.00863468553870916,0,
00:00:03.752,0.00362558872438967,0.00227965763770044,-0.008766035549342629,0,
00:00:03.756,-0.00449536833912134,-0.00791297107934952,-0.00785266607999802,0,
00:00:03.76,-0.00521917501464486,0.00399977155029774,-0.0017324396176263699,0,
00:00:03.764,0.0020288599189370897,0.0169739983975887,0.00499406829476357,0,
00:00:03.768,0.0160010736435652,0.0126079982146621,0.00427912501618266,0,
00:00:03.772,-0.007664424367249009,-0.0178709793835878,-0.000754150736611336,0,
00:00:03.776,-0.0200620125979185,-0.0346189364790916,-0.009441902860999109,0,
00:00:03.78,0.0018802584381774103,-0.00338374706916511,0.0241785943508148,0,
00:00:03.784,0.0181669984012842,0.0245799738913774,-0.00481280032545328,0,
00:00:03.788,0.00245584920048714,0.0214687548577785,-0.0201631244271994,0,
00:00:03.792,0.00266894092783332,0.0047680726274848,-0.0018973799888044602,0,
00:00:03.796,-0.00377112929709256,0.000282879773294553,-0.000685150153003633,0,
00:00:03.8,-0.0110352886840701,-0.0278534945100546,0.0160093456506729,0,
00:00:03.804,-0.0159699004143476,-0.0068535334430635,0.00408917386084795,0,
00:00:03.808,0.0133707607164979,0.0036424179561436202,-0.0047895428724587,0,
00:00:03.812,0.0133756110444665,0.00240447209216654,-0.000574123580008745,0,
00:00:03.816,0.0041847820393741105,0.0027493839152157302,-0.007869548164308071,0,
00:00:03.82,-0.00972551573067904,0.00495575368404388,0.00140927254687995,0,
00:00:03.824,-0.0023179885465651803,0.00856506545096636,0.00303178280591965,0,
00:00:03.828,0.000146731865243055,-0.000127094259369187,0.00583598203957081,0,
00:00:03.832,0.00471223518252373,-6.513483094749971e-05,-0.00394523935392499,0,
00:00:03.836,-0.00568121438845992,-7.760842709103599e-05,-0.004188742488622671,0,
00:00:03.84,-0.00121423555538058,-0.0178725458681583,-0.005449955817312,0,
00:00:03.844,-0.00288639473728836,-0.0074404063634574405,0.0072261649183929,0,
00:00:03.848,0.0037128450348973296,0.0155485840514302,0.00547552341595292,0,
00:00:03.852,0.008567973971366879,0.0108214998617768,-0.0037299196701496796,0,
00:00:03.856,0.00238645146600902,0.00251602474600077,-0.000974495487753302,0,
00:00:03.86,-0.00345525634475052,-0.00578303961083293,-0.00217261607758701,0,
00:00:03.864,-0.007333826739341021,-0.0121359815821052,-6.76838753861375e-05,0,
00:00:03.868,-0.00584393367171288,-0.00743717001751065,0.007743084803223609,0,
00:00:03.872,0.00474621169269085,0.00018564285710453998,-0.00634386437013745,0,
00:00:03.876,0.0027474216185510198,0.00534377992153168,-0.00418913038447499,0,
00:00:03.88,-0.00464472500607371,0.008458973839879041,0.00501889735460281,0,
00:00:03.884,0.00859078671783209,0.0106855882331729,-0.0045933835208416,0,
00:00:03.888,0.0131461611017585,0.0042380909435451,0.0204204246401787,0,
00:00:03.892,-0.0219507776200771,-0.0071600922383368,-0.00335410144180059,0,
00:00:03.896,-0.00579682271927595,-0.0110738454386592,-0.0134472521021962,0,
00:00:03.9,0.00864837132394314,-0.0034357279073447,-0.0110124694183469,0,
00:00:03.904,0.0094855222851038,-0.00318139488808811,0.00104726897552609,0,
00:00:03.908,-0.00229508266784251,-0.00375909358263016,0.00196893257088959,0,
00:00:03.912,-0.00426247389987111,0.015611320734024,0.0056373528204858294,0,
00:00:03.916,0.00385462935082614,0.0264858659356833,0.00603916915133595,0,
00:00:03.92,0.00232264236547053,-0.006082448177039621,0.00546625442802906,0,
00:00:03.924,-0.0157535243779421,-0.0340001657605171,7.42536285542883e-05,0,
00:00:03.928,0.00024252958246506802,-0.01279017329216,-0.00593261234462261,0,
00:00:03.932,0.0059118028730154,0.00326550542376935,0.00157158193178475,0,
00:00:03.936,-0.00304479617625475,0.00236787344329059,-0.0072736800648272,0,
00:00:03.94,0.00797256082296371,0.0140634011477232,0.000388000858947635,0,
00:00:03.944,0.00992627162486315,0.0349129103124142,0.00167175917886198,0,
00:00:03.948,0.00456411577761173,0.0179754532873631,0.0009632027940824631,0,
00:00:03.952,-0.0147486422210932,-0.0396228842437267,-0.00399617152288556,0,
00:00:03.956,-0.0111424885690212,-0.032758817076682996,0.00167610764037818,0,
00:00:03.96,0.00037632795283570897,-0.00749235507100821,-0.00320352730341256,0,
00:00:03.964,0.0050004515796899796,0.0116178672760725,0.00785507913678885,0,
00:00:03.968,0.00484934728592634,0.0213346127420664,0.0155250700190663,0,
00:00:03.972,0.00248532276600599,0.0124523611739278,-0.0165298767387867,0,
00:00:03.976,-0.00412909686565399,-0.00786111038178205,-0.00606687925755978,0,
00:00:03.98,0.00255508651025593,-0.00104045297484845,0.00214506080374122,0,
00:00:03.984,0.0016901093767955901,-0.00147670845035464,0.00474139349535108,0,
00:00:03.988,-0.000650390284135938,-0.000596054480411112,-0.0009603585349395869,0,
00:00:03.992,-0.0019021512707695397,-0.00450744992122054,-0.00614677276462317,0,
00:00:03.996,-0.00171252398286015,-0.00500210234895349,-0.0073948516510427,0,
00:00:04,-0.004887577146291729,0.00193511310499161,0.0134797086939216,0,
00:00:04.004,0.00419441843405366,0.00765257654711604,0.0199422407895327,0,
00:00:04.008,0.00404954515397549,0.00048801489174366,-0.0180146843194962,0,
00:00:04.012,-0.000953101785853505,-0.0067704087123274794,-0.00606364384293556,0,
00:00:04.016,0.00489365728572011,-0.00280708563514054,-0.00277699762955308,0,
00:00:04.02,-0.00428626500070095,0.00401798821985722,-0.00501453457400203,0,
00:00:04.024,-0.00661734445020556,0.00388721632771194,0.0132284350693226,0,
00:00:04.028,-0.0017060557147488,-0.0007425628136843441,0.0017459113150835,0,
00:00:04.032,0.012998029589653,0.00106033228803426,-0.0015119441086426401,0,
00:00:04.036,-0.0163615681231022,-0.00847841706126928,0.00884968228638172,0,
00:00:04.04,0.00227956799790263,0.00657220557332039,-0.0126760164275765,0,
00:00:04.044,0.014062094502151,0.00924752932041883,-8.62369779497385e-05,0,
00:00:04.048,0.00178959197364748,-0.0020112602505832898,-0.007070741150528191,0,
00:00:04.052,-0.00376498559489846,-0.0169688034802675,0.00572830345481634,0,
00:00:04.056,0.0017701281467452602,0.00437662331387401,0.00144897063728422,0,
00:00:04.06,-0.00234591960906982,0.008365621790289879,0.0035029209684580604,0,
00:00:04.064,-0.00501975743100047,0.0022904088255018,0.00369246723130345,0,
00:00:04.068,-0.0040809698402881605,0.00324600841850042,-0.000584352936130017,0,
00:00:04.072,-0.0157132148742676,-0.014433634467422999,-0.0054476950317621205,0,
00:00:04.076,0.00907469447702169,-0.00994436163455248,-0.00765491183847189,0,
00:00:04.08,0.015935905277728996,-0.00192701374180615,0.00171287567354739,0,
00:00:04.084,0.0103994645178318,0.0151018872857094,0.0113460272550583,0,
00:00:04.088,-0.0009545615757815539,0.0223762039095163,0.0023595632519573,0,
00:00:04.092,-0.00983497593551874,-0.009162569418549541,-0.00748806772753596,0,
00:00:04.096,-0.0102735320106149,-0.0167739633470774,-0.00480495765805244,0,
00:00:04.1,-0.00297085009515285,-0.00404058257117867,0.00430112984031439,0,
00:00:04.104,0.00526658911257982,0.0104258824139833,0.0052631022408604605,0,
00:00:04.108,0.005364817567169671,0.00650122528895736,-0.00406596437096596,0,
00:00:04.112,0.0044692116789519796,-0.00268630939535797,-0.00572099210694432,0,
00:00:04.116,-0.000365700048860163,-0.00463523296639323,-0.0006785299628973009,0,
00:00:04.12,-0.00962784886360168,-0.0049848104827106,0.00112096173688769,0,
00:00:04.124,-0.00380296958610415,0.00159562332555652,0.007908075116574759,0,
00:00:04.128,0.004916243720799679,0.0029490226879715898,-0.000173733846168034,0,
00:00:04.132,0.007513825781643391,-0.00226375716738403,0.0109549388289452,0,
00:00:04.136,-0.0036742980591952796,0.000139465613756329,-0.00441247038543224,0,
00:00:04.14,0.00581575278192759,-0.00175076269079,-0.0158619526773691,0,
00:00:04.144,0.00107839284464717,0.0147550972178578,-0.00123979744967073,0,
00:00:04.148,-0.00198784004896879,0.0151739958673716,-0.00105390581302345,0,
00:00:04.152,-0.0114026386290789,-0.0120120830833912,-0.00132646376732737,0,
00:00:04.156,-0.00301173771731555,-0.0366256609559059,0.00656993314623833,0,
00:00:04.16,0.0131346201524138,-0.0014547590399161,0.0131637407466769,0,
00:00:04.164,-0.0114965150132775,0.0136400228366256,-0.000565427995752543,0,
00:00:04.168,-0.0029283980838954397,0.0159985665231943,-0.00140574097167701,0,
00:00:04.172,0.0092430030927062,0.00510667404159904,-0.00693387119099498,0,
00:00:04.176,0.007374553941190241,-0.0019140406511724,-0.0117142787203193,0,
00:00:04.18,0.0014565014280378801,-0.0026043199468404102,0.0043560229241848,0,
00:00:04.184,-0.00298114866018295,-0.00407201983034611,0.006575798150151971,0,
00:00:04.188,-0.004236112814396621,-0.00571457808837295,-0.000729912600945681,0,
00:00:04.192,-0.00301805650815368,-0.003915828187018629,-0.000352369417669252,0,
00:00:04.196,-0.00505608366802335,-0.0065666469745338,-0.0010332253295928199,0,
00:00:04.2,0.00265871244482696,0.0126595012843609,0.00539863668382168,0,
00:00:04.204,0.0067273424938321105,0.0211841557174921,0.00240302830934525,0,
00:00:04.208,-0.0009025261970236901,-0.00115117686800659,0.00459608249366283,0,
00:00:04.212,0.009264818392694,-0.0202258415520191,-0.00725734559819102,0,
00:00:04.216,-0.00350701110437512,-0.0140230720862746,-0.0159342419356108,0,
00:00:04.22,-0.0133849093690515,0.00276082311756909,0.0026886013802141,0,
00:00:04.224,0.000940052035730332,0.0158088319003582,0.00573754357174039,0,
00:00:04.228,0.00393168907612562,0.0127616869285703,0.00981945171952248,0,
00:00:04.232,0.0087658753618598,-0.0031203173566609604,0.0116729130968452,0,
00:00:04.236,-0.0220755469053984,-0.0282689202576876,-0.0191002637147903,0,
00:00:04.24,0.0017858409555628898,0.007639075163751841,-0.00802912190556526,0,
00:00:04.244,0.0236724391579628,0.0241513922810555,0.00996586307883263,0,
00:00:04.248,0.003940703812986611,-0.00706359930336475,0.00211379816755652,0,
00:00:04.252,-0.004238067660480739,-0.0201902221888304,-0.0032618020195514,0,
00:00:04.256,-0.00803096499294043,-0.0125325974076986,-0.00587121117860079,0,
00:00:04.26,-0.0169819351285696,0.0131861381232738,0.0067772688344121,0,
00:00:04.264,0.0073073557578027205,0.0373010635375977,0.00525928661227226,0,
00:00:04.268,0.0114588420838118,0.00553410639986396,-0.007949315011501309,0,
00:00:04.272,0.0019353874959051603,-0.0308664068579674,0.0070912544615566704,0,
00:00:04.276,-0.00918653234839439,-0.021060386672616,-0.000823212205432355,0,
00:00:04.28,-0.00399969797581434,0.00067291030427441,-0.00505300518125296,0,
00:00:04.284,0.00665629981085658,0.0132114803418517,-0.000163337273988873,0,
00:00:04.288,0.00940699502825737,0.0113332141190767,0.0032425185199827,0,
00:00:04.292,-0.00528897205367684,0.00010616230429150201,-0.00105404166970402,0,
00:00:04.296,-0.00374271464534104,0.00204737181775272,0.0007095835753716531,0,
00:00:04.3,-0.0018204012885689699,0.000747262209188193,-0.00857704877853394,0,
00:00:04.304,0.0019389141816645898,-0.00780099257826805,0.000630012538749725,0,
00:00:04.308,-0.00321066309697926,0.00291417492553592,0.024008946493268,0,
00:00:04.312,0.00137539755087346,-0.0084086935967207,-0.0127552878111601,0,
00:00:04.316,0.00218438706360757,-0.00596024096012115,-0.0126787647604942,0,
00:00:04.32,0.00124961114488542,0.010737051256001,-0.00038225093157962,0,
00:00:04.324,3.5472654417390004e-05,0.00940193049609661,0.0052752448245883,0,
00:00:04.328,-0.00277659529820085,-0.0123758688569069,0.00949640106409788,0,
00:00:04.332,-0.0009112330735661089,-0.00649592280387878,0.000728071492630988,0,
00:00:04.336,0.0051863142289221295,0.021657407283783,0.0006336190854199231,0,
00:00:04.34,-0.00440573412925005,-0.00441312277689576,-0.0119893532246351,0,
00:00:04.344,0.00806101504713297,-0.0129413120448589,-0.00980050303041935,0,
00:00:04.348,-0.000256385828834027,-0.00473144231364131,0.0169368740171194,0,
00:00:04.352,-0.0174262244254351,0.00991417560726404,0.0079911919310689,0,
00:00:04.356,0.00280052865855396,0.007023093290627,-0.0084598371759057,0,
00:00:04.36,0.00958473421633244,-0.00379588711075485,-0.00297406502068043,0,
00:00:04.364,0.00917725265026093,-0.0019513214938342602,0.0010568362195044801,0,
00:00:04.368,-0.0130504639819264,-0.00111934274900705,-0.0021049724891781803,0,
00:00:04.372,-0.005367635283619171,-0.00259380019269884,-0.00747131183743477,0,
00:00:04.376,0.006504966877400879,-0.00220270501449704,0.00224592816084623,0,
00:00:04.38,0.0076395436190068704,0.00379790714941919,0.00827180501073599,0,
00:00:04.384,-0.0008890906465239821,0.0120302084833384,0.00101139571052045,0,
00:00:04.388,-0.00386771094053984,0.00173529621679336,0.00825999770313501,0,
00:00:04.392,-0.00323995924554765,-0.0153408059850335,0.00047561095561832195,0,
00:00:04.396,0.00293669779784977,-0.0153283700346947,-0.0166125688701868,0,
00:00:04.4,-0.00338102784007788,0.00700844032689929,-0.00366594549268484,0,
00:00:04.404,-0.0019055400043726,0.0282800830900669,0.00991726294159889,0,
00:00:04.408,-0.00117907975800335,-0.00854408647865057,0.00155071122571826,0,
00:00:04.412,0.002213777275756,-0.0143424449488521,-0.00331515329889953,0,
00:00:04.416,0.0056605483405292,-0.00281692179851234,-0.00348020298406482,0,
00:00:04.42,0.00477031944319606,0.0019332447554916102,0.0113390786573291,0,
00:00:04.424,-0.00499394861981273,0.0115058841183782,0.00400501303374767,0,
00:00:04.428,-0.00242327805608511,0.00308628380298615,-0.0149668138474226,0,
00:00:04.432,-0.00315784360282123,-0.00260696234181523,-0.00794609822332859,0,
00:00:04.436,0.0038379237521439795,-0.00435204897075891,0.00877790153026581,0,
00:00:04.44,-0.00209126807749271,-0.00321352039463818,0.00584714254364371,0,
00:00:04.444,0.0072536994703114,0.0031383468303829397,-0.00220892089419067,0,
00:00:04.448,-0.00278047774918377,-0.00316942064091563,0.00299950316548347,0,
00:00:04.452,-0.0149696106091142,-0.00383479474112391,0.005328565370291471,0,
00:00:04.456,0.00946925394237041,-0.00121483346447349,-0.007486640010029079,0,
00:00:04.46,-0.0018303019460290699,0.00168126984499395,0.00032171155908145,0,
00:00:04.464,0.0027520544826984397,0.0134771233424544,-0.00461149448528886,0,
00:00:04.468,0.0142370918765664,0.0136854676529765,-0.0041435225866735,0,
00:00:04.472,0.000657673925161362,-0.00984372571110725,0.005394939798861739,0,
00:00:04.476,-0.0100254844874144,-0.0246669910848141,0.0005014077178202571,0,
00:00:04.48,-0.0213490687310696,-0.00685808528214693,0.0009106245706789199,0,
00:00:04.484,0.00866156723350286,0.009424326010048391,0.00570867257192731,0,
00:00:04.488,0.009691960178315641,0.0160074345767498,-0.000680546741932631,0,
00:00:04.492,0.00719802733510733,0.009162526577711109,-0.00503435730934143,0,
00:00:04.496,-0.00182081235107034,-0.0128156431019306,-0.000560588727239519,0,
00:00:04.5,-0.00431681098416448,-0.00278213550336659,0.0006123512866906821,0,
00:00:04.504,-0.00320898718200624,0.0105113349854946,0.0005131337093189361,0,
00:00:04.508,0.0052321897819638296,-0.00326055707409978,-0.00400397880002856,0,
00:00:04.512,-0.00726782158017159,-0.0203004777431488,0.00178503419738263,0,
00:00:04.516,-0.00363276223652065,-0.004153728019446129,0.0009728879667818551,0,
00:00:04.52,8.197494025807829e-05,0.0104148648679256,0.005883665289729829,0,
00:00:04.524,0.008786194026470179,0.0176810417324305,0.0101083694025874,0,
00:00:04.528,0.007658109068870541,0.00192848534788936,-0.0165894869714975,0,
00:00:04.532,-0.004104508552700279,-0.00953951757401228,-0.00660816766321659,0,
00:00:04.536,-0.00319369626231492,-0.00440229848027229,0.0096221100538969,0,
00:00:04.54,-0.000374626921257004,-0.00057034712517634,-0.00734000420197845,0,
00:00:04.544,-0.005332577042281629,0.00752486987039447,0.007848306559026241,0,
00:00:04.548,0.00441460683941841,-0.00440602144226432,-0.0035215599928051203,0,
00:00:04.552,-0.00591761153191328,-0.0102963550016284,-0.00584502518177032,0,
00:00:04.556,0.00260968273505569,0.0116688283160329,0.0140750855207443,0,
00:00:04.56,0.00379475695081055,0.0114425821229815,0.0088225994259119,0,
00:00:04.564,0.00605831015855074,-0.00760442484170198,-0.0119607830420136,0,
00:00:04.568,-0.00628862110897899,-0.00748364208266139,-0.00405779993161559,0,
00:00:04.572,-0.0027321453671902396,-0.00636183936148882,-0.0102939596399665,0,
00:00:04.576,-0.0022283315192908,-0.008780848234891891,0.000776500557549298,0,
00:00:04.58,0.00720397150143981,0.00548259308561683,0.0085709672421217,0,
00:00:04.584,-0.00113098102156073,0.0151075320318341,0.00653072725981474,0,
00:00:04.588,-0.0128170736134052,0.00858833640813828,-0.00252107530832291,0,
00:00:04.592,0.00874383933842182,-0.0027106830384582303,0.00186633958946913,0,
00:00:04.596,0.0147742321714759,-0.0040442990139126795,-7.12699193172739e-06,0,
00:00:04.6,0.00012796213559340702,-0.000637116376310587,-0.00420877803117037,0,
00:00:04.604,-0.0080406628549099,-0.00333553948439658,0.00148728245403618,0,
00:00:04.608,-0.0208280365914106,-0.0126181077212095,0.000167971942573786,0,
00:00:04.612,0.00351225212216377,-0.00306323007680476,-0.007763141300529241,0,
00:00:04.616,0.0143377147614956,0.0102876229211688,-0.0020387440454214803,0,
00:00:04.62,-0.0006405216990970081,0.0110539020970464,0.0038301313761621705,0,
00:00:04.624,0.0026810965500772,0.00295992963947356,0.0117315808311105,0,
00:00:04.628,0.0008213157416321339,-0.00791877880692482,-0.00020254803530406201,0,
00:00:04.632,-0.00564479688182473,-0.0039991089142859,-7.46257937862538e-05,0,
00:00:04.636,0.0057129198685288395,-0.0010497991461306802,0.00059197167865932,0,
00:00:04.64,-0.00459673441946507,-0.00137063697911799,-0.00865638814866543,0,
00:00:04.644,-0.00578075041994452,-0.00296041369438171,-0.0105505874380469,0,
00:00:04.648,0.00183826859574765,0.008620203472673891,0.0031075717415660602,0,
00:00:04.652,0.0142150139436126,0.0201000478118658,0.00026437928318046,0,
00:00:04.656,-0.00517066288739443,-0.0121278492733836,0.006384769454598429,0,
00:00:04.66,-0.0117394421249628,-0.0277428478002548,0.0122608384117484,0,
00:00:04.664,0.0005081298295408491,0.00293413572944701,-0.0055287042632699,0,
00:00:04.668,0.0105174714699388,0.013833848759532,0.00011499886022647801,0,
00:00:04.672,-0.004502702970057729,0.004898806102573871,-0.00158692861441523,0,
00:00:04.676,-0.0100445654243231,0.00295936758629978,-0.0094028552994132,0,
00:00:04.68,0.0104106171056628,0.00332563137635589,0.0010862627532333099,0,
00:00:04.684,0.00585603108629584,-0.0070058433338999705,0.00583164161071181,0,
00:00:04.688,8.54472018545493e-05,-0.00842648651450872,-0.0034307006280869198,0,
00:00:04.692,-0.005293725524097679,-6.93145484547131e-05,0.0009262853418476881,0,
00:00:04.696,-0.0057141212746501,0.00323088490404189,-0.0018945757765322898,0,
00:00:04.7,0.0077197621576488,0.0052266651764512105,0.0117187090218067,0,
00:00:04.704,0.00557779520750046,-0.000416291179135442,0.0037611087318509795,0,
00:00:04.708,-0.00864227581769228,0.00451265461742878,-0.007180361542850729,0,
00:00:04.712,-0.0149558689445257,-0.0112348347902298,-0.016368268057703996,0,
00:00:04.716,0.00731145916506648,-0.0053535564802587,0.0018535238923504899,0,
00:00:04.72,0.0142679139971733,0.007084318902343509,0.00499654328450561,0,
00:00:04.724,0.00104457209818065,0.00875943433493376,0.00533832749351859,0,
00:00:04.728,0.00223345402628183,0.006337118335068229,0.007413878571242091,0,
00:00:04.732,-0.0141330128535628,-0.0155860856175423,0.00486835837364197,0,
00:00:04.736,-0.00713989231735468,-0.008616290055215359,-0.0126181617379189,0,
00:00:04.74,0.00886309705674648,0.0044827302917838105,-0.00895769335329533,0,
00:00:04.744,0.00542247714474797,0.0120221106335521,0.0056482111103832704,0,
00:00:04.748,0.0035126374568790197,0.0116804586723447,-0.0011281255865469599,0,
00:00:04.752,-0.00529564404860139,-0.00602857116609812,0.0026968691963702397,0,
00:00:04.756,-0.00178675260394812,-0.0167423859238625,0.00074628135189414,0,
00:00:04.76,-0.0022510404232889396,-0.00110504671465605,0.00116251246072352,0,
00:00:04.764,0.00652840500697494,0.0119383307173848,0.0053412658162415,0,
00:00:04.768,-0.00393980648368597,-0.00657419068738818,-0.0055017420090735,0,
00:00:04.772,0.00121335359290242,-0.0112807909026742,-0.00161386316176504,0,
00:00:04.776,0.00476731127128005,0.0005630552768707281,-0.0036771192681044297,0,
00:00:04.78,-0.0171695295721293,0.0172899831086397,0.0049625323154032204,0,
00:00:04.784,0.00318498932756484,0.0118883801624179,0.0122478548437357,0,
00:00:04.788,0.0147319305688143,-0.00556632596999407,0.000829233904369175,0,
00:00:04.792,0.0060972962528467204,-0.013616313226521001,-0.0206437986344099,0,
00:00:04.796,-0.0057388702407479295,-0.00231130002066493,-0.00582326203584671,0,
00:00:04.8,-0.0181052759289742,0.00611996883526444,0.0126744518056512,0,
00:00:04.804,0.00745056895539165,0.00272050290368497,-0.000332042603986338,0,
00:00:04.808,0.0017989310435950802,-0.0057144556194543795,-0.000952383677940816,0,
00:00:04.812,0.00146133406087756,-0.00954740401357412,0.00311716389842331,0,
00:00:04.816,0.00166654342319816,0.0026695972774177803,-1.6854291970958e-05,0,
00:00:04.82,0.007376074790954591,0.0140716452151537,-0.004401352256536479,0,
00:00:04.824,-0.00158423895481974,0.000583435583394021,0.0018828584579750898,0,
00:00:04.828,-0.0157187562435865,0.00145773869007826,0.0198426488786936,0,
00:00:04.832,0.00948397070169449,0.00634280638769269,-0.0119309732690454,0,
00:00:04.836,0.00257526198402047,-0.0139223104342818,-0.0174168590456247,0,
00:00:04.84,-0.0056006396189332,-0.008000016212463379,0.0036512168589979397,0,
00:00:04.844,-0.000497567758429796,0.00157094828318805,0.00269973184913397,0,
00:00:04.848,-0.000316804856993258,-3.69915028386458e-06,0.005430809222161771,0,
00:00:04.852,-0.00030224546208046404,0.0009759585955180231,-0.00530380290001631,0,
00:00:04.856,0.0106914481148124,0.00844014249742031,0.0119016142562032,0,
00:00:04.86,-0.00263473973609507,0.00282680243253708,0.00275319558568299,0,
00:00:04.864,-0.00660109706223011,0.00138848950155079,-0.00661517167463899,0,
00:00:04.868,0.0059635289944708295,-0.00211413856595755,-0.00861057359725237,0,
00:00:04.872,-0.0019294933881610602,-0.00578749179840088,-0.00486712995916605,0,
00:00:04.876,-0.00107190618291497,0.0114349154755473,0.00865362957119942,0,
00:00:04.88,-0.00140975264366716,-0.00719429971650243,0.008369415067136291,0,
00:00:04.884,-0.005284283775836229,-0.0172138269990683,-0.005620214156806471,0,
00:00:04.888,-0.00258512375876307,-0.00399800343438983,-0.00913633499294519,0,
00:00:04.892,0.0117783872410655,0.0122282663360238,0.0115759167820215,0,
00:00:04.896,2.96753241855185e-05,0.007435668725520371,-0.00232438882812858,0,
00:00:04.9,-0.000125764665426686,0.00637833122164011,0.0007222939748317,0,
00:00:04.904,-0.00113487849012017,0.0136163393035531,-0.0047366903163492706,0,
00:00:04.908,-0.00154503528028727,-0.004557499196380379,-0.0019212638726458,0,
00:00:04.912,-0.00532851088792086,-0.0304024126380682,-0.0005676496075466281,0,
00:00:04.916,0.00143821549136192,-0.0108556682243943,-0.0014255027053877698,0,
00:00:04.92,0.00962477270513773,0.0138685954734683,0.0117764137685299,0,
00:00:04.924,0.0006459838477894661,0.0189869068562984,0.0141023797914386,0,
00:00:04.928,-0.0104250004515052,0.004707645624876021,-0.0125250276178122,0,
00:00:04.932,0.00347915897145867,-0.0068185296840965704,-0.0110910190269351,0,
00:00:04.936,-0.00349556328728795,-0.0116834072396159,-0.00469729024916887,0,
00:00:04.94,-0.00105236191302538,-0.00188760203309357,-0.0008517201640643179,0,
00:00:04.944,0.00630165077745914,0.00339366192929447,0.00402955012395978,0,
00:00:04.948,-0.000801391433924437,0.0063359821215272,0.00968370214104652,0,
00:00:04.952,-0.0032320688478648697,0.0047139599919319205,0.0019877017475664603,0,
00:00:04.956,0.00407623732462525,-0.0032611314672976698,-0.00219554943032563,0,
00:00:04.96,0.000390996312489733,-0.00047264358727261397,-0.00318775093182921,0,
00:00:04.964,0.0137035669758916,-0.00041091063758358397,-0.0042817210778594,0,
00:00:04.968,-0.0147019606083632,-0.0135224768891931,0.0034239902161061803,0,
00:00:04.972,-0.0140696885064244,0.000102186742878985,0.00023990514455363198,0,
00:00:04.976,0.00477675348520279,0.00824930984526873,-0.00251792091876268,0,
00:00:04.98,0.00578389316797256,0.00203166133724153,-0.000280883396044374,0,
00:00:04.984,0.00435611791908741,-0.0008680927567183969,0.00587472878396511,0,
00:00:04.988,0.0017848080024123198,0.00507261324673891,0.00017047955770976798,0,
00:00:04.992,0.0016052798600867401,0.00834137480705976,-0.00413165567442775,0,
00:00:04.996,-0.00565533293411136,-0.00773345632478595,-0.0020678595174104,0,
00:00:05,0.004963971208781,-0.006363073363900179,0.00273363292217255,0,
00:00:05.004,-0.0116073843091726,-0.0053867376409471,0.00615289295092225,0,
00:00:05.008,0.0018843965372070698,-0.00023677283024881,-0.0101113682612777,0,
00:00:05.012,0.00495765218511224,-0.000751504383515567,0.00357929430902004,0,
00:00:05.016,0.00317617389373481,0.0058987019583582895,0.00549972616136074,0,
00:00:05.02,0.0024538014549762,0.00983949098736048,-0.008199999108910559,0,
00:00:05.024,-0.00341988983564079,0.00043107112287543703,-0.00203629885800183,0,
00:00:05.028,-0.007616544142365459,-0.00629755156114697,-0.00184286152943969,0,
00:00:05.032,0.000501845148392022,-0.000544407579582185,0.0177446622401476,0,
00:00:05.036,0.00582970259711146,-0.00292948470450938,0.0018646961543709,0,
00:00:05.04,0.00758386729285121,0.000396619754610583,-0.013429781422019,0,
00:00:05.044,-0.00833715125918388,-0.00584346335381269,-0.00851394422352314,0,
00:00:05.048,-0.007868309505283829,-0.00869332905858755,-0.003961658105254171,0,
00:00:05.052,0.0106314430013299,0.0164847038686275,0.013418517075478998,0,
00:00:05.056,0.00798936653882265,0.0326993726193905,0.00705616269260645,0,
00:00:05.06,-0.00204676133580506,-0.0213071033358574,-0.00185996387153864,0,
00:00:05.064,-0.028234725818037997,-0.0213268231600523,0.00044231917127035596,0,
00:00:05.068,0.00890690740197897,-0.0183921027928591,-0.00229313620366156,0,
00:00:05.072,0.00947182811796665,0.005537102930247779,-0.007896376773715021,0,
00:00:05.076,0.0123116690665483,0.0334110409021378,-0.000981524819508195,0,
00:00:05.08,-0.00437240581959486,0.0155217656865716,-0.0017742819618433699,0,
00:00:05.084,-0.000484241871163249,-0.0105322534218431,0.0109788682311773,0,
00:00:05.088,-0.00531079759821296,-0.0226731970906258,-0.0009564171195961539,0,
00:00:05.092,-0.00880175735801458,-0.0193002503365278,-0.00890840496867895,0,
00:00:05.096,-0.0038996932562440603,0.0147734424099326,0.008943768218159679,0,
00:00:05.1,0.0103585636243224,0.0266216695308685,0.00970011949539185,0,
00:00:05.104,0.00975863263010979,0.00275183375924826,-0.00137139833532274,0,
00:00:05.108,-0.009284095838665959,-0.0272179860621691,-0.0228825807571411,0,
00:00:05.112,0.0006885838229209179,-0.0128760738298297,-0.000570664589758962,0,
00:00:05.116,0.00194774894043803,0.00994731951504946,0.00541303120553494,0,
00:00:05.12,0.00247538345865905,0.0245079826563597,0.008945866487920279,0,
00:00:05.124,0.00324453902430832,0.00670850835740566,0.00677014933899045,0,
00:00:05.128,-0.015161725692451,-0.0177665073424578,-0.000373691815184429,0,
00:00:05.132,-0.00629167119041085,-0.00804872438311577,-0.00694782054051757,0,
00:00:05.136,0.0130979595705867,-0.000425109261414036,-0.009424382820725441,0,
00:00:05.14,0.00952108204364777,0.007471746299415829,0.00268654758110642,0,
00:00:05.144,-0.003395487787202,0.007978349924087521,0.0174737609922886,0,
00:00:05.148,-0.0030353332404047303,-0.0112217636778951,-0.0150538207963109,0,
00:00:05.152,0.0016095668543130198,-0.00479370541870594,-0.00570574542507529,0,
00:00:05.156,-0.00955350697040558,0.0036526988260448,0.000295777310384437,0,
00:00:05.16,-0.00162809912580997,0.000252855912549421,0.0136412000283599,0,
00:00:05.164,0.00554070668295026,0.00604782300069928,0.00623368192464113,0,
00:00:05.168,0.000433831184636801,0.007108760997653009,-0.00929658021777868,0,
00:00:05.172,0.00727422535419464,-0.00308772874996066,-0.009510802105069159,0,
00:00:05.176,0.00204488355666399,-0.0105673810467124,0.0027974077966064197,0,
00:00:05.18,-0.005447432864457371,-0.00496609834954143,0.00477328477427363,0,
00:00:05.184,-0.00513865379616618,0.0038624913431704,0.00463523436337709,0,
00:00:05.188,-0.0019266455201432102,-0.00533381057903171,-0.00415850337594748,0,
00:00:05.192,0.0113651072606444,0.0251333732157946,-0.0053858025930821896,0,
00:00:05.196,-0.0159144885838032,0.00478530256077647,0.00170084496494383,0,
00:00:05.2,-0.00454335752874613,-0.020412303507328,0.0136909065768123,0,
00:00:05.204,0.0166960265487432,-0.0136520052328706,-0.00158825935795903,0,
00:00:05.208,0.007861451245844359,-0.00238965847529471,-0.0118986247107387,0,
00:00:05.212,-0.0036517414264380897,0.0057233483530581,-0.0171868465840817,0,
00:00:05.216,-0.00829740427434444,0.0122825084254146,0.0168762020766735,0,
00:00:05.22,0.00198505213484168,0.0145461903885007,0.0114556401968002,0,
00:00:05.224,0.00300106266513467,0.0140432240441442,-0.0049670701846480396,0,
00:00:05.228,-0.00559581676498055,-0.0161533635109663,0.000800675945356488,0,
00:00:05.232,-0.020571306347847002,-0.0325826890766621,-0.0115314591675997,0,
00:00:05.236,0.0159220527857542,-0.0133881960064173,0.00479768123477697,0,
00:00:05.24,0.0159102994948626,0.016021978110075,0.0074372123926878,0,
00:00:05.244,0.000361297657946125,0.0258074961602688,-0.00688162120059133,0,
00:00:05.248,-0.0030174884013831602,0.00679104682058096,0.000311917450744659,0,
00:00:05.252,-0.0027215520385652802,-0.00479146791622043,-0.00225698645226657,0,
00:00:05.256,-0.008056973107159141,-0.00631521921604872,0.00504476111382246,0,
00:00:05.26,-0.00144524709321558,-0.00219596829265356,0.00318610318936408,0,
00:00:05.264,0.0018435544334352,-0.009964896366000179,-0.000420441472670063,0,
00:00:05.268,-0.00158333918079734,-0.0123747596517205,-0.00456070527434349,0,
00:00:05.272,0.0015945122577249997,0.00249708839692175,-0.00258756568655372,0,
00:00:05.276,0.0119667053222656,0.0266262516379356,0.000275186408543959,0,
00:00:05.28,-0.000663639046251774,0.0145865194499493,0.0101194381713867,0,
00:00:05.284,-0.0074129370041191595,-0.0155775602906942,-0.004035865887999529,0,
00:00:05.288,-0.0048090792261064105,-0.0237391535192728,-0.00559103535488248,0,
00:00:05.292,0.007934445515275,0.004576518200337889,-0.00444095209240913,0,
00:00:05.296,-0.00136041746009141,0.0161541011184454,-0.0012139130849391198,0,
00:00:05.3,0.0026466830167919397,-0.000165304591064341,0.003925284836441279,0,
00:00:05.304,-0.0205197185277939,0.00360097642987967,0.0179166551679373,0,
00:00:05.308,0.0008023462141864,-0.00934326555579901,4.4907315896125504e-05,0,
00:00:05.312,0.0167771019041538,-0.0197243299335241,-0.008917703293263909,0,
00:00:05.316,0.00610551470890641,0.00040218705544248196,-0.0152267655357718,0,
00:00:05.32,0.00361853814683855,0.0272913258522749,-0.00463539268821478,0,
00:00:05.324,0.00503700878471136,0.0160505380481482,0.007414283230900759,0,
00:00:05.328,-0.0166123900562525,-0.01239915471524,0.00468191923573613,0,
00:00:05.332,-0.0142933782190084,-0.010825571604073,0.00469195330515504,0,
00:00:05.336,-0.00559625681489706,-0.0132071990519762,0.0136268464848399,0,
00:00:05.34,0.0198825411498547,-0.00024829892208799704,0.0012007956393063099,0,
00:00:05.344,-0.00570471677929163,0.0024481252767145603,-0.0195833761245012,0,
00:00:05.348,0.0156234931200743,0.009018398821353909,-0.00529660703614354,0,
00:00:05.352,0.000681927718687803,0.0113576157018542,-0.0026211433578282603,0,
00:00:05.356,-0.00332331587560475,-0.00177576672285795,0.007587159052491191,0,
00:00:05.36,-0.0013151204911992,-0.0032913216855377,0.00634887907654047,0,
00:00:05.364,-0.008475695736706259,-0.00615114066749811,-0.000246555573539808,0,
00:00:05.368,-0.00932637602090836,-0.00111994671169668,-0.00591666717082262,0,
00:00:05.372,0.00421804748475552,0.0046177823096513705,0.000606085290201008,0,
00:00:05.376,0.00690418621525168,-0.00116087077185512,0.0111097963526845,0,
00:00:05.38,0.00434407684952021,-0.000570292584598064,-0.00371379824355245,0,
00:00:05.384,0.00278660655021667,-0.00564839597791433,-0.0122853955253959,0,
00:00:05.388,-0.00367345125414431,-0.0078846151009202,0.008969638496637341,0,
00:00:05.392,-0.00601562019437552,0.00433787424117327,0.0013433990534395,0,
00:00:05.396,-0.00187255523633212,0.00868411641567945,-0.00628565112128854,0,
00:00:05.4,0.008154113776981829,0.0168282948434353,-0.00048645545030012694,0,
00:00:05.404,0.00554965203627944,0.0042270696721971,0.00629881070926785,0,
00:00:05.408,-0.016777953132986998,-0.0181875973939896,-0.00582710560411215,0,
00:00:05.412,-0.000598420272581279,-0.0226382426917553,0.008046502247452741,0,
00:00:05.416,0.0142621044069529,0.0068990830332040795,-0.00515684485435486,0,
00:00:05.42,-0.000148178907693364,0.0140543710440397,-0.005862622987478971,0,
00:00:05.424,-0.014451265335083001,0.0028399394359439603,0.0128551796078682,0,
00:00:05.428,0.0109699759632349,-0.0116886841133237,-0.0032525688875466603,0,
00:00:05.432,0.0055773947387933705,0.00997554417699575,-0.00933776795864105,0,
00:00:05.436,-0.005536915268749001,0.013272381387651001,-0.0023065006826072897,0,
00:00:05.44,-0.0028247341979295,-0.0131600759923458,0.0165389440953732,0,
00:00:05.444,0.00110374297946692,-0.00261765788309276,-0.00196405011229217,0,
00:00:05.448,-0.0038306228816509203,-0.00318940076977015,-0.0122258588671684,0,
00:00:05.452,0.0010941126383841,-0.00752933509647846,0.000121544937428553,0,
00:00:05.456,0.00222881743684411,0.00466636754572392,0.0107486546039581,0,
00:00:05.46,0.0014835831243544802,0.0108962673693895,3.1576299079460996e-05,0,
00:00:05.464,0.00029445684049278503,-0.0021247602999210397,-0.00142078672070056,0,
00:00:05.468,0.00154634425416589,-0.00109629752114415,-0.0070289964787662,0,
00:00:05.472,-0.00481060007587075,-0.00495155155658722,-0.00279316119849682,0,
00:00:05.476,-0.00228810869157314,-0.00291779497638345,0.00403278972953558,0,
00:00:05.48,0.005344291683286429,0.0150195844471455,0.0018651334103196898,0,
00:00:05.484,0.00496645690873265,0.00957648456096649,-0.000715343281626701,0,
00:00:05.488,-0.00705395918339491,-0.0159047488123178,0.0214563217014074,0,
00:00:05.492,-0.00250731757842004,-0.0131715415045619,-0.0181523356586695,0,
00:00:05.496,-0.0034923404455184897,-0.0067026042379438894,-0.0131572363898158,0,
00:00:05.5,0.00374564225785434,0.009278705343604091,0.000530397112015635,0,
00:00:05.504,0.00476862257346511,0.0065333824604749706,0.0103665562346578,0,
00:00:05.508,0.00461853109300137,0.0031625125557184198,-0.000101192730653565,0,
00:00:05.512,0.00614418927580118,0.0108907390385866,0.00152932060882449,0,
00:00:05.516,-0.0030615848954767,0.00584356021136045,-0.00109428644645959,0,
00:00:05.52,-0.0229049492627382,-0.00647433334961534,0.0038764358032494796,0,
00:00:05.524,0.000283728091744706,-0.0242227911949158,0.0007869398104958241,0,
00:00:05.528,0.00219857832416892,-0.0137975737452507,-0.00450941640883684,0,
00:00:05.532,0.015523312613368,0.0146666066721082,-0.00128192559350282,0,
00:00:05.536,0.00815312750637531,0.0228243842720985,-0.0066699101589620105,0,
00:00:05.54,-0.00190377607941628,0.0142102874815464,0.00167268863879144,0,
00:00:05.544,-0.00705944886431098,-0.00793984718620777,0.00907430611550808,0,
00:00:05.548,-0.0066189793869853,-0.0306604076176882,0.0083812503144145,0,
00:00:05.552,-0.00934683345258236,-0.0151586029678583,-0.011888200417161002,0,
00:00:05.556,0.00230229017324746,0.0194112006574869,0.00030412251362577097,0,
00:00:05.56,0.00937838293612003,0.0177511610090733,-0.0011795244645327301,0,
00:00:05.564,0.0064527834765613105,0.00524148205295205,-0.00300281378440559,0,
00:00:05.568,-0.00102292071096599,-0.0130761321634054,-0.0021751131862402,0,
00:00:05.572,-0.000717795395758003,-0.0105751734226942,0.00011209402146050701,0,
00:00:05.576,-0.00615126360207796,-0.00411815894767642,0.0061930646188557105,0,
00:00:05.58,-0.000473593798233196,0.0229536760598421,0.0132486866787076,0,
00:00:05.584,0.00578070990741253,0.0148379197344184,0.00780325476080179,0,
00:00:05.588,0.00591918034479022,-0.0157872810959816,-0.0243439543992281,0,
00:00:05.592,-0.008461465127766129,-0.0162553377449512,-0.0131715638563037,0,
00:00:05.596,-0.00704262405633926,-0.00808802060782909,0.0014589654747396699,0,
00:00:05.6,-0.0011990141356363901,0.00529226148501039,0.0133998533710837,0,
00:00:05.604,0.0031149189453572,0.0109455352649093,0.007281862199306491,0,
00:00:05.608,4.1132236219709705e-05,0.00433413311839104,-0.00273597566410899,0,
00:00:05.612,0.0192458238452673,-0.0039996220730245105,-0.00664774421602488,0,
00:00:05.616,-0.0161794237792492,-0.00415645353496075,0.0098854536190629,0,
00:00:05.62,-0.0149962464347482,0.00287805171683431,0.0169387366622686,0,
00:00:05.624,0.0224372036755085,0.0160778388381004,-0.0174117684364319,0,
00:00:05.628,0.00649189576506615,-0.00415341323241591,-0.018813731148839,0,
00:00:05.632,-0.00856877956539392,-0.0145627381280065,-0.00489628501236439,0,
00:00:05.636,-0.00582688534632325,-0.0037522416096180703,0.00876716803759336,0,
00:00:05.64,-0.000256273109698668,0.00754109211266041,0.0103971473872662,0,
00:00:05.644,0.000571731361560524,-0.00302004418335855,0.0100239180028439,0,
00:00:05.648,-0.00593927362933755,-0.0107146929949522,-0.0077180862426757795,0,
00:00:05.652,0.0060298042371869105,0.00453936122357845,-0.00860890001058578,0,
00:00:05.656,0.00301358359865844,0.0111460946500301,0.0217366646975279,0,
00:00:05.66,-0.00135189038701355,0.00233359052799642,-0.0154786119237542,0,
00:00:05.664,0.0034078077878803,0.00789611414074898,-0.00895947590470314,0,
00:00:05.668,-0.00349609134718776,-0.004909568931907421,-0.000763916759751737,0,
00:00:05.672,0.00171380769461393,-0.00555949751287699,0.00619058730080724,0,
00:00:05.676,-0.00173643021844327,-0.0110051864758134,0.000812600541394204,0,
00:00:05.68,-0.0057460265234112705,-0.000578536186367273,0.007451103068888191,0,
00:00:05.684,0.0056839999742806,0.0153806479647756,2.8503100111265697e-05,0,
00:00:05.688,0.0102628003805876,0.0018587833037599897,-0.00761698000133038,0,
00:00:05.692,-0.00824416894465685,-0.00899337604641914,-0.00578048313036561,0,
00:00:05.696,-0.016054704785347002,-0.00973485037684441,0.00745660811662674,0,
00:00:05.7,-4.1931420128094e-05,0.00435522431507707,0.00335066695697606,0,
00:00:05.704,0.0175298936665058,0.0071145058609545205,0.0041406028904020795,0,
00:00:05.708,0.00790289137512445,0.000119245312816929,-0.007700333371758459,0,
00:00:05.712,-0.00363788031972945,0.00013358003343455502,-0.00100182369351387,0,
00:00:05.716,0.00624482473358512,0.00504717603325844,0.00247410917654634,0,
00:00:05.72,-0.0181483458727598,0.007173263933509591,-0.005884529557079079,0,
00:00:05.724,-0.0110480943694711,-0.0111195631325245,0.0023015183396637396,0,
00:00:05.728,0.00993240438401699,-0.0133753307163715,0.00101398432161659,0,
00:00:05.732,0.00491359457373619,0.0125603852793574,0.00121117290109396,0,
00:00:05.736,4.7397363232448704e-05,-0.0028732274658978,-0.00303824245929718,0,
00:00:05.74,0.0023494123015552803,-0.00273194652982056,0.0190212149173021,0,
00:00:05.744,0.00518613588064909,0.00920900609344244,-0.0106731569394469,0,
00:00:05.748,-0.0026169188786298,0.00131123350001872,-0.0158411972224712,0,
00:00:05.752,-0.00685286242514849,-0.0139585481956601,-0.00165988260414451,0,
00:00:05.756,-0.005469097290188071,-0.004760372452437879,0.0128443837165833,0,
00:00:05.76,0.000763916119467467,0.00954350549727678,0.00799928233027458,0,
00:00:05.764,0.0066203516907990005,0.008918944746255871,-0.00648369174450636,0,
00:00:05.768,0.0025499346666038,0.0133362552151084,-0.007366691716015341,0,
00:00:05.772,0.0026510173920542,-0.00799993611872196,0.00764661794528365,0,
00:00:05.776,-0.000414007023209706,-0.0186214707791805,0.00442269118502736,0,
00:00:05.78,-0.0025314777158200697,-0.00584647338837385,-0.00578267127275467,0,
00:00:05.784,-0.000608689151704311,0.0163810551166534,-0.00265887333080173,0,
00:00:05.788,0.00274258037097752,-0.006557963788509371,-0.008948643691837791,0,
00:00:05.792,-0.0138692706823349,-0.00421052146703005,0.0105206621810794,0,
00:00:05.796,-0.0045429863967001395,0.0108132744207978,0.00557631347328424,0,
00:00:05.8,0.0143128912895918,0.00393443508073688,-0.00422706734389067,0,
00:00:05.804,0.00779062695801258,-0.00183270208071917,-0.0012158079771325,0,
00:00:05.808,0.000323382089845836,-0.0123642003163695,0.00204532081261277,0,
00:00:05.812,-0.00188904779497534,0.00046103692147880803,-0.00591595750302076,0,
00:00:05.816,-0.0147846108302474,0.00723406625911593,0.0044778659939765895,0,
00:00:05.82,0.00563413044437766,0.00453617982566357,0.0052225640974938895,0,
00:00:05.824,0.00196210038848221,3.29285576299299e-05,0.00170395371969789,0,
00:00:05.828,0.0030807750299572897,-0.0026877070777118197,-0.0122246956452727,0,
00:00:05.832,-0.00547836720943451,-0.005045211873948571,-0.00392482848837972,0,
00:00:05.836,0.00673091225326061,0.00649871164932847,0.00266652135178447,0,
00:00:05.84,0.0073476773686707,-0.00233675818890333,0.00290131336078048,0,
00:00:05.844,-0.00826546549797058,-0.00374325504526496,0.005798028782010079,0,
00:00:05.848,-0.00786961521953344,-0.0100693283602595,0.0049847126938402705,0,
00:00:05.852,-0.000185639248229563,0.0022662035189569,-0.008927991613745691,0,
00:00:05.856,-0.0016240152763202802,0.016414899379015,0.00782243721187115,0,
00:00:05.86,0.00232508266344666,-0.0007689738413318991,-0.0017604011809453399,0,
00:00:05.864,0.00449324119836092,0.00242791417986155,0.00132988125551492,0,
00:00:05.868,0.005751159507781271,0.000252852536505088,-0.0137225044891238,0,
00:00:05.872,0.0034623688552528602,-0.00879273749887943,-0.0039050185587257103,0,
00:00:05.876,-0.000290581519948319,-0.00402106484398246,0.0019410153618082398,0,
00:00:05.88,-0.00929124280810356,-0.00877049751579762,0.0106349177658558,0,
00:00:05.884,-0.00616626860573888,0.00328520988114178,0.0107337841764092,0,
00:00:05.888,-0.00450488459318876,0.008439697325229641,-0.0038703850004822,0,
00:00:05.892,0.0094280457124114,0.0152831897139549,-0.0113286981359124,0,
00:00:05.896,0.0115534570068121,0.0111841624602675,-0.0028517595492303397,0,
00:00:05.9,-0.0171690210700035,-0.0219014026224613,0.00435438798740506,0,
00:00:05.904,0.007568217813968659,-0.0172506794333458,0.00166590500157326,0,
00:00:05.908,0.009255594573915001,-0.0027905411552637802,-0.0011954182991758,0,
00:00:05.912,-0.00785924028605223,0.0012193123111501301,0.00034142020740546297,0,
00:00:05.916,-0.00628112442791462,0.011554041877389001,0.0119342701509595,0,
00:00:05.92,0.00577839184552431,0.015282342210412,-0.000171013176441193,0,
00:00:05.924,0.00773362768813968,0.0134214824065566,-0.0156787782907486,0,
00:00:05.928,-0.000756508554331958,-7.763497706037009e-05,-0.00590222934260964,0,
00:00:05.932,-0.0104449652135372,-0.0206697918474674,0.004702632315456871,0,
00:00:05.936,-0.0209392327815294,-0.0233288966119289,0.00618252623826265,0,
00:00:05.94,0.014175096526741997,-0.00116666383109987,-0.00477787386626005,0,
00:00:05.944,0.0159374568611383,0.00365659152157605,0.0144195770844817,0,
00:00:05.948,-0.0043180170468986,0.00656191864982247,-0.00311214034445584,0,
00:00:05.952,0.010938330553472,0.0213205441832542,-0.00427270354703069,0,
00:00:05.956,-0.00262897741049528,0.0117683624848723,-0.0014875807100907,0,
00:00:05.96,-0.0123264715075493,-0.0022056959569454197,-0.0036631517577916397,0,
00:00:05.964,-0.00712872250005603,-0.0207538697868586,-0.00562132289633155,0,
00:00:05.968,0.0025271151680499302,-0.015442930161953,0.00293386052362621,0,
00:00:05.972,0.0027802307158708603,-0.000836092280223966,0.0033137672580778603,0,
00:00:05.976,0.005389086436480279,0.0149332713335752,0.00992306042462587,0,
00:00:05.98,0.00260708015412092,0.0123999584466219,-0.00349891185760498,0,
00:00:05.984,0.00556049961596727,-0.0069518685340881296,-0.0045547941699624105,0,
00:00:05.988,-0.0144704096019268,-0.00660173362120986,0.006517849862575529,0,
00:00:05.992,-0.00949119962751865,0.000789354729931802,-0.00721363862976432,0,
00:00:05.996,0.0174444634467363,0.0067036338150501295,0.00125272094737738,0,
00:00:06,0.00587121210992336,0.005952054169029,0.000793850049376488,0,
00:00:06.004,-0.002789645222947,-0.0111222350969911,-0.0051078605465591,0,
00:00:06.008,-0.009931875392794609,0.000457027927041054,-0.00584338186308742,0,
00:00:06.012,-0.00875814352184534,-0.008017145097255709,0.00619733100757003,0,
00:00:06.016,0.00985107384622097,-0.0018409212352708,0.0110525917261839,0,
00:00:06.02,0.00814796052873135,0.00036243034992367,-0.00720403296872973,0,
00:00:06.024,-0.004922432359308,0.006102986168116329,0.0120208906009793,0,
00:00:06.028,-0.00169826974160969,0.0197522211819887,-0.0103223202750087,0,
00:00:06.032,0.00443809293210506,0.0110639333724976,-0.00263329315930605,0,
00:00:06.036,-0.00100874120835215,-0.0214432384818792,-0.00301340292207897,0,
00:00:06.04,0.00153375859372318,-0.0164378546178341,-0.000603294465690851,0,
00:00:06.044,-0.007910440675914291,-0.0130308521911502,-0.000538446358405054,0,
00:00:06.048,-0.0037960130721330604,0.00402973871678114,0.0042244750075042204,0,
00:00:06.052,0.00397494854405522,0.022216560319066003,0.0033425223082304,0,
00:00:06.056,0.00459073577076197,0.0113730449229479,0.000800148118287325,0,
00:00:06.06,0.0043056970462203,-0.00029803460347466203,0.0009348912280984221,0,
00:00:06.064,0.0018988570664078,-0.00262893713079393,-0.00580275384709239,0,
00:00:06.068,-0.0134266903623939,-0.0154691925272346,-0.0051191593520343295,0,
00:00:06.072,0.007052243687212471,-0.00159074377734214,-0.00124827900435776,0,
00:00:06.076,-0.00142196612432599,0.00453270692378283,0.0105111319571733,0,
00:00:06.08,-0.00589929474517703,-0.0036945119500160204,0.0185129102319479,0,
00:00:06.084,0.00612398562952876,-0.00682064332067966,-0.0232557095587254,0,
00:00:06.088,0.00476209120824933,0.00281650968827307,-0.0110715916380286,0,
00:00:06.092,-0.0142561448737979,0.0127681046724319,0.0124963726848364,0,
00:00:06.096,0.00911110639572144,0.0223438069224358,-0.00370590481907129,0,
00:00:06.1,0.0229301918298006,0.00044536759378388497,0.00323249283246696,0,
00:00:06.104,-0.0168805308640003,-0.024393480271101,0.0246824845671654,0,
00:00:06.108,-0.0179856214672327,-0.0329106040298939,-0.018061101436615,0,
00:00:06.112,0.00268728495575488,0.00605657650157809,-0.013013930991292,0,
00:00:06.116,0.00787235703319311,0.028966099023819,-0.00149122509174049,0,
00:00:06.12,0.00762958312407136,0.0173375532031059,-0.00269502145238221,0,
00:00:06.124,0.00767598440870643,-0.0149899292737246,0.00602796627208591,0,
00:00:06.128,-0.0215837452560663,-0.022088635712862004,0.00540351774543524,0,
00:00:06.132,-0.00152200332377106,0.0024922061711549802,0.00428132992237806,0,
00:00:06.136,0.010499601252376999,0.0193211361765862,0.010116477496921999,0,
00:00:06.14,0.00848754867911339,0.00722338119521737,-0.00863794796168804,0,
00:00:06.144,-0.004452436696738,-0.0097030671313405,-0.00462704943493009,0,
00:00:06.148,-0.0101095288991928,-0.00801127962768078,-0.0028232468757778397,0,
00:00:06.152,0.0010536486515775301,0.00664412789046764,-0.0012003529118374,0,
00:00:06.156,0.0078733442351222,0.0094427103176713,-0.0018176987068727602,0,
00:00:06.16,-0.00143979617860168,-0.0124157574027777,0.0010392594849690801,0,
00:00:06.164,-0.0069915181957185294,-0.0178882442414761,0.0028334087692201103,0,
00:00:06.168,0.000579419604036957,0.00519310543313622,0.00677723018452525,0,
00:00:06.172,0.0119004379957914,0.0180953778326511,-0.00066247268114239,0,
00:00:06.176,-0.00480479979887605,-0.00146590895019472,-0.0055317501537501795,0,
00:00:06.18,-0.0179314967244864,0.00330074061639607,-0.0031056257430464,0,
00:00:06.184,0.0207935255020857,0.00840536784380674,0.00864331517368555,0,
00:00:06.188,0.0017920626560226102,-0.0110735604539514,-0.00987712759524584,0,
00:00:06.192,-0.00235682795755565,-0.0167062319815159,-0.0046404553577303895,0,
