Elapsed Time,EMG1,EMG2,EMG3,BioRadio Event,Unnamed: 5
00:00:00,0.271927177906036,-2.11937141418457,-0.23041158914565998,0,
00:00:00.004,-0.256691455841064,2.0209558010101296,0.21095766127109503,0,
00:00:00.008,-0.21708294749259902,1.6767268180847201,0.173561811447144,0,
00:00:00.012,-0.0248340796679258,0.17352151870727497,0.0254157781600952,0,
00:00:00.016,0.10606969892978697,-0.880676925182343,-0.020305136218667,0,
00:00:00.02,0.141489073634148,-1.0320793390274001,-0.12360952049493801,0,
00:00:00.024,0.0849403142929077,-0.622777462005615,-0.146119549870491,0,
00:00:00.028,0.0121167749166489,-0.0763727575540543,-0.0431396774947643,0,
00:00:00.032,-0.0431856475770473,0.290705919265747,0.0493465065956116,0,
00:00:00.036,-0.0546453297138214,0.40759533643722495,0.0866339504718781,0,
00:00:00.04,-0.0444797649979591,0.30306690931320196,0.0554555431008339,0,
00:00:00.044,-0.015473966486751999,0.11384157091379199,0.0190828237682581,0,
00:00:00.048,0.0131554221734405,-0.0360501036047935,-0.0183664131909609,0,
00:00:00.052,0.0174613185226917,-0.11666364222764998,-0.0428613051772118,0,
00:00:00.056,0.0115152271464467,-0.121334746479988,0.00347757060080767,0,
00:00:00.06,0.009986016899347309,-0.0561120398342609,-0.0013951947912573801,0,
00:00:00.064,-0.00335361226461828,0.0033157542347908,-0.00924405176192522,0,
00:00:00.068,-0.00402051117271185,0.0305635184049606,0.00237807794474065,0,
00:00:00.072,-0.00406495342031121,0.0327239483594894,0.00996832083910704,0,
00:00:00.076,-0.00486067682504654,0.0227991547435522,-0.00346472673118114,0,
00:00:00.08,0.00312910415232182,0.0161360129714012,-0.00784821435809135,0,
00:00:00.084,0.00648346822708845,0.000186995501280762,-0.00843583326786757,0,
00:00:00.088,-0.0123565876856446,-0.040715541690588,0.0512730777263641,0,
00:00:00.092,0.00112432090099901,-0.0056219259276986105,-0.00551524618640542,0,
00:00:00.096,0.00688854372128844,0.009600391611456871,-0.0427977629005909,0,
00:00:00.1,-0.000558116240426898,-0.00186231709085405,0.0342966429889202,0,
00:00:00.104,0.0052826139144599394,0.0189058259129524,-0.0342793799936771,0,
00:00:00.108,-0.005742948502302171,0.000589900242630392,-0.00838593672960997,0,
00:00:00.112,-3.4710637919488405e-06,-0.009348331019282341,0.0120033118873835,0,
00:00:00.116,-0.0039050274062901705,-0.0114249782636762,0.0190737582743168,0,
00:00:00.12,0.00342446262948215,8.990317292045799e-05,0.0128397224470973,0,
00:00:00.124,0.000429936073487625,0.00968277268111706,-0.000408593565225601,0,
00:00:00.128,0.0039732395671308,0.0119601953774691,-0.0381266511976719,0,
00:00:00.132,-0.0019141122465953198,-0.0104416143149137,-0.0116893975064158,0,
00:00:00.136,-0.00927747134119272,-0.0130187394097447,0.0567208603024483,0,
00:00:00.14,0.004179906565696,0.0110256979241967,-0.0103813819587231,0,
00:00:00.144,0.000794757099356502,-0.00677353050559759,0.0154460482299328,0,
00:00:00.148,0.00352871068753302,0.00890123564749956,-0.042397428303957006,0,
00:00:00.152,0.00195349170826375,0.00161008443683386,-0.0208705104887486,0,
00:00:00.156,-0.000350389687810093,0.0029857463669031897,0.00312140793539584,0,
00:00:00.16,-0.0037350794300437,-0.00352327595464885,0.0179286114871502,0,
00:00:00.164,-0.0017901883693411899,-0.00432537263259292,0.0243804752826691,0,
00:00:00.168,0.00683236727491021,-0.00232258206233382,0.009656062349677091,0,
00:00:00.172,-0.0021900457795709398,-0.0020168535411357897,-0.009431367740035059,0,
00:00:00.176,-0.00344825279898942,0.00345332873985171,-0.0120850363746285,0,
00:00:00.18,-0.00159969786182046,0.0033133404795080397,-0.0071910796687007,0,
00:00:00.184,0.00046085930080153,0.0012302908580750199,-0.00112312007695436,0,
00:00:00.188,0.0014806583058089,0.0014610419748351,0.008957286365330221,0,
00:00:00.192,0.00138656969647855,-0.00336272758431733,-0.00645219441503286,0,
00:00:00.196,0.0006844314048066741,-0.000749675207771361,-0.00888809468597174,0,
00:00:00.2,-0.0021297184284776397,-0.00889149494469166,0.034046147018671,0,
00:00:00.204,0.0014941927511245,0.0073290625587105794,-0.00107345462311059,0,
00:00:00.208,0.00318456464447081,0.0063359159976244,-0.0253421794623137,0,
00:00:00.212,-6.10202660027426e-05,0.0030004510190337896,-0.0200484823435545,0,
00:00:00.216,-0.008692280389368529,-0.015224140137433999,0.0251938793808222,0,
00:00:00.22,0.00743571668863297,0.00672095641493797,0.00449546426534653,0,
00:00:00.224,-0.00866630673408508,-0.000271245458861813,0.0023515985812991897,0,
00:00:00.228,0.0032754293642938102,0.00589544139802456,-0.008095120079815391,0,
00:00:00.232,0.00472410256043077,-0.00299434014596045,4.45380683231633e-05,0,
00:00:00.236,0.0041873031295836,-0.0014827449340373302,-0.00243329186923802,0,
00:00:00.24,-0.000571081356611103,-0.00325266714207828,0.00697204098105431,0,
00:00:00.244,-0.00561689957976341,-0.0008237166330218321,-0.00919700413942337,0,
00:00:00.248,-0.0036480189301073603,0.00353755708783865,0.014153067022562001,0,
00:00:00.252,-0.00227724271826446,-0.003965244162827729,-0.0064162346534431,0,
00:00:00.256,0.00396182993426919,0.00382801541127265,0.00664619170129299,0,
00:00:00.26,0.0018917474662885102,0.00141457270365208,-0.00795080978423357,0,
00:00:00.264,0.00357989175245166,0.0047335051931440796,-0.00842612609267235,0,
00:00:00.268,0.00309704290702939,0.00022918805188965098,-0.000722765282262117,0,
00:00:00.272,-0.00551828416064382,-0.00972167309373617,0.0090181827545166,0,
00:00:00.276,7.468836702173578e-05,0.0018634902080521,0.00595488958060741,0,
00:00:00.28,-0.000186343473615125,0.00467217806726694,-0.00801911670714617,0,
00:00:00.284,-0.00524481292814016,-0.00357427005656064,0.000515212013851851,0,
00:00:00.288,-0.00131203315686435,-0.00696110166609287,0.0151451164856553,0,
00:00:00.292,0.00889240205287933,0.00403738673776388,-0.00604527024552226,0,
00:00:00.296,0.00202196277678013,0.00937601365149021,-0.0201360583305359,0,
00:00:00.3,-0.00634472817182541,0.00264223664999008,-0.012102865613996998,0,
00:00:00.304,-0.0012868706835433802,-0.014007949270308002,0.0512376353144646,0,
00:00:00.308,-0.000918182835448533,-0.00184636458288878,-0.0081086503341794,0,
00:00:00.312,0.00356183596886694,0.0062440689653158205,-0.0306139420717955,0,
00:00:00.316,0.0025883826892823,0.00695839617401361,-0.00193940033204854,0,
00:00:00.32,0.00234448444098234,0.00315321423113346,-0.000119694879685994,0,
00:00:00.324,-0.00743588618934155,-0.00953122694045305,0.021956555545330003,0,
00:00:00.328,0.000688578758854419,-0.0082542784512043,-3.29864269588143e-05,0,
00:00:00.332,0.00206890911795199,0.00634892890229821,-0.00505685340613127,0,
00:00:00.336,-0.0010813499102369,0.00165287684649229,0.00274621043354273,0,
00:00:00.34,-0.00035602491698227796,0.00517099816352129,-0.00458433991298079,0,
00:00:00.344,0.0048662400804460005,0.00322368764318526,-0.00179457163903862,0,
00:00:00.348,-0.000873722834512591,-0.0066147996112704294,-0.00487266480922699,0,
00:00:00.352,-0.0005095768137834969,-0.0073556005954742406,-0.00232140044681728,0,
00:00:00.356,-0.0018075214466080102,0.00310884928330779,-0.00488433614373207,0,
00:00:00.36,-0.00823997240513563,-0.0064423899166286,0.048816055059433004,0,
00:00:00.364,0.0048487070016562895,0.0114815915003419,-0.0208826120942831,0,
00:00:00.368,0.00300335674546659,0.0055729360319674,-0.030335795134306,0,
00:00:00.372,-0.0006843680748716,-0.0006507561774924401,-0.009748944081366059,0,
00:00:00.376,0.0020970324985683,-0.0038409447297453898,0.0152106024324894,0,
00:00:00.38,0.0031159159261733302,-0.00174485449679196,0.0218993443995714,0,
00:00:00.384,-0.00256217899732292,-0.0018945396877825301,-0.0033957259729504603,0,
00:00:00.388,-0.0030289443675428603,-0.00358673487789929,-0.000892078038305044,0,
00:00:00.392,-0.00139939098153263,-0.000565619557164609,-0.00950206629931927,0,
00:00:00.396,0.000297103455523029,4.32249325967859e-05,0.00362349743954837,0,
00:00:00.4,-0.0009223943343386051,0.00272492109797895,0.00183869898319244,0,
00:00:00.404,0.00309462519362569,0.00968340504914522,-0.00399731239303947,0,
00:00:00.408,0.00430304650217295,0.000394559378037229,-0.011639716103673,0,
00:00:00.412,-0.0038734790869057205,-0.00867280829697847,-0.00306433765217662,0,
00:00:00.416,-0.0008622045279480519,-0.00504682725295424,0.0304731316864491,0,
00:00:00.42,0.00210001645609736,0.0046691605821251895,0.00136201607529074,0,
00:00:00.424,-0.00393507396802306,0.00371843157336116,-0.0209874901920557,0,
00:00:00.428,0.000361752405297011,0.0003619848866947,-0.0025702789425849897,0,
00:00:00.432,0.00351790804415941,-0.0059407181106507796,0.0013815663987770698,0,
00:00:00.436,0.0011085238074883801,-0.0043136849999427795,0.0034177724737674,0,
00:00:00.44,-0.00340731558389962,0.00812632497400045,0.00313317752443254,0,
00:00:00.444,-0.0021647152025252602,0.00536442548036575,0.00984574947506189,0,
00:00:00.448,0.000169685969012789,-0.000344068859703839,-0.0121713001281023,0,
00:00:00.452,0.0035983144771307702,-0.0057343007065355795,-0.0120030045509338,0,
00:00:00.456,-0.000414178008213639,-0.0059093707241118,0.0175758432596922,0,
00:00:00.46,-0.00290634413249791,0.0016325828619301302,0.0036980446893721797,0,
00:00:00.464,0.0017541671404615,0.00355919031426311,-0.007675427477806809,0,
00:00:00.468,0.0019208526937291,0.006642468739300971,-0.00512492610141635,0,
00:00:00.472,-0.00151563587132841,-0.00749955791980028,0.00629349891096354,0,
00:00:00.476,0.00134016002994031,-0.000116828545287717,0.00545916520059109,0,
00:00:00.48,0.0026570558547973602,0.00169568543788046,-0.0117111122235656,0,
00:00:00.484,-0.0026159810367971698,0.00524908723309636,-0.00561087764799595,0,
00:00:00.488,-0.00277677550911903,-0.006005209404975179,0.00936724338680506,0,
00:00:00.492,-0.00311890291050076,-0.00402033934369683,0.0030334994662553102,0,
00:00:00.496,0.00255608884617686,0.000481533264974132,0.00894688256084919,0,
00:00:00.5,0.00500048510730267,0.00715261418372393,-0.00202573603019118,0,
00:00:00.504,-0.00276684644632041,0.00310647441074252,-0.0132603626698256,0,
00:00:00.508,-1.20509193948237e-05,0.000323215761454776,-0.0106032034382224,0,
00:00:00.512,0.000344125612173229,-0.009905204176902771,0.00616738852113485,0,
00:00:00.516,0.0020553015638142802,-0.00694161653518677,0.0220533888787031,0,
00:00:00.52,-0.00229616509750485,0.0100952656939626,-0.00802345108240843,0,
00:00:00.524,-0.004066473804414271,0.000761912553571165,-0.0072395890019834,0,
00:00:00.528,0.00161369482520968,0.0037496669683605398,-0.00436652963981032,0,
00:00:00.532,0.00250046304427087,-0.0015157029265537901,0.007662198506295679,0,
00:00:00.536,0.00134622468613088,-0.00451670307666063,0.00667473115026951,0,
00:00:00.54,-4.96215943712741e-05,0.000524728849995881,-0.00705443555489182,0,
00:00:00.544,-0.00291291228495538,0.0014866056153550699,0.00473586283624172,0,
00:00:00.548,0.00107601471245289,0.000820036977529526,-0.00838096905499697,0,
00:00:00.552,0.00112562591675669,-0.00420447811484337,-0.0115307876840234,0,
00:00:00.556,0.00220285286195576,0.00550177879631519,0.008905483409762379,0,
00:00:00.56,-0.000486917357193306,0.0028531972784549,0.0115401614457369,0,
00:00:00.564,-0.00639131804928184,-0.00353479851037264,0.00139405881054699,0,
00:00:00.568,-0.000240869732806459,-0.0034856207203120006,-0.00783675257116556,0,
00:00:00.572,0.00230386550538242,-0.00119738932698965,-0.00246039917692542,0,
00:00:00.576,0.00230193161405623,-0.00125021860003471,0.0048133414238691295,0,
00:00:00.58,0.00112518563400954,0.00360990851186216,-0.00230310740880668,0,
00:00:00.584,-0.000100485434813891,0.0050676972605288,-0.00409708311781287,0,
00:00:00.588,-0.000780435977503657,-0.00124013994354755,0.0020153035875409803,0,
00:00:00.592,-0.000836298218928277,-0.00473318295553327,0.0030108799692243303,0,
00:00:00.596,0.0015733176842331901,0.00230579799972475,-0.008749852888286109,0,
00:00:00.6,-0.0041374741122126605,-0.0048031993210315704,0.0180876292288303,0,
00:00:00.604,0.000530199322383851,0.007283594924956559,0.00336192292161286,0,
00:00:00.608,0.0038202099967747896,0.00128420221153647,-0.0129119036719203,0,
00:00:00.612,-0.00074727536411956,-0.006542993709445,-0.00488126836717129,0,
00:00:00.616,-0.00137970910873264,-0.00528483558446169,-0.0067268945276737204,0,
00:00:00.62,-0.000606379646342248,0.00749840354546905,0.005423221737146379,0,
00:00:00.624,0.000211277263588272,0.007349943276494741,0.0068488884717226,0,
00:00:00.628,0.00264424295164645,-0.00410412671044469,0.00149597378913313,0,
00:00:00.632,-0.0035685682669282,-0.007077811751514671,0.00803398806601763,0,
00:00:00.636,-0.00155590614303946,-0.00425151782110333,-0.00448735011741519,0,
00:00:00.64,0.00542656844481826,0.00845106691122055,-0.009189648553729059,0,
00:00:00.644,0.00046211504377424695,0.00768929906189442,-0.00862172897905111,0,
00:00:00.648,-0.00149235397111624,-0.00428465893492103,0.000922991894185543,0,
00:00:00.652,-0.00153298012446612,-0.00746329966932535,0.0132463593035936,0,
00:00:00.656,-0.0028203297406435,-0.00041700954898260496,0.00121591659262776,0,
00:00:00.66,0.00412086257711053,0.00437501817941666,0.00278480281122029,0,
00:00:00.664,0.00017796660540625502,0.00237865000963211,0.01578364148736,0,
00:00:00.668,-0.0009269550209864971,-0.0046047237701714,-0.0213337261229753,0,
00:00:00.672,-0.00278239557519555,-0.00203203572891653,-0.014705098234116998,0,
00:00:00.676,-0.000244022783590481,0.0056035486049950105,-0.0120591279119253,0,
00:00:00.68,0.0038760001771152,-0.0011499668471515198,0.0251266192644835,0,
00:00:00.684,0.00633402215316892,0.00294652464799583,0.0130884563550353,0,
00:00:00.688,-0.00436762860044837,0.000350979884387925,-0.00205732835456729,0,
00:00:00.692,-0.00509298918768764,-0.00634558126330376,-0.0132996654137969,0,
00:00:00.696,-0.00416996004059911,-0.00496043963357806,0.0042362301610410205,0,
00:00:00.7,0.0048901136033237,0.00971600133925676,-0.00337310531176627,0,
00:00:00.704,-0.000243228627368808,0.0032692225649952897,-0.00408916175365448,0,
00:00:00.708,0.00243359454907477,-0.0017891100142151102,-0.00124933605547994,0,
00:00:00.712,0.0015051421942189301,-0.00765796890482306,0.00385092408396304,0,
00:00:00.716,-0.000157499220222235,-0.000733927823603153,0.009509651921689509,0,
00:00:00.72,-0.00115859985817224,0.00246747955679893,0.0057205408811569205,0,
00:00:00.724,-0.00122596439905465,0.00480136042460799,-0.00261918385513127,0,
00:00:00.728,-0.00277457851916552,-0.00465423380956054,-0.008967493660748001,0,
00:00:00.732,0.00399185530841351,0.000256752158747986,-0.00201813178136945,0,
00:00:00.736,2.57179999607615e-05,0.00422676932066679,-0.00910238828510046,0,
00:00:00.74,0.0010699323611334,0.00598708493635058,0.00538518838584423,0,
00:00:00.744,-0.004745876882225279,-0.00508602196350694,0.008715402334928509,0,
00:00:00.748,0.000257135601714253,-0.0077928262762725405,-0.00307366112247109,0,
00:00:00.752,0.00179825513623655,-0.00039169291267171497,-0.00240532006137073,0,
00:00:00.756,0.00143147457856685,0.00255514401942492,-0.0035347661469131704,0,
00:00:00.76,0.000446358491899446,0.00467923050746322,0.0185462422668934,0,
00:00:00.764,0.00172679603565484,0.0014470132300630199,-0.0026441253721714,0,
00:00:00.768,-0.00470480881631374,-0.005679040215909479,-0.0171140655875206,0,
00:00:00.772,-0.000202264272957109,-0.0026701316237449603,-0.00275499350391328,0,
00:00:00.776,0.0012401503045111901,0.0034303474240005,0.0006082770996727049,0,
00:00:00.78,-0.00099577137734741,0.00108312501106411,0.0223384685814381,0,
00:00:00.784,0.00236478867009282,0.0049382052384316895,-0.0030072708614170603,0,
00:00:00.788,0.0035234366077929705,0.00285303685814142,-0.011175774037838001,0,
00:00:00.792,-0.00015625928062945602,-0.0070067597553134,-0.010334137827158,0,
00:00:00.796,-0.006903847213834521,-0.00965873245149851,0.0128024518489838,0,
00:00:00.8,-0.0010296291438862699,0.0030052352230995898,0.0036968924105167398,0,
00:00:00.804,-0.000358812249032781,0.007708265446126459,-0.00601464696228504,0,
00:00:00.808,0.0061589973047375705,0.0015440690331161,0.000551820732653141,0,
00:00:00.812,0.0009257149649783971,-0.00118348479736596,-0.00319144106470048,0,
00:00:00.816,-0.0012893701205030099,-0.0037841247394681,0.005935442168265579,0,
00:00:00.82,-0.0015555933350697199,0.002924574771896,-0.00357371917925775,0,
00:00:00.824,-0.0008984307642094789,0.00145200162660331,0.0020116027444601102,0,
00:00:00.828,-0.00010602515976643199,-0.00521717639639974,-0.00499083893373609,0,
00:00:00.832,0.000390162225812674,-0.00019561308727134,0.0011760648339986801,0,
00:00:00.836,0.00049635540926829,0.0016561022493988302,0.009494090452790259,0,
00:00:00.84,0.00033348443685099504,0.00363086070865393,-0.00141879380680621,0,
00:00:00.844,-0.00198761257342994,-0.00130614230874926,-0.00428447313606739,0,
00:00:00.848,-0.00019707104365807,-0.0038896440528333204,-0.00304104760289192,0,
00:00:00.852,0.00552842859178782,0.00328830094076693,-0.000698495365213603,0,
00:00:00.856,-0.000290632946416736,-5.51418524992187e-05,0.0030804285779595397,0,
00:00:00.86,-0.00444263825193048,-0.000737597874831408,-0.000446181889856234,0,
00:00:00.864,-6.182011566124859e-05,-0.000400022865505889,0.00156959053128958,0,
00:00:00.868,0.0008730256231501701,0.00213872152380645,-0.0038397582247853296,0,
00:00:00.872,0.000540113367605954,-0.0058310623280704,0.007171085570007559,0,
00:00:00.876,0.00211085868068039,0.0025827677454799396,-0.00601282808929682,0,
00:00:00.88,-0.000131229840917513,0.00530151277780533,-0.00382595625706017,0,
00:00:00.884,-0.00592469470575452,-0.0028929570689797397,0.0114296190440655,0,
00:00:00.888,-0.00201079994440079,-0.00252257101237774,-0.00632670568302274,0,
00:00:00.892,0.0064124665223062,0.00189322105143219,-0.00507560931146145,0,
00:00:00.896,0.00391717022284865,0.0034866475034505103,0.00239925924688578,0,
00:00:00.9,-0.00250386050902307,-1.34701795104775e-05,0.0015801478875801,0,
00:00:00.904,-0.00290976953692734,-0.00255996407940984,0.0039827106520533605,0,
00:00:00.908,-0.00120400998275727,-0.00481599662452936,0.00156616722233593,0,
00:00:00.912,0.000417947303503752,-0.00561982253566384,-0.00528251565992832,0,
00:00:00.916,-0.000949140405282378,0.00573607301339507,0.0058091739192605,0,
00:00:00.92,0.00295445090159774,0.00829022191464901,-0.000503848714288324,0,
00:00:00.924,-1.75602799572516e-05,-0.00149752805009484,-0.00776770152151585,0,
00:00:00.928,0.00410378305241466,0.00557383336126804,-0.0055908439680934,0,
00:00:00.932,-0.00157950480934232,-0.0070783295668661594,-0.000380783079890534,0,
00:00:00.936,-0.007044963072985409,-0.0145737314596772,0.020111970603466,0,
00:00:00.94,0.00207041832618415,0.0105759743601084,0.00325867696665227,0,
00:00:00.944,0.00298541085794568,0.00694486917927861,-0.00501925637945533,0,
00:00:00.948,0.00114932272117585,-0.00326915481127799,-0.0087997717782855,0,
00:00:00.952,0.0035550037864595704,0.0031613435130566398,-0.0171827748417854,0,
00:00:00.956,-0.00522616319358349,-0.00421974482014775,-0.0046641672961413895,0,
00:00:00.96,-0.00636774720624089,-0.00340818497352302,0.0117170168086886,0,
00:00:00.964,0.00128782447427511,-0.00045695694279857,0.0244573075324297,0,
00:00:00.968,0.0035813751164823797,-0.000452647102065384,0.000146060046972707,0,
00:00:00.972,0.0027457585092634,0.00195493525825441,-0.00590296695008874,0,
00:00:00.976,0.000874427438247949,0.0070051895454525896,-0.0072218282148242,0,
00:00:00.98,-0.000633296323940158,0.0021517074201256,-0.007027429062873129,0,
00:00:00.984,-0.00330673577263951,-0.0048295077867806,-0.00158028188161552,0,
00:00:00.988,0.00509441876783967,-0.00655622966587543,0.00898419693112373,0,
00:00:00.992,-0.0006912205135449769,-0.0016979168867692401,0.000159918243298307,0,
00:00:00.996,-0.00499953050166368,0.004535027779638771,7.57509842514992e-05,0,
00:00:01,-0.004546422977000471,0.00584704428911209,-0.00535635929554701,0,
00:00:01.004,0.000759298447519541,-0.000992242828942835,0.00236108433455229,0,
00:00:01.008,0.0061080679297447205,-0.004877977538853879,-0.00394210824742913,0,
00:00:01.012,0.00406274944543839,-3.51807029801421e-05,0.0020574089139699897,0,
00:00:01.016,0.00034092526766471603,0.00113847246393561,0.0078003010712564,0,
00:00:01.02,-0.00210515270009637,0.00286233075894415,0.00256607937626541,0,
00:00:01.024,-0.00256555248051882,0.00022961069771554302,-0.00698124058544636,0,
00:00:01.028,-0.00372203695587814,-0.00598182808607817,-0.000739480427000672,0,
00:00:01.032,0.0037120669148862397,-0.00020745290385093502,-0.00635816436260939,0,
00:00:01.036,0.000274111225735396,1.61427960847504e-05,-0.00085613364353776,0,
00:00:01.04,0.00152911897748709,0.00815917365252972,0.0186004936695099,0,
00:00:01.044,-0.00435692397877574,-0.00344894849695265,-0.00879091490060091,0,
00:00:01.048,0.00043933649430982796,-0.005446071270853279,0.00602382468059659,0,
00:00:01.052,0.0038574645295739204,0.00573001801967621,-0.0128493988886476,0,
00:00:01.056,-0.00274527980946004,0.00138859578873962,-0.00937888957560062,0,
00:00:01.06,0.00271989614702761,0.0030143228359520396,0.00202192412689328,0,
00:00:01.064,-0.00301821785978973,-0.00778867397457361,0.0188716202974319,0,
00:00:01.068,-0.00139325950294733,-0.0024920383002609,-0.00392629997804761,0,
00:00:01.072,0.0031188412103802,0.0010371659882366698,-0.0026190006174147103,0,
00:00:01.076,0.00208341190591455,0.00229900726117194,0.00806319899857044,0,
00:00:01.08,0.0019822726026177398,0.00395056558772922,0.0033284518867731103,0,
00:00:01.084,-0.005456069484353071,-0.0012296265922486802,-0.0137164536863565,0,
00:00:01.088,0.00092280626995489,-0.00398103566840291,-0.00889115035533905,0,
00:00:01.092,-0.00339039252139628,-0.0010258995462209,0.00651694787666202,0,
00:00:01.096,0.00343169085681438,0.00582422548905015,-0.00220351829193532,0,
00:00:01.1,-0.00189190520904958,0.00256367796100676,0.00739382253959775,0,
00:00:01.104,-0.000515423307660967,-0.0036782496608793705,0.0026402124203741602,0,
00:00:01.108,0.00348445540294051,-0.0034124956000596302,-0.00456457631662488,0,
00:00:01.112,0.00200309068895876,-0.00520394509658217,0.0084688626229763,0,
00:00:01.116,0.0016829002415761401,0.00694021349772811,-0.0063657476566731895,0,
00:00:01.12,-0.0036751106381416295,0.007084672804921871,-0.00557142961770296,0,
00:00:01.124,-0.00536759756505489,-0.00396837294101715,-0.000763821240980178,0,
00:00:01.128,0.0009783664718270302,-0.00883434526622295,0.0109038902446628,0,
00:00:01.132,0.00464132660999894,0.00214522308669984,-0.0005365928518585861,0,
00:00:01.136,-0.0022378931753337396,0.00417262734845281,-0.0065153194591403,0,
00:00:01.14,0.00287036341615021,0.00650948099792004,-0.009952777996659279,0,
00:00:01.144,-0.00517793372273445,-0.008115516975522041,0.008438937366008759,0,
00:00:01.148,0.00457834079861641,-0.0007211468182504179,0.022286856546997996,0,
00:00:01.152,0.000697670446243137,-0.00066834653262049,-0.0224871002137661,0,
00:00:01.156,-0.00105371279641986,0.00313098193146288,-0.0086200088262558,0,
00:00:01.16,-0.00125504820607603,0.00607306184247136,0.00479786237701774,0,
00:00:01.164,-0.000687115301843733,-0.0041334480047226,0.00517457025125623,0,
00:00:01.168,-1.22904630188714e-05,-0.00465971929952502,0.00835830625146627,0,
00:00:01.172,0.000397097115637735,-0.00174406380392611,0.00210089259780943,0,
00:00:01.176,0.00046368726179935,0.000975793052930385,-0.00559796672314405,0,
00:00:01.18,-0.0017764698714017898,0.00210934574715793,-0.0011746389791369401,0,
00:00:01.184,0.00204673851840198,0.00384832150302827,-0.0060831345617771105,0,
00:00:01.188,0.00154758337885141,0.000839518965221941,-0.0066508301533758606,0,
00:00:01.192,2.5148543500108604e-05,-0.0059219538234174295,0.0057014832273125605,0,
00:00:01.196,-0.0009634259622544051,-0.00264027458615601,0.00686860317364335,0,
00:00:01.2,-0.00107841996941715,0.00357298878952861,0.00746897794306278,0,
00:00:01.204,-0.000618715595919639,0.0074375905096530906,-0.00446890294551849,0,
00:00:01.208,-0.0021140701137483103,-0.00923784635961056,-0.00583216128870845,0,
00:00:01.212,0.00024371639301534701,-0.00041696397238411,-0.0029278039000928398,0,
00:00:01.216,0.00612657098099589,0.009054321795701979,0.0023399041965603802,0,
00:00:01.22,-0.0019265755545347899,0.00280421902425587,-0.0062440931797027605,0,
00:00:01.224,-0.000230683814152144,-0.0100417770445347,0.0145896608009934,0,
00:00:01.228,-0.00254151015542448,-0.00614024652168155,-0.00206511886790395,0,
00:00:01.232,0.0032835723832249602,0.00484322523698211,-0.013461378403008,0,
00:00:01.236,-0.000974512950051576,0.00262460694648325,0.00922484789043665,0,
00:00:01.24,-0.0037746871821582296,-0.00287445797584951,0.00901539903134108,0,
00:00:01.244,0.00319400010630488,0.00633077649399638,-0.00878387968987226,0,
00:00:01.248,0.00192095804959536,0.0009958854643628,-0.00900055561214685,0,
00:00:01.252,-0.00269714510068297,-0.00183576857671142,0.00358060584403574,0,
00:00:01.256,-0.00191508454736322,-0.00233840313740075,0.00754845747724175,0,
00:00:01.26,-0.00202440028078854,-0.00353908143006265,0.00298178638331592,0,
00:00:01.264,0.00532021699473262,0.0037930028047412604,-0.0017321761697530699,0,
00:00:01.268,0.00102846045047045,0.000245193223236129,-0.00775683438405395,0,
00:00:01.272,-0.0007206784212030469,-0.000641722697764635,-0.00513234082609415,0,
00:00:01.276,0.00105888734105974,-0.00248382892459631,0.004101177677512171,0,
00:00:01.28,-0.00470262672752142,0.00408955663442612,0.0140881212428212,0,
00:00:01.284,0.00224806321784854,-3.736821963684629e-05,-0.00244757649488747,0,
00:00:01.288,-0.000340892147505656,-0.00116445717867464,-0.00424256920814514,0,
00:00:01.292,-0.000354571355273947,-0.0008653185795992611,-0.0123815014958382,0,
00:00:01.296,-0.0018717920174822198,0.0018801921978592899,0.0035908406134694797,0,
00:00:01.3,0.00248346105217934,-0.00376420957036316,0.0105560375377536,0,
00:00:01.304,-1.11301812921738e-06,-0.00131832284387201,-0.000347083725500852,0,
00:00:01.308,0.0043847425840795,0.00166594504844397,-0.0032582210842520003,0,
00:00:01.312,0.0007944729295559231,0.00472350884228945,-0.00447558844462037,0,
00:00:01.316,-0.0047004767693579206,0.006071463227272029,-0.000676866329740733,0,
00:00:01.32,-0.00558495754376054,-0.00516473595052958,0.0126560470089316,0,
00:00:01.324,0.00141287292353809,-0.00790636520832777,-0.007038307841867209,0,
00:00:01.328,0.0031706194858998104,-0.00255446066148579,-0.00653052143752575,0,
00:00:01.332,0.004293099511414771,0.004488694947212929,-0.00287698418833315,0,
00:00:01.336,-0.0014320581685751698,0.00839322991669178,0.0072641302831471,0,
00:00:01.34,-0.00439405953511596,-0.00448684114962816,0.00561676500365138,0,
00:00:01.344,-0.0013458613539114599,-0.0021188263781368698,-0.0011889621382579199,0,
00:00:01.348,0.0036502422299236103,-0.0025549486745148897,0.00366114801727235,0,
00:00:01.352,0.00255485298112035,0.000280309322988614,-0.00347871286794543,0,
00:00:01.356,0.00011172089580213701,0.008364388719201091,-0.00931140035390854,0,
00:00:01.36,-0.00144332356285304,0.00451831659302115,-0.0054936301894486,0,
00:00:01.364,-0.005795469973236321,-0.0159732513129711,0.00891983322799206,0,
00:00:01.368,-0.00115900964010507,-0.00962422043085098,0.00910721905529499,0,
00:00:01.372,0.0113074397668242,0.016290545463562,-0.00707288458943367,0,
00:00:01.376,0.000194400665350258,0.00686543947085738,0.0013503923546522901,0,
00:00:01.38,-0.0039651361294090704,0.00561756966635585,0.000986358150839806,0,
00:00:01.384,-0.00363175664097071,-0.00788176618516445,-0.0030484758317470603,0,
00:00:01.388,-0.00147320597898215,-0.0128857875242829,-0.00192161952145398,0,
00:00:01.392,0.00469468999654055,-0.00838729366660118,-0.0018792112823575698,0,
00:00:01.396,-0.000368490727851167,0.00794875528663397,0.00547783076763153,0,
00:00:01.4,-0.005924331024289129,0.0226853098720312,0.00112505932338536,0,
00:00:01.404,0.000713737215846777,-2.23137612920254e-05,-0.0027744148392230303,0,
00:00:01.408,0.0031637221109122,-0.015821298584342,-0.00114590569864959,0,
00:00:01.412,0.0026548712048679603,-0.00943663530051708,0.00707313744351268,0,
00:00:01.416,0.00094990327488631,0.000577468366827816,-0.000250329758273438,0,
00:00:01.42,-0.00263826944865286,0.0103384247049689,-0.00784390326589346,0,
00:00:01.424,0.000734280270989984,0.00443446356803179,0.00045773995225317803,0,
00:00:01.428,0.000529530050698668,-0.00411161361262202,-0.00234908144921064,0,
00:00:01.432,-0.00038129178574308796,-0.00027326395502314,0.0069226934574544395,0,
00:00:01.436,-0.000834377657156438,0.00496972957625985,-0.005011399276554579,0,
00:00:01.44,-0.000689242384396493,0.000654898700304329,-4.37491235061316e-06,0,
00:00:01.444,-0.000243162605329417,-0.007484078872948891,0.000416423834394664,0,
00:00:01.448,0.000168701953953132,-0.00223313388414681,0.0126345939934254,0,
00:00:01.452,0.00243978248909116,0.0028403908945620103,0.000860797706991434,0,
00:00:01.456,-0.00163991504814476,0.00191333622206002,-0.0191047787666321,0,
00:00:01.46,-0.00561295170336962,-0.00414968794211745,0.00647547701373696,0,
00:00:01.464,0.0037884989287704203,0.0029470210429281,0.00179387663956732,0,
00:00:01.468,0.0040391092188656295,-0.00595525465905666,-0.00463154911994934,0,
00:00:01.472,0.00127179513219744,0.00793559290468693,0.00101856468245387,0,
00:00:01.476,-0.00113064434845001,0.0030906943138688803,0.0049403100274503205,0,
00:00:01.48,7.88882607594132e-05,0.00742540508508682,0.00023204022727441002,0,
00:00:01.484,-0.0035201103892177296,-0.0104740560054779,-0.0009894913528114562,0,
00:00:01.488,-0.00425644451752305,-0.0150756714865565,0.00335291377268732,0,
00:00:01.492,0.004202358890324829,0.0041918852366507105,-0.00423314282670617,0,
00:00:01.496,-0.000847573508508503,0.00849767122417688,-0.00527237122878432,0,
00:00:01.5,0.00218756799586117,0.00757257547229528,0.005977734923362729,0,
00:00:01.504,0.0015875177923589901,-0.00110153027344495,-0.00048037435044534504,0,
00:00:01.508,-0.00406949315220118,-0.0101065030321479,-0.0093342550098896,0,
00:00:01.512,0.00509391259402037,0.00481479940935969,0.00581801449880004,0,
00:00:01.516,0.00227731745690107,0.0037840011063963205,0.0134158134460449,0,
00:00:01.52,-0.0060344506055116705,-0.00472782272845507,0.0012219910277053699,0,
00:00:01.524,-0.00165481423027813,0.000899035716429353,-0.0039698653854429704,0,
00:00:01.528,0.00260820612311363,-0.00165450549684465,-0.0172577891498804,0,
00:00:01.532,-0.000782584713306278,-0.0009393099462613461,0.00228710286319256,0,
00:00:01.536,-0.0006796319503337139,0.000373391492757946,0.00621780613437295,0,
00:00:01.54,0.000232090795179829,0.00315770413726568,-0.000304701126879081,0,
00:00:01.544,-0.00130440597422421,-0.000963909144047648,0.00236492394469678,0,
00:00:01.548,0.00269921985454857,-0.00322287576273084,0.00166626588907093,0,
00:00:01.552,0.0019752564840018697,0.00174669723492116,7.60922412155196e-05,0,
00:00:01.556,0.00217509968206286,0.00211642286740243,-0.00102250336203724,0,
00:00:01.56,-0.00105035293381661,0.0007992291357368231,-0.00124229828361422,0,
00:00:01.564,-0.00496752094477415,0.0016059960471466199,-0.00289714289829135,0,
00:00:01.568,-0.00264757848344743,-0.00298366672359407,-0.000304953544400632,0,
00:00:01.572,0.000541785848326981,-0.00249563227407634,0.0038738714065402703,0,
00:00:01.576,0.000161807663971558,-0.00469275331124663,0.00846940465271473,0,
00:00:01.58,0.00414348766207695,0.00904402881860733,-0.0124768456444144,0,
00:00:01.584,0.0027346950955689,0.00277541810646653,0.00135471159592271,0,
00:00:01.588,0.000101360994449351,-0.00601206161081791,0.00488620856776834,0,
00:00:01.592,-0.00160837126895785,-0.00350510817952454,-0.00128806452266872,0,
00:00:01.596,-0.00188714731484652,0.00487375818192959,-0.00478331372141838,0,
00:00:01.6,-0.0011841458035633,0.00306637329049408,-0.0037810015492141203,0,
00:00:01.604,0.0018541013123467601,-0.00464613875374198,0.00564094167202711,0,
00:00:01.608,-0.0015132533153519,-0.0005108522018417719,0.0045667290687561,0,
00:00:01.612,-0.0009652803419157859,0.0009651190484873949,-0.00336347799748182,0,
00:00:01.616,0.000340685248374939,0.00303027802146971,-1.01844625532976e-05,0,
00:00:01.62,-0.00102826184593141,0.000490199541673064,-0.0013745673932135099,0,
00:00:01.624,0.00293757673352957,-0.0037545834202319397,0.00434893043711782,0,
00:00:01.628,0.00207749009132385,-0.00427400972694159,-0.00265553710050881,0,
00:00:01.632,0.00214727898128331,0.00437214132398367,-0.006220443174242971,0,
00:00:01.636,-0.00322127668187022,-0.00278084422461689,0.016490587964654,0,
00:00:01.64,-0.00308724539354444,0.00831079483032227,-0.00308166723698378,0,
00:00:01.644,-0.0031360054854303603,-0.00293166586197913,-0.0162926837801933,0,
00:00:01.648,0.00683795614168048,-0.0033056847751140603,0.00263016833923757,0,
00:00:01.652,-0.0008907393203116949,0.00134547462221235,0.0059031839482486205,0,
00:00:01.656,-0.00401116162538528,-0.0007711373618803919,0.00320871383883059,0,
00:00:01.66,-0.0028884308412671102,0.00204499368555844,-0.00217208499088883,0,
00:00:01.664,0.00817679613828659,0.00294571300037205,-0.00401072669774294,0,
00:00:01.668,0.000365959771443158,-0.00266455812379718,0.00166981306392699,0,
00:00:01.672,0.00263991160318255,-0.0029544713906943802,0.00245794467628002,0,
00:00:01.676,-0.003018693998456,-0.00118460145313293,0.00118305196519941,0,
00:00:01.68,-0.00353289442136884,0.00261800084263086,0.0018067944329232,0,
00:00:01.684,-0.0038111531175673,-0.00271946378052235,-0.00507770758122206,0,
00:00:01.688,0.00221785507164896,-0.000551265722606331,-0.00274797598831356,0,
00:00:01.692,0.00504403654485941,0.00400809803977609,0.0029052523896098102,0,
00:00:01.696,0.00165480084251612,0.00882870424538851,0.000574025965761393,0,
00:00:01.7,-0.00573893496766686,-0.00597685575485229,0.000570828968193382,0,
00:00:01.704,-0.0007698871195316309,-0.0107643958181143,0.00689865183085203,0,
00:00:01.708,0.0033960959408432198,0.00364161469042301,-0.00761140510439873,0,
00:00:01.712,-0.0025611047167331,0.0006882759626023469,-0.00301659246906638,0,
00:00:01.716,-0.000968818960245699,0.0015977885341271801,0.00693467957898974,0,
00:00:01.72,0.00341532309539616,0.00627205427736044,0.00459387246519327,0,
00:00:01.724,0.00217761681415141,0.00166074489243329,-0.0109474966302514,0,
00:00:01.728,-0.000174688640981913,-0.00699037779122591,-0.008456287905573841,0,
00:00:01.732,-0.00156867469195276,-0.00230178283527493,0.0034466101787984397,0,
00:00:01.736,-0.00163740396965295,0.00033022236311808196,0.0155397867783904,0,
00:00:01.74,-0.0008883210830390449,0.00337913702242076,0.0037025008350610703,0,
00:00:01.744,-8.275950676761571e-06,-0.0007942402735352519,-0.0109991384670138,0,
00:00:01.748,0.0005445384304039179,-0.0010617449879646301,-0.0114173553884029,0,
00:00:01.752,0.000651228881906718,-0.000187344368896447,0.0101761789992452,0,
00:00:01.756,0.00044155024806968895,-0.00157044106163085,0.00579430162906647,0,
00:00:01.76,0.00013220369874034099,0.00470511894673109,-0.00605522422119975,0,
00:00:01.764,0.00197118683718145,0.00214468408375978,-0.00115497841034085,0,
00:00:01.768,-0.00424910942092538,-0.00340098747983575,0.00160136132035404,0,
00:00:01.772,0.000165619509061798,-0.00702834408730268,0.00820971559733152,0,
00:00:01.776,0.0034627902787178803,0.003304478013888,-0.000769428384955972,0,
00:00:01.78,-0.0009476740378886461,0.00639119883999228,-0.00283689354546368,0,
00:00:01.784,-0.00140247552189976,-0.000121634257084224,-0.0106358947232366,0,
00:00:01.788,0.0015602057101205,-0.00228198082186282,-0.00163841666653752,0,
00:00:01.792,0.000429936189902946,-0.00403633993119001,-0.000415925605921075,0,
00:00:01.796,-0.00504122814163566,0.00122547172941267,0.00459614675492048,0,
00:00:01.8,-0.00140971108339727,0.00609904760494828,0.0165266897529364,0,
00:00:01.804,0.00445238780230284,-0.0050761788152158295,0.00036902361898683,0,
00:00:01.808,0.00356400175951421,-0.0056103323586285106,-0.0115012777969241,0,
00:00:01.812,0.0028125173412263398,0.00454360479488969,-0.00568556319922209,0,
00:00:01.816,-0.00336096296086907,0.00656207604333758,-0.0006540166214108469,0,
00:00:01.82,-0.00155918998643756,0.00342784309759736,0.00423581106588244,0,
00:00:01.824,-0.00565124768763781,-0.00907361041754484,-0.00343184336088598,0,
00:00:01.828,0.000750279752537608,-0.00583310564979911,0.00823930278420448,0,
00:00:01.832,0.00494051864370704,0.00242956494912505,-0.00246246252208948,0,
00:00:01.836,0.000370271533029154,0.00401754258200526,-0.0027043134905397896,0,
00:00:01.84,-0.0007823649211786691,0.00246132048778236,0.00589449470862746,0,
00:00:01.844,-0.00266925129108131,0.00031140010105446,-0.00256290705874562,0,
00:00:01.848,0.0018397520761936899,-0.0010717950062826302,-0.00959482695907354,0,
00:00:01.852,0.001796476659365,-0.00344796921126544,0.00664076395332813,0,
00:00:01.856,0.00038173800567165,0.00105809746310115,0.00565943261608481,0,
00:00:01.86,-0.000735790235921741,0.00348664144985378,-0.0036564434412866796,0,
00:00:01.864,-0.00104689341969788,-0.00151502434164286,0.00100083078723401,0,
00:00:01.868,0.00134862272534519,6.00339662923943e-05,-0.00634383177384734,0,
00:00:01.872,-0.00216265395283699,-0.00487681990489364,0.008540964685380459,0,
00:00:01.876,-0.0014087458839640002,0.000709917803760618,-0.00484443735331297,0,
00:00:01.88,-0.003936790861189371,0.00445538200438023,-0.00376426824368536,0,
00:00:01.884,0.00511545082554221,-0.000156418813276105,0.00457830168306828,0,
00:00:01.888,0.00653281016275287,-0.0052528353407979,0.0030928635969758,0,
00:00:01.892,0.00106541346758604,0.00122391467448324,-0.00440423982217908,0,
00:00:01.896,-0.00532871624454856,0.0114725828170776,-0.00233696680516005,0,
00:00:01.9,-0.006363873369991779,-0.0036010388284921603,0.00306596094742417,0,
00:00:01.904,0.0009035640978254381,-0.00609925296157599,0.000503827759530395,0,
00:00:01.908,0.0030347122810781,-0.00742479506880045,0.00659129209816456,0,
00:00:01.912,0.00442601786926389,0.00415096851065755,-0.00340172881260514,0,
00:00:01.916,-0.00120541267096996,0.0095764733850956,-0.004586885217577221,0,
00:00:01.92,-0.00213809963315725,-0.00133821717463434,-0.00011533086217241398,0,
00:00:01.924,-0.0011718601454049301,-0.0057745240628719295,-0.00154511816799641,0,
00:00:01.928,1.15044877020409e-05,-0.000341602775733918,-0.00194205855950713,0,
00:00:01.932,0.000667675980366766,-0.000675533025059849,0.0076845586299896206,0,
00:00:01.936,0.00071111146826297,0.00320651917718351,-0.0026337078306824,0,
00:00:01.94,0.000390234112273902,0.00415395526215434,-0.00218224711716175,0,
00:00:01.944,0.00208632019348443,0.00211963802576065,0.00457327952608466,0,
00:00:01.948,-0.0042797578498721105,-0.011089876294136,-0.0042159715667367,0,
00:00:01.952,0.0021329657174646898,-0.0030345821287483,0.0106412749737501,0,
00:00:01.956,-0.0006978723104111849,0.0070175267755985295,-0.00393591215834022,0,
00:00:01.96,-0.00067824637517333,0.0047800992615521,-0.0128801893442869,0,
00:00:01.964,5.27142292412464e-05,-0.00197152607142925,0.00012561198673211,0,
00:00:01.968,0.000530250428710133,-0.00695199239999056,0.00289274728856981,0,
00:00:01.972,0.0026260633021593103,0.00673722987994552,0.000286005903035402,0,
00:00:01.976,-0.00169417494907975,-0.000476818793686107,0.0095070693641901,0,
00:00:01.98,-0.00374747812747955,-0.00403469288721681,0.0128912134096026,0,
00:00:01.984,0.0036562453024089297,0.0008762550423853099,-0.0016397242434322801,0,
00:00:01.988,0.000265414419118315,-0.000337408971972764,-0.0197006054222584,0,
00:00:01.992,-0.0026720939204096803,0.00290398159995675,-0.0160452201962471,0,
00:00:01.996,0.0015434828819707,0.0036352851893752796,0.00458839675411582,0,
00:00:02,0.0015819612890481901,0.00171859993133694,0.00922162365168333,0,
00:00:02.004,0.000347793597029522,-0.00916154310107231,0.0129331322386861,0,
00:00:02.008,0.00143411103636026,-0.00286351866088808,0.000680439756251872,0,
00:00:02.012,-0.0028957326430827397,0.0014950871700421,-0.0033604046329855897,0,
00:00:02.016,-0.00643333559855819,-0.00113392795901746,0.00491999043151736,0,
00:00:02.02,0.00568629428744316,0.00634418427944183,-0.0077369911596179,0,
00:00:02.024,0.0023600012063980103,0.00625183479860425,-0.008946879766881471,0,
00:00:02.028,0.00216357177123427,3.7494060961762396e-05,0.00021523467148654198,0,
00:00:02.032,-0.0029215563554316802,-0.00840025767683983,0.003990181721746921,0,
00:00:02.036,-0.0026442133821547,-0.00284092244692147,0.0017954673385247601,0,
00:00:02.04,-0.000729193852748722,0.0026308938395232,0.00805420707911253,0,
00:00:02.044,-0.00127022608648986,-0.0021834948565810897,-0.0044727330096066,0,
00:00:02.048,0.005359988193959,-0.0042075626552105,0.0017927277367562101,0,
00:00:02.052,0.000641819380689412,0.0102900704368949,-0.004858043510466811,0,
00:00:02.056,-0.0011519857216626401,0.008090647868812079,-0.0053585623390972606,0,
00:00:02.06,-0.00333224167115986,-0.005383904557675121,0.0020384774543345,0,
00:00:02.064,0.00547124166041613,-0.0069452854804694705,0.0058561759069562,0,
00:00:02.068,-0.0023233552929014,-0.0055625862441957,-0.0036148405633866796,0,
00:00:02.072,-0.00483690993860364,0.000270948483375832,0.00901952292770147,0,
00:00:02.076,0.00116671109572053,0.00607478898018599,0.000386067054932937,0,
00:00:02.08,0.0025327538605779396,0.0064309285953640894,-0.0131934136152267,0,
00:00:02.084,0.00163637776859105,-0.0012224515667185198,-0.00359689490869641,0,
00:00:02.088,0.00023696714197285498,-0.00340363662689924,0.00151549675501883,0,
00:00:02.092,0.00137542001903057,-0.000488615187350661,0.007658272981643679,0,
00:00:02.096,-0.00289952661842108,-0.00276277167722583,0.00766735197976232,0,
00:00:02.1,-0.00227533187717199,-0.00310993194580078,0.00118451495654881,0,
00:00:02.104,-0.000351271970430389,0.00293550570495427,-0.00590268755331635,0,
00:00:02.108,-0.0010544720571488099,0.00134042161516845,0.0010970376897603302,0,
00:00:02.112,0.0053916135802865,0.00564850913360715,-0.0035704178735613797,0,
00:00:02.116,0.000556354061700404,0.00142908398993313,-0.0058054919354617604,0,
00:00:02.12,-0.00126624945551157,-0.00266220513731241,-0.0016045799711719199,0,
00:00:02.124,0.000739003822673112,-0.00591798219829798,0.000316002056933939,0,
00:00:02.128,-0.00473184604197741,-0.00684478180482984,0.00783341564238071,0,
00:00:02.132,0.00033687820541672403,0.00498653994873166,0.00044244524906389404,0,
00:00:02.136,0.0018469528295099698,0.00816222093999386,0.00354361440986395,0,
00:00:02.14,-0.000636866723652929,0.000883186177816242,7.671975617995491e-05,0,
00:00:02.144,0.0044835540466010605,-0.0021936129778623603,-0.0029031892772764,0,
00:00:02.148,0.0013789312215521901,-0.00454176869243383,-0.0075253355316817795,0,
00:00:02.152,-0.004098888020962479,0.000580402149353176,-9.550478716846558e-05,0,
00:00:02.156,-0.00111652270425111,0.00564540829509497,0.00100385048426688,0,
00:00:02.16,-0.00670395279303193,-0.00314865470863879,0.00918103195726871,0,
00:00:02.164,0.0036173593252897297,-0.007492009084671741,-0.0008083023712970321,0,
00:00:02.168,0.00489269802346826,0.00309643941000104,-0.00946406833827496,0,
00:00:02.172,0.00448870146647096,0.00447970209643245,0.00576022965833545,0,
00:00:02.176,-0.00233086035586894,0.004253130406141279,0.0024792386684566697,0,
00:00:02.18,-0.007614062633365391,-0.000280788517557085,-0.00245037698186934,0,
00:00:02.184,0.00609466340392828,-0.00738694425672293,0.000319263024721295,0,
00:00:02.188,-0.0008164435857906941,-0.00357317877933383,-0.004030509386211629,0,
00:00:02.192,-0.00194184167776257,0.00550613226369023,0.00551840988919139,0,
00:00:02.196,-0.000854170706588775,0.0017379968194291,0.0026934496127069,0,
00:00:02.2,-0.00169037049636245,0.0019748080521822,-0.00784215237945318,0,
00:00:02.204,0.00292612798511982,-0.00475599337369204,0.00250600115396082,0,
00:00:02.208,0.00246719247661531,-0.0023656003177166,0.000199840651475824,0,
00:00:02.212,0.000530127959791571,0.0031543655786663303,-0.00239373464137316,0,
00:00:02.216,0.0011297606397420198,0.00476121203973889,0.00394941819831729,0,
00:00:02.22,-0.00542019074782729,-0.00143305025994778,0.00194618641398847,0,
00:00:02.224,0.00143690302502364,-0.0026976398658007396,-0.00518669281154871,0,
00:00:02.228,-0.000790122663602233,-0.0037280267570167797,-0.0025003426708281,0,
00:00:02.232,-0.00035157293314114197,0.0038868875708431,0.0033580195158720003,0,
00:00:02.236,0.000497321481816471,0.0025271715130657,0.0030175349675118897,0,
00:00:02.24,-0.00121698318980634,-0.00246811890974641,-0.00127703009638935,0,
00:00:02.244,0.00264747720211744,-0.006178025621920821,0.0010105210822075599,0,
00:00:02.248,0.00602414133027196,0.00373514136299491,0.00426503596827388,0,
00:00:02.252,-0.0039328685961663706,0.00223525008186698,-0.00905169546604156,0,
00:00:02.256,-0.00654060114175081,0.00564509397372603,-0.0026043185498565396,0,
00:00:02.26,0.000286454131128266,0.00287946220487356,0.0020859995856881103,0,
00:00:02.264,0.0046111005358398,-0.00739323487505317,0.00557707622647285,0,
00:00:02.268,-0.00190931744873524,-0.0100976703688502,0.00466052163392305,0,
00:00:02.272,0.00321216881275177,0.00274551380425692,-0.0008258621674031019,0,
00:00:02.276,-0.000863926426973194,0.00975458975881338,-0.00618633255362511,0,
00:00:02.28,-0.00355956889688969,-0.000305790337733924,-0.00616302620619535,0,
00:00:02.284,0.00121607386972755,-0.00265969545580447,0.00166125793475658,0,
00:00:02.288,0.00172067177481949,-0.0038413964211940796,-0.000356697564711794,0,
00:00:02.292,0.000689261243678629,-0.000342302053468302,0.008808323182165621,0,
00:00:02.296,-0.000336998054990545,0.0043330742046237,0.0021292532328516197,0,
00:00:02.3,-0.0007735876715742049,0.00685086287558079,-0.0040562232024967705,0,
00:00:02.304,-0.000651208567433059,-0.00823977403342724,0.000935919641051441,0,
00:00:02.308,0.0018121871398761899,-0.0032271086238324603,0.0036666141822934203,0,
00:00:02.312,0.00019899211474694298,0.0071279727853834594,-0.0163492430001497,0,
00:00:02.316,-0.0054134912788868,0.000740610877983272,-0.0036881389096379297,0,
00:00:02.32,-0.0016486705280840401,-0.00682379491627216,0.0190753620117903,0,
00:00:02.324,0.00443465262651443,-0.0031123752705752897,0.00353059289045632,0,
00:00:02.328,0.00370692205615342,-0.000393878435716033,-0.00579996826127172,0,
00:00:02.332,0.0029999879188835604,0.0119434557855129,-0.007123798597604041,0,
00:00:02.336,-0.0032225884497165697,0.00497164996340871,0.00464368611574173,0,
00:00:02.34,-0.00565842306241393,-0.00963594950735569,0.00517489574849606,0,
00:00:02.344,0.000355372205376625,-0.00289180199615657,-0.0110657662153244,0,
00:00:02.348,0.00408146297559142,-0.006616702303290371,-0.000641496735624969,0,
00:00:02.352,0.00162712519522756,0.00433603581041098,0.0121253943070769,0,
00:00:02.356,-0.0031610229052603197,0.00761998957023025,-0.0020026562269777103,0,
00:00:02.36,-0.00424935529008508,0.00282632187008858,-0.0109489345923066,0,
00:00:02.364,0.00200480665080249,-0.00398098491132259,0.007438827771693471,0,
00:00:02.368,0.00509390654042363,-0.00589311635121703,-0.000972869282122701,0,
00:00:02.372,-0.000318271777359769,0.000620272941887379,-0.0011631418019533199,0,
00:00:02.376,-0.0037540716584771898,0.00448580738157034,0.00459566339850426,0,
00:00:02.38,0.00284538883715868,-0.000192055100342259,-0.0047152298502624,0,
00:00:02.384,-0.0027075817342847603,-0.0053181853145360895,0.00185293843969703,0,
00:00:02.388,0.00292402063496411,0.00326707749627531,0.00169852771796286,0,
00:00:02.392,-0.000833440106362104,0.0032915775664150698,0.00199933513067663,0,
00:00:02.396,-0.00128271756693721,0.00281666335649788,-0.00526529783383012,0,
00:00:02.4,-0.00259964703582227,-0.00326348701491952,-0.000928077439311892,0,
00:00:02.404,0.0043033529073,-0.00557579006999731,-0.00124172191135585,0,
00:00:02.408,0.00233015837147832,0.000511215999722481,0.0030858488753438,0,
00:00:02.412,-0.0029421485960483603,0.00424063997343183,0.0044236369431018795,0,
00:00:02.416,-0.00453311577439308,0.00173619273118675,0.000452740117907524,0,
00:00:02.42,0.00154129590373486,-0.00104394229128957,-0.00464199809357524,0,
00:00:02.424,0.00474575953558087,-0.00623693177476525,-0.0010602726833894801,0,
00:00:02.428,-0.000428573781391606,0.000325973669532686,-0.0021536767017096303,0,
00:00:02.432,-0.00158832524903119,0.0028062502387911103,-0.00199892837554216,0,
00:00:02.436,-0.00102964311372489,0.0045569371432066,0.0038052382878959205,0,
00:00:02.44,-0.000144019199069589,-0.00306088593788445,0.00162760354578495,0,
00:00:02.444,0.000415039306972176,-0.00213110749609768,0.00127243739552796,0,
00:00:02.448,0.00259471498429775,0.00239236769266427,-0.0013022113125771301,0,
00:00:02.452,0.000421925418777391,0.00375475687906146,-8.70146541274153e-05,0,
00:00:02.456,-0.00564671121537685,-5.518747275345961e-05,0.00922877620905638,0,
00:00:02.46,1.0664474757504599e-05,-0.00487599382176995,0.0012717443751171199,0,
00:00:02.464,3.14350436383393e-05,-0.00726347463205457,-0.0101374415680766,0,
00:00:02.468,0.00387409725226462,0.0018675805767998101,-0.00757222436368465,0,
00:00:02.472,0.00240235240198672,0.009243841283023359,-0.00328743900172412,0,
00:00:02.476,-0.00011531874042702801,0.00630263704806566,0.00534037640318275,0,
00:00:02.48,-0.00370950740762055,-0.00792449619621038,0.00617671338841319,0,
00:00:02.484,0.000210748839890584,-0.00632331892848015,0.00331719149835408,0,
00:00:02.488,0.00270568137057126,0.0032809900585562,-0.00412140740081668,0,
00:00:02.492,-0.00188469199929386,-0.0011180971050635,0.00203253724612296,0,
00:00:02.496,-0.0019631702452898,0.00436894036829472,0.007308998145163059,0,
00:00:02.5,-0.000536647508852184,-0.00012201191566418898,-0.00696380715817213,0,
00:00:02.504,0.00068552844459191,-0.00337612768635154,-0.00691116834059358,0,
00:00:02.508,0.00110473739914596,0.00102630211040378,-0.0041828756220638795,0,
00:00:02.512,0.000838959123939276,0.00349804433062673,0.00397683400660753,0,
00:00:02.516,-0.0017848988063633399,0.0026495971251279103,-0.00317094777710736,0,
00:00:02.52,0.0018000991549342899,-0.0059949760325253,0.00872674770653248,0,
00:00:02.524,-0.000817442021798342,-0.0104066440835595,0.0128480130806565,0,
00:00:02.528,0.00180622783955187,0.00586752919480205,-0.00729020358994603,0,
00:00:02.532,0.000621587678324431,0.009539977647364141,-0.00228987401351333,0,
00:00:02.536,-0.000854285317473114,0.00345753785222769,-0.00104193796869367,0,
00:00:02.54,-0.00137383886612952,-0.0066026272252202,-0.0115401661023498,0,
00:00:02.544,-0.000992244458757341,-0.0028221125248819603,0.000282076565781608,0,
00:00:02.548,0.0018233101582154601,-0.0025499917101115,0.000560796877834946,0,
00:00:02.552,-0.00162743264809251,0.0026560053229332,0.0104189440608025,0,
00:00:02.556,-0.00105989526491612,0.00464683165773749,-0.00285978964529932,0,
00:00:02.56,-0.00176797178573906,-0.00322418427094817,0.00856668502092361,0,
00:00:02.564,0.0030444723088294302,-0.00444580148905516,0.0018325081327930101,0,
00:00:02.568,0.004725944250822071,0.00634496146813035,-0.0114823263138533,0,
00:00:02.572,-0.00132198899518698,0.00144433276727796,-0.00943703111261129,0,
00:00:02.576,-0.00464564794674516,0.000673173926770687,0.0041987574659287895,0,
00:00:02.58,0.000367128144716844,-0.00195858697406948,0.00637726625427604,0,
00:00:02.584,0.00350005901418626,-0.00495720747858286,0.005685378331691029,0,
00:00:02.588,-0.0031948685646057103,-0.00413471413776279,-0.0038748260121792603,0,
00:00:02.592,0.000362966093234718,0.00526680517941713,-0.007744150701910259,0,
00:00:02.596,0.00101488421205431,0.00440404610708356,0.0156400240957737,0,
00:00:02.6,-0.0015503055183216901,-0.00326149840839207,-0.00522339763119817,0,
00:00:02.604,0.00396298430860043,0.00025217523216269905,-0.0139175513759255,0,
00:00:02.608,0.00134047900792211,-0.0011029989691451198,-0.0035553474444896,0,
00:00:02.612,-0.00589979998767376,0.00244743493385613,0.0142796877771616,0,
00:00:02.616,-0.00087015307508409,0.0035200298298150297,0.0131421219557524,0,
00:00:02.62,0.0013076262548565901,-0.00026925621205009504,-0.0127837229520082,0,
00:00:02.624,0.0015641957288608,-0.00912602990865707,-0.007613216992467641,0,
00:00:02.628,0.0008917705272324381,0.0029161509592086103,0.00597366644069552,0,
00:00:02.632,-0.00199227361008525,0.0013496238971129099,0.00207060249522328,0,
00:00:02.636,0.00155562674626708,-0.00140835798811167,0.00142036180477589,0,
00:00:02.64,0.0011203218018636099,0.00434018392115831,-0.0076822745613753796,0,
00:00:02.644,0.0019050269620493102,-0.00029837587499059704,0.00116319034714252,0,
00:00:02.648,-0.0029089564923197,-0.0036572159733623297,0.00284000695683062,0,
00:00:02.652,-0.00256826495751739,0.0070184087380766895,-0.0025228448212146802,0,
00:00:02.656,-0.0006358820246532559,-0.000450497289421037,-0.000173613399965689,0,
00:00:02.66,-0.00117506319656968,-0.0166714638471603,0.014662996865808998,0,
00:00:02.664,0.00544082513079047,-0.000361817161319777,-0.0010534996399655901,0,
00:00:02.668,0.0006951452232897281,0.0100054256618023,-0.0123614752665162,0,
00:00:02.672,-0.0011294652940705401,0.0144036952406168,-0.00565774645656347,0,
00:00:02.676,-0.0012578270398080301,0.000534137070644647,-0.00610770517960191,0,
00:00:02.68,-0.0027446160092949898,-0.009254987351596359,0.0008306559757329519,0,
00:00:02.684,0.004022434353828429,-0.00998912937939167,0.0184546373784542,0,
00:00:02.688,4.40355097452994e-06,-0.0007431784761138259,0.00732923997566104,0,
00:00:02.692,-0.00107818795368075,0.00748792523518205,-0.0092189833521843,0,
00:00:02.696,-0.000783718540333211,0.00388247310183942,-0.00974962487816811,0,
00:00:02.7,-0.00429736543446779,-0.0154833337292075,0.0106917815282941,0,
00:00:02.704,0.00632700184360147,0.00445408839732409,0.000542590802069753,0,
00:00:02.708,0.0037975504528731103,0.0106315826997161,-0.00631304550915957,0,
00:00:02.712,-0.00298176915384829,0.00717551866546273,-0.0105087719857693,0,
00:00:02.716,-0.0055099558085203205,-0.00143466796725988,0.00987560395151377,0,
00:00:02.72,0.000494985200930387,-0.00842247623950243,0.00343631790019572,0,
00:00:02.724,0.00210162391886115,-0.00831998884677887,-0.00608630944043398,0,
00:00:02.728,0.00362629047594965,-0.00152186641935259,0.00276942364871502,0,
00:00:02.732,-0.00155715411528945,0.009956648573279379,0.009967718273401259,0,
00:00:02.736,-0.004137742798775429,0.0011910474859178099,-0.000276428880169988,0,
00:00:02.74,0.0011043845443055,-0.00146300590131432,-0.0097289402037859,0,
00:00:02.744,0.00195981911383569,-0.00342692690901458,-0.0036820082459598797,0,
00:00:02.748,-0.00105204456485808,-0.00262855202890933,-0.00153132877312601,0,
00:00:02.752,0.00394752621650696,0.0100047001615167,0.00437191175296903,0,
00:00:02.756,-0.00104293168988079,0.0020882927346974603,0.00602438533678651,0,
00:00:02.76,-0.0021849456243217,-0.0053753899410367,-0.00680402759462595,0,
00:00:02.764,0.000672461348585784,-0.00668290304020047,0.00349880172871053,0,
00:00:02.768,-0.0021615163423121,0.000679189746733755,0.0072302739135921,0,
00:00:02.772,-0.00101108406670392,0.00299147609621286,0.00017359484627377198,0,
00:00:02.776,-0.00142773392144591,0.004507226869463921,-0.0114032430574298,0,
00:00:02.78,0.00338517013005912,-0.0010929818963632,-0.00810264050960541,0,
00:00:02.784,0.000754143227823079,-0.00413743080571294,0.00774022238329053,0,
00:00:02.788,0.000553389021661133,-0.00332933920435607,-0.0010004321811720699,0,
00:00:02.792,0.0025812869425863,0.007654871791601179,0.00999334547668695,0,
00:00:02.796,0.00233680196106434,0.00626408448442817,0.00245098234154284,0,
00:00:02.8,-0.00586113706231117,-0.007479063235223291,-0.00480813719332218,0,
00:00:02.804,-0.0019083005608990801,-0.00382304983213544,-0.0022606577258557103,0,
00:00:02.808,0.00422294670715928,-0.000541912275366485,-0.0034764653537422397,0,
00:00:02.812,-0.0051834359765052795,0.00340597052127123,0.0012607662938535198,0,
00:00:02.816,-0.000434800138464198,-0.000258939515333623,0.00369820185005665,0,
00:00:02.82,-0.00024305479018949,-0.000496730441227555,-0.00339646404609084,0,
00:00:02.824,0.00399424787610769,-0.0019558218773454397,0.00013034197036176898,0,
00:00:02.828,0.000668686348944902,0.000409029831644148,-0.00112874654587358,0,
00:00:02.832,0.00425916351377964,0.0040854956023395105,0.00260642799548805,0,
00:00:02.836,-0.0038803219795227103,0.00407467968761921,0.00173979718238115,0,
00:00:02.84,-0.00126519775949419,-0.0027520281728357103,-0.00213703024201095,0,
00:00:02.844,-0.0005035359645262361,-0.00584757421165705,0.00498509220778942,0,
00:00:02.848,0.0018533737165853399,0.00196805573068559,-0.0035165592562407303,0,
00:00:02.852,-0.0019824709743261303,0.00173258129507303,-0.00790707021951675,0,
00:00:02.856,-0.0035502258688211398,-0.00013715383829548998,0.000689225969836116,0,
00:00:02.86,0.00412282161414623,-0.005313650239259,0.00841544009745121,0,
00:00:02.864,0.000734024855773896,-0.0012322413967922302,-0.002209686441347,0,
00:00:02.868,0.00177233282011002,0.00485124671831727,0.0023125379811972397,0,
00:00:02.872,-0.00440702168270946,0.005991462152451279,0.0028459003660827897,0,
00:00:02.876,0.00019453540153335802,0.000997694325633347,-0.00334254978224635,0,
00:00:02.88,0.00150224275421351,-0.00503324531018734,-0.00583644583821297,0,
00:00:02.884,-0.0009627185063436631,-0.0101742502301931,0.0023504833225160802,0,
00:00:02.888,0.00222103507257998,0.00710297236219049,0.00011942671699216599,0,
00:00:02.892,0.0012451368384063198,0.00638531288132072,-0.00198363373056054,0,
00:00:02.896,-0.000415444519603625,0.0030784301925450602,0.000400215707486495,0,
00:00:02.9,-0.0033554516267031397,-0.0110118146985769,0.00633293949067593,0,
00:00:02.904,0.00287676672451198,-0.00340775586664677,0.00444010971114039,0,
00:00:02.908,0.0012048571370542,0.00241415831260383,-0.0102975880727172,0,
00:00:02.912,-0.00332531868480146,0.00842739176005125,0.00469210557639599,0,
00:00:02.916,-0.00633790949359536,0.00329682347364724,-0.00614660931751132,0,
00:00:02.92,0.00408479617908597,-0.00435480289161205,0.00126223999541253,0,
00:00:02.924,0.00690092891454697,-0.0066405888646841,-0.00389999081380665,0,
00:00:02.928,0.0020913553889840802,3.94664821214974e-05,0.0008655288256704809,0,
00:00:02.932,-0.00647120224311948,0.00224254466593266,0.008677130565047259,0,
00:00:02.936,-0.0018668329576030397,0.004050069488585,0.006735010072588921,0,
00:00:02.94,0.000519077817443758,-0.00323194684460759,-0.00307045527733862,0,
00:00:02.944,0.0033144238404929603,-0.0019513048464432398,-0.00786703079938889,0,
00:00:02.948,-0.00307845300994813,0.00275336764752865,-0.00010519492934690799,0,
00:00:02.952,0.000696306233294308,0.00409596925601363,-0.0014700937317684301,0,
00:00:02.956,0.00131802703253925,0.00014207624190021298,-0.00234140665270388,0,
00:00:02.96,-0.00142775778658688,-0.00691735604777932,-0.0011349006090313198,0,
00:00:02.964,0.00182539562229067,-0.0032857465557754,0.00915435701608658,0,
00:00:02.968,0.0010810022940859199,0.00350580690428615,0.00467309588566422,0,
00:00:02.972,0.00171319860965014,0.009877573698759079,-0.00994347129017115,0,
00:00:02.976,-0.00309273647144437,-0.0024142493493855,0.00532232085242867,0,
00:00:02.98,-0.00265770079568028,-0.011658838018775,-0.00154555484186858,0,
00:00:02.984,0.00145026494283229,-0.00178951467387378,-0.0026819887571036803,0,
00:00:02.988,0.00106859498191625,0.0063146385364234395,-0.0054765515960753,0,
00:00:02.992,-0.00215441058389843,0.0074263452552259,0.00219025695696473,0,
00:00:02.996,-0.00282071391120553,0.00164115335792303,0.0022992703597992698,0,
00:00:03,0.00298672611825168,-0.00929109565913677,0.0112743834033608,0,
00:00:03.004,0.00325939548201859,-0.0025448738597333397,0.00676406873390079,0,
00:00:03.008,0.00340383453294635,0.00805393885821104,-0.015777787193656,0,
00:00:03.012,-0.0067012426443398,-0.000831532524898648,-0.011348987929523,0,
00:00:03.016,-0.00330847897566855,-0.00485001085326076,0.00339261279441416,0,
00:00:03.02,0.00987505819648504,0.00238516204990447,0.00216126581653953,0,
00:00:03.024,-0.000127809311379679,-0.00242319772951305,0.0038310675881803,0,
00:00:03.028,-0.005625348538160321,-0.000587289861869067,0.00801591016352177,0,
00:00:03.032,0.00102632527705282,0.00784068927168846,-0.00184661499224603,0,
00:00:03.036,-0.00346781103871763,-0.0016738362610340099,0.00284881703555584,0,
00:00:03.04,0.0011520733823999802,-0.0014037380460649698,-0.00990529637783766,0,
00:00:03.044,0.00406331475824118,-0.00395925855264068,-0.007279478013515471,0,
00:00:03.048,0.00127711973618716,-0.0037153249140828796,0.0099559398368001,0,
00:00:03.052,-0.00558541715145111,0.000879503844771534,0.00906926300376654,0,
00:00:03.056,-0.000386827916372567,0.00573136657476425,-0.00415069470182061,0,
00:00:03.06,-0.00041992470505647405,0.00150724465493113,-0.006078508682549,0,
00:00:03.064,0.00569275626912713,0.0040877787396311795,-0.00524868769571185,0,
00:00:03.068,0.0024883474688977,-0.00248867901973426,0.0043051284737885,0,
00:00:03.072,-0.00151378731243312,0.000252687867032364,0.0038971598260104704,0,
00:00:03.076,-0.005250080954283479,-0.00435349531471729,-0.00532834278419614,0,
00:00:03.08,-0.004693031311035161,-0.00771703897044063,-0.0036537288688123204,0,
00:00:03.084,0.00477156694978476,-0.0010365750640630698,0.0110391182824969,0,
00:00:03.088,0.00205439561977983,0.00865019485354424,0.0039017710369080296,0,
00:00:03.092,-0.00133333192206919,0.00378441601060331,0.00210973410867155,0,
00:00:03.096,-8.77201091498137e-05,0.00032842095242813197,-0.00827654357999563,0,
00:00:03.1,0.0032551444601267602,-0.0014683718327432901,-0.0067853666841983795,0,
00:00:03.104,0.00136404705699533,-0.0038664517924189602,-0.0058216587640345105,0,
00:00:03.108,0.00105732679367065,0.00284616067074239,0.00419732416048646,0,
00:00:03.112,-0.00609107315540314,-0.000695602153427899,0.00679762475192547,0,
00:00:03.116,-0.0034067484084516803,-0.0011956769740209,0.00253205234184861,0,
00:00:03.12,0.00488776154816151,-0.000507761375047266,0.009172310121357441,0,
00:00:03.124,0.00100253825075924,-0.0018327465513721102,0.00020902353571727902,0,
00:00:03.128,0.00156678503844887,0.00464017083868384,-0.0153792044147849,0,
00:00:03.132,-0.00474298233166337,0.00226168404333293,-0.00221072230488062,0,
00:00:03.136,-5.70220436202362e-06,-0.0032047501299530302,-8.108115434879441e-05,0,
00:00:03.14,0.00151465786620975,-0.000630798749625683,0.00222366093657911,0,
00:00:03.144,0.0012714850017800901,-0.00668573100119829,-0.0012276832712814199,0,
00:00:03.148,0.00251070619560778,0.0033434529323130803,0.0081478413194418,0,
00:00:03.152,-0.0022403453476727,0.00663615856319666,-5.6114233302651e-05,0,
00:00:03.156,-0.00426632538437843,0.000211650316487066,0.00645865593105555,0,
00:00:03.16,-0.00074005703208968,-0.00621662568300962,-0.00919083133339882,0,
00:00:03.164,0.00425818096846342,0.00408288836479187,-0.0048535936512053,0,
00:00:03.168,0.00496655004099011,0.000422790879383683,-0.00248409458436072,0,
00:00:03.172,-0.00183801830280572,0.000908909540157765,0.00411223759874702,0,
00:00:03.176,-0.0053315265104174605,0.0009447808843106029,0.00418392615392804,0,
00:00:03.18,-5.89687369938474e-05,-0.00617290148511529,-0.00238383701071143,0,
00:00:03.184,0.00137926009483635,-0.00957757141441107,0.00548621080815792,0,
00:00:03.188,0.00315586919896305,0.00690052099525929,0.00590593414381146,0,
00:00:03.192,-0.00164725515060127,0.0122900335118175,-0.0128775713965297,0,
00:00:03.196,-0.00187237095087767,0.0016329787904396699,-0.00566414324566722,0,
00:00:03.2,-0.000589587783906609,-0.00847863778471947,-0.0005923030548729,0,
00:00:03.204,0.0005363519885577259,-0.00751608796417713,0.0149714825674891,0,
00:00:03.208,0.000936448865104467,0.0061066048219799995,-3.86390420317184e-05,0,
00:00:03.212,-0.00136017031036317,0.0049722455441951795,-0.00453741475939751,0,
00:00:03.216,0.0022137365303933603,0.00040098995668813597,-0.0036583102773875,0,
00:00:03.22,0.00147449702490121,-0.00879598967730999,-0.00528996717184782,0,
00:00:03.224,0.00190712022595108,0.000936403113882989,0.00481139402836561,0,
00:00:03.228,-0.00312528782524168,0.0053227739408612295,0.000727463571820408,0,
00:00:03.232,-0.00282479193992913,0.0022433523554354897,0.0118048032745719,0,
00:00:03.236,-0.00080791482469067,-0.00331719568930566,-0.0059101982042193395,0,
00:00:03.24,0.0008512515923939651,-0.00480947690084577,-0.000700230186339468,0,
00:00:03.244,0.00143301533535123,-0.0006119824247434741,-0.00839341152459383,0,
00:00:03.248,0.0011073841014877,0.0047135311178863,-0.00340016908012331,0,
00:00:03.252,0.000401493132812902,0.0053802179172635104,0.010800126940011999,0,
00:00:03.256,-0.000207992576179095,-0.0016575868939980901,0.00115237571299076,0,
00:00:03.26,0.00158802594523877,-0.0033086200710386,-0.010783058591187,0,
00:00:03.264,-0.00242303451523185,-0.0022112040314823398,0.00336981634609401,0,
00:00:03.268,-0.0039521865546703295,-0.00251686340197921,0.00548449531197548,0,
00:00:03.272,0.00386433536186814,0.00692540872842073,0.0005906508886255321,0,
00:00:03.276,-0.00144068570807576,-0.00323075661435723,0.0055441209115088,0,
00:00:03.28,0.00168880668934435,-0.000293307268293574,-0.00456577306613326,0,
00:00:03.284,0.00135369529016316,-0.00135498796589673,-0.0073689641430974,0,
00:00:03.288,0.0021779339294880603,0.0026279625017195897,-0.00657676858827472,0,
00:00:03.292,-0.00482396688312292,0.00392307573929429,0.0165555365383625,0,
00:00:03.296,-0.00267697614617646,-0.0019772683735936897,-0.0006548720994032919,0,
00:00:03.3,0.0028512766584754,-0.00281370361335576,-0.00694784382358193,0,
00:00:03.304,0.0046339207328856,-0.00562569219619036,-0.0012818272225558801,0,
00:00:03.308,-0.00137025059666485,0.00612537236884236,-0.000824811111669987,0,
00:00:03.312,-0.00460648443549871,0.00643685553222895,0.00154861458577216,0,
00:00:03.316,0.00256545492447913,-0.00420343643054366,0.00460324389860034,0,
00:00:03.32,-0.000397794065065682,-0.0045531764626503,0.00402469281107187,0,
00:00:03.324,0.00141517980955541,-0.0035823539365083,-0.0051410589367151295,0,
00:00:03.328,-0.00413350155577064,0.00313869258388877,-0.00209102150984108,0,
00:00:03.332,-0.00134367309510708,0.00379079487174749,0.00150107324589044,0,
00:00:03.336,0.00394454644992948,0.0039323945529758896,0.00237345998175442,0,
00:00:03.34,0.00505839800462127,-0.0043022888712585,-0.00508933234959841,0,
00:00:03.344,-0.0015620127087459,-0.00312375137582421,-0.00296762143261731,0,
00:00:03.348,-0.000949678011238575,-4.86536155221984e-05,0.000802466762252152,0,
00:00:03.352,-0.00600885041058064,0.010072635486722001,-0.00133670447394252,0,
00:00:03.356,7.0091405177663495e-06,-0.0019130735890939801,0.006586790084838871,0,
00:00:03.36,0.004316653590649371,-0.00964241847395897,0.00451825279742479,0,
00:00:03.364,0.00217701168730855,-0.004188810009509329,-0.00402785046026111,0,
00:00:03.368,-0.00269423751160502,0.00427991384640336,0.00328796426765621,0,
00:00:03.372,-0.00407607201486826,0.0050375857390463396,-0.0018606239464134,0,
00:00:03.376,0.0018993233097717198,0.0025042891502380397,-0.0053104171529412296,0,
00:00:03.38,0.000699946482200176,-0.00232379883527756,-0.00227215653285384,0,
00:00:03.384,0.0075557972304523,0.00023294475977309,0.00738914869725704,0,
00:00:03.388,-0.00247106677852571,0.0019016459118574899,-0.0074229338206350795,0,
00:00:03.392,-0.004149859305471179,-0.000757492263801396,0.00539538310840726,0,
00:00:03.396,-0.00435692677274346,-0.00249002291820943,-0.00033260436612181403,0,
00:00:03.4,0.0020173704251647,-0.0105512831360102,0.0033583457116037603,0,
00:00:03.404,0.00300793279893696,0.00496337050572038,0.00438770605251193,0,
00:00:03.408,0.00165907316841185,0.00699380040168762,-0.012698769569396999,0,
00:00:03.412,-0.00206511607393622,0.00555986259132624,-0.00443666893988848,0,
00:00:03.416,0.00310516753233969,-0.00244668708182871,0.00276078935712576,0,
00:00:03.42,-0.00346431019715965,-0.00628164783120155,0.00954011920839548,0,
00:00:03.424,0.00195661326870322,-0.0028559323400259,0.00435478612780571,0,
00:00:03.428,-0.00144048244692385,0.00722441915422678,-0.00590615766122937,0,
00:00:03.432,-0.0013707253383472599,0.0009351889602839949,-0.00263879867270589,0,
00:00:03.436,-0.00024339163792319599,-0.00657028052955866,-0.00483099557459354,0,
00:00:03.44,0.000641280901618302,-0.00084908155258745,0.008451678790152071,0,
00:00:03.444,0.000879045226611197,-0.00231247278861701,0.00416526151821017,0,
00:00:03.448,0.0006095885764807459,0.00816921144723892,-0.00423922669142485,0,
00:00:03.452,0.000163479111506604,0.00458743656054139,-0.013257609680295,0,
00:00:03.456,-0.000184505872312002,-0.00527083966881037,0.0077064302749931795,0,
00:00:03.46,0.00175795890390873,-0.0021705108229070898,-0.00102597544901073,0,
00:00:03.464,-0.00223888386972249,0.00154802086763084,0.000874883029609919,0,
00:00:03.468,-0.0017624543979764,-0.00378695921972394,0.0156088853254914,0,
00:00:03.472,-0.000162644937518053,0.00291792210191488,-0.00259243696928024,0,
00:00:03.476,0.0009296205826103689,-8.15872845123522e-05,-0.0104053327813745,0,
00:00:03.48,0.00111959024798125,-0.00040510346298106,-0.008593267761170859,0,
00:00:03.484,0.000686022569425404,0.00210222299210727,-0.000446048245066777,0,
00:00:03.488,9.19894082471728e-05,-0.00162311410531402,0.00711309956386685,0,
00:00:03.492,-0.00239725690335035,-0.0012755092466250099,0.00588686857372522,0,
00:00:03.496,-0.000539050786755979,-0.00207667052745819,0.0038919481448829204,0,
00:00:03.5,0.0032926849089562897,0.0027759014628827602,-0.00347313308157027,0,
00:00:03.504,0.00169815274421126,0.0024993084371089896,-0.00646145967766643,0,
00:00:03.508,-0.0026920351665467,-0.00144995504524559,0.00373429385945201,0,
00:00:03.512,0.00230844621546566,0.005251062568277121,-0.00236209901049733,0,
00:00:03.516,-0.0018727985443547398,-0.00158945622388273,-0.00593574205413461,0,
00:00:03.52,-0.00211474485695362,-0.0081634409725666,0.00634334655478597,0,
00:00:03.524,0.00127817073371261,-0.00119182094931602,0.0008283099159598349,0,
00:00:03.528,-0.00148356484714895,0.00443153129890561,0.00228654081001878,0,
00:00:03.532,-0.0005737533792853361,0.0009429430356249211,0.000599960854742676,0,
00:00:03.536,-0.00131586182396859,0.000139367926749401,-0.00109377503395081,0,
00:00:03.54,0.00325955497100949,-0.00405421108007431,-0.00166547414846718,0,
00:00:03.544,0.00469526136294007,0.00404761731624603,0.00499863084405661,0,
00:00:03.548,-0.00149124255403876,0.0032883076928556,-0.0125375604256988,0,
00:00:03.552,-0.004827079828828571,0.00439349981024861,0.00339243211783469,0,
00:00:03.556,0.000254883285379037,-0.0037347555626183705,-0.0011172789381817,0,
00:00:03.56,0.0014001252129674,-0.0074748899787664405,0.00382870552130044,0,
00:00:03.564,0.00296959653496742,-0.00335248466581106,0.0079784793779254,0,
00:00:03.568,-0.0018880998250097,-0.0028281686827540398,0.0017431617015972699,0,
00:00:03.572,-0.0041234241798520106,0.00747917406260967,-0.00590533018112183,0,
00:00:03.576,-0.0007539844955317679,0.00643568439409137,-0.00541690411046147,0,
00:00:03.58,0.00418164255097508,0.0017879331717267602,-0.00405785907059908,0,
00:00:03.584,0.00490084802731872,-0.00196633790619671,0.00304191070608795,0,
00:00:03.588,0.000214430678170174,-0.00119437230750918,0.0060923974961042396,0,
00:00:03.592,-0.0072916834615171,-0.00242503825575113,0.00233957963064313,0,
00:00:03.596,-0.0016683058347553,-0.0045416364446282395,-0.00558983348309994,0,
00:00:03.6,-0.000844098452944309,-0.0055122608318924895,-0.00101391691714525,0,
00:00:03.604,0.00598897319287062,0.00778794242069125,0.00301936338655651,0,
00:00:03.608,0.00102257658727467,0.00418893899768591,-0.000781080685555935,0,
00:00:03.612,-0.00314919790253043,0.00297659263014793,-0.00514245824888349,0,
00:00:03.616,0.00061455590184778,-0.00310155400075018,0.0017039010999724301,0,
00:00:03.62,0.000843133719172329,-0.00543182203546166,0.0140286087989807,0,
00:00:03.624,7.225844456115742e-05,-0.00156093679834157,-0.0011564794695004801,0,
00:00:03.628,0.00156646396499127,0.00398809788748622,-0.0158173572272062,0,
00:00:03.632,-0.0025729110930115,0.00927823036909103,-0.00291179376654327,0,
00:00:03.636,-0.00198257621377707,-0.00545205315575004,0.00588504644110799,0,
00:00:03.64,-0.00018197894678451102,-0.0104000195860863,-0.00103338761255145,0,
00:00:03.644,0.00105929397977889,-0.000375771225662902,0.00968233589082956,0,
00:00:03.648,-0.0007832055562175809,0.00666987197473645,-0.00233626877889037,0,
00:00:03.652,0.0027907125186175104,0.00693516107276082,-0.00136832136195153,0,
00:00:03.656,-0.000291344098513946,-0.0032304022461175897,-0.00116693112067878,0,
00:00:03.66,0.00181413744576275,-0.0016672839410603,-0.007124708499759441,0,
00:00:03.664,0.000312022137222812,-0.0012206131359562302,0.0117013920098543,0,
00:00:03.668,0.0008540097041986879,-0.0028703410644084198,-0.00100565224420279,0,
00:00:03.672,-0.0035948504228144897,0.0037924672942608604,-0.00619884533807635,0,
00:00:03.676,-0.00270398543216288,0.0019406173378229102,0.0033998964354395897,0,
00:00:03.68,-0.00036654164432548,-0.00301912031136453,-0.00678001437336206,0,
00:00:03.684,0.00130412809085101,-0.0043374253436923,0.0021173115819692603,0,
00:00:03.688,0.00170412659645081,0.0018463936867192398,0.00577044812962413,0,
00:00:03.692,0.00115806597750634,0.00707715004682541,9.20873790164478e-05,0,
00:00:03.696,-0.00177357101347297,-0.0043547581881284705,0.00248906877823174,0,
00:00:03.7,0.00162310479208827,-0.0012569917598739301,-0.00951680820435286,0,
00:00:03.704,0.00104567455127835,-0.0017146528698504,-0.00193273916374892,0,
00:00:03.708,-0.000311884854454547,0.00276668183505535,0.000973870337475091,0,
00:00:03.712,-0.0010612445184961,0.00633941777050495,0.00815936829894781,0,
00:00:03.716,-0.0009949769591912632,-0.0036649948451668,0.00635775690898299,0,
00:00:03.72,0.00161053286865354,-0.00433797761797905,-0.00306389108300209,0,
00:00:03.724,-0.00188508909195662,-0.0016914205625653302,-0.00965392868965864,0,
00:00:03.728,-0.00123908824753016,0.0028982900548726303,0.00014700269093737,0,
00:00:03.732,-0.0018266071565449199,-8.68610804900527e-05,0.0023924037814140302,0,
00:00:03.736,0.0030808167066425102,-4.08223640988581e-05,0.0037070151884108795,0,
00:00:03.74,0.00272632646374404,-0.0015847352333366901,0.00249761343002319,0,
00:00:03.744,0.000720122654456645,0.0005309698753990231,-0.004010433796793221,0,
00:00:03.748,0.0011806499678641599,0.00606165593490005,-0.012305318377911998,0,
00:00:03.752,-0.00548349134624004,-0.000174751592567191,0.0064798775129020205,0,
00:00:03.756,-0.000747732992749661,-0.0025949808768928103,0.00133359734900296,0,
00:00:03.76,0.00109360576607287,-0.00447228690609336,0.0086822509765625,0,
00:00:03.764,0.00124710821546614,-0.00116498779971153,0.0033369488082826103,0,
00:00:03.768,0.00275317672640085,0.00591901410371065,-0.00896527245640755,0,
00:00:03.772,-0.00400628941133618,0.00488520972430706,-0.0033621727488935,0,
00:00:03.776,-0.00206654518842697,-0.00744467601180077,0.00278961099684238,0,
00:00:03.78,0.00513560231775045,-0.00493200728669763,0.000300867017358541,0,
00:00:03.784,0.0025255340151488803,0.00250020297244191,0.0044071837328374395,0,
00:00:03.788,-0.00329900439828634,0.005661023780703539,-0.00343150296248496,0,
00:00:03.792,-0.0050429520197212705,-3.9065031160134795e-05,0.00340393092483282,0,
00:00:03.796,0.0011974803637713198,-0.00374914472922683,-0.00405637267976999,0,
00:00:03.8,0.00467555318027735,0.0006439634598791599,-0.00746475253254175,0,
00:00:03.804,-0.000291074597043917,-0.000854920886922628,-0.00055299763334915,0,
00:00:03.808,0.0006965327193029219,0.00451330468058586,0.015220956876873998,0,
00:00:03.812,-0.0028395934496074898,0.00143826531711966,-0.0063220188021659894,0,
00:00:03.816,-0.0017155621899291901,-0.0081959068775177,0.00315792160108685,0,
00:00:03.82,-0.0018524621846154302,0.000812774640507996,0.00103386177215725,0,
00:00:03.824,0.00327893206849694,0.0048363502137363,-0.00857358518987894,0,
00:00:03.828,0.0029326421208679698,0.0018076014239341,0.00667071016505361,0,
00:00:03.832,-0.00333119533024728,-0.005565429572016,-0.0012886443873867401,0,
00:00:03.836,0.0030392790213227302,-0.0027491650544107,-0.00516388891264796,0,
00:00:03.84,0.0038449370767921205,0.00124487827997655,-0.00185587105806917,0,
00:00:03.844,0.00136139604728669,0.007172294426709409,-0.00032903059036471,0,
00:00:03.848,-0.00770350592210889,0.00267757661640644,0.000949168170336634,0,
00:00:03.852,-0.00530010461807251,-0.000161700649186969,0.00592971220612526,0,
00:00:03.856,-0.00441271439194679,-0.0143452454358339,0.0083093848079443,0,
00:00:03.86,0.0090463338419795,-0.00095118215540424,-0.00349326292052865,0,
00:00:03.864,0.00691888993605971,0.0115386871621013,-0.00549035193398595,0,
00:00:03.868,-0.00109199283178896,0.00172998069319874,-0.00116758095100522,0,
00:00:03.872,-0.00524488184601069,-0.00203289627097547,0.0018171505071222802,0,
00:00:03.876,-0.00243420456536114,-0.00234840530902147,0.0020368001423776197,0,
00:00:03.88,0.00290823308750987,-0.00123211881145835,-0.0055925594642758395,0,
00:00:03.884,0.00440470222383738,-1.70309940585867e-05,-0.00740422168746591,0,
00:00:03.888,0.000376478972611949,0.00481617962941527,0.000639475591015071,0,
00:00:03.892,-0.00682106474414468,-0.00528847379609942,0.016530180349946,0,
00:00:03.896,-0.00329905212856829,-0.0029480941593647,0.00271627376787364,0,
00:00:03.9,0.00344395660795271,-0.000831131124868989,-0.00887524336576462,0,
00:00:03.904,0.00359252118505538,0.00725828157737851,-0.00825735181570053,0,
00:00:03.908,0.0034843247849494197,0.00648515671491623,-0.000619405298493803,0,
00:00:03.912,-0.00465338956564665,-0.000346140033798292,0.0107890190556645,0,
00:00:03.916,0.0009385294979438189,-0.00686468649655581,0.00341834151186049,0,
00:00:03.92,-0.0017842241795733601,-0.007229824084788559,-0.00603892235085368,0,
00:00:03.924,0.000895716715604067,-0.00121527747251093,-0.00183950667269528,0,
00:00:03.928,-0.00391085492447019,0.00757657317444682,0.00238096667453647,0,
00:00:03.932,-0.000801429036073387,0.00470201810821891,0.00308991316705942,0,
00:00:03.936,0.0064971065148711205,-0.00017012661555781998,-0.000775741937104613,0,
00:00:03.94,0.0012278433423489302,-0.007071914151310921,-0.00725057302042842,0,
00:00:03.944,-0.00126013625413179,-0.0031882587354630197,0.00113553728442639,0,
00:00:03.948,-0.00172933202702552,0.0036660791374743,-0.00401584291830659,0,
00:00:03.952,-0.0031920641195029,0.00579494098201394,0.00279358262196183,0,
00:00:03.956,0.0038019064813852297,0.00147902988828719,0.0108103742823005,0,
00:00:03.96,0.00210084184072912,-0.006430863402783871,-0.00289918901398778,0,
00:00:03.964,-0.0049688224680721794,-0.00561822298914194,-0.00237665744498372,0,
00:00:03.968,-0.000273415120318532,0.0069574429653585,-0.00181693956255913,0,
00:00:03.972,-0.000644310319330543,0.00276639009825885,0.00111508462578058,0,
00:00:03.976,0.00539822410792112,0.00175811850931495,-0.006226177792996171,0,
00:00:03.98,0.00023006404808256802,-0.007764863315969709,0.00276591489091516,0,
00:00:03.984,-0.00163612083997577,0.000786808028351516,0.0037142550572753,0,
00:00:03.988,-0.0015423005679622301,0.00239379098638892,0.0037229328881949204,0,
00:00:03.992,-0.0006766875158064071,0.00337458727881312,-0.0045339148491621,0,
00:00:03.996,0.00014400247891899198,-0.00416136952117085,-0.00529900891706347,0,
00:00:04,0.00262575526721776,-0.0025911051779985397,0.00822303164750338,0,
00:00:04.004,0.000635426142252982,0.0026061604730784897,-0.00234345765784383,0,
00:00:04.008,-0.00333269499242306,0.004334536846727129,0.00141484197229147,0,
00:00:04.012,-0.0038856810424476897,0.000523661903571337,-0.00433591101318598,0,
00:00:04.016,0.00248168176040053,-0.00453025894239545,-0.0019492444116622199,0,
00:00:04.02,0.00539718987420201,-0.00512011861428618,0.00333283399231732,0,
00:00:04.024,-0.00026817049365490697,-0.000229520708671771,0.00268659344874322,0,
00:00:04.028,0.000266770221060142,0.0115737412124872,-0.00158937275409698,0,
00:00:04.032,-0.0054423487745225395,-3.71163259842433e-05,0.0008879681117832661,0,
00:00:04.036,-0.000105267354228999,-0.0105188461020589,0.000182081916136667,0,
00:00:04.04,0.00174893636722118,6.22697480139323e-05,-0.00285983295179904,0,
00:00:04.044,-0.000517047941684723,-0.000734085217118263,0.00301376823335886,0,
00:00:04.048,0.00258134258911014,0.00883815716952086,0.0010872274870052901,0,
00:00:04.052,0.00139486056286842,0.00428367638960481,-0.00558526907116175,0,
00:00:04.056,-0.00253191497176886,-0.00393434800207615,-0.0024054793175309896,0,
00:00:04.06,0.0005597748677246269,-0.00893671996891499,0.00166177179198712,0,
00:00:04.064,0.00033402667031623396,0.0015070978552103,0.007472597993910309,0,
00:00:04.068,0.0016400454333052,0.00552528724074364,-0.00343092600814998,0,
00:00:04.072,-0.00271169026382267,0.00414362922310829,-0.00464336480945349,0,
00:00:04.076,-0.00423602107912302,-0.0117872785776854,0.0128145227208734,0,
00:00:04.08,0.0037839005235582603,-0.000666790176182985,-0.00207968335598707,0,
00:00:04.084,0.00283616897650063,0.00832790043205023,-0.0102851865813136,0,
00:00:04.088,-0.0020411149598658102,0.00436687981709838,-0.00037241654354147597,0,
00:00:04.092,-0.0017345878295600401,0.000864660192746669,0.008638260886073109,0,
00:00:04.096,-0.00222451938316226,-0.0100467056035995,-0.00392366480082273,0,
00:00:04.1,0.00289486604742706,-0.00739726237952709,-0.008353616110980509,0,
00:00:04.104,0.004786922130733729,0.00345287378877401,0.005226126872003079,0,
00:00:04.108,-0.00118991697672755,0.0106464391574264,0.00112541834823787,0,
00:00:04.112,-0.00454435963183641,0.00475636217743158,0.00326660252176225,0,
00:00:04.116,0.000398769800085574,-0.004114027600735429,0.00150453415699303,0,
00:00:04.12,0.00347363133914769,-0.00931183062493801,-0.00274210958741605,0,
00:00:04.124,-0.00116963940672576,-0.000874393037520349,0.000247111747739837,0,
00:00:04.128,0.000419969641370699,0.00736243417486548,0.0021520601585507397,0,
00:00:04.132,-0.00469901319593191,0.00372006720863283,-0.00461785215884447,0,
00:00:04.136,-0.0013926124665886198,-0.00332205113954842,-0.00041370652616024,0,
00:00:04.14,0.0042087952606379994,-0.0036290758289396798,-0.0010699214180931401,0,
00:00:04.144,0.00330261117778718,0.000625964603386819,-0.00117468065582216,0,
00:00:04.148,0.000618266989476979,0.00280125602148473,-0.0022270425688475396,0,
00:00:04.152,-0.0034155172761529697,-0.00819579791277647,0.0217283368110657,0,
00:00:04.156,0.00219795433804393,0.00392947299405932,-0.00613855849951506,0,
00:00:04.16,0.000462896539829671,0.000344045402016491,-0.0126653779298067,0,
00:00:04.164,-0.00170225743204355,-0.00085941917495802,0.000580811989493668,0,
00:00:04.168,-0.00632148701697588,0.0059112780727446105,-0.00182963232509792,0,
00:00:04.172,-0.00143782864324749,0.00306435814127326,0.00891446974128485,0,
00:00:04.176,0.00522893480956554,0.0008992999210022391,-0.00946009624749422,0,
00:00:04.18,0.0065612867474556,-0.00944228004664183,5.94213233853225e-05,0,
00:00:04.184,-0.000634627358522266,-0.000696542556397617,0.0102306958287954,0,
00:00:04.188,-0.00287644984200597,0.0038093144539743705,-0.000183436786755919,0,
00:00:04.192,-0.0044295541010797,-0.00257213576696813,-0.00754739576950669,0,
00:00:04.196,0.00316689466126263,0.00294413208030164,0.00117800524458289,0,
00:00:04.2,-0.0020522002596408103,-0.00276588997803628,0.00236831256188452,0,
00:00:04.204,0.0034826940391212697,0.0009282087557949131,-0.005275403615087271,0,
00:00:04.208,-0.000555621343664825,0.00341048277914524,0.00750533025711775,0,
00:00:04.212,-0.00127213110681623,-0.0014269341481849599,-0.00019715320377145,0,
00:00:04.216,-0.00273881712928414,-0.003962261602282521,1.54135777847841e-05,0,
00:00:04.22,0.00206680945120752,-0.000866119051352143,0.00281026726588607,0,
00:00:04.224,0.00420419545844197,0.00603367807343602,-0.00786909926682711,0,
00:00:04.228,-0.00132177269551903,0.00273910979740322,-0.00465067243203521,0,
00:00:04.232,-0.00432137586176395,-0.00358211644925177,0.00301205622963607,0,
00:00:04.236,0.000751468993257731,-0.0054716207087039895,0.00613248720765114,0,
00:00:04.24,0.00168319477234036,-0.0011860994854942,0.000259970460319892,0,
00:00:04.244,0.00300819729454815,0.00448447372764349,-0.00364148849621415,0,
00:00:04.248,-0.00200842623598874,0.007560995407402521,-0.0014605628093704599,0,
00:00:04.252,-0.0022091206628829197,-0.0012821989366784698,0.00518669327721,0,
00:00:04.256,-0.000769751030020416,-0.00873560551553965,5.20609828527085e-05,0,
00:00:04.26,0.00260015809908509,-0.00190380902495235,-0.010109425522386998,0,
00:00:04.264,-0.000947505992371589,-0.00018841952260118,0.008355981670320029,0,
00:00:04.268,-0.000813846359960735,0.00475732376798987,0.008108356036245821,0,
00:00:04.272,-0.00193770660553128,0.00560104148462415,-0.00669768778607249,0,
00:00:04.276,0.00267332489602268,0.000738662201911211,-0.00832941383123398,0,
00:00:04.28,0.0023055081255734,-0.0071314945816993705,0.00466931657865644,0,
00:00:04.284,0.0025414885021746198,-0.0039094244129955795,0.00199110805988312,0,
00:00:04.288,-0.0029207447078079,0.00496704922989011,-0.00392927601933479,0,
00:00:04.292,-0.00298447976820171,0.00339444726705551,0.00341327930800617,0,
00:00:04.296,0.0009509639930911359,-0.0022391020320355897,0.00686857337132096,0,
00:00:04.3,-0.00347837060689926,-0.0043614162132144,-0.00593249127268791,0,
00:00:04.304,0.00162756012286991,-0.000732290092855692,-0.00500819040462375,0,
00:00:04.308,0.00257425056770444,0.006409608758986,-0.00271071051247418,0,
00:00:04.312,-0.000571375305298716,0.000981532037258148,0.00642825057730079,0,
00:00:04.316,0.0020472223404794897,-0.00149009947199374,0.008795390836894509,0,
00:00:04.32,0.00289418967440724,-0.00390008115209639,-0.00566341215744615,0,
00:00:04.324,-0.000703927245922387,0.00298262527212501,-0.00165566173382103,0,
00:00:04.328,-0.00509533099830151,0.0016186466673389099,-0.0097588486969471,0,
00:00:04.332,-0.00299425702542067,-0.0029573116917163103,0.0065308539196848895,0,
00:00:04.336,0.00024341660900972797,-0.00411587208509445,0.00381664303131402,0,
00:00:04.34,4.3516029109014205e-05,-3.46776469086763e-05,-0.003325016470626,0,
00:00:04.344,0.00834784749895334,0.0049824574962258296,0.0029335678555071397,0,
00:00:04.348,-0.0031535136513412,0.007438908331096171,-0.00027107907226309197,0,
00:00:04.352,-0.00107479246798903,0.00034871109528467097,-0.00283514522016048,0,
00:00:04.356,-0.00439800322055817,-0.017386656254529998,0.0036522941663861296,0,
00:00:04.36,0.00601024366915226,0.00419567292556167,0.0038015537429601,0,
00:00:04.364,0.0013038094621151699,0.0046219183132052396,0.00302926567383111,0,
00:00:04.368,0.0007561711245216429,0.00677206832915545,-0.014171720482408999,0,
00:00:04.372,-0.0038737328723073,-0.0015230419812724,-0.00720562925562263,0,
00:00:04.376,-0.0049473610706627395,-0.0125286066904664,0.0069835856556892395,0,
00:00:04.38,0.00364774791523814,0.0025895016733557,0.0098616098985076,0,
00:00:04.384,0.00307457172311842,0.0117654325440526,-0.00473674619570374,0,
00:00:04.388,-0.0058571309782564605,-0.0048018428497016395,0.00553251896053553,0,
00:00:04.392,0.00037565577076747997,-0.00292021105997264,-0.000131767970742658,0,
00:00:04.396,0.00725506199523807,-0.000727702165022492,-0.00508553208783269,0,
00:00:04.4,0.000878520426340401,-0.00349443312734365,-0.00107032735832036,0,
00:00:04.404,-0.00011861420352943201,0.009135952219367029,0.000115040485979989,0,
00:00:04.408,-0.00661273067817092,-0.0020199511200189603,-0.00175481068436056,0,
00:00:04.412,-0.0011403049575164901,0.0013068747939541901,0.000177333960891701,0,
00:00:04.416,0.0054833856411278204,-0.00260044215247035,0.0079777492210269,0,
00:00:04.42,-0.00012922877795063,-0.00221411581151187,-0.00405523180961609,0,
00:00:04.424,-0.00415804469957948,-0.0005331667489372191,-0.00602395413443446,0,
00:00:04.428,-0.0017629495123401302,0.000779010530095547,0.00549974944442511,0,
00:00:04.432,0.00114806042984128,0.0032634956296533303,-0.0026207985356450103,0,
00:00:04.436,0.00236225291155279,-0.00317857717163861,-0.000995158799923956,0,
00:00:04.44,-0.000183302152436227,-0.00561456475406885,0.00996071472764015,0,
00:00:04.444,0.0026315359864383897,0.00925900042057037,0.0007794990669935941,0,
00:00:04.448,0.00119783252011985,0.00563233159482479,-0.00887920428067446,0,
00:00:04.452,0.00130398268811405,-0.00118723872583359,-0.00547174271196127,0,
00:00:04.456,-0.0036792627070099102,-0.00689731957390904,0.00029201799770817204,0,
00:00:04.46,-0.0031201909296214602,-0.00667828554287553,0.0015500764129683401,0,
00:00:04.464,-0.000828193034976721,0.0015045647742226698,0.007828363217413429,0,
00:00:04.468,0.000999744748696685,0.0080657321959734,0.00375078222714365,0,
00:00:04.472,0.00161635200493038,-0.00302107422612607,-0.00140913599170744,0,
00:00:04.476,0.00123246933799237,-0.00238083163276315,-0.00802505481988192,0,
00:00:04.48,0.00043890738743357404,0.00264855800196528,0.00466700224205852,0,
00:00:04.484,0.00183794286567718,0.0043085841462016106,-0.00216553430072963,0,
00:00:04.488,-0.00459516979753971,0.000406785315135494,-0.0045945965684950395,0,
00:00:04.492,-0.00223779329098761,-0.004716384690254929,-0.00279048434458673,0,
00:00:04.496,0.00318393763154745,-0.00531200598925352,0.00666463375091553,0,
00:00:04.5,0.00265447190031409,0.00170797156170011,0.0030267594847828198,0,
00:00:04.504,0.00257899193093181,0.00331098306924105,0.00895304512232542,0,
00:00:04.508,-0.0030475994572043397,0.00425277464091778,-0.0086382795125246,0,
00:00:04.512,-0.00518337683752179,0.000497555127367377,-0.0077841873280704,0,
00:00:04.516,0.00081534608034417,-0.00859933160245419,0.00034408579813316497,0,
00:00:04.52,0.00226531294174492,0.0009665699908509849,0.00295218941755593,0,
00:00:04.524,0.00155997159890831,0.00519266305491328,-0.00161542743444443,0,
00:00:04.528,0.00241950713098049,0.00413821032270789,0.0029268199577927602,0,
00:00:04.532,-0.00247926078736782,-0.007501554209738971,0.00085625663632527,0,
00:00:04.536,-0.00238509313203394,-0.00452171498909593,0.00508955493569374,0,
00:00:04.54,-0.000707424769643694,0.0008807856938801711,0.00512382062152028,0,
00:00:04.544,0.000685270002577454,0.00579356821253896,-0.0110483784228563,0,
00:00:04.548,0.00116690690629184,0.0076951370574533905,-0.005365324206650261,0,
00:00:04.552,0.0008887190488167109,-0.00607792567461729,0.0023184288293123198,0,
00:00:04.556,0.00030059218988753904,-0.0035236303228884896,0.00115987379103899,0,
00:00:04.56,-0.00019830072415061298,-0.00322014722041786,0.0036657641176134296,0,
00:00:04.564,0.0037334458902478205,0.0045036249794066,0.00166589568834752,0,
00:00:04.568,-0.00639949273318052,0.00282044056802988,-0.00273690070025623,0,
00:00:04.572,-0.00357339717447758,-0.0045729144476354105,-0.00180740898940712,0,
00:00:04.576,0.00533829536288977,-0.00231081433594227,0.00215925020165741,0,
00:00:04.58,0.00163862796034664,0.00322687299922109,-0.00291208946146071,0,
00:00:04.584,-0.0001255985989701,0.0048407269641757,-0.000616878329310566,0,
00:00:04.588,-0.000703613506630063,-0.0013849568786099599,0.0164062194526196,0,
00:00:04.592,-0.00270655518397689,-0.00269605661742389,-0.00726010976359248,0,
00:00:04.596,0.0037408822681754797,-0.0016849131789058401,-0.0119750406593084,0,
00:00:04.6,-0.00034097713069059,-0.0022826655767858,-0.00861883163452148,0,
00:00:04.604,0.0007654756773263219,0.00480343773961067,0.00693860277533531,0,
00:00:04.608,-0.0028236994985491,0.00270129460841417,0.00921862758696079,0,
00:00:04.612,-0.0038017304614186296,-0.00280198361724615,0.009240252897143359,0,
00:00:04.616,0.00220860238187015,-0.0025042302440851896,-0.00394175294786692,0,
00:00:04.62,0.00506432959809899,-0.00263947830535471,-0.00426303083077073,0,
00:00:04.624,-0.00252416427247226,0.00288480892777443,-0.0037595983594656,0,
00:00:04.628,0.000185497730853967,0.00502857891842723,-0.00207472126930952,0,
00:00:04.632,0.000397526513552293,-0.0008997183758765461,-0.00014198778080753998,0,
00:00:04.636,-0.00216923747211695,-0.004348225425928829,-0.0009257363271899519,0,
00:00:04.64,0.00152925052680075,-0.00161932734772563,0.00138851895462722,0,
00:00:04.644,0.0032628343906253602,0.005401115398854021,0.00471134716644883,0,
00:00:04.648,-0.0041099633090198,0.0024592021945864,0.0043119303882122,0,
00:00:04.652,0.00158438354264945,-0.00145316950511187,-0.00486376183107495,0,
00:00:04.656,-0.0013637454248964802,-0.00929404515773058,-0.00194637139793485,0,
00:00:04.66,0.0010218634270131599,0.00145774544216692,-0.00265439716167748,0,
00:00:04.664,-0.0019173251930624199,0.00411237217485905,0.00207726517692208,0,
00:00:04.668,-0.000857834762427956,0.0069613489322364296,0.0041098752990365,0,
00:00:04.672,-0.00347409653477371,-0.00755631132051349,-0.00137939630076289,0,
00:00:04.676,0.00735933426767588,-0.00244031613692641,-0.00426862994208932,0,
00:00:04.68,0.00444839615374804,0.0034447934012860103,0.0008904669084586199,0,
00:00:04.684,-0.000820216722786427,0.0047218012623488894,-0.000237675893004052,0,
00:00:04.688,-0.007808971218764779,0.000337382429279387,0.00301790935918689,0,
00:00:04.692,0.000481006543850526,-0.00498876720666885,-0.000424668251071125,0,
00:00:04.696,-0.00039025503792800004,-0.00344787887297571,-0.00257989531382918,0,
00:00:04.7,-0.00146001274697483,-0.000307945912936702,0.0020416937768459303,0,
00:00:04.704,0.00328429299406707,0.0017716210568323699,0.0082041323184967,0,
00:00:04.708,0.0028205299749970397,0.00423109624534845,-0.0034482115879654897,0,
00:00:04.712,0.000713392102625221,-0.00268604001030326,-0.00985742826014757,0,
00:00:04.716,-0.0009714851621538401,-0.00356498616747558,0.00268824957311153,0,
00:00:04.72,0.0005462968256324531,0.0048734610900282894,0.00120150367729366,0,
00:00:04.724,-0.0031322636641562,0.0055867759510874705,-0.0055972500704228895,0,
00:00:04.728,-0.0041247843764722295,3.2364179787691696e-05,0.00632937625050545,0,
00:00:04.732,0.00202670157887042,-0.00594071857631207,0.00725387269631028,0,
00:00:04.736,0.0029983690474182398,-0.00642319023609161,-0.00548784621059895,0,
00:00:04.74,0.00166993658058345,-0.000850267999339849,0.00184585130773485,0,
00:00:04.744,2.72633733402472e-05,0.00543593801558018,-0.00202706642448902,0,
00:00:04.748,-0.0009406526805832981,0.00638169702142477,-0.00449788197875023,0,
00:00:04.752,0.00101053644903004,-0.000910630507860333,0.00499001517891884,0,
00:00:04.756,-0.00262344814836979,-0.0030264500528574,-0.00408126413822174,0,
00:00:04.76,-0.0038230842910707,-0.0043962518684566,-0.0062725180760026,0,
00:00:04.764,0.00206675264053047,-0.000832488352898508,0.00954379234462976,0,
00:00:04.768,0.0028617288917303103,0.0103709260001779,0.00441807741299272,0,
00:00:04.772,0.00356111931614578,-0.00102205923758447,0.00163236213847995,0,
00:00:04.776,-0.00208291597664356,-0.00881239678710699,-0.00687891477718949,0,
00:00:04.78,-0.0026311338879168,-0.0037930447142571202,-0.00659392960369587,0,
00:00:04.784,-0.0012195687741041199,0.00421976204961538,0.00400952529162169,0,
00:00:04.788,0.000249138771323487,0.006793348584324121,0.00645728828385472,0,
00:00:04.792,0.0009720943053253,0.00226037669926882,-0.004638483747839929,0,
00:00:04.796,0.0030003830324858397,-0.00408056657761335,-0.00493420241400599,0,
00:00:04.8,-0.00151622970588505,-0.0077620157971978205,0.00918770208954811,0,
00:00:04.804,-0.0037525417283177397,0.000793031475041062,0.00889769103378057,0,
00:00:04.808,0.00147705629933625,0.0103541854768991,-0.0102488305419683,0,
00:00:04.812,5.2401359425857704e-05,-0.000317572412313893,-0.00670915050432086,0,
00:00:04.816,0.0029535565990954603,-0.00769919762387872,-0.00364523311145604,0,
00:00:04.82,0.0055276043713092795,0.00318990438245237,-0.000149249666719697,0,
00:00:04.824,-0.00464949989691377,0.0045720697380602394,0.00458386121317744,0,
00:00:04.828,-0.00702169584110379,-0.008719398640096191,0.0159988552331924,0,
00:00:04.832,0.000192049206816591,0.00213755876757205,-0.000216647546039894,0,
00:00:04.836,0.00273267785087228,-0.00131420895922929,-0.0138493133708835,0,
00:00:04.84,0.0024378637317568103,0.000477055145893246,-0.0036006278824061203,0,
00:00:04.844,0.00518715009093285,0.00621837703511119,0.00340102589689195,0,
00:00:04.848,-0.00420650281012058,0.00432195514440537,-0.0013610597234219302,0,
00:00:04.852,-0.0062436577863991295,-0.00828086491674185,0.00448492309078574,0,
00:00:04.856,0.000771393650211394,-0.00351366912946105,-0.00385311362333596,0,
00:00:04.86,0.0028778754640370603,0.000238126711337827,0.00101625686511397,0,
00:00:04.864,0.00221869093365967,0.0019865850917995,0.00663937442004681,0,
00:00:04.868,0.00067006447352469,0.00404770718887448,-0.000180194329004735,0,
00:00:04.872,-0.000563609472010285,-0.000945898063946515,-0.0050675333477556705,0,
00:00:04.876,-0.0010315780527889698,-0.0057937758974731,-0.0008357803453691299,0,
00:00:04.88,-0.000842904963064939,0.0010828132508322599,-0.0016970859142020301,0,
00:00:04.884,0.00171989819500595,0.00954002980142832,0.0024248326662927896,0,
00:00:04.888,-0.0018847901374101602,0.000684034661389887,0.0060302526690065895,0,
00:00:04.892,-0.00340060284361243,-0.00625623390078545,-0.00993773434311152,0,
00:00:04.896,0.00211387360468507,-0.00467738742008805,0.00179461936932057,0,
00:00:04.9,0.0026646771002560897,-0.00293107726611197,0.00562047585844994,0,
00:00:04.904,0.0033039920963347,0.0038528798613697295,0.00586524093523622,0,
00:00:04.908,-0.0022654503118246802,0.00837890617549419,-0.010155051946639999,0,
00:00:04.912,-0.00269184913486242,-0.00198923936113715,-0.00668490771204233,0,
00:00:04.916,-0.00118298712186515,-0.0057273851707577705,0.0026318503078073302,0,
00:00:04.92,0.00032693331013433597,5.62277964490931e-05,0.00483361817896366,0,
00:00:04.924,0.00104060291778296,0.0038524321280419796,0.00116054026875645,0,
00:00:04.928,0.000958272954449058,0.00149257248267531,0.0026416340842843103,0,
00:00:04.932,-0.00161784386727959,-0.0032397957984358103,-0.0015940235462039698,0,
00:00:04.936,0.00191958178766072,-0.00637848768383265,0.00044416484888643,0,
00:00:04.94,0.00129720754921436,0.00394080532714725,-0.00046756543451920195,0,
00:00:04.944,-0.000194536783965304,0.00463396450504661,-0.00337089551612735,0,
00:00:04.948,-0.0010726701002568,0.00597302569076419,-0.00341055588796735,0,
00:00:04.952,-0.00107674184255302,-0.00483096623793244,0.00917687173932791,0,
00:00:04.956,-0.000552994781173766,-0.00741098960861564,-0.00240594195201993,0,
00:00:04.96,3.66927852155641e-05,-0.0022196990903466897,-0.00122124550398439,0,
00:00:04.964,0.0024682031944394103,0.006611941382288929,-0.00289558689109981,0,
00:00:04.968,0.000545816030353308,0.0062422277405858,-0.00262139597907662,0,
00:00:04.972,-0.00540210632607341,-0.00637946790084243,0.0117793418467045,0,
00:00:04.976,0.00023436523042619199,-0.0045683179050684,-0.0022089341655373604,0,
00:00:04.98,0.00222852895967662,0.00017805761308409298,-0.00505600590258837,0,
00:00:04.984,0.00398611929267645,0.00711662322282791,-0.00918117817491293,0,
00:00:04.988,-0.00127193599473685,0.0032122095581144103,0.0121352896094322,0,
00:00:04.992,-0.00408261641860008,-0.00578654231503606,0.000738442700821906,0,
00:00:04.996,0.00303260795772076,0.000230237754294649,-0.0107496846467257,0,
00:00:05,-0.00024350518651772299,-0.00390081154182553,0.0122338272631168,0,
00:00:05.004,-0.00288378214463592,0.00324117997661233,0.000246750714723021,0,
00:00:05.008,-0.00047242487198673205,0.00023533924832008798,0.000601831765379757,0,
00:00:05.012,0.00790529232472181,0.00180893973447382,-0.0110674910247326,0,
00:00:05.016,-0.0017672949470579602,-0.00613301107659936,0.0017882104730233602,0,
00:00:05.02,-0.00363941863179207,0.000469069374958053,0.0016517332987859802,0,
00:00:05.024,-2.8142008886789002e-05,0.00948936957865953,-0.00242165615782142,0,
00:00:05.028,-0.00408151326701045,0.00108245585579425,0.0073085753247141795,0,
00:00:05.032,-0.0026205086614936603,-0.00785813014954329,0.00180591107346117,0,
00:00:05.036,0.0109097780659795,-0.00449977209791541,-0.0014950128970667698,0,
00:00:05.04,0.00322631793096662,0.00485307211056352,-0.00450263125821948,0,
00:00:05.044,-0.004618735518306489,0.00155867030844092,0.00020828511333093,0,
00:00:05.048,-0.00652186339721084,0.002147315768525,0.00316041056066751,0,
00:00:05.052,0.000386721745599061,-0.00238553457893431,-0.00346336211077869,0,
00:00:05.056,0.0025379664730280603,-0.00203356286510825,0.000295427482342348,0,
00:00:05.06,0.004143290687352421,-0.000372777343727648,0.0011262078769505,0,
00:00:05.064,-0.001253244234249,0.000832493940833956,0.000712546170689166,0,
00:00:05.068,-0.00203597033396363,0.00526640051975846,-0.0020032252650708,0,
00:00:05.072,-0.00310614868067205,-0.0032241817098110897,0.0037296537775546295,0,
00:00:05.076,1.25813003251096e-05,-0.009376175701618191,-0.000716138689313084,0,
00:00:05.08,0.00639441562816501,0.00734939984977245,-0.00377005082555115,0,
00:00:05.084,0.000533940270543098,0.00627358909696341,0.0050815572030842296,0,
00:00:05.088,-0.00196143938228488,0.000706155959051102,-0.00445659598335624,0,
00:00:05.092,-0.00415117619559169,-0.00727455457672477,-0.00266152690164745,0,
00:00:05.096,0.00298817781731486,-0.00395769672468305,0.00307713402435184,0,
00:00:05.1,-0.000293152872473001,0.00501765916123986,-0.00125413411296904,0,
00:00:05.104,-0.00079071894288063,0.0014035876374691699,0.000646878790576011,0,
00:00:05.108,-0.00234664021991193,0.0018738067010417602,0.0146961752325296,0,
00:00:05.112,0.00225396873429418,-0.00260276137851179,-0.00153524416964501,0,
00:00:05.116,0.0021315994672477198,-0.006269359961152079,-0.0150102432817221,0,
00:00:05.12,0.00263460748828948,0.00568759860470891,-0.0061267237178981295,0,
00:00:05.124,-0.000608189846388996,0.00430777901783586,0.0015803633723408,0,
00:00:05.128,-0.00680293142795563,1.33691064547747e-05,0.00297886715270579,0,
00:00:05.132,-0.0006553037092089651,-0.0047066416591405895,0.0045255315490067,0,
00:00:05.136,0.00206130230799317,-0.00496827298775315,0.00167539226822555,0,
00:00:05.14,0.00433805165812373,0.0020864089019596603,0.00967416819185019,0,
00:00:05.144,-0.000754695094656199,0.00558829912915826,0.00119748176075518,0,
00:00:05.148,-0.00160919898189604,0.00226094387471676,-0.0104983001947403,0,
00:00:05.152,-0.0008592369267717,-0.00337442755699158,-0.0101339919492602,0,
00:00:05.156,4.2001680412795395e-05,-0.00490278610959649,-0.00383552303537726,0,
00:00:05.16,0.0005088434554636481,-0.000718908384442329,0.006587560288608071,0,
00:00:05.164,-0.00157122674863786,0.0025434836279600898,0.0181628800928593,0,
00:00:05.168,0.00221767509356141,0.0093696853145957,-0.007731436286121609,0,
00:00:05.172,0.00160180660896003,-0.00201487494632602,-0.00211413484066725,0,
00:00:05.176,-2.39654400502332e-05,-0.006844743620604279,0.000419396470533684,0,
00:00:05.18,0.00101860286667943,-0.0033134815748781,-0.00576399359852076,0,
00:00:05.184,-0.00105962704401463,0.00508468691259623,-0.00491235731169581,0,
00:00:05.188,-0.00427626166492701,0.00104898877907544,-0.000915643700864166,0,
00:00:05.192,-0.00393193634226918,-0.000604320259299129,0.0109098237007856,0,
00:00:05.196,0.00301013444550335,-0.00290667521767318,0.00434319116175175,0,
00:00:05.2,0.00604978296905756,0.0036133453249931296,-0.0029634414240717897,0,
00:00:05.204,-0.00189242081250995,-0.000310624338453636,0.00081466999836266,0,
00:00:05.208,0.000308860529912636,0.000892888812813908,-0.00544199673458934,0,
00:00:05.212,-0.0019235820509493399,-0.00269204820506275,-0.0030837566591799303,0,
00:00:05.216,0.0035924436524510397,-0.00165040127467364,0.00265811895951629,0,
00:00:05.22,0.00101353006903082,0.0023170378990471398,0.0026076240465045,0,
00:00:05.224,-0.0040103802457451794,0.00141039164736867,-0.00125048996414989,0,
00:00:05.228,-0.00286581832915545,-0.00231529725715518,0.00134904752485454,0,
00:00:05.232,-0.00023987537133507403,-0.00531001389026642,0.000529463635757566,0,
00:00:05.236,0.00151551910676062,0.00248883361928165,0.0014296468580141698,0,
00:00:05.24,0.00390771962702274,0.00665337964892387,-0.005129582714289429,0,
00:00:05.244,-0.0008243628544732929,0.00727074453607202,-0.0025249856989830698,0,
00:00:05.248,-0.00351685378700495,-0.00509305391460657,0.00532431760802865,0,
00:00:05.252,-0.0007518341299146411,-0.00856670085340738,0.00305182090960443,0,
00:00:05.256,0.00377765204757452,-0.0033548730425536602,0.00137223920319229,0,
00:00:05.26,0.00232810690067708,0.00396349560469389,-0.0107661411166191,0,
00:00:05.264,-0.00023812676954548798,0.008265489712357521,-6.0343911172822104e-05,0,
00:00:05.268,-0.0017208632780239,0.00190682068932801,0.0037709064781665798,0,
00:00:05.272,0.00238929083570838,0.000528750708326697,-0.0069964509457349795,0,
00:00:05.276,-0.00903545413166285,-0.0255444515496492,0.0112304799258709,0,
00:00:05.28,0.00276128342375159,-0.00307668652385473,0.0243184193968773,0,
00:00:05.284,0.00363585120067,0.0263773035258055,-0.0183568671345711,0,
00:00:05.288,-0.000870797550305724,0.0147317470982671,-0.0207884628325701,0,
00:00:05.292,-0.00305408285930753,-0.0132969561964273,-0.00783093739300966,0,
00:00:05.296,0.00198064255528152,-0.0167201030999422,0.0254394263029099,0,
00:00:05.3,0.0043704262934625105,0.0065972167067229704,-0.00543741742148995,0,
00:00:05.304,-0.00319786928594112,0.00913101527839899,-0.009487251751124859,0,
00:00:05.308,-0.0043448708020150705,-0.00270247925072908,0.019820049405098,0,
00:00:05.312,0.0063759027980268,-0.0025347974151372897,0.00480128079652786,0,
00:00:05.316,0.0013788070064038,-0.0084695927798748,-0.0146945482119918,0,
00:00:05.32,-0.00359408906660974,-0.00146696530282497,-0.0055796415545046295,0,
00:00:05.324,0.00188665639143437,0.0151183493435383,0.00432701595127583,0,
00:00:05.328,0.000344509957358241,0.00454344274476171,-0.00336879747919738,0,
00:00:05.332,-0.00368706602603197,-0.008191625587642191,0.00138120946940035,0,
00:00:05.336,-0.0041618337854743,-0.0131253600120544,0.0048511074855923705,0,
00:00:05.34,0.0045141684822738205,0.00222015241160989,0.004187426529824729,0,
00:00:05.344,-0.000548727286513895,0.0113352118059993,-0.0112875578925014,0,
00:00:05.348,0.000245668779825792,0.0057872585020959395,-0.00023475900525227203,0,
00:00:05.352,0.00351818441413343,-0.00348116760142148,0.0125670982524753,0,
00:00:05.356,0.00365460710600019,-0.00713714445009828,-0.00396628258749843,0,
00:00:05.36,-0.00288074463605881,-0.00102101208176464,-0.00298260897397995,0,
00:00:05.364,-0.00368414842523634,0.00341621972620487,-0.00139528326690197,0,
00:00:05.368,0.000155357411131263,0.00167648785281926,-0.00212298799306154,0,
00:00:05.372,-0.00393472611904144,-0.0047926721163094,-0.00151455495506525,0,
00:00:05.376,-0.00047039540368132304,-0.0038702425081282897,0.0167149491608143,0,
00:00:05.38,0.0048142760060727605,0.005912750493735079,-0.00804045423865318,0,
00:00:05.384,0.0055529824458062605,0.009041727520525459,-0.00872105453163385,0,
00:00:05.388,-0.0035694323014468,-0.0009934605332091449,-0.000156386886374094,0,
00:00:05.392,-0.00125550723168999,-0.009400355629622941,0.0030982019379735,0,
00:00:05.396,0.00148594379425049,-0.0028267661109566697,-0.00120633724145591,0,
00:00:05.4,-0.00439525255933404,-0.0008237368310801679,0.00737921241670847,0,
00:00:05.404,0.000202342504053377,0.00874924380332232,-0.000975692935753614,0,
00:00:05.408,0.00153445906471461,0.0018588856328278802,0.0017406273400411,0,
00:00:05.412,-0.0008641849854029719,-0.00842723529785872,-0.00531108770519495,0,
00:00:05.416,0.00236809370107949,-0.00335284764878452,-0.00128972972743213,0,
00:00:05.42,0.00138907285872847,0.00687978649511933,0.00240308651700616,0,
00:00:05.424,0.00175717705860734,0.00927760172635317,-0.00123849872034043,0,
00:00:05.428,-0.00529541401192546,-0.00555949751287699,-0.00312111363746226,0,
00:00:05.432,0.00122205028310418,-0.00604463648051023,0.00416521960869432,0,
00:00:05.436,-0.0010822282638400802,-0.00201650755479932,-0.0015355136711150401,0,
00:00:05.44,-0.000539196480531245,0.00558222644031048,0.00143468158785254,0,
00:00:05.444,0.00046645032125525193,0.00284797279164195,0.00528534734621644,0,
00:00:05.448,0.000940859725233167,0.000998014234937727,-0.008096284233033659,0,
00:00:05.452,-0.00128700956702232,-0.0110224159434438,-0.00216053542681038,0,
00:00:05.456,0.006445705424994229,-0.00216529495082796,0.0102809788659215,0,
00:00:05.46,-0.00243352935649455,0.00796829350292683,-0.0027498865965753802,0,
00:00:05.464,-0.00345687894150615,0.0074028633534908295,-0.00443477928638458,0,
00:00:05.468,-0.00153772160410881,-0.0039062348660081603,-0.00399384740740061,0,
00:00:05.472,-0.00161167688202113,-0.00681304140016437,0.00270884786732495,0,
00:00:05.476,0.00337379123084247,-0.0020183259621262602,0.00149364001117647,0,
00:00:05.48,0.00290391012094915,0.0064584049396216895,0.00590837653726339,0,
00:00:05.484,0.0007517823250964281,0.0038271481171250296,-0.00045753238373435996,0,
00:00:05.488,-0.000956417061388493,-0.00266178022138774,-0.00270406971685588,0,
00:00:05.492,-0.00151586963329464,-0.00510629499331117,-0.00442161969840527,0,
00:00:05.496,-0.00321352877654135,-0.0013374339323490901,0.00101442204322666,0,
00:00:05.5,0.00366511614993215,0.00615424336865544,0.0019387494539842,0,
00:00:05.504,-0.00216435780748725,0.0031216042116284396,0.0010751780355349198,0,
00:00:05.508,0.00310763833113015,-0.00116302084643394,-0.0020681854803115103,0,
00:00:05.512,-0.000887611880898476,-0.00729177193716168,0.00346978707239032,0,
00:00:05.516,-0.0034905495122075103,-0.004934980999678371,0.0073510562069714095,0,
00:00:05.52,0.00135287153534591,0.00615160167217255,-0.009698789566755291,0,
00:00:05.524,0.00394478067755699,0.00783474184572697,-0.00966098252683878,0,
00:00:05.528,-0.00117705436423421,0.0038933525793254397,0.0012926604831591199,0,
00:00:05.532,-0.00193099479656667,-0.00929481070488691,0.0015057255513966099,0,
00:00:05.536,0.00112084939610213,-0.00635953666642308,0.00272464100271463,0,
00:00:05.54,-0.0018153450218960602,-0.0021962835453450697,0.0216977521777153,0,
00:00:05.544,-0.0029872406739741603,0.0098076369613409,-0.00315609481185675,0,
00:00:05.548,0.00250725983642042,0.00585252977907658,-0.0133572481572628,0,
00:00:05.552,0.00284238322637975,-0.00488052517175674,-0.011157002300023998,0,
00:00:05.556,0.00118197756819427,-0.00243435357697308,0.00264795077964664,0,
00:00:05.56,-0.000458761642221361,0.00106280145701021,0.0014067477313801599,0,
00:00:05.564,-0.00122283771634102,-0.00208034901879728,0.00348850362934172,0,
00:00:05.568,-0.00110937457066029,0.00289800623431802,0.00394437042996287,0,
00:00:05.572,0.00154095061589032,-0.00361050548963249,0.000330784445395693,0,
00:00:05.576,-0.0039998013526201205,-0.0061978274025023,0.00841187592595816,0,
00:00:05.58,-0.0013593692565336802,0.00479875691235065,-0.00358510483056307,0,
00:00:05.584,0.00593403680250049,0.00765930488705635,-0.00441514234989882,0,
00:00:05.588,-0.00112827960401773,0.00040122534846887003,-0.00628163060173392,0,
00:00:05.592,0.00282892468385398,-0.00248671672306955,-0.00242098607122898,0,
00:00:05.596,0.000240155830397271,-0.00669904612004757,0.00362778687849641,0,
00:00:05.6,-0.00638254918158054,0.004693518392741679,-0.000746651960071176,0,
00:00:05.604,-0.000775360676925629,0.0033476077951490896,-0.0009750315221026539,0,
00:00:05.608,0.00167931569740176,-0.00047404193901456903,0.00045946630416438,0,
00:00:05.612,0.00191814440768212,-0.004657849669456479,0.016205508261918997,0,
00:00:05.616,0.0010699629783630401,-0.008742555975914,-0.00152801955118775,0,
00:00:05.62,0.00215074000880122,0.0064650676213204895,-0.005504024680703879,0,
00:00:05.624,-0.0025127180851995897,0.00915662292391062,-0.00621969625353813,0,
00:00:05.628,-0.0043720821850001795,0.00269771367311478,-0.00593269802629948,0,
00:00:05.632,0.00136562809348106,-0.00720458012074232,-0.0027267395053058897,0,
00:00:05.636,0.0023731829132884697,-0.00303435348905623,0.0053511131554842,0,
00:00:05.64,0.00133178569376469,-0.00034433265682309904,0.00385717744939029,0,
00:00:05.644,1.3698416978513701e-06,0.00304247066378593,0.0029204708989709603,0,
00:00:05.648,-0.000773011415731162,-0.000786466524004936,0.0013483879156410698,0,
00:00:05.652,-0.000856415717862546,0.0053702527657151205,-0.0106823788955808,0,
00:00:05.656,-0.000504855008330196,-0.0141861252486706,0.0210033841431141,0,
00:00:05.66,-6.18236372247338e-05,0.00362573843449354,0.0073222853243351,0,
00:00:05.664,-0.0018408879404887603,0.0108750723302364,-0.0197659991681576,0,
00:00:05.668,0.00436387490481138,-0.000359901023330167,-0.0133005250245333,0,
00:00:05.672,-0.000107112362456974,-0.0056829107925295795,-0.00655850395560265,0,
00:00:05.676,-0.00138585502281785,-0.00294633326120675,0.005011296831071379,0,
00:00:05.68,-0.0010604003909975301,0.0027178113814443398,0.0103888520970941,0,
00:00:05.684,-0.00027811806648969704,0.00451874127611518,0.008670525625348091,0,
00:00:05.688,-0.00176268932409585,0.000617761514149606,0.00548706902191043,0,
00:00:05.692,0.0024816805962473197,-0.00869419425725937,-0.0014123622095212301,0,
00:00:05.696,0.00202464195899665,0.0008370718569494781,-0.009658706374466421,0,
00:00:05.7,0.000309746625134721,0.00516114803031087,-0.005728896707296371,0,
00:00:05.704,-0.00299637485295534,0.0021463294979184896,0.00630237488076091,0,
00:00:05.708,0.0007764651090838019,-0.0012336019426584198,0.00155931594781578,0,
00:00:05.712,0.00085759989451617,-0.00877926032990217,-0.00332106254063547,0,
00:00:05.716,1.71294941537781e-05,-0.00225693336687982,0.00223818188533187,0,
00:00:05.72,0.00153345498256385,0.0102985771372914,0.00278841680847108,0,
00:00:05.724,-0.000473212247015908,0.00609085848554969,-0.00951745733618736,0,
00:00:05.728,-0.00596892787143588,-0.00294958427548409,-0.0016848155064508302,0,
00:00:05.732,0.00229709409177303,-0.0068289767950773204,0.00558609329164028,0,
00:00:05.736,0.00267197634093463,-0.00307055190205574,0.004655794706195589,0,
00:00:05.74,0.0007860522600822151,0.00525366747751832,-0.00289226206950843,0,
00:00:05.744,-0.00487929116934538,0.00315890344791114,0.0046236296184361,0,
00:00:05.748,0.000724622223060578,-0.00263294577598572,0.00109900638926774,0,
00:00:05.752,0.000355212978320196,-0.00254476466216147,-0.0070648561231792,0,
00:00:05.756,0.0037748767063021703,-0.0027350750751793398,-0.00419406266883016,0,
00:00:05.76,0.00413613487035036,0.0007598679512739179,0.0025961382780224102,0,
00:00:05.764,-0.0045249019749462605,0.00910107512027025,0.0052941571921110205,0,
00:00:05.768,-0.00360092148184776,0.0009076869464479391,-0.00459142262116075,0,
00:00:05.772,0.0016212097834795698,-0.009796661324799059,0.00210986915044487,0,
00:00:05.776,0.0017163302982226,-0.00226353202015162,-2.74782360065728e-05,0,
00:00:05.78,0.004535478539764879,0.00669117877259851,0.00422281539067626,0,
00:00:05.784,-0.00458266958594322,0.0017871730960905602,-0.00357440882362425,0,
00:00:05.788,-0.0041563743725419,-0.00084080797387287,-0.00294397212564945,0,
00:00:05.792,0.0011733517749235,-0.00570772727951407,0.00386059610173106,0,
00:00:05.796,0.0017241797177121,0.00490462454035878,0.0037500278558582102,0,
00:00:05.8,-0.00127792614512146,0.00513534201309085,-0.0157921146601439,0,
00:00:05.804,-0.0022520956117659803,-0.0070208553224802,0.00774449342861772,0,
00:00:05.808,0.00101082434412092,-0.0026442729867994803,0.010011238977313,0,
00:00:05.812,0.0049915034323930706,-0.0015680312644690301,-0.0024553537368774397,0,
00:00:05.816,0.00676899775862694,0.00586751289665699,-0.00495007401332259,0,
00:00:05.82,-0.00254335138015449,0.00338358851149678,-0.00503141758963466,0,
00:00:05.824,-0.009752826765179629,-0.0026786867529153802,-0.00442880904302001,0,
00:00:05.828,-0.00442694267258048,-0.0048456173390150105,0.009099708870053291,0,
00:00:05.832,0.003937342669814829,-0.00104157463647425,0.0110570834949613,0,
00:00:05.836,0.00684684235602617,0.00217378768138587,-0.00936785619705915,0,
00:00:05.84,0.000442177493823692,0.007084019947797059,0.00343757565133274,0,
00:00:05.844,0.000262135377852246,0.00202720449306071,0.000611646799370646,0,
00:00:05.848,-0.0037417879793793,-0.0049809375777840606,-0.00971261505037546,0,
00:00:05.852,-0.00247573689557612,-0.0066042491234839,-0.00464385189116001,0,
00:00:05.856,-0.00218439637683332,-0.00162517465651035,0.00217468710616231,0,
00:00:05.86,0.00542614702135324,0.0067461640574038,0.007403297815471891,0,
00:00:05.864,0.0012390089686960001,0.0039973771199584,0.000501879258081317,0,
00:00:05.868,-0.00053585326531902,-0.000487171317217872,0.00216050632297993,0,
00:00:05.872,-0.0009221305372193461,-0.0070193181745708,0.0048559294082224395,0,
00:00:05.876,-0.0006470293737947941,-0.00293858372606337,-0.00499340938404202,0,
00:00:05.88,-0.000209431469556876,0.006001140922307971,-0.00509299803525209,0,
00:00:05.884,0.00011174070823472,0.00604956410825253,0.000203514951863326,0,
00:00:05.888,0.00022978213382884903,-0.00833899527788162,0.0010990548180416198,0,
00:00:05.892,0.00226199603639543,0.0017682893667370103,-0.00767830293625593,0,
00:00:05.896,0.000173700347659178,-0.00198537460528314,0.007986826822161671,0,
00:00:05.9,-0.00572100840508938,-0.0021903368178755,0.0126530919224024,0,
00:00:05.904,7.971387094585229e-05,0.00580318504944444,-0.0011713696876540802,0,
00:00:05.908,0.00015930658264551298,0.00998350046575069,-0.0122160753235221,0,
00:00:05.912,0.00605918793007731,-0.0103724617511034,-0.00986580085009336,0,
00:00:05.916,0.000479239592095837,-0.00574438041076064,-0.00029235944384709,0,
00:00:05.92,-0.0017607829067856102,0.00400551641359925,0.00609194440767169,0,
00:00:05.924,-0.00184524187352508,-0.00102456635795534,0.00898217596113682,0,
00:00:05.928,-0.00303548155352473,0.00192565994802862,0.00202203076332808,0,
00:00:05.932,0.006118761375546461,0.00557048479095101,-0.00136890704743564,0,
00:00:05.936,0.000306177244056016,-0.00384411052800715,-0.00237816688604653,0,
00:00:05.94,-0.00654703564941883,-0.006113367620855571,-0.00610241340473294,0,
00:00:05.944,-0.00256020971573889,0.0007382138865068549,0.0133761502802372,0,
00:00:05.948,0.00624775839969516,0.0028030162211507602,-0.000405575265176594,0,
00:00:05.952,0.0019713551737368103,0.000104903869214468,-0.0133221568539739,0,
00:00:05.956,0.00176888902205974,0.000586510053835809,-0.0069693312980234606,0,
00:00:05.96,-0.00308492360636592,0.00517995748668909,0.0040303356945514705,0,
00:00:05.964,-0.0026299590244889303,0.00301601178944111,0.00864557269960642,0,
00:00:05.968,-0.0027325265109539,-0.00706885382533073,-0.00171540002338588,0,
00:00:05.972,0.00282717100344598,-0.0077557587064802595,-0.000835426792036742,0,
00:00:05.976,0.00502077117562294,-0.00118979555554688,0.0035304804332554297,0,
00:00:05.98,-0.000865803565829992,0.00799494981765747,0.00421406282112002,0,
00:00:05.984,-0.00429722014814615,0.00305168004706502,0.00170189107302576,0,
00:00:05.988,-0.00157583109103143,-8.04789160611108e-05,-0.00555441714823246,0,
00:00:05.992,0.00334805622696877,-0.007676271256059409,-0.007528244517743591,0,
00:00:05.996,0.00443639792501926,0.00651696510612965,0.0018132851691916602,0,
00:00:06,-0.0018975995481014302,0.00418896926566958,0.000554952886886895,0,
00:00:06.004,-0.00300342799164355,-0.0011146947508677801,0.00301698967814446,0,
00:00:06.008,-0.00170267443172634,-0.00596434762701392,-0.0048866863362491105,0,
00:00:06.012,0.0020507553126663,-0.0035932927858084397,0.00123516994062811,0,
00:00:06.016,-0.000990746659226716,0.00012499927834142,0.0013632025802508,0,
00:00:06.02,-0.000515899679157883,0.0044299424625933205,0.0004482003278099,0,
00:00:06.024,-0.0015547808725386901,-0.00356099591590464,0.0103961937129498,0,
00:00:06.028,0.005023246631026271,0.00379965989850461,0.00476775877177715,0,
00:00:06.032,0.000425288628321141,0.00326104112900794,-0.011285905726254,0,
00:00:06.036,-0.00122605403885245,-0.0036878630053252,-0.0072175650857389,0,
00:00:06.04,0.000840390624944121,0.00441204104572535,-0.0020155964884907,0,
00:00:06.044,-0.00465224124491215,0.005426404532045129,-0.00029389638802968,0,
00:00:06.048,0.000361916667316109,-0.00862868223339319,0.0031006652861833603,0,
00:00:06.052,-0.00025011721299961204,-0.0133525477722287,0.00419023260474205,0,
00:00:06.056,0.005449225194752221,0.00466042757034302,0.0049837292172014705,0,
00:00:06.06,0.0021397171076387197,0.0142182698473334,-0.00542297912761569,0,
00:00:06.064,-0.00797245930880308,-0.0033006723970174802,0.0033407430164516,0,
00:00:06.068,-0.00144455872941762,-0.00678551057353616,0.0118757039308548,0,
00:00:06.072,0.00437805755063891,0.000615200842730701,-0.0157871376723051,0,
00:00:06.076,0.00510882865637541,0.00515122106298804,-0.00936716329306364,0,
00:00:06.08,-0.0018305666744709,0.0024682676885277,0.004210527986288071,0,
00:00:06.084,-0.00539174349978566,-0.0009808002505451439,0.00365772400982678,0,
00:00:06.088,0.0019752774387598,0.0015459853457287,0.000714530237019062,0,
00:00:06.092,0.00149264221545309,-0.0083042923361063,0.00340641709044576,0,
00:00:06.096,-0.00248240283690393,-0.00434404658153653,-0.000333939329721034,0,
00:00:06.1,-0.00142698432318866,0.00773519789800048,-0.00480472482740879,0,
