Elapsed Time,EMG1,EMG2,EMG3,BioRadio Event,Unnamed: 5
00:00:00,0.0851069837808609,-2.0861589908599902,1.26830160617828,0,
00:00:00.004,-0.0768366605043411,1.9851989746093797,-1.2110735177993799,0,
00:00:00.008,-0.0712744072079659,1.65648055076599,-0.9951860308647159,0,
00:00:00.012,-0.00846688263118267,0.17614923417568198,-0.10676126927137401,0,
00:00:00.016,0.0322227403521538,-0.859977126121521,0.5100058317184449,0,
00:00:00.02,0.044252160936594,-1.04301464557648,0.628353714942932,0,
00:00:00.024,0.0216044783592224,-0.6183822154998779,0.38077726960182207,0,
00:00:00.028,0.00776081858202815,-0.0604397021234035,0.0440998524427414,0,
00:00:00.032,-0.00804251059889793,0.29773876070976296,-0.17610615491867102,0,
00:00:00.036,-0.0134636098518968,0.397535026073456,-0.24544614553451502,0,
00:00:00.04,-0.0157660692930222,0.30422791838645896,-0.18575328588485698,0,
00:00:00.044,-0.0106612257659435,0.10909251868724801,-0.0658091679215431,0,
00:00:00.048,0.00187545514199883,-0.0525625199079514,0.0322301313281059,0,
00:00:00.052,0.008762700483202929,-0.11874987930059401,0.0638272389769554,0,
00:00:00.056,-7.35167704988271e-05,-0.107367694377899,0.0609570406377316,0,
00:00:00.06,0.0031879402231425,-0.0546362437307835,0.0328888259828091,0,
00:00:00.064,0.000820210145320743,0.0122931655496359,0.0111753027886152,0,
00:00:00.068,0.0132792312651873,0.0366800017654896,-0.019150123000145,0,
00:00:00.072,-0.00501796789467335,0.0218066424131393,-0.0234208423644304,0,
00:00:00.076,-0.009604943916201591,0.010531360283494001,-0.0145188746973872,0,
00:00:00.08,-0.0105294026434422,0.00641457317396998,0.00316772935912013,0,
00:00:00.084,-0.00124988402239978,0.0018238523043692101,-0.00125630700495094,0,
00:00:00.088,0.0141296843066812,0.00144190492574126,0.00822559278458357,0,
00:00:00.092,0.005589333362877371,-0.00922799296677113,0.000719945586752146,0,
00:00:00.096,-0.0100145684555173,-0.023051654919982,0.00153107999358326,0,
00:00:00.1,-0.005057471338659521,-0.000273954239673913,-0.00196716445498168,0,
00:00:00.104,0.0022945825476199397,0.00957546290010214,-0.0011419487418606901,0,
00:00:00.108,0.00959474314004183,0.00952484644949436,-0.0017644513864070199,0,
00:00:00.112,0.0127892531454563,0.0171504821628332,0.00297546945512295,0,
00:00:00.116,-0.009770474396646021,-0.00394438253715634,0.00248286966234446,0,
00:00:00.12,-0.0218332372605801,-0.0251723304390907,0.00460285600274801,0,
00:00:00.124,0.00900054723024368,-0.007223825436085459,-0.00296287587843835,0,
00:00:00.128,0.00365275354124606,0.0075381426140666,-0.00884417071938515,0,
00:00:00.132,0.0103968465700746,0.00749361189082265,-0.00315751996822655,0,
00:00:00.136,-0.006650036200881,0.00743185402825475,0.004821059294044971,0,
00:00:00.14,-0.00411266274750233,-3.19916434818879e-05,0.0133125903084874,0,
00:00:00.144,-0.00305296410806477,0.0014961601700633801,-0.00159789819736034,0,
00:00:00.148,0.0092791086062789,-0.000351255148416385,-0.0111494120210409,0,
00:00:00.152,-0.00884874537587166,-0.0127818994224072,-0.00596239091828465,0,
00:00:00.156,0.00237676128745079,-0.0036027750466018898,-0.000909114489331841,0,
00:00:00.16,-0.00230829836800694,0.00323508284054697,0.0151363471522927,0,
00:00:00.164,0.0138854160904884,0.0136863514780998,0.00249742181040347,0,
00:00:00.168,-0.0016449490794912,0.00225887843407691,-0.0102337179705501,0,
00:00:00.172,-0.0020016259513795398,-0.009271456860005859,-0.00737207708880305,0,
00:00:00.176,-0.0189629327505827,-0.0128692258149385,0.00993564911186695,0,
00:00:00.18,0.0032430717255920198,0.00105888734105974,0.00691176764667034,0,
00:00:00.184,0.0173856299370527,0.0162437874823809,-0.008561931550502779,0,
00:00:00.188,0.0026111307088285698,0.00794446468353271,-0.000765603967010975,0,
00:00:00.192,-0.0112585164606571,-0.0111210308969021,0.0037702356930822104,0,
00:00:00.196,-0.0043159695342183104,-0.00823567062616348,0.0035994458012282796,0,
00:00:00.2,0.00126976578030735,0.00353816244751215,-0.00526981754228473,0,
00:00:00.204,0.0076244636438787,0.00644088350236416,-0.00399437779560685,0,
00:00:00.208,0.005157479085028171,0.0037732231430709397,-0.00238364562392235,0,
00:00:00.212,-0.00814356841146946,-0.0106596974655986,0.00410418678075075,0,
00:00:00.216,-0.0037754951044917102,-0.00137746252585202,0.00828995276242495,0,
00:00:00.22,0.00199330667965114,-0.0018423276487737898,0.0039314278401434396,0,
00:00:00.224,-0.000165822173585184,0.0106835411861539,-0.0119931595399976,0,
00:00:00.228,0.0024104590993374603,0.0110727213323116,-0.00925538782030344,0,
00:00:00.232,0.0010724444873631,-0.0148618537932634,0.0030388399027288,0,
00:00:00.236,-0.00678654573857784,-0.0152495577931404,0.0175211243331432,0,
00:00:00.24,0.000561595952603966,0.00546793546527624,-0.00235436530783772,0,
00:00:00.244,0.00586832640692592,0.00959409773349762,-0.00858700275421143,0,
00:00:00.248,0.00968658644706011,0.00998579151928425,-0.0040958235040307,0,
00:00:00.252,-0.0124667529016733,-0.0054594827815890295,-0.0008753500296734269,0,
00:00:00.256,0.00473159085959196,-0.00410606153309345,0.00556911714375019,0,
00:00:00.26,-0.00620747683569789,-0.00426039239391685,0.00887018535286188,0,
00:00:00.264,-0.00339904543943703,-0.00467535573989153,0.00569117581471801,0,
00:00:00.268,0.0035867318511009203,0.0123821562156081,-0.012661118991673,0,
00:00:00.272,0.010203099809587,0.0124997198581696,-0.00945205613970757,0,
00:00:00.276,-0.0062301768921315705,-0.0148285506293178,0.00516671454533935,0,
00:00:00.28,-0.0054662162438035,-0.0181832257658243,0.004881470929831271,0,
00:00:00.284,0.00156135112047195,0.0044417129829525896,-0.00109368318226188,0,
00:00:00.288,0.00497179245576262,0.0148091064766049,-0.0017920607933774601,0,
00:00:00.292,-0.0023754122667014603,0.0078037865459919,-0.0026689767837524397,0,
00:00:00.296,0.0045249401591718206,0.0008071306510828441,0.00048649631207808896,0,
00:00:00.3,-0.00550518510863185,-0.0141719104722142,0.00257827690802515,0,
00:00:00.304,0.000709508953150362,0.000624827807769179,0.00045719306217506506,0,
00:00:00.308,-0.00323600345291197,-0.00415125908330083,0.00107154541183263,0,
00:00:00.312,0.0016917581669986198,-9.13718249648809e-05,0.009533521719276909,0,
00:00:00.316,0.0024023693986237,0.0015105017228052,-0.00526050105690956,0,
00:00:00.32,0.0012555179418996,0.0103109031915665,-0.00679827341809869,0,
00:00:00.324,-0.00217881426215172,0.00428346963599324,-0.00522164581343532,0,
00:00:00.328,-0.000966969586443156,-0.00487076677381992,0.00268090190365911,0,
00:00:00.332,0.0026981956325471397,0.000381170917535201,0.00217904429882765,0,
00:00:00.336,0.00336202210746706,-0.0152396308258176,0.00879015307873487,0,
00:00:00.34,-0.004779776558279989,-0.0030814742203801896,-0.0019044108921662,0,
00:00:00.344,0.000785972166340798,0.0102410092949867,-0.00213237688876688,0,
00:00:00.348,0.00023390662681777003,0.0146787576377392,-0.00257272343151271,0,
00:00:00.352,-0.00515106180682778,-0.00165283400565386,-0.00606593349948525,0,
00:00:00.356,0.0006410655332729219,-0.0157746970653534,0.00127419386990368,0,
00:00:00.36,0.000500927970279008,-0.000449922139523551,0.0120499944314361,0,
00:00:00.364,0.0061630951240658795,0.0124511634930968,-0.0049046752974391,0,
00:00:00.368,0.00250284280627966,-0.00239778752438724,-0.00968667399138212,0,
00:00:00.372,-0.00176520040258765,-0.0157399065792561,0.000527617521584034,0,
00:00:00.376,-0.0138481380417943,0.00896134041249752,0.00934562180191278,0,
00:00:00.38,0.00301656685769558,0.0043903780169785,0.005011036060750479,0,
00:00:00.384,0.00921588484197855,-0.000829411786980927,-0.00525967450812459,0,
00:00:00.388,0.0110221290960908,0.005526595283299679,-0.00653289444744587,0,
00:00:00.392,-0.00266687665134668,-0.005654378794133661,0.00937434285879135,0,
00:00:00.396,-0.0147980032488704,-0.00430627958849072,0.00362573214806616,0,
00:00:00.4,-0.0117624010890722,0.0018750800518319,-0.0121818203479052,0,
00:00:00.404,0.0141530958935618,0.010771750472486,-0.010981204919517,0,
00:00:00.408,0.0062150997109711205,-0.0089228879660368,0.00362073536962271,0,
00:00:00.412,-0.0060602934099733795,-0.0132490862160921,0.0176327414810658,0,
00:00:00.416,-0.00293480674736202,0.007854924537241459,0.0079317158088088,0,
00:00:00.42,0.0060735922306776,0.0134098893031478,-0.0077978614717721904,0,
00:00:00.424,0.0060588363558054,0.0017342396313324599,-0.00688294135034084,0,
00:00:00.428,-0.0023494316264987,-0.0153308594599366,-0.0041559119708836105,0,
00:00:00.432,-0.0025298437103629104,0.00807281862944365,-0.007133420091122391,0,
00:00:00.436,-0.009368748404085641,0.000772215542383492,0.00736559648066759,0,
00:00:00.44,-0.000561349268537015,-0.0109799858182669,0.007198461797088379,0,
00:00:00.444,0.00613216636702418,-0.00104786816518754,0.004448342602699999,0,
00:00:00.448,0.00659763207659125,0.0134659511968493,-0.0078224902972579,0,
00:00:00.452,0.000939101737458259,0.0104417707771063,-0.0070993066765368,0,
00:00:00.456,-0.00328002241440117,-0.0152412485331297,0.0107009503990412,0,
00:00:00.46,-0.00824520271271467,-0.01486795861274,-0.000772135856095701,0,
00:00:00.464,-0.000603423279244453,0.0123156346380711,-0.00505740800872445,0,
00:00:00.468,0.0071082049980759595,0.0123253976926208,0.000370233552530408,0,
00:00:00.472,-0.0007265729946084321,-0.00913756527006626,-0.000243332455283962,0,
00:00:00.476,-0.00358760775998235,-0.00699043739587069,0.007418905384838579,0,
00:00:00.48,-0.000369442510418594,0.0022292947396636,-0.0020813562441617302,0,
00:00:00.484,-0.00188101280946285,0.00866875052452087,0.006742740515619521,0,
00:00:00.488,0.0127979842945933,0.00523322448134422,-0.0159577205777168,0,
00:00:00.492,0.00287796347402036,-0.00880881398916245,-0.006196263711899521,0,
00:00:00.496,-0.01079595182091,-0.00666272826492786,0.00979349296540022,0,
00:00:00.5,-0.00885049719363451,0.0034534470178186898,0.00356882298365235,0,
00:00:00.504,0.0127000017091632,0.00346073787659407,-0.0030951367225498,0,
00:00:00.508,0.0127313835546374,0.000826774106826633,0.00179301900789142,0,
00:00:00.512,-0.0152698243036866,-0.00317668961361051,0.004648826550692321,0,
00:00:00.516,-0.0249426644295454,-0.00785256922245026,0.0116316927596927,0,
00:00:00.52,0.0123056527227163,0.00656304741278291,-0.0119862612336874,0,
00:00:00.524,0.0180818643420935,0.0128573449328542,-0.0135134430602193,0,
00:00:00.528,0.0010205875150859401,-0.0060071223415434395,-0.00126736296806484,0,
00:00:00.532,-0.0016932119615376,-0.0049068508669734,0.00515526719391346,0,
00:00:00.536,-0.00527519173920155,-0.00224614213220775,0.00597491441294551,0,
00:00:00.54,0.007336612790822979,0.00427044462412596,0.00560769252479076,0,
00:00:00.544,-0.0120034348219633,-0.00677006505429745,-0.00569606851786375,0,
00:00:00.548,-0.000489203026518226,-1.0765365914267e-05,0.000682216603308916,0,
00:00:00.552,0.000555634731426835,0.00778097799047828,-0.00111695064697415,0,
00:00:00.556,-0.004167332313954829,-0.004431620705872771,0.00786652974784374,0,
00:00:00.56,0.0061686062254011605,-0.0038435210008174203,-0.0033787791617214697,0,
00:00:00.564,0.0125071257352829,0.0188332945108414,-0.00784285925328732,0,
00:00:00.568,-0.00360603118315339,0.00380084593780339,-0.0056158984079957,0,
00:00:00.572,-0.00428890064358711,-0.0147945648059249,0.00548906624317169,0,
00:00:00.576,-0.0035489359870553,-0.015836076810956,0.00344073050655425,0,
00:00:00.58,-0.0038388378452509603,-0.00262038968503475,0.0018800607649609399,0,
00:00:00.584,0.00409508077427745,0.0117227090522647,-0.0016031705308705599,0,
00:00:00.588,0.00286769610829651,0.0121689746156335,0.0035258857533335703,0,
00:00:00.592,-5.28614327777177e-05,0.00337115628644824,-0.00126161950174719,0,
00:00:00.596,-0.00375608680769801,-0.00598981231451035,-0.00435283407568932,0,
00:00:00.6,-0.00174047297332436,-0.0063490513712167705,-0.00154701003339142,0,
00:00:00.604,0.000857969745993614,-0.00508966576308012,0.00547244725748897,0,
00:00:00.608,0.00618264777585864,0.004440480843186379,0.000440394680481404,0,
00:00:00.612,-0.00223758327774704,0.0018362436676397898,-0.00151111208833754,0,
00:00:00.616,-0.00884273089468479,-0.00548759289085865,-0.00149667367804796,0,
00:00:00.62,0.00318699632771313,0.00612813513725996,0.0014171125367283802,0,
00:00:00.624,0.00779505353420973,0.00482981791719794,-0.0018083276227116602,0,
00:00:00.628,0.00347332400269806,0.00237427232787013,-0.0010589202865958199,0,
00:00:00.632,0.00264331232756376,-0.000590313458815217,0.000391573761589825,0,
00:00:00.636,-0.0139850955456495,-0.012988911010325002,0.00322666787542403,0,
00:00:00.64,0.00346405478194356,-0.0014638778520748,0.00114631559699774,0,
00:00:00.644,-0.000824094167910516,0.005619200412184,-0.007300461642444129,0,
00:00:00.648,0.0034748907200992103,0.008272740989923479,-6.19255442870781e-05,0,
00:00:00.652,-0.00341850356198847,-0.0135963307693601,0.007563731633126741,0,
00:00:00.656,-0.00412450404837728,-0.00320956041105092,0.0035171031486243,0,
00:00:00.66,-0.0034766113385558102,0.0158969443291426,-0.0037376999389380204,0,
00:00:00.664,0.0118730897083879,0.00183751131407917,-0.00198037549853325,0,
00:00:00.668,0.007189125288277859,-0.00132637156639248,-0.00164396408945322,0,
00:00:00.672,0.00106025882996619,0.00468402868136764,-0.00518350163474679,0,
00:00:00.676,-0.013775896281003999,-0.0156030850484967,-0.000344251340720803,0,
00:00:00.68,-0.00535184517502785,-0.00865555182099342,0.00781621038913727,0,
00:00:00.684,0.00598935689777136,0.008619840256869791,0.0045023038983345,0,
00:00:00.688,0.00497975246980786,0.0145458960905671,-0.00476007768884301,0,
00:00:00.692,0.000947469903621823,-0.0115557834506035,-0.0035786314401775603,0,
00:00:00.696,-0.0101429177448153,-0.0135160367935896,-0.00229720864444971,0,
00:00:00.7,0.0013437366578728,0.0183737799525261,0.0162501595914364,0,
00:00:00.704,0.0111402859911323,0.0183608029037714,-0.004095360636711121,0,
00:00:00.708,0.003980723209679129,-0.009435762651264671,-0.0147350616753101,0,
00:00:00.712,-0.00790112651884556,-0.0224581938236952,-0.00754739716649055,0,
00:00:00.716,-0.0129008265212178,-0.010450504720211,0.0125619098544121,0,
00:00:00.72,0.00845593027770519,0.0184588581323624,0.0120361810550094,0,
00:00:00.724,0.00531438179314137,0.0158195830881596,-0.0045223366469144795,0,
00:00:00.728,-0.00128707615658641,-0.006812090985476971,-0.00607835035771132,0,
00:00:00.732,-0.00618512462824583,-0.00858903490006924,-0.00466137891635299,0,
00:00:00.736,0.00104876211844385,0.000748314487282187,0.0110537437722087,0,
00:00:00.74,0.007681532297283409,-0.00044008027180097997,0.0021578955929726397,0,
00:00:00.744,0.000830091710668057,0.00020004247198812702,-0.0146336946636438,0,
00:00:00.748,0.00164235383272171,0.000861041073221713,0.00229787710122764,0,
00:00:00.752,-0.00889866519719362,-0.0031991181895136803,0.009058370254933829,0,
00:00:00.756,-0.0050086178816855,0.0024544603656977398,-0.00571433966979384,0,
00:00:00.76,-0.000997577561065555,0.00533982599154115,-0.0039060756098479,0,
00:00:00.764,0.0124571109190583,0.00172520289197564,0.00515688909217715,0,
00:00:00.768,0.00800100713968277,0.00226815138012171,-0.000361120182788,0,
00:00:00.772,-0.0170540120452642,-0.01128273550421,0.00614061672240496,0,
00:00:00.776,-0.00450293160974979,-0.0058844331651926,-0.00296497391536832,0,
00:00:00.78,0.0101997619494796,0.008198475465178491,-0.0058900760486722,0,
00:00:00.784,0.00856191758066416,0.0122775053605437,0.000323641084833071,0,
00:00:00.788,-0.00252517778426409,-0.0055238315835595105,0.00630690809339285,0,
00:00:00.792,-0.006140787154436111,-0.0101316021755338,0.00187742034904659,0,
00:00:00.796,-0.008799186907708641,-0.0062045389786362605,-0.00881721638143063,0,
00:00:00.8,0.00263724406249821,1.21163438961958e-05,-2.05479846044909e-05,0,
00:00:00.804,0.0005298141622915861,0.0104796011000872,0.000229563869652338,0,
00:00:00.808,0.00260649691335857,0.0033930446952581397,-0.00248652091249824,0,
00:00:00.812,0.0075855003669858,0.005081854294985529,-0.00021964508050586998,0,
00:00:00.816,0.00042586590279825,0.0019795477855950603,0.0105393854901195,0,
00:00:00.82,-0.0049015237018466,-0.0040298979729414,0.00963868107646704,0,
00:00:00.824,-0.0010810766834765699,-0.0125228390097618,-0.00781501457095146,0,
00:00:00.828,0.00407165521755815,-0.0028193569742143198,-0.00887902453541756,0,
00:00:00.832,0.000212902974453755,0.0117996279150248,0.000283910776488483,0,
00:00:00.836,-0.0114150093868375,0.00556477997452021,0.00124769273679703,0,
00:00:00.84,-0.00384014705196023,-0.0150420404970646,-0.0038853529840707796,0,
00:00:00.844,0.00863672886043787,-0.0023964983411133302,0.0035892988089472103,0,
00:00:00.848,0.0158045664429665,0.0069135450758039995,0.00299246935173869,0,
00:00:00.852,-0.0120196985080838,0.00607323879376054,-0.0057610934600234,0,
00:00:00.856,-0.004950720351189371,0.00188853382132947,0.0088411346077919,0,
00:00:00.86,0.00246771471574903,0.000483645620988682,-0.0026228565257042603,0,
00:00:00.864,0.00476295035332441,-0.0069491327740252,-0.00580008421093225,0,
00:00:00.868,-0.005382597912102939,-0.0040685045532882205,0.000626159540843219,0,
00:00:00.872,0.0035425329115241796,0.0045946491882205,-0.00163020065519959,0,
00:00:00.876,0.00188985152635723,0.00102510419674218,0.0099966349080205,0,
00:00:00.88,-0.0054163932800293,-0.0065550557337701295,-0.00017613019736018,0,
00:00:00.884,0.00135966937523335,0.0116489948704839,0.000627368048299104,0,
00:00:00.888,0.00547006819397211,0.0049951090477407,-0.0048845345154404606,0,
00:00:00.892,-0.00824089907109737,-0.0123353619128466,-0.010539329610765,0,
00:00:00.896,-0.00442041689530015,-0.00788356084376574,0.0024520861916244,0,
00:00:00.9,0.00192104920279235,0.000641752674710006,0.00184754107613117,0,
00:00:00.904,0.0111355567350984,0.0076007326133549205,0.00411976175382733,0,
00:00:00.908,0.000292074459139258,-0.000535652681719512,0.0124941216781735,0,
00:00:00.912,-0.00537115661427379,0.009277677163481709,0.000445857207523659,0,
00:00:00.916,-0.00723180919885635,-0.0073589640669524704,-0.00666334386914968,0,
00:00:00.92,0.00214423099532723,0.00170671520754695,-0.00938848592340946,0,
00:00:00.924,0.0176221672445536,0.0140005238354206,-0.0103310346603394,0,
00:00:00.928,0.00436318619176745,-0.000126458762679249,0.0136907417327166,0,
00:00:00.932,-0.0146613661199808,-0.0216647889465094,0.00946640688925982,0,
00:00:00.936,-0.018335048109293,-0.0168090667575598,-0.00852004531770945,0,
00:00:00.94,-0.0053093358874321,0.0056035248562693605,-0.00828447006642818,0,
00:00:00.944,0.0212263278663158,0.0109717259183526,-0.0019010193645954102,0,
00:00:00.948,0.00347906583920121,0.00808202568441629,0.0159058924764395,0,
00:00:00.952,0.00573210883885622,0.00709702400490642,0.0141164073720574,0,
00:00:00.956,-0.00641952455043793,0.00334743177518249,-0.0153062576428056,0,
00:00:00.96,-0.00302217621356249,-0.00133539922535419,-0.00936866458505392,0,
00:00:00.964,0.0013565638801083,-0.00648770853877068,-0.0111100571230054,0,
00:00:00.968,0.00049149856204167,-0.0112210279330611,0.011798900552093998,0,
00:00:00.972,0.0011404990218579802,-0.00837023090571165,0.0144069157540798,0,
00:00:00.976,-0.00541277043521404,0.00484813330695033,-0.0121339550241828,0,
00:00:00.98,0.00154834776185453,0.0194973684847355,0.0028967077378183603,0,
00:00:00.984,-0.000562017201445997,0.00933124125003815,-0.00559077225625515,0,
00:00:00.988,-8.518839604221279e-05,-0.0202034581452608,0.00088248890824616,0,
00:00:00.992,0.00486064283177257,-0.00866543408483267,0.00351431919261813,0,
00:00:00.996,-0.00506067695096135,0.0055118999443948295,0.0111963739618659,0,
00:00:01,-0.00270493677817285,0.0019105611136183101,-0.00702069466933608,0,
00:00:01.004,0.00344272353686392,0.0041725286282599,-0.00538380118086934,0,
00:00:01.008,0.0115858027711511,0.00217882473953068,-0.0022544928360730397,0,
00:00:01.012,-0.0068920957855880295,-0.00452850153669715,-0.00166990293655545,0,
00:00:01.016,-0.0137243689969182,0.00217876094393432,0.0057467804290354295,0,
00:00:01.02,0.00772315030917525,0.0118830716237426,0.00341331749223173,0,
00:00:01.024,0.000966652121860534,-0.00633535627275705,-0.0025264616124332,0,
00:00:01.028,0.00490989675745368,-0.0159560795873404,-0.0005180458538234231,0,
00:00:01.032,-0.00047906060353852803,-0.0057777538895607,-0.00279710534960032,0,
00:00:01.036,-0.00613336637616158,0.000651848502457142,0.00317717995494604,0,
00:00:01.04,0.000336300232447684,0.0107050975784659,-0.00501910503953695,0,
00:00:01.044,0.0068122879602015,0.0183080658316612,-0.00164690590463579,0,
00:00:01.048,0.000295835547149181,0.00037448626244440696,0.000421760429162532,0,
00:00:01.052,-0.000491106242407113,-0.00805593840777874,0.0182336773723364,0,
00:00:01.056,-0.0045680426992476,-0.008427717722952371,-0.00557030225172639,0,
00:00:01.06,-0.000815096835140139,-0.00246800994500518,-0.0112333605065942,0,
00:00:01.064,0.00424471870064735,-3.7569792766589705e-05,-0.00476717483252287,0,
00:00:01.068,-0.0078439163044095,-0.0052163447253406,1.33751254907111e-05,0,
00:00:01.072,-0.0073153031989932095,0.0010174383642152,0.0111304828897119,0,
00:00:01.076,0.0111938733607531,0.0119870994240046,0.005993720144033429,0,
00:00:01.08,0.000645434076432139,-7.81387570896186e-05,-0.005508468020707371,0,
00:00:01.084,0.0092269740998745,0.00207882886752486,-0.00116081268060952,0,
00:00:01.088,0.00875153578817844,-0.00295885279774666,-0.00561456801369786,0,
00:00:01.092,-0.0187185294926167,-0.00322614563629031,6.82710451656021e-05,0,
00:00:01.096,-0.00788701698184013,0.000478000700240955,0.00822199042886496,0,
00:00:01.1,0.00527031440287828,0.00433213682845235,-0.00205452181398869,0,
00:00:01.104,0.00952334515750408,0.00585891120135784,-0.00817997008562088,0,
00:00:01.108,-0.004284365568310021,-0.0180122554302216,-0.00239603617228568,0,
00:00:01.112,-0.008699082769453529,-0.00699634151533246,0.007467506453394891,0,
00:00:01.116,0.00305651477538049,0.0062509938143193704,0.00527647323906422,0,
00:00:01.12,0.00314603559672832,0.0025221302639693,-0.00166707602329552,0,
00:00:01.124,0.00910299643874168,0.0154603375121951,-0.00282301544211805,0,
00:00:01.128,-0.00436854967847466,-0.00037651383900083596,-0.00371861667372286,0,
00:00:01.132,-0.0049731652252376106,-0.00111045804806054,0.00596189685165882,0,
00:00:01.136,0.000415643065935001,-0.00434698723256588,0.00046565703814849295,0,
00:00:01.14,0.00539408857002854,-0.00711376965045929,-0.00633720587939024,0,
00:00:01.144,-0.00548693118616939,-0.0032333186827600002,-0.0045326845720410295,0,
00:00:01.148,0.000563727517146617,0.0032238948624581103,0.0102694490924478,0,
00:00:01.152,0.000895847217179835,-0.000737913593184203,0.0036065212916582797,0,
00:00:01.156,-0.0104340491816401,0.0013365059858188,0.00029184849699959197,0,
00:00:01.16,0.00720151327550411,0.00496926158666611,-0.007791422773152591,0,
00:00:01.164,0.00761040206998587,0.0025639950763434198,-0.0067247166298329795,0,
00:00:01.168,0.00857394188642502,-0.0048331157304346605,0.00240448047406971,0,
00:00:01.172,-0.00812721438705921,0.0036201577167958,0.000797160842921585,0,
00:00:01.176,-0.0108264880254865,-0.00101312680635601,0.0116506749764085,0,
00:00:01.18,-0.0077292239293456095,-0.00455897115170956,0.00440606381744146,0,
00:00:01.184,0.0153015069663525,0.00014793332957197,0.000329098053043708,0,
00:00:01.188,0.00911730527877808,0.00327869807370007,-0.0212634988129139,0,
00:00:01.192,-0.007900929078459741,0.000934115087147802,0.0013425174402073,0,
00:00:01.196,-0.0116829266771674,-0.00963648594915867,0.00215030182152987,0,
00:00:01.2,-0.00426059868186712,0.00391971552744508,0.0018575286958366602,0,
00:00:01.204,0.0178621634840965,0.0115461563691497,0.005770769435912371,0,
00:00:01.208,0.00727416621521115,-0.00161006429698318,-0.0046251155436039,0,
00:00:01.212,-0.00733847822993994,-0.00777303287759423,0.0101285865530372,0,
00:00:01.216,-0.0076651084236800705,-0.006514604203403,0.0107029201462865,0,
00:00:01.22,-0.007148888893425459,0.0023431535810232197,-0.007336992770433429,0,
00:00:01.224,0.00522863259539008,0.00677673146128654,-0.0179043766111135,0,
00:00:01.228,0.00639119511470199,-0.0028110123239457603,-0.00781829375773668,0,
00:00:01.232,-0.0011225587222725199,-0.00724500697106123,0.00565938744693995,0,
00:00:01.236,0.00341648631729186,0.0160882845520973,0.0129493214190006,0,
00:00:01.24,0.00299914390780032,0.00999462138861418,0.006114922929555179,0,
00:00:01.244,0.0022826234344393,-0.014456870034336999,-0.0100180096924305,0,
00:00:01.248,-0.0187848508358002,-0.00541826616972685,-0.00579014280810952,0,
00:00:01.252,0.0007294648676179349,-0.00367997656576335,0.007594132330268621,0,
00:00:01.256,0.00634629093110561,0.000192406383575872,0.00719737634062767,0,
00:00:01.26,0.00288493535481393,-0.0013912650756537901,-0.000379175442503765,0,
00:00:01.264,0.00764424446970224,0.0133119085803628,-0.01147988345474,0,
00:00:01.268,0.000684075232129544,0.00348044885322452,-0.0036550019867718202,0,
00:00:01.272,-0.0133319795131683,-0.0122749283909798,0.0103363804519176,0,
00:00:01.276,-0.00428578862920403,-0.0043489299714565294,-0.0059370286762714395,0,
00:00:01.28,0.0111527508124709,0.00636666268110275,0.00066555937519297,0,
00:00:01.284,-0.000540610286407173,0.004761194344609979,-0.00404240423813462,0,
00:00:01.288,-0.0024883698206394898,0.000391932320781052,0.00732085015624762,0,
00:00:01.292,0.00311345909722149,-0.00863940548151731,0.0050617684610188,0,
00:00:01.296,-0.00961297936737537,-0.00722866924479604,-0.000138176212203689,0,
00:00:01.3,0.00383538356982172,0.0132391508668661,-0.00334529974497855,0,
00:00:01.304,0.00756739545613527,0.010787664912641,-0.00982882920652628,0,
00:00:01.308,-0.0015702826203778401,-0.00265307817608118,-0.00436775153502822,0,
00:00:01.312,-0.00043259849189780696,-0.0139924017712474,0.0190110970288515,0,
00:00:01.316,-0.00295692123472691,-0.00462352437898517,0.00444847997277975,0,
00:00:01.32,-0.00333376112394035,0.00450067967176437,-0.0155706787481904,0,
00:00:01.324,0.0150916893035173,0.00921163521707058,-0.00595583766698837,0,
00:00:01.328,-0.0046426528133451895,-0.0015742209507152401,0.00915210135281086,0,
00:00:01.332,-0.0208427254110575,-0.00983280409127474,0.0107202548533678,0,
00:00:01.336,0.00508911022916436,-0.000248290540184826,-0.00373396137729287,0,
00:00:01.34,0.0162073224782944,0.00892925448715687,-0.0111446818336844,0,
00:00:01.344,-0.000174007102032192,0.0133374333381653,-0.00461719185113907,0,
00:00:01.348,-0.00479832338169217,-0.00670694326981902,0.00881081074476242,0,
00:00:01.352,-0.0037245966959744705,-0.0126018431037664,0.00171730585861951,0,
00:00:01.356,-0.0031380841974169,-0.00835242960602045,-0.00032458224450238,0,
00:00:01.36,-0.00122383376583457,-0.0009032433736138051,0.00159836478997022,0,
00:00:01.364,0.0113692572340369,0.00248039420694113,-0.004247751552611589,0,
00:00:01.368,0.00697162421420217,0.0247021336108446,-0.0038219015114009398,0,
00:00:01.372,-0.00512766651809216,0.0152877932414412,0.007515390869230029,0,
00:00:01.376,-0.0184383690357208,-0.0308029185980558,0.008520628325641159,0,
00:00:01.38,-0.007760993205010891,-0.0141302281990647,-0.00297074858099222,0,
00:00:01.384,0.0214349441230297,0.007436155341565609,-0.0174706056714058,0,
00:00:01.388,0.0112371388822794,-0.0035395282320678204,0.000271388475084677,0,
00:00:01.392,-0.00765033159404993,0.00526641635224223,0.008528789505362509,0,
00:00:01.396,-0.00611909106373787,0.0166826583445072,0.003691979451105,0,
00:00:01.4,-0.00492890551686287,0.0103454990312457,-0.00148112419992685,0,
00:00:01.404,0.00408696895465255,-0.0028716921806335397,0.000955327588599175,0,
00:00:01.408,0.00744195468723774,-0.0208799783140421,-0.0018526426283642602,0,
00:00:01.412,-0.00986452586948872,-0.0191287752240896,-0.000972166308201849,0,
00:00:01.416,-0.00930828228592873,-0.00848763063549995,0.0127422129735351,0,
00:00:01.42,0.0106133529916406,0.0288710407912731,-0.0068962527438998205,0,
00:00:01.424,0.0177311599254608,0.0293415859341621,-0.0111262407153845,0,
00:00:01.428,-0.0016659873072058,-0.00342062511481345,-0.0020672634709626397,0,
00:00:01.432,-0.020312225446105,-0.0207339506596327,0.0029564315918833,0,
00:00:01.436,-0.0032294939737767,-0.0190907698124647,-0.0020856766495853697,0,
00:00:01.44,0.008475081063807009,-0.0033065399620682,0.00466065807268023,0,
00:00:01.444,-0.00482005020603538,0.0126153659075499,0.009746348485350609,0,
00:00:01.448,0.0016503318911418301,0.0134967295452952,0.00105609593447298,0,
00:00:01.452,0.0130871972069144,0.00433855038136244,-0.0035629349295049897,0,
00:00:01.456,0.00435032742097974,-0.0035890650469809797,0.0019203738775104302,0,
00:00:01.46,-0.00911507196724415,-0.008519100956618791,-0.00656746700406075,0,
00:00:01.464,-0.0104336682707071,-0.00507124001160264,-0.0116134155541658,0,
00:00:01.468,-0.00705528631806374,-0.00430441508069634,0.00273343175649643,0,
00:00:01.472,0.0219690762460232,0.006784599740058179,0.00499080633744597,0,
00:00:01.476,-0.007089606486260891,0.00860031135380268,0.0114972144365311,0,
00:00:01.48,-0.00723657431080937,0.0024208934046328102,-0.00273094908334315,0,
00:00:01.484,0.00804958492517471,-0.0070814136415719995,-0.00454238243401051,0,
00:00:01.488,0.000619053491391242,-0.00690113287419081,0.00198813783936203,0,
00:00:01.492,-0.00375570612959564,-0.000332090858137235,-0.00159107812214643,0,
00:00:01.496,0.00256946124136448,0.0123979290947318,-0.0038880696520209295,0,
00:00:01.5,-0.00084980484098196,0.0028582394588738697,-0.00288013461977243,0,
00:00:01.504,0.00296141440048814,0.00027561915339902,-0.00024538513389416,0,
00:00:01.508,-0.00231837155297399,-0.0115615613758564,0.0144239589571953,0,
00:00:01.512,-0.00913072191178799,-0.0132075445726514,0.00749856419861317,0,
00:00:01.516,0.00252611050382257,0.000306270550936461,-0.0130943423137069,0,
00:00:01.52,0.0031811180524528,0.024173429235816002,-0.00440557859838009,0,
00:00:01.524,0.005403574556112289,0.00692849140614271,-0.0058489325456321205,0,
00:00:01.528,0.00423702737316489,-0.005517594050616029,-0.000569287105463445,0,
00:00:01.532,-0.005344066303223371,-0.0197195392102003,0.00788352731615305,0,
00:00:01.536,-0.00456247525289655,-0.00515964720398188,-0.0013296862598508599,0,
00:00:01.54,0.00310054793953896,0.00599017692729831,0.0038390674162656103,0,
00:00:01.544,-0.000363997940439731,0.0132977571338415,-0.00212574424222112,0,
00:00:01.548,-0.0010191894834861198,0.00853866524994373,-0.00312471203505993,0,
00:00:01.552,-0.0025420736055821198,-0.00786201935261488,0.00899657513946295,0,
00:00:01.556,0.000128428611787967,0.0047701331786811395,-0.000818788248579949,0,
00:00:01.56,0.0104228444397449,-0.00403127120807767,-0.005881486460566521,0,
00:00:01.564,-0.0014990468043834,-0.0160160176455975,-0.00308883027173579,0,
00:00:01.568,-0.0114531582221389,-0.00816009286791086,0.00267996545881033,0,
00:00:01.572,0.0061206906102597705,0.00692483643069863,0.00668449979275465,0,
00:00:01.576,-0.0125049259513617,0.0109858708456159,-0.00326467235572636,0,
00:00:01.58,0.00831823609769344,0.0137766757979989,-0.00819198414683342,0,
00:00:01.584,0.0152309630066156,0.00202457047998905,-0.0017387113766744698,0,
00:00:01.588,-0.0071663921698927905,-0.0156184276565909,0.0101674618199468,0,
00:00:01.592,-0.00343989441171288,-0.0077067194506526,0.0118221305310726,0,
00:00:01.596,-0.00585891911759973,-0.00385686592198908,-0.0134736243635416,0,
00:00:01.6,0.00540329096838832,0.0083371214568615,-0.0038247129414230602,0,
00:00:01.604,0.00558065343648195,0.0181320589035749,-0.00209288368932903,0,
00:00:01.608,-0.00680316751822829,-0.0030500921420753,0.00103709916584194,0,
00:00:01.612,-0.000532664533238858,-0.0118541894480586,0.000609080016147345,0,
00:00:01.616,-0.00151235284283757,-0.0076508149504661595,0.0065067270770669,0,
00:00:01.62,0.000128342711832374,-0.000688951811753213,-0.00123684690333903,0,
00:00:01.624,0.00767895439639688,0.00173058267682791,0.00450447434559464,0,
00:00:01.628,-0.0105293914675713,0.000388482469134033,-0.0063177105039358104,0,
00:00:01.632,-0.000123514328151941,0.0126072643324733,-0.0043799923732876795,0,
00:00:01.636,0.0085250586271286,0.00787193607538939,0.00219970406033099,0,
00:00:01.64,0.00221304758451879,-0.00286740530282259,-0.00126663118135184,0,
00:00:01.644,0.00257641891948879,-0.00640716589987278,0.00113779411185533,0,
00:00:01.648,-0.0045665041543543295,-0.0178745370358229,0.00696141272783279,0,
00:00:01.652,-0.0114144450053573,-0.00110850064083934,0.0129592092707753,0,
00:00:01.656,0.00128416740335524,0.00110541889443994,-0.008052384480834009,0,
00:00:01.66,0.00313492398709059,0.0119217019528151,-0.0226108096539974,0,
00:00:01.664,0.006105503067374229,0.0155676873400807,-0.0056557431817054705,0,
00:00:01.668,0.007164690643548971,0.00263932580128312,0.0137489652261138,0,
00:00:01.672,-0.00466402200981975,-0.0182350687682629,0.00949404109269381,0,
00:00:01.676,-0.0100820837542415,-0.00669341487810016,0.000980144832283258,0,
00:00:01.68,0.0010431224945932599,0.00328324432484806,0.0022515682503581,0,
00:00:01.684,0.00573409674689174,0.0044378200545907,-0.00818131119012833,0,
00:00:01.688,0.006701582577079529,0.00435894727706909,-0.0006309414166025821,0,
00:00:01.692,-0.00922015216201544,-0.00202167243696749,-0.00534934364259243,0,
00:00:01.696,-0.00612236652523279,-0.00497788283973932,0.00634019589051604,0,
00:00:01.7,0.00270169717259705,-0.00157116318587214,0.0130443191155791,0,
00:00:01.704,0.000410424778237939,-0.000357556098606437,-0.0118934027850628,0,
00:00:01.708,0.0109705161303282,0.00891155004501343,-0.009509520605206491,0,
00:00:01.712,-0.0023489892482757603,0.0038086080458015203,0.0055700223892927204,0,
00:00:01.716,0.00193351251073182,-0.00453294767066836,0.00544586544856429,0,
00:00:01.72,-0.00601692125201225,-0.0030527301132679,-0.0029022220987826603,0,
00:00:01.724,-0.00256245629861951,-0.000249510747380555,-0.00206146598793566,0,
00:00:01.728,-0.00479954900220037,-0.00931580178439617,0.0067259538918733605,0,
00:00:01.732,0.00238031684421003,-0.0058841141872108,-0.00201998115517199,0,
00:00:01.736,4.8234083806164597e-05,0.0239934995770454,-0.0032258324790746,0,
00:00:01.74,0.008903075940907,0.00913786422461271,-0.0035806358791887795,0,
00:00:01.744,0.0040364032611250895,-0.018471285700798,0.00236788322217762,0,
00:00:01.748,-0.00217777187936008,-0.0122846011072397,0.0050355363637208895,0,
00:00:01.752,-0.0090869152918458,0.0045436667278409,-0.000574778649024665,0,
00:00:01.756,-0.00638938369229436,0.0038221930153667896,-0.00397596601396799,0,
00:00:01.76,0.005564237944781779,0.00888748932629824,-0.0013817488215863698,0,
00:00:01.764,0.005963536910712721,0.003883539699018,0.0033796972129494,0,
00:00:01.768,0.006467927247285839,0.000205836535315029,0.00643257284536958,0,
00:00:01.772,-0.00499432580545545,-0.00858351588249207,-0.00606048572808504,0,
00:00:01.776,-0.00575480191037059,-0.00779009144753218,-0.00275330990552902,0,
00:00:01.78,-0.00661726668477058,0.00572881940752268,-0.00026858836645260497,0,
00:00:01.784,0.00889111403375864,0.00688469409942627,-0.00314396084286273,0,
00:00:01.788,0.00372139061801136,-0.00348946126177907,0.0051530376076698295,0,
00:00:01.792,-0.00486934743821621,-0.003940763883292679,0.008195242844522,0,
00:00:01.796,-0.00277288164943457,-0.00324025633744895,-0.0075829694978892795,0,
00:00:01.8,-0.00327380513772368,0.00321118254214525,-0.0033472771756351,0,
00:00:01.804,0.0127830198034644,-0.00668452866375446,0.008691830560564991,0,
00:00:01.808,0.00370076857507229,0.0136650111526251,-0.00172512454446405,0,
00:00:01.812,-0.00570469023659825,0.0141811277717352,-0.0149354003369808,0,
00:00:01.816,-0.00391687778756022,-0.00799990352243185,0.00473467912524939,0,
00:00:01.82,-0.00460726395249367,-0.0101754879578948,0.0118783675134182,0,
00:00:01.824,0.0011287754168734,-0.0134190870448947,-0.00207490497268736,0,
00:00:01.828,0.000181126422830857,-0.00441866833716631,0.00237725349143147,0,
00:00:01.832,-0.0006455146358348429,0.008755628950893879,-0.0054718507453799204,0,
00:00:01.836,0.00606136210262775,0.0148377316072583,-0.00424408446997404,0,
00:00:01.84,-0.000932413619011641,0.00634989561513066,-0.0006338614039123059,0,
00:00:01.844,0.000927850778680295,-0.00481243990361691,-0.00222769821994007,0,
00:00:01.848,0.000142445496749133,-0.00902045797556639,0.00645870668813586,0,
00:00:01.852,-0.00294484011828899,-0.00452362792566419,0.0111684920266271,0,
00:00:01.856,0.0007815586286596951,0.0027459689881652602,-0.005208103917539121,0,
00:00:01.86,-0.00128913961816579,0.0013047808315604901,-0.0092850886285305,0,
00:00:01.864,0.00605163117870688,0.00149091263301671,-0.00153912883251905,0,
00:00:01.868,-0.0029122682753950396,0.00339508196339011,9.95755399344489e-05,0,
00:00:01.872,-0.00161663489416242,0.0048678494058549395,0.00476261740550399,0,
00:00:01.876,-0.00134605914354324,-0.00566589972004294,0.00336337625049055,0,
00:00:01.88,-0.00700688455253839,-0.00773251382634044,0.00047416778397746395,0,
00:00:01.884,0.0038510947488248296,0.00210942467674613,-0.005661545321345329,0,
00:00:01.888,0.0074987327679991705,0.0010336599079892,-0.0042385612614452796,0,
00:00:01.892,0.00296225887723267,0.00123121647629887,0.0120521215721965,0,
00:00:01.896,-0.007958821021020409,-0.00294038094580173,0.00101663020905107,0,
00:00:01.9,-0.00394378183409572,0.0046949875541031395,-0.0102311903610826,0,
00:00:01.904,0.0120619321241975,0.0054810815490782296,-0.00246283528394997,0,
00:00:01.908,0.0045960308052599395,0.00011745962547138301,0.0047041014768183205,0,
00:00:01.912,-0.0148387588560581,-0.00786941684782505,0.008108490146696571,0,
00:00:01.916,-0.0102214654907584,-0.0022867312654852897,0.00113833288196474,0,
00:00:01.92,0.008400010876357559,0.0091798035427928,-0.0085973609238863,0,
00:00:01.924,0.0155135225504637,-0.0039150812663137895,-0.0119066089391708,0,
00:00:01.928,-0.00011580334103200601,-0.0111493850126863,0.00995002314448357,0,
00:00:01.932,-0.0167397614568472,-0.00191649899352342,0.00844904594123363,0,
00:00:01.936,0.0018652820726856602,0.00818535126745701,-0.0008998084231279789,0,
00:00:01.94,0.00553330918774009,0.0120884301140904,-0.0018239886267110699,0,
00:00:01.944,0.00934680178761482,0.00135170994326472,-0.00508146872743964,0,
00:00:01.948,-0.00398769229650497,-0.006611209828406571,-0.0047145220451057,0,
00:00:01.952,-0.0109204147011042,-0.00349975074641407,0.0066962190903723205,0,
00:00:01.956,-0.00636438699439168,-0.00175396096892655,-0.004169699270278221,0,
00:00:01.96,0.0068769222125411,-0.00042210344690829505,0.00101546838413924,0,
00:00:01.964,0.00741012301295996,0.000498009263537824,0.00939263496547937,0,
00:00:01.968,0.0051986388862133,0.00296180439181626,-0.00338099058717489,0,
00:00:01.972,-0.00508326664566994,-0.00532848900184035,-4.7634093789383796e-05,0,
00:00:01.976,-0.00264021847397089,-0.00139415462035686,0.0008902635308913891,0,
00:00:01.98,0.00289437104947865,0.0112857930362225,-0.00819824822247028,0,
00:00:01.984,-0.00217349990271032,0.00244424026459455,-0.00557030644267797,0,
00:00:01.988,-0.009103663265705109,-0.00578952627256513,0.0106194205582142,0,
00:00:01.992,0.00457380106672645,-0.0073469644412398295,0.008873971179127691,0,
00:00:01.996,0.0012206021929159802,0.000191491970326751,-0.00673595955595374,0,
00:00:02,0.0038456909824162704,0.00699618924409151,-0.00656883744522929,0,
00:00:02.004,0.00833112932741642,0.0006889617652632299,-0.00173174240626395,0,
00:00:02.008,-0.00419518863782287,-0.00620537158101797,0.00211208336986601,0,
00:00:02.012,-0.019013486802577997,-0.00230374955572188,0.00741471443325281,0,
00:00:02.016,0.00592841301113367,0.000100444085546769,0.00042936357203871,0,
00:00:02.02,0.00957048870623112,0.00988160818815231,-0.00259307352825999,0,
00:00:02.024,0.008891246281564241,0.00454056309536099,-0.0109578864648938,0,
00:00:02.028,0.00357677368447185,0.00186191219836473,0.00867452286183834,0,
00:00:02.032,-0.0189476907253265,-0.017588073387742,0.00265298504382372,0,
00:00:02.036,-0.0106424689292908,-0.00191680493298918,-9.26626817090437e-05,0,
00:00:02.04,0.008498073555529121,0.008568219840526579,0.0010784165933728199,0,
00:00:02.044,0.00510589359328151,-0.00330424774438143,-0.007065677549690009,0,
00:00:02.048,0.0014298886526376,0.00110057438723743,0.0018006584141403398,0,
00:00:02.052,0.00157565553672612,-0.0013095873873680802,0.00925480294972658,0,
00:00:02.056,0.0076216002926230405,0.00818302016705275,-0.0024840901605784897,0,
00:00:02.06,0.00900492258369923,0.018394498154521,-0.00526398234069347,0,
00:00:02.064,-0.0194565076380968,-0.0180015899240971,-0.00750645669177175,0,
00:00:02.068,-0.0133197531104088,-0.0205865446478128,-0.00261605205014348,0,
00:00:02.072,0.0042138984426856,0.00014918454689905,0.0171296130865812,0,
00:00:02.076,0.0105271954089403,0.0175626669079065,0.0015137561131268699,0,
00:00:02.08,0.00386711396276951,0.00950856041163206,-0.00874895695596933,0,
00:00:02.084,-0.000189043043064885,-0.0100418040528893,-0.000734615139663219,0,
00:00:02.088,-0.00190340040717274,-0.0119055444374681,-0.00306853372603655,0,
00:00:02.092,-0.00398696307092905,-0.0028409711085259897,0.0108561478555202,0,
00:00:02.096,-0.00324257859028876,0.0173777267336845,-0.000594382407143712,0,
00:00:02.1,0.009615546092391009,0.0203811675310135,-0.0110617578029633,0,
00:00:02.104,0.008269194513559341,-0.00959454569965601,-0.000211093414691277,0,
00:00:02.108,-0.00901065673679113,-0.0266137961298227,0.0035159117542207198,0,
00:00:02.112,-0.0215853359550238,-0.00450371811166406,0.00108965137042105,0,
00:00:02.116,0.00664529018104076,0.00261541199870408,0.00119949225336313,0,
00:00:02.12,0.0120160728693008,0.0106982383877039,0.0053046974353492295,0,
00:00:02.124,0.007050661835819479,0.017077824100852,-0.00133238325361162,0,
00:00:02.128,0.00035342198680155,-0.0069916369393467894,-0.00547697860747576,0,
00:00:02.132,-0.00996240042150021,-0.0107638565823436,-0.000620833598077297,0,
00:00:02.136,0.0015585959190502802,0.00278208823874593,-0.00330422772094607,0,
00:00:02.14,0.0042830831371247794,0.00534949777647853,0.00271980045363307,0,
00:00:02.144,0.0042886664159596,0.0066355848684907,0.00151345273479819,0,
00:00:02.148,-0.0090269548818469,-0.0134239196777344,0.00181459123268723,0,
00:00:02.152,-0.00871309638023376,-0.00268702348694205,0.0034927278757095302,0,
00:00:02.156,0.0036452594213187703,-0.00535349920392036,0.00878999941051006,0,
00:00:02.16,0.005507901776582,0.00543922930955887,-0.00796474888920784,0,
00:00:02.164,-0.00106022751424462,0.00198490545153618,-0.0154798850417137,0,
00:00:02.168,0.00206230371259153,0.00681925239041448,-0.0023187166079878803,0,
00:00:02.172,-0.000372182694263756,-0.00548422429710627,0.0122200129553676,0,
00:00:02.176,-0.00403976766392589,-0.000123051795526408,0.00370825547724962,0,
00:00:02.18,0.0107699213549495,0.0128472102805972,-0.0063834092579782,0,
00:00:02.184,0.0040293042548000795,-0.00355560355819762,0.000340102356858552,0,
00:00:02.188,-0.0105425883084536,-0.0054098442196846,0.0158216636627913,0,
00:00:02.192,-0.00137570314109325,-0.0110707031562924,-0.00276123732328415,0,
00:00:02.196,-0.00865143723785877,-0.0026567156892269897,-0.012931739911437,0,
00:00:02.2,-0.00113375543151051,0.0153347458690405,-0.00699320621788502,0,
00:00:02.204,0.0118477856740355,-0.00278177042491734,-0.000978604541160166,0,
00:00:02.208,0.00523854233324528,0.00280163530260324,0.009423829615116121,0,
00:00:02.212,-0.00045944668818265194,0.000377059361198917,0.0152614219114184,0,
00:00:02.216,-0.00324570527300239,-0.00235616462305188,-0.00669788336381316,0,
00:00:02.22,-0.00118778378237039,-0.00918974168598652,-0.0135679356753826,0,
00:00:02.224,-0.00165602110791951,0.00204767426475883,-0.00268043507821858,0,
00:00:02.228,-0.00575939193367958,0.0067720925435423894,0.008096754550933841,0,
00:00:02.232,-0.000946326937992126,-0.0030069574713707,0.0076364637352526205,0,
00:00:02.236,0.0054540061391890006,0.0070136939175427,-0.00580797623842955,0,
00:00:02.24,0.00655079772695899,-0.0041268151253461794,-0.00681889383122325,0,
00:00:02.244,-0.000760092516429722,-0.00800934806466103,0.00578970834612846,0,
00:00:02.248,-0.0009269697475247089,0.0116086145862937,0.000186563600436784,0,
00:00:02.252,-0.0126976938918233,0.00116549839731306,0.00590597605332732,0,
00:00:02.256,0.00952830631285906,-0.0018830131739378,-0.00565140135586262,0,
00:00:02.26,0.00699069816619158,-0.00624493137001991,-0.004388243425637479,0,
00:00:02.264,-0.00681516714394093,-0.0120164584368467,0.0018647596007213,0,
00:00:02.268,-0.00317769381217659,0.00809413380920887,0.00877816323190928,0,
00:00:02.272,-0.00219666608609259,0.00708825746551156,-0.00267315842211246,0,
00:00:02.276,0.00547889154404402,0.0014109701151028302,-0.0113031519576907,0,
00:00:02.28,0.00330089381895959,-0.0022493174765259,-0.00537976110354066,0,
00:00:02.284,-0.00462972884997725,-0.0006501200841739769,0.0107021667063236,0,
00:00:02.288,-0.000607989670243114,0.005057451315224171,0.0108839189633727,0,
00:00:02.292,-0.00953916739672422,0.00338394637219608,-0.00013746738841291498,0,
00:00:02.296,0.0169624742120504,0.0036317692138254603,-0.0029420990031212603,0,
00:00:02.3,0.00470594177022576,-0.013432465493679,-0.00696977088227868,0,
00:00:02.304,-0.00615180190652609,-0.0135401515290141,-0.00417155027389526,0,
00:00:02.308,-0.0108919739723206,0.0035517462529242,-0.00214363262057304,0,
00:00:02.312,-0.00330493785440922,0.0108462050557137,0.00445342529565096,0,
00:00:02.316,0.0120093263685703,0.00477441633120179,0.006572722923010589,0,
00:00:02.32,0.00844413042068481,-0.00355870951898396,-0.00416979379951954,0,
00:00:02.324,-0.00804912578314543,0.00231461366638541,0.00595346139743924,0,
00:00:02.328,-0.0076778340153396095,0.00322418264113367,-0.00255390093661845,0,
00:00:02.332,-0.00417996197938919,-0.00314757833257318,-0.0037182732485234703,0,
00:00:02.336,0.00439616339281201,-0.00180295773316175,-0.0018570058746263398,0,
00:00:02.34,0.005528804380446671,-0.0039811851456761395,0.000262150453636423,0,
00:00:02.344,0.00512039754539728,-0.00149439240340143,-0.000691611727233976,0,
00:00:02.348,-0.008158802054822441,0.00119937339331955,0.00128867011517286,0,
00:00:02.352,0.00458908313885331,-0.00389582314528525,0.0126662757247686,0,
00:00:02.356,-0.00135553162544966,0.00577203929424286,-0.00814028363674879,0,
00:00:02.36,-0.00168056390248239,0.0159823503345251,-0.009842783212661741,0,
00:00:02.364,0.009946520440280441,-0.00393245695158839,0.00457165762782097,0,
00:00:02.368,-0.00310463504865766,-0.0179315507411957,0.000773651583585888,0,
00:00:02.372,-0.0195879824459553,-0.00528831128031015,0.007293060421943659,0,
00:00:02.376,0.00265892082825303,0.0149362646043301,-0.000294698809739202,0,
00:00:02.38,0.0107992915436625,0.00398919265717268,-0.00572945782914758,0,
00:00:02.384,0.0064580119214952,-0.00450826436281204,-0.00974047370254993,0,
00:00:02.388,-0.00407739682123065,-0.0062746251933276705,0.00393961649388075,0,
00:00:02.392,-0.00591938383877277,0.0007563930121250451,0.0132624860852957,0,
00:00:02.396,0.00316696357913315,0.0007500402862206099,0.000589323171880096,0,
00:00:02.4,0.007121375761926171,0.0020547383464872802,-0.00847544521093369,0,
00:00:02.404,-0.00156746653374285,0.008397142402827741,-0.00028501806082204,0,
00:00:02.408,-0.00891785137355328,0.00144885561894625,0.00336192129179835,0,
00:00:02.412,0.000153576416778378,-0.0130647448822856,0.00277813500724733,0,
00:00:02.416,-0.00203107949346304,-0.0065243095159530605,-0.00791129842400551,0,
00:00:02.42,0.00331587297841907,0.00865021906793118,-0.00412370031699538,0,
00:00:02.424,0.00560016464442015,0.000640260288491845,0.0016276329988613699,0,
00:00:02.428,-0.004548319615423679,0.004828729201108221,0.0126761849969625,0,
00:00:02.432,0.0019128875574097,0.00596042722463608,2.55003869824577e-05,0,
00:00:02.436,-0.00036570394877344397,-0.0035496174823492796,-0.0048718051984906205,0,
00:00:02.44,0.00388622377067804,-0.008327627554535871,-0.0107012214139104,0,
00:00:02.444,0.000350815913407132,-0.00441702967509627,-0.0021420840639621,0,
00:00:02.448,-0.00697701424360275,-0.00557547248899937,0.00735470978543162,0,
00:00:02.452,-0.00354579603299499,0.007272238843142991,0.0175064094364643,0,
00:00:02.456,0.00327394623309374,0.0103510916233063,0.00128953601233661,0,
00:00:02.46,0.00980742089450359,0.008179944008588791,-0.0194133277982473,0,
00:00:02.464,-0.000250749057158828,-0.00211180397309363,-0.0107299508526921,0,
00:00:02.468,-0.00724510289728642,-0.0122500183060765,0.00417662132531405,0,
00:00:02.472,-0.00921218283474445,-0.0140903294086456,0.0212611891329288,0,
00:00:02.476,-0.015317028388380999,0.00342452665790915,0.0030345502309501197,0,
00:00:02.48,0.0339259840548038,0.0112046515569091,-0.0178828146308661,0,
00:00:02.484,0.0146467033773661,0.0113841211423278,-0.00330085540190339,0,
00:00:02.488,-0.0224959515035152,-0.00523715931922197,0.0029159435071051103,0,
00:00:02.492,-0.00920641981065273,-0.0088483989238739,0.0018122100736945898,0,
00:00:02.496,0.00465774955227971,0.00725578470155597,0.00018945912597701002,0,
00:00:02.5,0.00696674175560474,0.000653376511763781,-0.00230918568558991,0,
00:00:02.504,-0.0006249063299037519,-0.0120315970852971,0.0084095848724246,0,
00:00:02.508,-0.00925458315759897,-0.00447600428014994,0.00685832509770989,0,
00:00:02.512,0.00156208279076964,0.0104710012674332,-0.0011960620759055,0,
00:00:02.516,0.00638370588421822,0.00151052756700665,-0.0123490625992417,0,
00:00:02.52,0.0030404608696699103,0.004724520258605479,0.00192378018982708,0,
00:00:02.524,-0.00308846728876233,-0.000928290071897209,-0.00421488704159856,0,
00:00:02.528,-0.00506132794544101,-0.000421090255258605,0.00322751235216856,0,
00:00:02.532,-0.0031409366056323103,0.00019333873933646798,-0.00325228460133076,0,
00:00:02.536,0.00629843259230256,-0.0043284273706376605,0.0025244485586881603,0,
00:00:02.54,0.0109815560281277,-0.009429658763110641,-0.00028902603662572796,0,
00:00:02.544,-0.0033515929244458697,0.011696676723658999,0.0125465486198664,0,
00:00:02.548,-0.0113704148679972,-0.00360096944496036,0.00165096495766193,0,
00:00:02.552,0.0010237431852147,0.00163688766770065,-0.0119816735386848,0,
00:00:02.556,-0.0017873818287625898,0.0058483998291194396,-0.00735004292801023,0,
00:00:02.56,0.00260413251817226,-0.00577163323760033,0.0024999666493386,0,
00:00:02.564,-0.0056816916912794104,-0.0042328997515142,0.000762662210036069,0,
00:00:02.568,0.004865650553256271,0.00424415711313486,0.0114666381850839,0,
00:00:02.572,0.0144010549411178,0.0029006062541157,0.00840123742818832,0,
00:00:02.576,-0.0008571729413233701,-0.00235143816098571,-0.0160971768200397,0,
00:00:02.58,-0.0154211185872555,-0.00628077983856201,-0.00428686989471316,0,
00:00:02.584,0.00552679598331451,0.00563068361952901,-0.00105526088736951,0,
00:00:02.588,-0.00435916893184185,0.00219788262620568,0.0044872276484966295,0,
00:00:02.592,-0.00200078287161887,0.00405738409608603,0.00159752822946757,0,
00:00:02.596,0.00405797269195318,-0.007110413629561659,-0.00317754363641143,0,
00:00:02.6,0.0120103433728218,-0.000301709282211959,0.00042611506069079,0,
00:00:02.604,-0.006697041913866999,-0.0033189402893185603,0.00946007575839758,0,
00:00:02.608,-0.007490722928196191,0.000114111295260955,0.00136609841138124,0,
00:00:02.612,-0.00660110637545586,0.000819416891317815,-0.0034943928476423,0,
00:00:02.616,0.0038319691084325296,0.003062738571316,-0.00025234644999727596,0,
00:00:02.62,0.0150280399248004,0.00944239366799593,-0.0108640417456627,0,
00:00:02.624,0.000865090754814446,0.00187228352297097,0.0022820164449513,0,
00:00:02.628,-0.00543261878192425,-0.0029640628490597,0.0062643876299262,0,
00:00:02.632,-0.00977063644677401,-0.0129140131175518,0.0063890628516674,0,
00:00:02.636,-0.0009315260103903711,-0.008317584171891209,-0.0035373296122998,0,
00:00:02.64,0.00341955246403813,2.9842345611541498e-05,-0.0144121237099171,0,
00:00:02.644,0.00179069919977337,0.0118935462087393,-0.00222631962969899,0,
00:00:02.648,0.00830661784857512,0.0236517935991287,0.0142230372875929,0,
00:00:02.652,-0.00216661090962589,-0.007626791018992659,0.00166617904324085,0,
00:00:02.656,-0.0021800196263939103,-0.0228970218449831,-0.00186915858648717,0,
00:00:02.66,-0.0045903786085546,-0.00138481124304235,0.000372757989680395,0,
00:00:02.664,0.00012627596152015,0.0011918573873117599,-0.000514629180543125,0,
00:00:02.668,-0.00516195734962821,-0.00154042616486549,0.000728947517927736,0,
00:00:02.672,0.00664686970412731,0.0173388179391623,-0.00117275782395154,0,
00:00:02.676,0.0113712232559919,0.0145594337955117,-0.00627236859872937,0,
00:00:02.68,-0.00753536447882652,-0.0159278307110071,-0.0058986353687942,0,
00:00:02.684,-0.00974045228213072,-0.0166114997118711,0.0046833623200655,0,
00:00:02.688,0.00194826850201935,-0.00180990470107645,0.0157040767371655,0,
00:00:02.692,0.00208262819796801,0.0062803146429359896,-0.0010047755204141099,0,
00:00:02.696,0.0044275945983827105,0.0136010274291039,-0.00993429590016603,0,
00:00:02.7,-0.00026237964630127,0.00045831585885025593,-0.0026764310896396602,0,
00:00:02.704,0.00305974506773055,-0.00650438806042075,0.0058087962679565,0,
00:00:02.708,-0.00874112173914909,-0.004352683667093521,0.00296010076999664,0,
00:00:02.712,-0.00149540975689888,0.00163128576241434,-0.00542109459638596,0,
00:00:02.716,0.00923736114054918,0.0041328035295009604,-0.00335582555271685,0,
00:00:02.72,0.0019789955113083102,-0.0012396366801112901,0.0005100733251310889,0,
00:00:02.724,-0.00675116665661335,-0.00414989655837417,0.00466985395178199,0,
00:00:02.728,-0.0038220044225454296,-0.00112283998169005,0.00256282114423811,0,
00:00:02.732,0.00908885151147842,0.0142079489305615,0.00994447898119688,0,
00:00:02.736,0.0055834325030446105,-0.0051247663795948,-0.009824151173233991,0,
00:00:02.74,-0.0198588129132986,-0.0162398386746645,-0.0225185602903366,0,
00:00:02.744,0.0023197450209409,-0.00218325783498585,0.00639569945633411,0,
00:00:02.748,0.00298370816744864,0.0050269328057766,0.014442278072238001,0,
00:00:02.752,0.008399358950555321,0.0188926123082638,0.0077055506408214595,0,
00:00:02.756,0.00783681776374578,0.00288606365211308,-0.0028460593894124,0,
00:00:02.76,-0.005690933205187321,-0.0039057782851159603,-0.0095638008788228,0,
00:00:02.764,-0.0116088017821312,-0.0054230415262281895,0.00223343167454004,0,
00:00:02.768,3.09946917695925e-05,-0.0103718861937523,0.0023416392505168897,0,
00:00:02.772,0.00350496335886419,-0.00639059534296393,-0.00434945011511445,0,
00:00:02.776,0.00294021843001246,0.0043592182919383,0.0022393842227757,0,
00:00:02.78,-0.000955535739194602,0.00914668012410402,-0.000394468253944069,0,
00:00:02.784,0.00366889522410929,0.00292122783139348,0.00173487432766706,0,
00:00:02.788,-0.005491992458701129,-0.00453427201136947,0.00245359679684043,0,
00:00:02.792,-0.00045988897909410303,0.00229334854520857,-0.00500020291656256,0,
00:00:02.796,0.00179065577685833,0.00375118548981845,-0.0092004518955946,0,
00:00:02.8,0.00596205005422235,0.00160336797125638,0.00243338523432612,0,
00:00:02.804,-0.0031766970641911,-0.009536185301840309,0.0114670060575008,0,
00:00:02.808,-0.00149584980681539,-0.009474948048591609,0.0103910323232412,0,
00:00:02.812,-0.0093903848901391,0.00514309527352452,0.00120489089749753,0,
00:00:02.816,0.00515851611271501,0.0120101692155004,-0.0163212679326534,0,
00:00:02.82,0.0146549725905061,0.00274390424601734,-0.0103491600602865,0,
00:00:02.824,-0.00323838670738041,0.0012269532307982401,-0.0019433322595432399,0,
00:00:02.828,-0.009670033119618891,-0.00627508806064725,0.0146058285608888,0,
00:00:02.832,-0.00928361341357231,-0.0124724321067333,0.00886728800833225,0,
00:00:02.836,0.008860461413860321,0.00321383844129741,-0.00889485515654087,0,
00:00:02.84,0.00527478381991386,0.0037255119532346704,-0.00626149727031589,0,
00:00:02.844,-0.00112584442831576,-0.00514472415670753,0.0085712131112814,0,
00:00:02.848,-0.0038659435231238604,0.007514792494475841,-0.00187135429587215,0,
00:00:02.852,0.00126659509260207,0.0149058531969786,0.00986490305513144,0,
00:00:02.856,0.0081392340362072,0.0059490823186934,-0.010330768302083,0,
00:00:02.86,-0.00306750694289804,-0.0149373225867748,-0.0107867196202278,0,
00:00:02.864,-0.0114709669724107,-0.026729529723525002,-0.00133062468376011,0,
00:00:02.868,0.00288475467823446,-0.00794306304305792,0.007758957799524071,0,
00:00:02.872,0.00488224159926176,0.0287917200475931,0.0112645383924246,0,
00:00:02.876,0.00026780623011291,0.0214464589953423,-0.00329152541235089,0,
00:00:02.88,0.00362730282358825,-0.011792566627264,-0.00878839381039143,0,
00:00:02.884,-0.0103806983679533,-0.0151725150644779,0.00830698385834694,0,
00:00:02.888,0.0048346403054893,0.0015535507118329401,0.00630999961867929,0,
00:00:02.892,0.0069157974794507,0.00869684759527445,-0.0108930543065071,0,
00:00:02.896,-0.00541378650814295,0.00048298091860488095,-0.0055201668292284,0,
00:00:02.9,4.783409167430359e-06,-0.00766334636136889,0.000143836383358575,0,
00:00:02.904,0.00230072112753987,-0.0016837988514453199,-0.000968248641584069,0,
00:00:02.908,-0.00874578487128019,-0.000481046561617404,0.009397394023835659,0,
00:00:02.912,0.0013979559298604699,0.000207674849661998,0.0031903050839901,0,
00:00:02.916,0.008316295221447941,0.00723036844283342,-0.0032463984098285398,0,
00:00:02.92,0.00316274934448302,0.0121977124363184,-0.00296958815306425,0,
00:00:02.924,-0.00866858661174774,-0.0109387980774045,-0.00299651199020445,0,
00:00:02.928,-0.00895575806498528,-0.0164089910686016,0.00882577151060104,0,
00:00:02.932,0.009379215538501741,0.00550560560077429,-0.00320779765024781,0,
00:00:02.936,0.00982578378170729,0.0126523254439235,-0.00817333068698645,0,
00:00:02.94,0.00113828352186829,0.00230241054669023,-0.0035339139867574,0,
00:00:02.944,-0.00932314060628414,-0.00796651188284159,0.0124456994235516,0,
00:00:02.948,-0.0105893649160862,-0.009308627806603909,0.0094234449788928,0,
00:00:02.952,0.00130413833539933,0.00819497369229794,-0.0032323992345482102,0,
00:00:02.956,0.0105784824118018,0.00871251989156008,-0.00754649564623833,0,
00:00:02.96,0.0059817633591592295,-0.00348110985942185,-0.0120735159143806,0,
00:00:02.964,-0.00273967930115759,-0.00931210163980722,0.00823123380541801,0,
00:00:02.968,-0.0043722135014832,0.00345340021885931,0.0024819129612296802,0,
00:00:02.972,-0.000622729188762605,0.0058233342133462394,-0.00399884628131986,0,
00:00:02.976,-0.0044573522172868295,-0.00956282112747431,-0.00265629286877811,0,
00:00:02.98,0.00348674296401441,0.00682701310142875,0.00693349493667483,0,
00:00:02.984,0.00506130373105407,0.004562051966786379,-0.0009670584695413711,0,
00:00:02.988,-0.0160661358386278,-0.007326606195420029,0.00860661081969738,0,
00:00:02.992,0.017129547894001004,-0.00227867905050516,0.00235210102982819,0,
00:00:02.996,0.00383030879311264,-0.00303350947797298,-0.00855161529034376,0,
00:00:03,-0.00372775481082499,0.00410432834178209,-0.00668453145772219,0,
00:00:03.004,-0.0157783199101686,0.00902464427053928,0.00484051462262869,0,
00:00:03.008,0.0022719909902662,0.000550141034182161,0.000695448834449053,0,
00:00:03.012,0.0136868571862578,-0.0118837095797062,-0.0032916795462369897,0,
00:00:03.016,0.0036937338300049296,0.0102259293198586,0.000795668398495764,0,
00:00:03.02,0.000743824639357626,0.0109393708407879,-0.00485552381724119,0,
00:00:03.024,-0.0156272519379854,-0.0182512309402227,0.00252763950265944,0,
00:00:03.028,-0.00738356169313192,-0.0168309789150953,0.00687333242967725,0,
00:00:03.032,0.009601644240319729,0.00219964911229908,0.00759577937424183,0,
00:00:03.036,0.00641110446304083,0.0135564692318439,-0.00486184330657125,0,
00:00:03.04,0.00625937571749091,0.0150276059284806,-0.0147520862519741,0,
00:00:03.044,-0.00503168255090714,0.00352443009614944,0.004532331135123971,0,
00:00:03.048,-0.00978023000061512,-0.0163680724799633,0.008816288784146309,0,
00:00:03.052,0.00366577506065369,-0.00513708870857954,0.00296080647967756,0,
00:00:03.056,0.00415457412600517,0.0100236060097814,-0.008835530839860441,0,
00:00:03.06,0.00307188928127289,0.0104952463880181,-0.00479575246572495,0,
00:00:03.064,-0.00550639629364014,-0.0154332686215639,0.00552949821576476,0,
00:00:03.068,-0.0058659240603447,-0.0112874004989862,0.00455307122319937,0,
00:00:03.072,-0.00416919495910406,-0.000258975895121694,0.0007049771957099441,0,
00:00:03.076,0.0162327028810978,0.0109524205327034,9.20794627745636e-05,0,
00:00:03.08,0.00385262607596815,0.00780929159373045,-0.00450276490300894,0,
00:00:03.084,-0.00581315858289599,-0.00496757868677378,-0.0052894218824803794,0,
00:00:03.088,-0.00575323728844523,0.000651349662803113,0.007816418074071409,0,
00:00:03.092,-0.004352954681962729,0.000621056940872222,-0.00476731499657035,0,
00:00:03.096,-0.00130032561719418,-0.0048426422290504,-0.0069494405761361105,0,
00:00:03.1,0.0161480084061623,0.00670651812106371,0.00550912693142891,0,
00:00:03.104,-0.00453995540738106,-0.0060040419921279,0.011021719314158,0,
00:00:03.108,-0.00834832061082125,0.00261522154323757,-0.000682672776747495,0,
00:00:03.112,-0.00216029677540064,-0.0005332828150130809,-0.00609346106648445,0,
00:00:03.116,0.01357517298311,0.00304048648104072,0.00705281086266041,0,
00:00:03.12,0.00716986507177353,-0.00655905995517969,-0.00745240598917007,0,
00:00:03.124,-0.0192099548876286,-0.0052666463889181605,0.000279368861811236,0,
00:00:03.128,-0.00428466312587261,0.0016656520310789301,-0.0042905742302537,0,
00:00:03.132,0.00344119989313185,0.005503723397850989,-0.0056842090561986,0,
00:00:03.136,0.00519293732941151,0.0111762322485447,-0.00046547967940568897,0,
00:00:03.14,0.0014005424454808198,0.00852610915899277,0.0081974845379591,0,
00:00:03.144,0.000712886510882527,-0.009411287494003771,0.0137664340436459,0,
00:00:03.148,0.00249079684726894,-0.0186581835150719,0.00518225645646453,0,
00:00:03.152,-0.00202615768648684,-0.0156862810254097,-0.0103399595245719,0,
00:00:03.156,0.0061659412458539,0.0165797639638186,-0.0148056298494339,0,
00:00:03.16,-0.00461652223020792,0.0328868106007576,0.00133714312687516,0,
00:00:03.164,-0.0102714616805315,-0.0145034426823258,0.00462875375524163,0,
00:00:03.168,-0.005370300728827711,-0.0233464911580086,0.0009474002872593699,0,
00:00:03.172,0.00764480652287602,0.00036234111757949,0.00471444753929973,0,
00:00:03.176,0.0118942921981215,0.0156081402674317,-0.00732423085719347,0,
00:00:03.18,-0.00294417212717235,0.008719537407159809,0.0034309856127947604,0,
00:00:03.184,-0.00464255781844258,-0.00960378255695105,0.0033238965552300197,0,
00:00:03.188,-0.00409048097208142,-0.0111124590039253,-0.0017105005681514699,0,
00:00:03.192,0.00460490863770247,0.00799574889242649,0.00025065403315238703,0,
00:00:03.196,0.0054185097105801105,0.0115764020010829,-0.006641910877078771,0,
00:00:03.2,2.8772376026609e-05,-0.0025951720308512397,0.0007632744964212179,0,
00:00:03.204,-0.00370331481099129,-0.00646301917731762,0.0100662661716342,0,
00:00:03.208,-0.00815712288022041,-0.0046056713908910795,-0.000546460971236229,0,
00:00:03.212,-0.00227617844939232,0.000990087282843888,-0.0036569864023476796,0,
00:00:03.216,0.0074597499333322,0.0016439986648038,-0.00286030722782016,0,
00:00:03.22,0.00527482340112329,-0.00120857683941722,-0.00917987991124392,0,
00:00:03.224,-0.0036411767359823,-0.00412237411364913,0.0106597784906626,0,
00:00:03.228,-0.0006582270725630219,0.00531654385849833,0.00792542565613985,0,
00:00:03.232,-0.0018760135862976302,0.00486611062660813,0.000174215689185075,0,
00:00:03.236,-0.00202253879979253,0.0033367578871548197,-0.0129937427118421,0,
00:00:03.24,0.00550404610112309,-0.00780352111905813,-0.00345768360421062,0,
00:00:03.244,0.0032394521404057698,-0.00034091388806700696,0.0138658965006471,0,
00:00:03.248,-0.00691285729408264,0.0114925689995289,-0.000327978661516681,0,
00:00:03.252,0.00727985659614205,-0.0155884437263012,-0.0085222264751792,0,
00:00:03.256,0.0024687848053872603,-0.0066701523028314105,-0.00347249745391309,0,
00:00:03.26,-0.0038074597250670203,0.00955414492636919,0.00234901485964656,0,
00:00:03.264,-0.0161187127232552,0.00776638323441148,0.0108097037300467,0,
00:00:03.268,0.00195323163643479,0.00967609509825706,0.0037666738498956,0,
00:00:03.272,0.007550427224487071,-0.0151905920356512,-0.00574673898518085,0,
00:00:03.276,0.00390982488170266,-0.019209636375308,-0.0105603728443384,0,
00:00:03.28,-0.000170812563737854,0.0117834145203233,-0.00122066587209702,0,
00:00:03.284,0.0022511621937155698,0.0110689802095294,0.00365394074469805,0,
00:00:03.288,0.00906660780310631,0.00247149798087776,0.0105299158021808,0,
00:00:03.292,-0.00698046246543527,0.00887994840741158,-0.00133108929730952,0,
00:00:03.296,-0.0105315828695893,-0.00623830175027251,-0.0107975983992219,0,
00:00:03.3,-0.0019186831777915398,-0.0141267823055387,0.00469794915989041,0,
00:00:03.304,0.00258366763591766,-0.00874925684183836,9.68940075836144e-05,0,
00:00:03.308,-0.000570744974538684,0.00204615690745413,0.0040304670110344895,0,
00:00:03.312,0.00433677854016423,0.00799791794270277,-0.0075825708918273406,0,
00:00:03.316,0.00805728416889906,0.00970454979687929,-0.0027403726708144,0,
00:00:03.32,0.0035787320230156205,0.0037498427554965,0.009417165070772171,0,
00:00:03.324,-0.012343829497694999,0.00202325079590082,0.009570492431521421,0,
00:00:03.328,-0.0033094459213316397,-0.00452505378052592,-0.00511329062283039,0,
00:00:03.332,-0.00513878837227821,-0.0175667069852352,-0.00791693478822708,0,
00:00:03.336,0.0124246049672365,0.00250083371065557,-0.0109300464391708,0,
00:00:03.34,0.00696590868756175,0.00668466044589877,0.005613171495497229,0,
00:00:03.344,-0.0101237520575523,-0.00406220788136125,0.00950135290622711,0,
00:00:03.348,-0.00448694778606296,0.00647081015631557,-0.00253689498640597,0,
00:00:03.352,0.007041727192699909,0.0111070675775409,-0.0023343125358223898,0,
00:00:03.356,0.00139505020342767,0.000547800620552152,-0.00171720457728952,0,
00:00:03.36,-0.00606206385418773,-0.0178883522748947,0.0120761375874281,0,
00:00:03.364,0.00356836873106658,-0.00490344874560833,0.00149766379036009,0,
00:00:03.368,-4.32845699833706e-05,0.00318632577545941,-0.00983117707073689,0,
00:00:03.372,-0.0115877380594611,0.009792379103600979,-0.0111457547172904,0,
00:00:03.376,0.00899466779083014,0.00440590688958764,-0.0030665684025734698,0,
00:00:03.38,0.00605053082108498,-0.0058716274797916395,0.0167359281331301,0,
00:00:03.384,0.0033728561829775602,-0.0108239976689219,0.0117456475272775,0,
00:00:03.388,-0.014353190548718002,-0.00919965375214815,-0.00562021462246776,0,
00:00:03.392,0.013603831641376003,0.0270532928407192,-0.0113435974344611,0,
00:00:03.396,0.00217356230132282,0.0210722908377647,-0.00797425117343664,0,
00:00:03.4,-0.00944409985095263,-0.0124348560348153,-0.00138609739951789,0,
00:00:03.404,-0.008738484233617779,-0.0273726899176836,0.00993931666016579,0,
00:00:03.408,-0.00267231767065823,-0.009863432496786121,0.0160911213606596,0,
00:00:03.412,0.0029447942506521897,0.009402960538864141,-0.00406162161380053,0,
00:00:03.416,0.0115875452756882,0.007268348243087529,-0.0196178629994392,0,
00:00:03.42,0.0215235128998756,0.010063361376524001,0.00971372611820698,0,
00:00:03.424,-0.00988536234945059,-0.00279894424602389,0.00298964278772473,0,
00:00:03.428,-0.024226900190115003,0.0030145391356199997,-0.00374801713041961,0,
00:00:03.432,-0.0036498601548373704,0.0037164390087127703,-0.00715155946090817,0,
00:00:03.436,0.00581766944378614,-0.0118334572762251,0.0016170518938452,0,
00:00:03.44,0.00721210008487105,-0.00552363693714142,0.0110819451510906,0,
00:00:03.444,0.0043927482329309,-0.00569098349660635,-0.0040622074156999605,0,
00:00:03.448,0.00489909434691072,0.00952541921287775,-0.00161524547729641,0,
00:00:03.452,-0.00148137914948165,0.0126992585137486,-0.006050942000001671,0,
00:00:03.456,-0.0199490655213594,0.0026680384762585198,0.00877608451992273,0,
00:00:03.46,0.00455944472923875,-0.011797433719039,0.00140736880712211,0,
00:00:03.464,0.00898898113518953,-0.007942985743284229,0.00710673676803708,0,
00:00:03.468,0.00290470640175045,-0.00450559519231319,0.000946865708101541,0,
00:00:03.472,-0.00025983271189034,0.0124241663143039,-0.0153555516153574,0,
00:00:03.476,0.00470242137089372,0.0166318453848362,-0.0153682082891464,0,
00:00:03.48,-0.00748196383938193,-0.00789972115308046,0.0028338602278381603,0,
00:00:03.484,0.000336692057317123,-0.0157417822629213,0.0157429911196232,0,
00:00:03.488,-0.00880170986056328,-0.008394176140427591,0.0149500491097569,0,
00:00:03.492,-0.00436510005965829,0.00757881067693233,-0.00658526737242937,0,
00:00:03.496,0.0188969876617193,0.0134805729612708,-0.00209409487433732,0,
00:00:03.5,0.00245288759469986,-0.00121895794291049,-0.00744577264413238,0,
00:00:03.504,-0.00920255295932293,-0.0016078983899205901,0.000165799880051054,0,
00:00:03.508,-0.00593181839212775,0.0022738657426089,0.00290289102122188,0,
00:00:03.512,0.00215351255610585,-0.00548861362040043,-0.004060779698193071,0,
00:00:03.516,0.0036613792181015,-0.0061494936235249,-0.0042512710206210605,0,
00:00:03.52,0.000104148515674751,0.00157893099822104,0.00309608899988234,0,
00:00:03.524,8.75218393048272e-05,0.0016632690094411401,0.0106123732402921,0,
00:00:03.528,0.00464447401463985,0.00471323356032372,-0.00128609873354435,0,
00:00:03.532,-0.0055785821750760104,0.004484808072447779,-0.0108947223052382,0,
00:00:03.536,0.00913442019373178,-0.00047639416879974295,0.004554114770144221,0,
00:00:03.54,-0.0109834279865026,-0.00576709723100066,0.00415705004706979,0,
00:00:03.544,-0.0007071590516716241,-0.00804742611944675,-0.00822753552347422,0,
00:00:03.548,-0.00447439169511199,0.0056288172490894794,0.00539766764268279,0,
00:00:03.552,0.00309821288101375,0.00114420067984611,0.006029287353158001,0,
00:00:03.556,0.0092528909444809,0.0030457261018455,-0.00665172189474106,0,
00:00:03.56,0.00153638771735132,0.00544382072985172,-0.00489279115572572,0,
00:00:03.564,-0.0005024568527005611,-0.000531757134012878,8.12508824310498e-06,0,
00:00:03.568,-0.0053301895968616,-0.013034732080996,0.0030296018812805397,0,
00:00:03.572,-0.00585765251889825,-0.0052562584169209,0.00531422439962626,0,
00:00:03.576,0.0034501664340496102,0.00588003685697913,-0.00649828277528286,0,
00:00:03.58,-0.00077900558244437,0.0115966657176614,0.00418005837127566,0,
00:00:03.584,0.000623122730758041,0.00222538062371314,0.00975951831787825,0,
00:00:03.588,0.0061820512637496,-0.00320407142862678,-0.0038706206250935797,0,
00:00:03.592,7.28794038877822e-05,-0.00651403004303575,-0.00932247936725616,0,
00:00:03.596,0.0018080878071486898,0.00730253662914038,-0.00695724133402109,0,
00:00:03.6,-0.00620597880333662,-0.0069808065891265895,0.000680942088365555,0,
00:00:03.604,-0.00849631987512112,-0.0116662820801139,0.00742399133741856,0,
00:00:03.608,0.00165872659999877,-0.000316874124109745,0.009737084619700909,0,
00:00:03.612,0.0056491126306355,0.0164898224174976,-0.006809535436332229,0,
00:00:03.616,0.0047617219388485,0.0157734584063292,-0.007481060922145841,0,
00:00:03.62,0.0038418679032474795,-0.011302619241178001,0.0100859655067325,0,
00:00:03.624,-0.00500185880810022,-0.0143501758575439,0.00499473512172699,0,
00:00:03.628,0.000190662671229802,-0.00255899201147258,-0.00499867554754019,0,
00:00:03.632,-0.00047277097473852304,0.0102674411609769,-0.0105617195367813,0,
00:00:03.636,0.0025639841333031698,0.0056261750869453,-0.00362079055048525,0,
00:00:03.64,-0.00759983481839299,-0.00749841425567865,0.0116183012723923,0,
00:00:03.644,-0.00407855492085218,-0.0069723972119391,0.004179887473583221,0,
00:00:03.648,0.0014838542556390199,0.00672993017360568,-0.00182395719457418,0,
00:00:03.652,0.0063430820591747795,-0.00281428126618266,-0.0122461300343275,0,
00:00:03.656,0.0018423832952976199,0.00643298448994756,0.0007728309137746691,0,
00:00:03.66,0.00209254445508122,0.0120898149907589,0.00762980431318283,0,
00:00:03.664,0.00150920916348696,-0.008853691630065441,0.00486378138884902,0,
00:00:03.668,-0.00845938920974731,-0.010089335963129999,0.00227931397967041,0,
00:00:03.672,-0.00210688705556095,0.0021763334516435896,-0.00464835064485669,0,
00:00:03.676,-0.000284716254100204,-0.00831267330795527,-0.00261562666855752,0,
00:00:03.68,0.00685842474922538,0.00337228132411838,-0.00395673094317317,0,
00:00:03.684,0.00158389506395906,0.00449154898524284,-0.000997381401248276,0,
00:00:03.688,-0.0031053032726049397,0.000350257498212159,0.0017341666389256698,0,
00:00:03.692,0.0023530547041446,0.00655712140724063,-0.00358959613367915,0,
00:00:03.696,0.00257234997116029,0.0158567801117897,0.00372421951033175,0,
00:00:03.7,-0.00170291599351913,-0.00689839804545045,0.009500818327069279,0,
00:00:03.704,-0.00597592955455184,-0.0216447655111551,0.005413653794676071,0,
00:00:03.708,-0.00532602099701762,-0.00555766467005014,-0.00302251032553613,0,
00:00:03.712,-0.00157457101158798,-0.0018384677823633,-0.0133702335879207,0,
00:00:03.716,0.00628404039889574,0.0070490138605237,-0.00845701899379492,0,
00:00:03.72,0.00824028253555298,0.0246300082653761,0.00629976345226169,0,
00:00:03.724,0.00269904476590455,0.00562586076557636,0.0142654618248343,0,
00:00:03.728,-0.00244811945594847,-0.0156270116567612,0.000307298003463075,0,
00:00:03.732,-0.00228995806537569,-0.0115739600732923,-0.00714696338400245,0,
00:00:03.736,-0.00538241257891059,-0.0124498512595892,-0.009025029838085171,0,
00:00:03.74,-0.0028512743301689603,0.00568010285496712,0.0075687645003199595,0,
00:00:03.744,-0.0036240103654563397,0.010960659943521,0.00988721661269665,0,
00:00:03.748,0.00637284014374018,0.0037730340845882897,-0.00395910535007715,0,
00:00:03.752,0.00782765354961157,0.0143830226734281,-0.015057859942317,0,
00:00:03.756,-0.000239172455621883,0.0033559517469257103,0.00186889176256955,0,
00:00:03.76,-0.0115189831703901,-0.013955706730484999,0.00432828301563859,0,
00:00:03.764,0.00911570619791746,-0.019859166815877,0.00869385991245508,0,
00:00:03.768,-0.00492120254784822,-0.00594101473689079,-0.00124864431563765,0,
00:00:03.772,0.0035886557307094297,0.0109695894643664,-0.00297473976388574,0,
00:00:03.776,0.00430630706250668,0.0134838782250881,-0.0037885739002376795,0,
00:00:03.78,0.00338791473768651,-0.000844082853291184,-0.000251905818004161,0,
00:00:03.784,-0.0182933732867241,-0.00889494735747576,0.0042986059561371795,0,
00:00:03.788,0.00277638342231512,0.00697055784985423,0.006696583703160289,0,
00:00:03.792,0.00409934623166919,0.00954301282763481,-0.00427698157727718,0,
00:00:03.796,0.00305444630794227,-0.00429058820009232,-0.0073191481642425095,0,
00:00:03.8,-0.0029395066667348103,-0.00728498818352818,0.0037857491988688703,0,
00:00:03.804,-0.000501890492159873,-0.0108501417562366,0.00247626006603241,0,
00:00:03.808,0.00416020816192031,0.0031844910699874197,-0.000836438848637044,0,
00:00:03.812,0.00466814544051886,0.0130685344338417,-0.0106513053178787,0,
00:00:03.816,0.008121711201965809,0.0112982988357544,0.00399505440145731,0,
00:00:03.82,-0.0114736286923289,-0.0177634358406067,0.00398675398901105,0,
00:00:03.824,-0.0208257921040058,-0.0100255301222205,0.009190787561237809,0,
00:00:03.828,0.00912192463874817,-0.00145823566708714,-0.00266994046978652,0,
00:00:03.832,0.0117067936807871,0.0146217038854957,-0.009424330666661259,0,
00:00:03.836,0.0048501081764698,0.0042979302816093,-0.00149369251448661,0,
00:00:03.84,-0.0121256532147527,-0.0034165412653237603,0.00269548851065338,0,
00:00:03.844,0.007400173693895341,-0.00328166410326958,0.007477432489395141,0,
00:00:03.848,0.000304875778965652,0.00308364909142256,0.00212138146162033,0,
00:00:03.852,-0.0023734918795526,0.0111972410231829,-0.0050448728725314106,0,
00:00:03.856,0.006115102674812079,-0.0159975606948137,-0.0128968851640821,0,
00:00:03.86,-0.0108234435319901,-0.0152590833604336,0.00638246070593596,0,
00:00:03.864,-0.0124970804899931,0.00448678387328982,0.0159942042082548,0,
00:00:03.868,0.0035843125078827104,0.00877261441200972,-0.00294986227527261,0,
00:00:03.872,0.0148577559739351,0.0144037986174226,-0.0122019788250327,0,
00:00:03.876,0.0134042603895068,0.00433689914643765,-0.00996317900717258,0,
00:00:03.88,0.000390992121538147,-0.00929602608084679,0.00802958570420742,0,
00:00:03.884,-0.014809331856668,-0.00861152820289135,0.013184248469770002,0,
00:00:03.888,-0.00799347553402185,-0.00317342253401876,0.0018773872870951897,0,
00:00:03.892,0.003215326461941,0.007742838468402621,-0.012842302210629,0,
00:00:03.896,0.00136650749482214,-0.00041498112841509304,0.00025248844758607404,0,
00:00:03.9,-0.00119976757559925,-0.00192927580792457,0.0031449981033802,0,
00:00:03.904,0.00066975480876863,-0.007090327329933641,0.00398474140092731,0,
00:00:03.908,0.0063032312318682705,0.0022157009225338697,0.000106992272776552,0,
00:00:03.912,0.00018037398695014398,0.0223699379712343,-0.00676813302561641,0,
00:00:03.916,-0.00433035520836711,-0.009219244122505191,-0.000978281372226775,0,
00:00:03.92,0.00602011848241091,-0.00967503525316715,0.00794476643204689,0,
00:00:03.924,-0.00529107451438904,-0.00430907169356942,-0.00384018314071,0,
00:00:03.928,-0.0128832953050733,-0.00324231362901628,-0.00784252397716045,0,
00:00:03.932,0.00939335394650698,0.0156965088099241,0.0035806724335998297,0,
00:00:03.936,0.015203308314085,0.00489002419635654,0.009424874559044841,0,
00:00:03.94,-0.0100722992792726,-0.0187866203486919,0.0008530686609447,0,
00:00:03.944,-0.00845036562532187,-0.0036435704678297,0.000677872216328979,0,
00:00:03.948,0.0035969626624137202,0.0164420027285814,-0.00573440594598651,0,
00:00:03.952,0.006821472197771071,0.00636504776775837,-0.0114926435053349,0,
00:00:03.956,-1.31222213894944e-05,-0.00724265538156033,-0.00218296516686678,0,
00:00:03.96,-0.00451185228303075,-0.009062644094228741,0.00796776078641415,0,
00:00:03.964,0.0039489753544330606,-0.00448506232351065,0.0121044814586639,0,
00:00:03.968,-0.0156462974846363,0.005150732118636371,-0.000453727028798312,0,
00:00:03.972,0.011118789203465,0.0105982208624482,-0.00839840527623892,0,
00:00:03.976,0.013761161826551,0.00160376040730625,0.004508926998823879,0,
00:00:03.98,-0.00505242543295026,-0.00331066153012216,0.0019973868038505303,0,
00:00:03.984,-0.014555474743247,-0.0021211055573076,-0.006572982296347621,0,
00:00:03.988,0.00124795734882355,-0.00669118808582425,0.00617306958884001,0,
00:00:03.992,0.0069928364828229,-0.0022222527768462896,-0.00956825260072947,0,
00:00:03.996,0.00130214216187596,0.0106995552778244,-0.00731409527361393,0,
00:00:04,-0.0052430983632803,0.0023716657888144302,0.00418454688042402,0,
00:00:04.004,0.0004720596189145,-0.0136300809681416,0.007515803445130591,0,
00:00:04.008,0.0127974357455969,0.0012858586851507401,0.00945274904370308,0,
00:00:04.012,-0.00591424573212862,0.011578157544136,-0.000621152517851442,0,
00:00:04.016,-0.0117914946749806,-0.00415912084281445,-0.00920110382139683,0,
00:00:04.02,-0.0033097998239099997,-0.004209501203149561,-0.00714538199827075,0,
00:00:04.024,0.0127764716744423,0.0017000390216708198,0.00888225715607405,0,
00:00:04.028,-0.0010895028244704,0.0023049085866659897,0.0076308771967887904,0,
00:00:04.032,0.00226065702736378,-0.00115575094241649,-0.00510738976299763,0,
00:00:04.036,0.004615329671651129,0.00772658688947558,-0.0145498709753156,0,
00:00:04.04,-0.0076234131120145295,-0.00122246181126684,0.0010101570514962099,0,
00:00:04.044,-0.0014461153186857698,-0.0117152808234096,0.015562760643661001,0,
00:00:04.048,-0.0063657877035439,-0.00516932923346758,0.00270009133964777,0,
00:00:04.052,-0.000342587707564235,0.0007111434824764731,-0.007971412502229209,0,
00:00:04.056,0.00881924107670784,0.0185782089829445,-0.009257682599127291,0,
00:00:04.06,0.009754280559718609,-0.00519609451293945,0.00823626667261124,0,
00:00:04.064,-0.0019196745706722101,-0.00418378924950957,0.00449551455676556,0,
00:00:04.068,-0.0128761287778616,0.00506383227184415,0.0023757100570946897,0,
00:00:04.072,-0.0039142724126577395,-0.00503989262506366,-0.00197727861814201,0,
00:00:04.076,0.0108348336070776,-0.00563328387215734,-0.012220224365591998,0,
00:00:04.08,-0.0074038845486939,0.0064078411087393795,0.0027103356551379,0,
00:00:04.084,0.0029511514585465197,0.00436040945351124,0.0158200357109308,0,
00:00:04.088,0.0037651758175343297,-0.00246252003125846,-0.00264519755728543,0,
00:00:04.092,-0.000791096070315689,0.000983512843959033,-0.0142194442451,0,
00:00:04.096,0.0009562635677866641,-0.00956399366259575,-0.0039307014085352395,0,
00:00:04.1,0.00182168988976628,0.0010061472421512,0.00568151939660311,0,
00:00:04.104,-0.0115991588681936,1.18201787699945e-05,0.008099964819848541,0,
00:00:04.108,0.0111016090959311,0.0113161439076066,0.00284889410249889,0,
00:00:04.112,-0.00233985111117363,0.00444700615480542,-0.00827125273644924,0,
00:00:04.116,-0.0013427735539153199,-0.0056285886093974105,-0.0103729162365198,0,
00:00:04.12,-0.00690931687131524,-0.017094699665904,0.011754765175283002,0,
00:00:04.124,0.00578522961586714,-0.0019028442911803699,0.0176541693508625,0,
00:00:04.128,0.0113787110894918,0.0184458196163177,-0.0132718672975898,0,
00:00:04.132,-0.00710682710632682,0.012048315256834,-0.009698092937469479,0,
00:00:04.136,-0.005168958567082879,-0.000228236807743087,0.0023134034126997,0,
00:00:04.14,-0.00388792040757835,-0.0183535199612379,-0.00048747984692454295,0,
00:00:04.144,0.000724434910807759,-0.0197978708893061,0.0117337079718709,0,
00:00:04.148,0.009687636978924271,0.00393895944580436,-0.00104066624771804,0,
00:00:04.152,0.00161798170302063,0.0302015077322721,-0.0119740469381213,0,
00:00:04.156,-0.00722215557470918,0.01247513666749,-0.00921421870589256,0,
00:00:04.16,-0.00406186282634735,-0.0223059225827456,0.00912302639335394,0,
00:00:04.164,-0.0012556768488138901,-0.0268736649304628,0.0181231219321489,0,
00:00:04.168,0.00527233770117164,0.00842517707496881,0.00015737029025331102,0,
00:00:04.172,0.00673381285741925,0.0289758257567883,-0.0101745361462235,0,
00:00:04.176,0.0036353699397295705,0.00498899212107062,-0.0102281617000699,0,
00:00:04.18,-0.0027407105080783398,-0.0122590959072113,-0.0023995528463274197,0,
00:00:04.184,-0.0118866506963968,-0.0168892741203308,0.00594116328284144,0,
00:00:04.188,0.00133901031222194,-0.00155034626368433,0.009926178492605691,0,
00:00:04.192,0.00125453702639788,0.0156059609726071,-0.0056707295589149,0,
00:00:04.196,0.00569438422098756,0.006615781225264071,-2.38499978877371e-05,0,
00:00:04.2,-0.00879110209643841,-0.0058770449832081795,-0.00337808183394372,0,
00:00:04.204,-0.00278084841556847,-0.0076569220982492,0.00606220820918679,0,
00:00:04.208,0.0189369283616543,0.00241286493837833,0.00276132510043681,0,
00:00:04.212,-0.0031561348587274603,0.00112062459811568,-0.00607323041185737,0,
00:00:04.216,-0.00707274442538619,0.0050889924168586705,-0.00403488194569945,0,
00:00:04.22,-0.00387055496685207,0.0029533877968788104,0.00428285310044885,0,
00:00:04.224,0.00013493953156285,-0.00899137556552887,0.000709911109879613,0,
00:00:04.228,0.00851408671587706,-0.00549266953021288,-0.00048812563181854806,0,
00:00:04.232,0.00056408962700516,0.00487397657707334,-0.000500766269396991,0,
00:00:04.236,-0.00353148556314409,0.00229713413864374,-0.00013525050599128,0,
00:00:04.24,-0.00993193686008453,-0.00323351705446839,0.0022456271108239898,0,
00:00:04.244,-0.002065384760499,-0.0104690361768007,-0.00170584896113724,0,
00:00:04.248,0.00707276025786996,0.0230303257703781,0.000633019139058888,0,
00:00:04.252,0.0130614675581455,0.0179572459310293,-0.0103928800672293,0,
00:00:04.256,-0.0031858994625508803,-0.0133989937603474,0.00912743993103504,0,
00:00:04.26,-0.00194284331519157,-0.022439394146203998,0.0032697287388145898,0,
00:00:04.264,-0.00335395685397089,-0.0102688493207097,0.00035376488813199103,0,
00:00:04.268,-0.00750464666634798,-0.0029335357248783103,-0.0009388330508954821,0,
00:00:04.272,-0.00199272809550166,0.0157929081469774,-0.0012182011269033,0,
00:00:04.276,0.00944740232080221,0.0181426778435707,0.00323157198727131,0,
00:00:04.28,-0.00109011470340192,-0.0073973503895103905,-0.00644842348992825,0,
00:00:04.284,-0.00359780993312597,-0.00468762684613466,0.00284325517714024,0,
00:00:04.288,0.00229245191439986,0.00575925968587399,-0.0024439308326691398,0,
00:00:04.292,0.009225252084434029,0.0101780397817492,-0.00533494353294373,0,
00:00:04.296,-0.00252722739242017,-0.00698283454403281,0.00495005492120981,0,
00:00:04.3,-0.0053697708062827604,-0.0175469294190407,0.0072999601252377,0,
00:00:04.304,-0.00565580511465669,-0.00549793336540461,0.00405958667397499,0,
00:00:04.308,-0.000735987443476915,0.0059487228281796,-0.0005536948447115719,0,
00:00:04.312,0.00296467146836221,0.00119831447955221,-0.0139300208538771,0,
00:00:04.316,0.007861676625907421,0.00818915758281946,-0.00246569933369756,0,
00:00:04.32,-0.00164225592743605,0.0054156221449375205,0.00510712573304772,0,
00:00:04.324,-0.00504801981151104,-0.00383506319485605,0.006251986138522629,0,
00:00:04.328,0.000521025038324296,-0.00327728991396725,-0.009149322286248209,0,
00:00:04.332,0.008044438436627391,0.00766078615561128,-0.0051777400076389295,0,
00:00:04.336,-0.00274540740065277,0.00140830222517252,0.00216120877303183,0,
00:00:04.34,-0.00691273482516408,-0.0132840471342206,0.0163601357489824,0,
00:00:04.344,-0.000802096852567047,-0.00469708535820246,0.0100788157433271,0,
00:00:04.348,0.00788135174661875,0.00871067680418491,-0.0029620840214192898,0,
00:00:04.352,-0.0102594522759318,-0.000691724824719131,-0.0100385220721364,0,
00:00:04.356,0.00211554928682745,0.00552329933270812,-0.0135271400213242,0,
00:00:04.36,0.0045921397395432,0.00133998563978821,0.00581706175580621,0,
00:00:04.364,0.00474801938980818,-0.0111919557675719,0.0044558821246027894,0,
00:00:04.368,-0.00610455591231585,-0.00229875557124615,-0.0108486721292138,0,
00:00:04.372,0.000747140671592206,0.00377089157700539,0.000812979356851429,0,
00:00:04.376,0.00135360762942582,0.013403506949544,0.00568467890843749,0,
00:00:04.38,0.0042980988509953,0.0035793886054307205,0.00937506463378668,0,
00:00:04.384,-0.0068308664485812205,-0.0161769669502974,-0.0016561351949349,0,
00:00:04.388,-0.004341517109423879,-0.00690482137724757,0.000287826231215149,0,
00:00:04.392,0.00272105075418949,0.0083832610398531,-0.014682668261229999,0,
00:00:04.396,0.00143187132198364,0.00223012850619853,-0.0040754415094852395,0,
00:00:04.4,0.0016513019800186198,0.00038605873123742597,0.0253648441284895,0,
00:00:04.404,-0.000705488200765103,4.5298955342332203e-07,0.0022699425462633397,0,
00:00:04.408,0.0045787007547915,-0.00837220158427954,-0.0142613155767322,0,
00:00:04.412,0.0034787212498486,0.00984313245862722,-0.00263152783736587,0,
00:00:04.416,-8.573717877879971e-07,0.012698364444077,-0.00144588807597756,0,
00:00:04.42,-0.0048091374337673205,-0.00904738064855337,0.000806328433100134,0,
00:00:04.424,-0.0222609303891659,-0.0185856986790895,0.00413362262770534,0,
00:00:04.428,0.00431506894528866,-0.000313277821987867,0.00412162905558944,0,
00:00:04.432,0.0211667232215405,0.0144590968266129,-0.0066523440182209,0,
00:00:04.436,0.0123984664678574,0.0168441031128168,-0.009786532260477541,0,
00:00:04.44,-0.0072799958288669595,-0.0127585045993328,0.007340797223150729,0,
00:00:04.444,-0.0196783654391766,-0.0208936985582113,0.0169348511844873,0,
00:00:04.448,-0.0033808262087404698,-0.0017972593195736397,-0.00221854215487838,0,
00:00:04.452,0.0136861465871334,0.0225994121283293,-0.00379302585497499,0,
00:00:04.456,0.00321664684452116,0.0245557725429535,-0.0142332520335913,0,
00:00:04.46,-0.00621734047308564,-0.0148876635357738,0.00292566791176796,0,
00:00:04.464,-0.00750616425648332,-0.0328935794532299,-0.00368063105270267,0,
00:00:04.468,0.00509317079558969,-0.011266965419053998,0.007571661844849591,0,
00:00:04.472,0.0106661869212985,0.0184699445962906,0.0077700731344521,0,
00:00:04.476,0.00118627457413822,0.0244293436408043,-0.00752166705206037,0,
00:00:04.48,-0.00601401412859559,0.00323587167076766,0.00575180444866419,0,
00:00:04.484,-0.00682896142825484,-0.0120511082932353,-0.0066461986862123,0,
00:00:04.488,0.0049148933030664895,-0.00565973157063127,2.0645697077270604e-05,0,
00:00:04.492,0.0011770713608712,-0.00461326353251934,-0.00298373494297266,0,
00:00:04.496,-0.0008134963572956621,-0.0026538057718426,-0.005880206823349,0,
00:00:04.5,-0.0011652035173028699,0.00437065865844488,0.0192511044442654,0,
00:00:04.504,0.0014610602520406198,0.00682469271123409,0.0105625977739692,0,
00:00:04.508,-0.0018799661193043,0.00238510384224355,-0.015952268615365,0,
00:00:04.512,-0.00111911329440773,-0.00806631334125996,-0.017611425369978,0,
00:00:04.516,-0.0079121645539999,-0.0057725664228200895,-0.00304067367687821,0,
00:00:04.52,0.0153272738680243,0.0102267870679498,0.0102596059441566,0,
00:00:04.524,-0.000326418958138675,0.00834861025214195,0.0170124992728233,0,
00:00:04.528,-0.007956479676067829,-0.0031130267307162302,0.0034375812392681802,0,
00:00:04.532,0.009792413562536241,-0.00883951783180237,-0.0117123685777187,0,
00:00:04.536,-0.0028491073753684803,-0.000960339442826808,-0.00590789783746004,0,
00:00:04.54,-0.0072205308824777594,-0.00582800433039665,0.00369210820645094,0,
00:00:04.544,0.0033181973267346603,-0.00422110361978412,0.000523969123605639,0,
00:00:04.548,-0.00625665811821818,0.0149547141045332,-0.000503939751069993,0,
00:00:04.552,-0.00136839621700346,0.00906456634402275,-0.00040627704584039704,0,
00:00:04.556,0.0143432831391692,-0.00528355315327644,1.9728262486751198e-05,0,
00:00:04.56,-0.00249231909401715,-0.00903344713151455,0.000325387256452814,0,
00:00:04.564,-0.00685995630919933,-0.00364966387860477,0.00453021842986345,0,
00:00:04.568,0.00609292788431048,-0.00239331088960171,-0.00162958190776408,0,
00:00:04.572,-0.00363289006054401,0.005825963802635671,-0.0176570620387793,0,
00:00:04.576,0.00120658311061561,0.0146757299080491,0.0139258606359363,0,
00:00:04.58,-0.0017730008112266699,0.0054848026484251,0.009355876594781879,0,
00:00:04.584,-0.00327157368883491,-0.0109208868816495,-0.00140290823765099,0,
00:00:04.588,-0.00201352732256055,-0.0155290709808469,-0.00480820564553142,0,
00:00:04.592,0.0128095680847764,-0.00310937990434468,-0.008005942218005659,0,
00:00:04.596,-0.00143971794750541,0.0108890226110816,0.000505571195390075,0,
00:00:04.6,-0.0048526730388402895,0.00278887362219393,0.005976104177534579,0,
00:00:04.604,-0.0011522377608344,-0.0126547757536173,0.00360346608795226,0,
00:00:04.608,-0.0107663795351982,0.00278032431378961,0.00612754607573152,0,
00:00:04.612,0.0117492927238345,0.0172961615025997,-0.006082048173993829,0,
00:00:04.616,0.00211840588599443,0.00758508639410138,-0.0113326059654355,0,
00:00:04.62,0.00141247163992375,-0.00624940451234579,0.0068385656923055605,0,
00:00:04.624,-0.000776407483499497,-0.00945269875228405,-0.00389788066968322,0,
00:00:04.628,-0.00823304988443851,-0.00211971276439726,-0.0016606294084340301,0,
00:00:04.632,0.008225239813327791,-0.007351217325776821,0.00231736968271434,0,
00:00:04.636,0.00838498678058386,0.000954635441303253,-0.000296513113426045,0,
00:00:04.64,-0.0126161146908998,0.00677790772169828,0.0130204791203141,0,
00:00:04.644,-0.0109326653182507,-0.00372606259770691,0.00226393388584256,0,
00:00:04.648,0.00839518662542105,0.00858419574797153,-0.0074259783141315,0,
00:00:04.652,0.00559899257495999,0.0026388939004391397,-0.0112300096079707,0,
00:00:04.656,-0.00258292374201119,-0.0017580135026946699,-0.000966468593105674,0,
00:00:04.66,-0.00136730121448636,-0.0033298940397799,0.00429194374009967,0,
00:00:04.664,0.00315603101626039,-0.004724430851638321,0.008990013040602209,0,
00:00:04.668,-0.00830564834177494,-0.00526758143678308,0.00708126928657293,0,
00:00:04.672,0.0158841293305159,0.0142193762585521,-0.0172490067780018,0,
00:00:04.676,0.00689226808026433,0.000282295455690473,-0.0107692824676633,0,
00:00:04.68,-0.0178997758775949,-0.0125040030106902,0.0182176493108273,0,
00:00:04.684,-0.00885268114507198,-0.00393471727147698,0.0157377328723669,0,
00:00:04.688,0.0077560180798173,0.0216214209794998,-0.0136982090771198,0,
00:00:04.692,0.00897593051195145,0.0126543948426843,-0.0123116318136454,0,
00:00:04.696,-0.0025440894532948698,-0.0236360933631659,-0.000453899148851633,0,
00:00:04.7,0.00209754565730691,-0.0106957675889134,0.0131068006157875,0,
00:00:04.704,-0.009925280697643759,0.00169250427279621,0.00117254594806582,0,
00:00:04.708,-0.00868466030806303,0.0009302833932451901,-0.012168905697763,0,
00:00:04.712,0.00869417656213045,-0.0002406818093732,-0.00431656977161765,0,
00:00:04.716,0.0174591299146414,0.0109052155166864,0.010686231777072,0,
00:00:04.72,-0.00649567460641265,0.00045291511924005996,0.00770930061116815,0,
00:00:04.724,-0.0146818300709128,-0.000786121527198702,0.000562236469704658,0,
00:00:04.728,0.00478421989828348,0.00196835095994174,-0.00619323318824172,0,
00:00:04.732,0.0107772322371602,0.0043982001952827,-0.00909681245684624,0,
00:00:04.736,0.00055644370149821,0.00055767793674022,0.0046521732583642,0,
00:00:04.74,-0.00472973706200719,-0.0136176850646734,0.0130608798936009,0,
00:00:04.744,-0.0112137924879789,-0.00498158764094114,-0.0067986669018864606,0,
00:00:04.748,-0.000712423352524638,0.000203330288059078,-0.0103101963177323,0,
00:00:04.752,0.00711694965139031,0.0113177401944995,-0.007294034119695429,0,
00:00:04.756,0.0118907112628222,0.0103252064436674,0.00531181460246444,0,
00:00:04.76,-0.00651383167132735,-0.00925858039408922,0.0129913259297609,0,
00:00:04.764,-0.0129744047299027,-0.008395568467676641,0.0104028731584549,0,
00:00:04.768,0.0103932209312916,-0.00393549306318164,-0.00995606556534767,0,
00:00:04.772,0.00531055545434356,0.0071005993522703596,-0.0114063285291195,0,
00:00:04.776,-0.00302745844237506,0.00814019609242678,0.00140118948183954,0,
00:00:04.78,-0.0061417855322361,-0.00252875965088606,0.00433942209929228,0,
00:00:04.784,0.0020090714097023,0.004583647008985279,0.00284597277641296,0,
00:00:04.788,-0.00839867722243071,-0.0095801642164588,0.010814631357789,0,
00:00:04.792,0.00997725035995245,-0.00828298553824425,-0.00686334678903222,0,
00:00:04.796,0.00922572799026966,0.00459720008075237,-0.017791235819459,0,
00:00:04.8,-0.00838982034474611,0.010345546528696998,-0.0032609433401376,0,
00:00:04.804,-0.004507136531174179,0.0012779503595084,0.0109905889257789,0,
00:00:04.808,0.0121246231719851,-0.00552144972607493,0.0113506615161896,0,
00:00:04.812,-0.00993044394999743,-0.00409863376989961,-0.00135196058545262,0,
00:00:04.816,-0.00565439742058516,-0.00481602316722274,-0.0063428366556763606,0,
00:00:04.82,-0.00189441605471075,0.0035741024184972,-0.0009928693762049081,0,
00:00:04.824,0.0033944605384022,0.0054082702845335,0.0029443062376231,0,
00:00:04.828,0.00940150581300259,0.00749434437602758,-0.00730400765314698,0,
00:00:04.832,-0.0043378034606576,-0.0036334786564111705,0.00458345422521234,0,
00:00:04.836,0.00991680566221476,-0.00503008998930454,0.0128209479153156,0,
00:00:04.84,-0.0021520694717764898,-0.00053559138905257,-0.006964051630347971,0,
00:00:04.844,-0.0169260893017054,0.00226162537001073,-0.00634535355493426,0,
00:00:04.848,0.00460798479616642,0.00423764204606414,-0.0052738883532583705,0,
00:00:04.852,0.00856256671249866,-0.0056206667795777295,-0.008329230360686779,0,
00:00:04.856,-0.0018318862421438102,-0.013326502405107,0.0135133508592844,0,
00:00:04.86,-0.007461188826709991,-0.00147330854088068,0.00859369896352291,0,
00:00:04.864,-0.00581660820171237,0.008267673663794991,0.00972551945596933,0,
00:00:04.868,0.017948355525732,0.0203408263623714,-0.011221001856028999,0,
00:00:04.872,0.00866907835006714,0.004207250662148,-0.011043400503694999,0,
00:00:04.876,-0.0105648599565029,-0.0035003463272005302,-0.0058554545976221605,0,
00:00:04.88,-0.008267684839665891,-0.00839528255164623,0.00451220944523811,0,
00:00:04.884,-0.007588155101984741,-0.024667002260685,0.0045609506778419,0,
00:00:04.888,0.000654745381325483,-0.007221577223390341,0.0145110068842769,0,
00:00:04.892,0.00608759373426437,0.0100003527477384,-0.00966269616037607,0,
00:00:04.896,0.00433953432366252,0.019741877913475,-0.00202908460050821,0,
00:00:04.9,0.00956744980067015,0.0196183752268553,0.00156007276382297,0,
00:00:04.904,0.0038277052808553,0.00014681289030704599,-0.0025385157205164398,0,
00:00:04.908,-0.00718673458322883,-0.0175505727529526,-0.00423688953742385,0,
00:00:04.912,-0.0107050016522408,-0.0234703253954649,-0.000439786585047841,0,
00:00:04.916,-0.00280498550273478,0.00253720674663782,0.00678669847548008,0,
00:00:04.92,-0.00253552314825356,0.00561198918148875,0.00342787383124232,0,
00:00:04.924,-0.0012298986548557901,0.0115273296833038,-0.00526419514790177,0,
00:00:04.928,0.0117443818598986,-0.000329776317812502,-0.009652684442698959,0,
00:00:04.932,0.0101773515343666,0.0008325808448717,0.00831767730414867,0,
00:00:04.936,0.00273971864953637,0.00851750560104847,0.0074121840298175794,0,
00:00:04.94,-0.0100085865706205,0.00168314424809068,-0.000768412428442389,0,
00:00:04.944,-0.0149792954325676,-0.0260752681642771,-0.00329495128244162,0,
00:00:04.948,-0.00106743758078665,-0.00636625802144408,-0.0027055786922574,0,
00:00:04.952,0.0130586726590991,0.0144220143556595,-0.00312655814923346,0,
00:00:04.956,0.0141612887382507,0.0247948560863733,0.000253313308348879,0,
00:00:04.96,-0.0146638853475451,-0.00638112705200911,0.00667004473507404,0,
00:00:04.964,-0.00839726161211729,-0.0237816274166107,0.013182045891881001,0,
00:00:04.968,0.0108644915744662,0.0012976892758160801,-0.0178853254765272,0,
00:00:04.972,0.0015487679047510002,0.0112158497795463,-0.0121377846226096,0,
00:00:04.976,-0.00279496121220291,-0.00548612186685205,0.00298334518447518,0,
00:00:04.98,-0.0114257922396064,-0.000762851559557021,0.0148120326921344,0,
00:00:04.984,0.00228215684182942,0.00469180988147855,0.00940115563571453,0,
00:00:04.988,0.0108731091022491,0.00732199661433697,-0.00824226997792721,0,
00:00:04.992,0.00534566305577755,-0.00804789643734694,-0.004319641273468729,0,
00:00:04.996,-0.0016341396840289198,-0.00336572760716081,-0.00694447383284569,0,
00:00:05,-0.00498589035123587,0.00266046426258981,0.000574254139792174,0,
00:00:05.004,-0.0148313557729125,0.00231168838217855,0.00336890039034188,0,
00:00:05.008,0.0058808489702642,0.000337298784870654,-0.0010974155738949802,0,
00:00:05.012,0.0149187063798308,-0.00104185857344419,-0.0029374007135629697,0,
00:00:05.016,-0.00159886025357991,0.00285461591556668,0.00894349161535501,0,
00:00:05.02,-0.0055157239548862,-0.00472890725359321,0.00789712648838758,0,
00:00:05.024,-0.00783392414450645,-0.00334918941371143,0.0017021679086610699,0,
00:00:05.028,0.0033509717322886,6.83700054651126e-05,-0.0119766788557172,0,
00:00:05.032,0.00680844020098448,0.00430833362042904,-0.0122877554967999,0,
00:00:05.036,-0.0017802185611799398,-0.0036774876061826897,0.00755914486944675,0,
00:00:05.04,0.00199769204482436,-0.0066703362390399,0.00568677159026265,0,
00:00:05.044,-0.00227367831394076,0.0193052515387535,0.00421955529600382,0,
00:00:05.048,-0.000247266638325527,0.00894555356353521,-0.00260098092257977,0,
00:00:05.052,-0.00282449694350362,-0.00951231364160776,-0.007569408975541591,0,
00:00:05.056,-0.00944812782108784,-0.0179014336317778,0.00221692048944533,0,
00:00:05.06,0.0150154680013657,-0.000161873496836051,0.0117400540038943,0,
00:00:05.064,0.00031443915213458197,0.00326045230031013,-0.010524295270442999,0,
00:00:05.068,-0.007046702317893509,-0.00162581994663924,-0.00100940524134785,0,
00:00:05.072,0.0125097408890724,0.00742570124566555,0.0013004390057176401,0,
00:00:05.076,0.00158392975572497,0.0145502667874098,-0.00525764795020223,0,
00:00:05.08,-0.0191234368830919,-0.0042553222738206395,0.0061131976544857,0,
00:00:05.084,-0.0064642168581485705,-0.0108087807893753,0.00674990005791187,0,
00:00:05.088,0.00704158376902342,0.00025519012706354304,-0.00379355577751994,0,
00:00:05.092,0.017385471612215,-0.00972469616681337,-0.00434812949970365,0,
00:00:05.096,-0.000654248346108943,0.00284979515708983,0.000480852439068258,0,
00:00:05.1,-0.00624184450134635,0.014992393553257,-0.00109110318589956,0,
00:00:05.104,-0.0051322686485946204,0.0012127966620028,0.00227986997924745,0,
00:00:05.108,-0.00181801535654813,-0.009163461625576021,0.00347689585760236,0,
00:00:05.112,0.000930808659177274,-0.00342137506231666,-0.0125244781374931,0,
00:00:05.116,-0.00416604382917285,0.000540417328011245,0.00308124255388975,0,
00:00:05.12,0.0118388598784804,0.00630620680749416,0.0110414559021592,0,
00:00:05.124,0.00175462127663195,-0.0040785600431263395,0.00876056123524904,0,
00:00:05.128,-0.00498649477958679,-0.00456535117700696,-0.00663390569388866,0,
00:00:05.132,0.000517397653311491,0.00717481784522533,-0.017338840290904,0,
00:00:05.136,0.00175470684189349,0.00455316575244069,0.00285990536212921,0,
00:00:05.14,-0.007718626409769059,-0.00277128140442073,0.00238749547861516,0,
00:00:05.144,0.000700887816492468,-0.0057718213647604,0.0139152957126498,0,
00:00:05.148,0.000350332848029211,0.00420205062255263,-0.00458481814712286,0,
00:00:05.152,0.00145943136885762,-0.0042878077365458,-0.0127712339162827,0,
00:00:05.156,0.0018332710023969399,-0.00406734133139253,0.00946345739066601,0,
00:00:05.16,-0.0029024358373135302,0.00568937184289098,0.00635035615414381,0,
00:00:05.164,0.008380197919905191,0.00900963135063648,-0.00550749711692333,0,
00:00:05.168,-0.005307052750140429,0.00120729103218764,-0.00558809190988541,0,
00:00:05.172,0.0023188409395515897,-0.00913361925631762,-0.0100350519642234,0,
00:00:05.176,0.0027815345674753198,-0.00425361609086394,0.00950017105787992,0,
00:00:05.18,-0.00590486824512482,-0.00251157814636827,0.0114618251100183,0,
00:00:05.184,-0.00640218332409859,-0.00461594155058265,-0.0011349179549142699,0,
00:00:05.188,-0.000367660744814202,0.009651279076933859,-0.000149788858834654,0,
00:00:05.192,0.00397607544437051,0.0102599281817675,-0.00918136909604073,0,
00:00:05.196,0.00251417863182724,-0.0041917334310710395,-0.00224647973664105,0,
00:00:05.2,0.00876122340559959,0.00143426156137139,0.00818912405520678,0,
00:00:05.204,-0.000130916829220951,-0.00126691849436611,-0.0007825111970305441,0,
00:00:05.208,-0.0045819445513188796,-0.0036402274854481203,-0.00893111154437065,0,
00:00:05.212,-0.000544668582733721,-0.00552481738850474,-0.00184678961522877,0,
00:00:05.216,-0.00846331473439932,-0.00371686206199229,0.0213545225560665,0,
00:00:05.22,-0.0053704478777945,0.00195627706125379,0.0008190509397536519,0,
00:00:05.224,0.008915557526052,0.00700940145179629,-0.0130123030394316,0,
00:00:05.228,0.00707302475348115,0.0106500508263707,-0.0153625933453441,0,
00:00:05.232,-0.007095576729625459,-0.0119077768176794,-0.00137078668922186,0,
00:00:05.236,0.00295511283911765,-0.00141607027035207,0.017273273319006,0,
00:00:05.24,0.00479996250942349,-0.000544213980901986,0.0130698848515749,0,
00:00:05.244,-0.00209371000528336,0.0115316053852439,-0.00409098342061043,0,
00:00:05.248,-0.0036553586833179,-0.00397727685049176,-0.0104529513046145,0,
00:00:05.252,-0.00234068185091019,-0.0109431073069572,-0.010076773352921,0,
00:00:05.256,-0.00240829866379499,-0.00184450182132423,0.0019920018967241,0,
00:00:05.26,0.0009450495126657189,-0.000708560517523438,0.0129237817600369,0,
00:00:05.264,0.009172862395644191,0.006361851003020999,0.00799303036183119,0,
00:00:05.268,0.00301826046779752,0.0101828249171376,-0.0107717541977763,0,
00:00:05.272,-0.0138068469241261,0.00260242098011076,-0.0061786826699972205,0,
00:00:05.276,-0.00187873595859855,-0.0083527248352766,0.00135623628739268,0,
00:00:05.28,0.0102799003943801,-0.00439416570588946,0.00260135694406927,0,
00:00:05.284,-0.00121341145131737,0.000850959622766823,-0.0026610866189003,0,
00:00:05.288,-0.0023888025898486397,-0.00119354203343391,-6.41918741166592e-05,0,
00:00:05.292,0.00148087157867849,-0.0042746295221149895,0.00870225671678782,0,
00:00:05.296,0.0030542064923793103,0.007141250651329759,-0.00316282128915191,0,
00:00:05.3,-0.00440787896513939,0.00484888441860676,0.0027031467761844397,0,
00:00:05.304,-0.00280211889185011,-0.00018035780522041,-0.0005022207042202349,0,
00:00:05.308,0.00664903363212943,-0.0052253436297178294,-0.00547644170001149,0,
00:00:05.312,-0.00167657097335905,-0.0075177913531661,-0.00983718037605286,0,
00:00:05.316,-0.0069135329686105295,0.00589961325749755,0.0037175510078668603,0,
00:00:05.32,0.00487659359350801,0.00525989150628448,0.0111352372914553,0,
00:00:05.324,0.0018530507804825898,-0.00528563233092427,0.0027592307887971397,0,
00:00:05.328,0.00208016647957265,-0.00245393486693501,-0.0023494795896112897,0,
00:00:05.332,-0.0089563587680459,0.0038954992778599297,-0.009974568150937559,0,
00:00:05.336,0.00146394537296146,0.007670827209949491,0.00119425798766315,0,
00:00:05.34,0.0104991281405091,0.0031626084819436104,0.0123883262276649,0,
00:00:05.344,-0.0030021038837730898,-0.0084301782771945,-0.00507630174979568,0,
00:00:05.348,-0.00032823020592331897,-0.00930106360465288,-0.00398188130930066,0,
00:00:05.352,0.00457593239843845,1.4562455362465698e-05,-0.00587738351896405,0,
00:00:05.356,-0.0207387935370207,0.0018447117181494802,0.0021460431162267897,0,
00:00:05.36,-0.00510346936061978,0.007963345386087891,0.0106979142874479,0,
00:00:05.364,0.0272145476192236,0.0016959976637736,-0.00271960161626339,0,
00:00:05.368,0.008876398205757141,-0.00144812348298728,-0.008290535770356659,0,
00:00:05.372,-0.0165970176458359,-0.00425362633541226,0.00441763456910849,0,
00:00:05.376,-0.00762209156528115,0.000459763803519309,0.00209979806095362,0,
00:00:05.38,-0.0045168651267886205,0.00534386653453112,0.00249083107337356,0,
00:00:05.384,0.00516137341037393,-0.00134107458870858,-0.00044427416287362597,0,
00:00:05.388,0.0151133071631193,-0.007517890073359009,-0.00236059748567641,0,
00:00:05.392,0.00231514661572874,0.00156997691374272,-0.0044205351732671296,0,
00:00:05.396,-0.0143083306029439,-0.00129695911891758,0.00499599985778332,0,
00:00:05.4,-0.00582127459347248,-0.000875050493050367,-0.00209508324041963,0,
00:00:05.404,0.00179526256397367,0.00489042606204748,-0.00418639834970236,0,
00:00:05.408,0.0112017970532179,0.00625609140843153,-0.00230131414718926,0,
00:00:05.412,0.00243808841332793,0.0074455002322793,0.00485085509717464,0,
00:00:05.416,-0.00308700650930405,-0.006859822198748589,0.0132510522380471,0,
00:00:05.42,-0.0105886328965425,-0.0131347002461553,-0.0017222391907125698,0,
00:00:05.424,0.0010347394272685099,-0.0030415421351790398,-0.011380203999579,0,
00:00:05.428,0.00643042149022222,0.00331007642671466,-0.00625820737332106,0,
00:00:05.432,0.00338780414313078,0.00508418353274465,-0.005330740939825771,0,
00:00:05.436,-0.00685151759535074,-0.0046353931538760705,0.0147628523409367,0,
00:00:05.44,-0.00292438012547791,0.00488915573805571,0.011750758625567,0,
00:00:05.444,0.0063569531776011,0.0158671792596579,-0.0043909358792007,0,
00:00:05.448,0.00429750327020884,0.00259482930414379,-0.0100806290283799,0,
00:00:05.452,0.00816357880830765,-0.00909394770860672,-0.0115390066057444,0,
00:00:05.456,-0.0169705264270306,-0.0240904875099659,0.00862894393503666,0,
00:00:05.46,-0.0057568559423089,-0.0118990372866392,0.0150123368948698,0,
00:00:05.464,0.000376012001652271,0.0166899915784597,-0.00114574504550546,0,
00:00:05.468,0.0157017316669226,0.0239208489656448,-0.015498012304306003,0,
00:00:05.472,0.00844331178814173,0.0141977099701762,-0.00449538603425026,0,
00:00:05.476,-0.0209506135433912,-0.0128034492954612,0.0060834800824523,0,
00:00:05.48,-0.0067899362184107295,-0.0296294428408146,0.0129170753061771,0,
00:00:05.484,0.0105348220095038,-0.00839485134929419,0.0013235459337011,0,
00:00:05.488,0.00827754475176334,0.0171844996511936,-0.00950008723884821,0,
00:00:05.492,-0.0029253507964313,0.0146344052627683,-0.00844029895961285,0,
00:00:05.496,-0.00172186736017466,0.0018873750232160102,0.0036942835431546,0,
00:00:05.5,0.0007229147013276821,-0.008536068722605709,0.00927770137786865,0,
00:00:05.504,-0.00495411921292543,-0.00139480398502201,-0.00560741126537323,0,
00:00:05.508,0.0062405271455645605,0.00411106972023845,-0.00173817237373441,0,
00:00:05.512,-0.00636105472221971,-0.00631636800244451,0.00108528637792915,0,
00:00:05.516,-0.0035858028568327397,-0.00594698265194893,0.0060426187701523295,0,
00:00:05.52,0.0036784200929105295,0.00492774229496717,-0.0026975020300597,0,
00:00:05.524,0.0021128968801349397,0.00518460245802999,0.00102953577879816,0,
00:00:05.528,0.0038882584776729298,0.00395019538700581,0.0012832930078730002,0,
00:00:05.532,0.0011961702257394801,-0.000970160705037415,-0.0146285044029355,0,
00:00:05.536,0.000609288457781076,-0.0037791540380567295,0.00412051286548376,0,
00:00:05.54,-0.00856982450932264,-0.007697853259742259,0.00719061959534884,0,
00:00:05.544,0.00250515737570822,0.00029178994009271297,0.0017525542061775901,0,
00:00:05.548,0.00462831277400255,0.0077947280369699,-0.00242753094062209,0,
00:00:05.552,-0.00814629625529051,-0.00255087926052511,0.00726216519251466,0,
00:00:05.556,-0.00136477791238576,-0.00796056166291237,-0.000986621831543744,0,
00:00:05.56,0.00304494518786669,0.00898274406790733,-0.007147619500756259,0,
00:00:05.564,0.007994771003723141,0.0113575113937259,-0.0068221343681216205,0,
00:00:05.568,0.004545826464891429,-0.00332394032739103,-0.004614082165062429,0,
00:00:05.572,-0.009078145958483221,-0.00511967483907938,0.00802968256175518,0,
00:00:05.576,-0.0024315784685313697,-0.0049645327962935,0.0101705053821206,0,
00:00:05.58,-0.00651455437764525,-0.00898788962513208,0.00540813850238919,0,
00:00:05.584,0.008341723121702671,0.0037709567695856103,-0.00491511635482311,0,
00:00:05.588,-0.000682509504258633,0.00653743045404553,-0.015204057097435,0,
00:00:05.592,0.00129480741452426,0.00214297347702086,0.0015587612288072699,0,
00:00:05.596,0.0009151530102826651,0.008937870152294641,0.00795562379062176,0,
00:00:05.6,-0.00214262981899083,-0.00800516456365585,0.00840365793555975,0,
00:00:05.604,-0.0008199255680665371,-0.00505834678187966,-0.00459572393447161,0,
00:00:05.608,0.0048880651593208296,-0.00551277492195368,0.00188574369531125,0,
00:00:05.612,-0.000653072027489543,0.00303822360001504,-0.0174334179610014,0,
00:00:05.616,-0.000321017665555701,0.0113973254337907,0.0017810206627473198,0,
00:00:05.62,-0.0038252861704677296,-0.00250310101546347,0.00462502334266901,0,
00:00:05.624,-0.00424754526466131,-0.00225781789049506,0.00268359598703682,0,
00:00:05.628,0.00440686708316207,0.00435136165469885,-0.0034836104605346896,0,
00:00:05.632,0.00352038792334497,-0.006993849761784079,0.00376053806394339,0,
00:00:05.636,-0.00164931325707585,-0.009246980771422391,0.0135340793058276,0,
00:00:05.64,-0.00170325627550483,-0.0023583066649735,0.00526326103135943,0,
00:00:05.644,-0.0045044072903692705,0.0061549562960863105,-0.00866873655468225,0,
00:00:05.648,0.00461085233837366,0.0168643649667501,-0.0152806015685201,0,
00:00:05.652,0.00624658679589629,0.0122022861614823,-0.0109229646623135,0,
00:00:05.656,0.00515469303354621,-0.0071663563139736704,0.00867211166769266,0,
00:00:05.66,-0.00919984839856625,-0.0247686617076397,0.0146123422309756,0,
00:00:05.664,-0.0199067853391171,-0.0156798046082258,0.0032737131696194397,0,
00:00:05.668,0.0167419128119946,0.0145892035216093,-0.00783163495361805,0,
00:00:05.672,0.00911070313304663,0.0216449536383152,-0.0097046485170722,0,
00:00:05.676,-0.00162776291836053,0.00430871406570077,0.007637239992618559,0,
00:00:05.68,-0.00439338106662035,-0.0175595134496689,0.00412551965564489,0,
00:00:05.684,-0.00938051752746105,-0.0102077657356858,-0.00179859751369804,0,
00:00:05.688,0.007161129731684921,0.00572507129982114,0.000122596407891251,0,
00:00:05.692,0.010040495544672,0.00584218511357903,-0.00251706829294562,0,
00:00:05.696,-0.0056108762510120895,0.00612693233415484,-0.0031807329505682,0,
00:00:05.7,-0.00861688423901796,0.00138667598366737,0.0109079489484429,0,
00:00:05.704,-0.0024794279597699603,-0.00047519858344458,0.00130705768242478,0,
00:00:05.708,0.00507929269224405,-0.00365426018834114,-0.0133426776155829,0,
00:00:05.712,0.00689184246584773,-0.00633196299895644,-0.00625427858904004,0,
00:00:05.716,-0.000194639636902139,-0.00471863010898232,0.00304632866755128,0,
00:00:05.72,-0.00879126135259867,-0.0028759445995092396,0.013374506495893,0,
00:00:05.724,0.00990769732743502,0.010781129822135,0.00827006343752146,0,
00:00:05.728,-0.0019373584073036898,0.0120679587125778,-0.0127886012196541,0,
00:00:05.732,-0.00623575644567609,0.00323451473377645,-0.0023032664321363,0,
00:00:05.736,-0.00237105460837483,-0.0150898573920131,-0.00343961082398891,0,
00:00:05.74,0.0017317715100944,-0.0163898058235645,0.008934699930250641,0,
00:00:05.744,0.00329033401794732,-0.00483881495893002,-0.00039069479680620096,0,
00:00:05.748,0.00874361302703619,0.0287996735423803,-0.0113409738987684,0,
00:00:05.752,0.0010628324234858199,0.0280072540044785,-0.000536961830221117,0,
00:00:05.756,-0.00950453244149685,-0.0222101304680109,0.0162297319620848,0,
00:00:05.76,-0.0150184687227011,-0.0323916897177696,0.0108812274411321,0,
00:00:05.764,0.00925537385046482,-0.00109569483902305,-0.0169082917273045,0,
00:00:05.768,0.0162092037498951,0.0155902234837413,-0.0107695506885648,0,
00:00:05.772,-0.008873512968420979,0.00945728365331888,-0.00322409765794873,0,
00:00:05.776,-0.00767422188073397,-0.00593355437740684,0.0130988666787744,0,
00:00:05.78,-0.000367432628991082,-0.000623616273514926,0.00166035955771804,0,
00:00:05.784,0.0105315344408154,0.00669462978839874,-0.00314673571847379,0,
00:00:05.788,0.00911020766943693,0.0048222616314888,0.0032456256449222604,0,
00:00:05.792,-0.0041640335693955395,0.0019927755929529697,-0.000436479895142838,0,
00:00:05.796,-0.017019959166646,-0.009858217090368271,-0.0012494797119870801,0,
00:00:05.8,-0.00484670978039503,-0.0126690920442343,0.0011983462609350699,0,
00:00:05.804,0.00658249575644732,-0.00271879276260734,-0.000164505006978288,0,
00:00:05.808,0.00756559846922755,0.00356137729249895,-0.00346423569135368,0,
00:00:05.812,0.00805006828159094,0.0119909942150116,0.000536366482265294,0,
00:00:05.816,-0.00826210528612137,0.0113166412338614,-0.00318634416908026,0,
00:00:05.82,0.000287422852125019,-0.00821399223059416,0.0043268017470836605,0,
00:00:05.824,-0.0038011239375919104,-0.0038457019254565204,0.00938007049262524,0,
00:00:05.828,0.000766024051699787,-0.00415551103651524,-0.0141522847115994,0,
00:00:05.832,0.00157970725558698,0.00933571066707373,-0.00509646767750382,0,
00:00:05.836,0.0008887923904694619,-0.00836310256272554,0.0140923652797937,0,
00:00:05.84,-0.00206476170569658,-0.00800943095237017,0.00518704345449805,0,
00:00:05.844,0.0035718628205359,0.0068483999930322205,-0.0133025413379073,0,
00:00:05.848,0.00537950498983264,0.0106280250474811,-0.000195385175175034,0,
00:00:05.852,-0.0222012046724558,-0.00846321228891611,0.00554526364430785,0,
00:00:05.856,0.014106884598732,-0.00558803789317608,0.000627273286227137,0,
00:00:05.86,0.00917595066130161,0.00532756606116891,0.000973646761849523,0,
00:00:05.864,-0.0045075761154294,0.009031905792653559,-0.0010236649541184302,0,
00:00:05.868,-0.00179327069781721,-0.00287230615504086,-0.00620529940351844,0,
00:00:05.872,-0.0108071099966764,-0.007235216442495579,-0.0018431931966915698,0,
00:00:05.876,-0.00488759484142065,-0.0114681422710419,0.008799858391284941,0,
00:00:05.88,0.0132346507161856,0.0113070588558912,0.00216941465623677,0,
00:00:05.884,0.007134119514375929,0.0182424895465374,-0.0061613651923835295,0,
00:00:05.888,0.00236740172840655,-0.00600821198895574,0.00296624749898911,0,
00:00:05.892,-0.00144278293009847,-0.00856357906013727,-0.00902251340448856,0,
00:00:05.896,-0.0076279239729046796,-0.0102972611784935,0.0062368270009756106,0,
00:00:05.9,-0.0162063408643007,3.08487360598519e-05,0.0096916863694787,0,
00:00:05.904,0.00224496074952185,0.0048160986043512795,-0.00323623046278954,0,
00:00:05.908,0.0182898677885532,0.00495490431785584,-0.0121837146580219,0,
00:00:05.912,0.007123639807105059,0.000583687156904489,-0.00393160386011004,0,
00:00:05.916,-0.00690026162192225,-0.00209022359922528,0.0105779506266117,0,
00:00:05.92,-0.00701223220676184,0.0020376578904688397,0.0177263356745243,0,
00:00:05.924,0.005661940202116971,0.00782790780067444,-0.0157803632318974,0,
00:00:05.928,0.00156959262676537,0.00434204330667853,-0.0167383849620819,0,
00:00:05.932,-0.00763939507305622,-0.0140324225649238,0.00725410878658295,0,
00:00:05.936,-0.009034289047122,-0.0122024901211262,0.0144001543521881,0,
00:00:05.94,-0.00395311927422881,-0.0071631004102528095,-0.00110946269705892,0,
00:00:05.944,0.0148123009130359,0.006629120092839,-0.000156789537868463,0,
00:00:05.948,0.0128773953765631,0.029450936242938,-0.0107993232086301,0,
00:00:05.952,-0.00280653033405542,0.0067558302544057395,0.00238832202740014,0,
00:00:05.956,-0.0111286593601108,-0.0114399958401918,0.00612366339191794,0,
00:00:05.96,-0.0011984467273578,-0.0137057583779097,-0.000284272624412552,0,
00:00:05.964,-0.00038039294304326204,-0.0138999940827489,-0.004418437834829089,0,
00:00:05.968,0.00762060470879078,-0.000615652010310441,-0.00820179283618927,0,
00:00:05.972,-0.0018436921527609199,0.0130464248359203,0.00899052899330854,0,
00:00:05.976,-0.00549727352336049,0.006332323886454111,0.0155719118192792,0,
00:00:05.98,-0.00392792513594031,0.00897305086255074,-0.00502724992111325,0,
00:00:05.984,0.00586013263091445,-0.0037511147093027795,-0.0121813314035535,0,
00:00:05.988,0.0110281948000193,0.0018600783077999897,-0.0129959741607308,0,
00:00:05.992,-0.00508294953033328,-0.0100791854783893,0.0043609319254756,0,
00:00:05.996,-0.00901478715240955,-0.00535503961145878,0.011544861830771002,0,
00:00:06,-0.00539846671745181,-0.00291086756624281,0.0132793514057994,0,
00:00:06.004,0.00841893069446087,-0.00215528579428792,-0.00554455723613501,0,
00:00:06.008,0.00627345172688365,0.00431089429184794,-0.00867423322051764,0,
00:00:06.012,0.000535076775122434,0.0153791261836886,-0.00906520802527666,0,
00:00:06.016,-0.00938746239989996,-0.0005738748586736621,0.00792627315968275,0,
00:00:06.02,0.00019150029402226202,-0.00301017216406763,0.00611755391582847,0,
00:00:06.024,0.00481985649093986,-0.0019466043449938302,-0.0038665225729346297,0,
00:00:06.028,-0.00619843881577253,-0.00299325957894325,-0.00971606373786926,0,
00:00:06.032,0.00472135096788406,-0.00690164137631655,0.0034165324177593,0,
00:00:06.036,0.008227180689573291,0.0006278355140239,0.0127593092620373,0,
00:00:06.04,-0.0077066901139915,-0.00261877640150487,0.000295815349090844,0,
00:00:06.044,0.0026322586927563,0.00715542724356055,-0.00441085873171687,0,
00:00:06.048,-0.00573515705764294,0.010501523502171,-0.00419806549325585,0,
00:00:06.052,-0.000875728321261704,0.0062007959932088895,0.00015164226351771498,0,
00:00:06.056,0.0035403803922236,-0.0110752414911985,0.00247659534215927,0,
00:00:06.06,-0.00634793331846595,-0.0123019684106112,1.40633728733519e-05,0,
00:00:06.064,0.00337988790124655,0.000743615732062608,-0.0038610957562923397,0,
00:00:06.068,0.0111214304342866,0.00224389019422233,-0.0101686920970678,0,
00:00:06.072,-0.0013317024568095801,0.007514315657317641,0.00464871618896723,0,
00:00:06.076,-0.00520022585988045,-0.00937229115515947,0.010697572492062999,0,
00:00:06.08,-0.00409417971968651,0.00390813499689102,0.0100545147433877,0,
00:00:06.084,0.0007605297141708429,0.008017602376639841,-0.0024337752256542397,0,
00:00:06.088,0.0031291814520955103,0.0050540822558105,-0.0115939732640982,0,
00:00:06.092,-0.00788851361721754,-0.00842503644526005,-0.0045050336048007,0,
00:00:06.096,0.00827303901314735,-0.00627721380442381,0.00474569760262966,0,
00:00:06.1,-0.0118435062468052,0.00763343228027225,0.00511570228263736,0,
00:00:06.104,0.0058128135278821,0.00540949683636427,-0.00648713484406471,0,
00:00:06.108,0.0163227021694183,-0.00885626953095198,-0.00387333356775343,0,
00:00:06.112,0.00199425220489502,-0.0130018619820476,-0.000911510549485683,0,
00:00:06.116,-0.0157186053693295,0.009512072429060941,0.00574462348595262,0,
00:00:06.12,-0.0114101190119982,0.00672838091850281,0.00504230475053191,0,
00:00:06.124,0.00914043094962835,-0.00859223585575819,0.0016208873130381099,0,
00:00:06.128,0.00434315763413906,0.0102988909929991,-0.00550333550199866,0,
00:00:06.132,0.0101132495328784,0.00979655515402555,0.00138519238680601,0,
00:00:06.136,0.000613296637311578,-0.00858582463115454,0.00735031953081489,0,
00:00:06.14,-0.0151755232363939,-0.0202132798731327,-0.00654479907825589,0,
00:00:06.144,-0.0103434668853879,-0.00475202174857259,-0.0085292961448431,0,
00:00:06.148,0.00591070391237736,0.0236381646245718,-0.00400002766400576,0,
00:00:06.152,0.0129758715629578,0.0155022721737623,0.0118055902421474,0,
00:00:06.156,0.00337130087427795,-0.0149139100685716,0.00290428823791444,0,
00:00:06.16,-0.00893043261021376,-0.0150708882138133,-0.00119463680312037,0,
00:00:06.164,-0.0047488529235124605,0.00353822321631014,-0.00633539166301489,0,
00:00:06.168,0.00764958700165153,0.0109155355021358,0.00031964282970875496,0,
00:00:06.172,0.00660538207739592,-0.000212852217373438,0.00893023889511824,0,
00:00:06.176,-0.00517397560179234,-0.009559751488268379,-0.00162626965902746,0,
