,Elapsed Time,EMG
0,00:00:00,4.062301784753798
1,00:00:00.004,-3.8574030846357337
2,00:00:00.008,-3.2151521742343916
3,00:00:00.012,-0.3589583802968264
4,00:00:00.016,1.643598243594175
5,00:00:00.02,2.011841908097269
6,00:00:00.024,1.2405524998903315
7,00:00:00.028,0.15243889062548985
8,00:00:00.032,-0.5671185143291948
9,00:00:00.036,-0.7678420394659056
10,00:00:00.04,-0.6243101283907891
11,00:00:00.044,-0.24748726817779249
12,00:00:00.048,0.0897968010103792
13,00:00:00.052,0.24200373049825402
14,00:00:00.056,0.2147468198090794
15,00:00:00.06,0.12607818865217252
16,00:00:00.064,0.013284034328535171
17,00:00:00.068,-0.06883875105995686
18,00:00:00.072,-0.06396800465881797
19,00:00:00.076,-0.049893433228135095
20,00:00:00.08,-0.02546708844602107
21,00:00:00.084,0.004967296496033696
22,00:00:00.088,0.02231308305636046
23,00:00:00.092,0.021125063183717423
24,00:00:00.096,0.02394715452101085
25,00:00:00.1,-3.519374877214952e-05
26,00:00:00.104,-0.0285109486430884
27,00:00:00.108,-0.007093155785696595
28,00:00:00.112,0.034800558118149603
29,00:00:00.116,-0.00853062661190051
30,00:00:00.12,-0.04392507765442127
31,00:00:00.124,0.018248238950036494
32,00:00:00.128,0.019840160326566502
33,00:00:00.132,0.0007708573248237298
34,00:00:00.136,-0.0024453857913613285
35,00:00:00.14,0.00046458491124212915
36,00:00:00.144,-0.0007054464658722301
37,00:00:00.148,-0.02922493475489317
38,00:00:00.152,0.006469769868999749
39,00:00:00.156,0.04363198671489959
40,00:00:00.16,-0.015890768845565666
41,00:00:00.164,-0.02304535871371631
42,00:00:00.168,0.01534886425361032
43,00:00:00.172,0.020417827647179348
44,00:00:00.176,-0.021066668909043032
45,00:00:00.18,-0.02834988944232466
46,00:00:00.184,-0.001165345442132095
47,00:00:00.188,0.01612483477219942
48,00:00:00.192,0.032374575268477215
49,00:00:00.196,0.014529390609823199
50,00:00:00.2,-0.035776952747255515
51,00:00:00.204,0.004117898351978556
52,00:00:00.208,-0.014052045502467043
53,00:00:00.212,-0.001925808144733308
54,00:00:00.216,0.009111383595154586
55,00:00:00.22,0.0002946094609796706
56,00:00:00.224,0.0028478327440098015
57,00:00:00.228,0.012673583580181
58,00:00:00.232,-0.003087451856117692
59,00:00:00.236,-0.027476883056806404
60,00:00:00.24,-0.0016159527003765089
61,00:00:00.244,0.005847770953550937
62,00:00:00.248,0.035377929918468026
63,00:00:00.252,0.01838426245376463
64,00:00:00.256,-0.0455455931369215
65,00:00:00.26,-0.004758293274790069
66,00:00:00.264,0.002908935770392371
67,00:00:00.268,-0.008804684650385787
68,00:00:00.272,0.00794220839452464
69,00:00:00.276,0.01255418686196209
70,00:00:00.28,0.010043239744845783
71,00:00:00.284,-0.001403231239237357
72,00:00:00.288,-0.01259480416774746
73,00:00:00.292,-0.010782256111269824
74,00:00:00.296,-0.01584029325749729
75,00:00:00.3,0.03171180514618752
76,00:00:00.304,0.016778239049017415
77,00:00:00.308,-0.0038754576817154503
78,00:00:00.312,-0.032699741073884125
79,00:00:00.316,0.005153967300429951
80,00:00:00.32,0.0011924146674573404
81,00:00:00.324,-0.017594771983567632
82,00:00:00.328,0.024071660824120024
83,00:00:00.332,0.04252856667153533
84,00:00:00.336,-0.0230379081331193
85,00:00:00.34,-0.04209432564675809
86,00:00:00.344,0.021599626285023946
87,00:00:00.348,0.0026614430826157297
88,00:00:00.352,-0.00818677712231875
89,00:00:00.356,0.0007718624547123918
90,00:00:00.36,0.017973315261770068
91,00:00:00.364,-0.002497978508472422
92,00:00:00.368,-0.01370428688824175
93,00:00:00.372,0.0008692515548318486
94,00:00:00.376,0.004017651677713727
95,00:00:00.38,0.01284115738235411
96,00:00:00.384,-0.007672083098441321
97,00:00:00.388,-0.015579212107695641
98,00:00:00.392,0.03325194335775448
99,00:00:00.396,-0.04996445064898579
100,00:00:00.4,-0.033616388216614695
101,00:00:00.404,0.06368798794574107
102,00:00:00.408,0.0534136433852837
103,00:00:00.412,-0.004777268040925299
104,00:00:00.416,-0.04352465411648159
105,00:00:00.42,-0.04072314919903879
106,00:00:00.424,0.004656537901610129
107,00:00:00.428,0.01167556829750535
108,00:00:00.432,-0.00248911697417498
109,00:00:00.436,0.038449387997388805
110,00:00:00.44,0.01921391231007876
111,00:00:00.444,-0.03079132665880023
112,00:00:00.448,-0.01615409844089301
113,00:00:00.452,-0.0016965201357379209
114,00:00:00.456,0.0017305588844465048
115,00:00:00.46,0.006387623376212969
116,00:00:00.464,0.0003179160412401017
117,00:00:00.468,0.00084294099360698
118,00:00:00.472,0.00798697466962039
119,00:00:00.476,0.01213980652391911
120,00:00:00.48,-0.04527154983952643
121,00:00:00.484,0.019743746612221
122,00:00:00.488,0.03678455343469975
123,00:00:00.492,-0.052005590288899874
124,00:00:00.496,-0.0054871924221515595
125,00:00:00.5,0.04845165926963091
126,00:00:00.504,0.0015458948910236506
127,00:00:00.508,-0.006712375092320148
128,00:00:00.512,-0.025706670712679673
129,00:00:00.516,-0.00810119672678411
130,00:00:00.52,0.00661411182954907
131,00:00:00.524,0.00508738495409489
132,00:00:00.528,-0.0026386522222310305
133,00:00:00.532,0.01637640394619665
134,00:00:00.536,0.014529659332765735
135,00:00:00.54,-0.01766430167481304
136,00:00:00.544,-0.00619159685447812
137,00:00:00.548,0.01245691650547087
138,00:00:00.552,-0.016178292687982362
139,00:00:00.556,-0.004630733048543341
140,00:00:00.56,-0.03762725717388091
141,00:00:00.564,0.029246570193208768
142,00:00:00.568,0.057140458375215517
143,00:00:00.572,-0.0009392409119755082
144,00:00:00.576,-0.023279887624084998
145,00:00:00.58,-0.02170499181374906
146,00:00:00.584,0.0005358720663934994
147,00:00:00.588,-0.00815451529342681
148,00:00:00.592,-0.01500173215754335
149,00:00:00.596,0.01040039118379353
150,00:00:00.6,0.0487104449421167
151,00:00:00.604,-0.000617740210145705
152,00:00:00.608,-0.020668841432780062
153,00:00:00.612,-0.00860829278826709
154,00:00:00.616,-0.03213034011423592
155,00:00:00.62,0.014903638046234853
156,00:00:00.624,0.03172167600132525
157,00:00:00.628,-0.0010077625047415536
158,00:00:00.632,-0.0072326385416090185
159,00:00:00.636,-0.00048032868653536016
160,00:00:00.64,-0.01338638085871932
161,00:00:00.644,-0.00300141680054368
162,00:00:00.648,-0.0037502492778002904
163,00:00:00.652,0.018571881577372523
164,00:00:00.656,0.019454648332612134
165,00:00:00.66,-0.01349997892975809
166,00:00:00.664,-0.023550007957965118
167,00:00:00.668,0.006007130781654296
168,00:00:00.672,0.02387229911983013
169,00:00:00.676,-0.014100992601015612
170,00:00:00.68,-0.02145938249304894
171,00:00:00.684,0.0102802349429112
172,00:00:00.688,0.0069650441873818705
173,00:00:00.692,-0.00299443956464526
174,00:00:00.696,0.03342314087785789
175,00:00:00.7,-0.00910782674327493
176,00:00:00.704,-0.03158032521605496
177,00:00:00.708,0.00769251910969616
178,00:00:00.712,-0.008182520628906799
179,00:00:00.716,0.009909786793286916
180,00:00:00.72,0.01648614322766655
181,00:00:00.724,-0.004351538140326711
182,00:00:00.728,-0.0345978802070021
183,00:00:00.732,-0.00974543439224367
184,00:00:00.736,0.048562559066340334
185,00:00:00.74,0.020350037026219084
186,00:00:00.744,-0.009310661349445581
187,00:00:00.748,-0.00274128373712305
188,00:00:00.752,-0.05574291758239269
189,00:00:00.756,-0.0007799421437085109
190,00:00:00.76,0.027497728355228884
191,00:00:00.764,0.026962860487401468
192,00:00:00.768,-0.005290566710755231
193,00:00:00.772,-0.01604537569073726
194,00:00:00.776,0.008883185044396663
195,00:00:00.78,-0.0014572236686944788
196,00:00:00.784,-0.01667331345379356
197,00:00:00.788,-0.00579997245222324
198,00:00:00.792,0.010290762380464002
199,00:00:00.796,0.01683209359180179
200,00:00:00.8,-0.015878100472036742
201,00:00:00.804,0.02832111855968833
202,00:00:00.808,-0.021323333494365222
203,00:00:00.812,-0.025373188313096758
204,00:00:00.816,0.01570067671127616
205,00:00:00.82,0.027342890971340312
206,00:00:00.824,-0.012786947947461123
207,00:00:00.828,0.00549848936498159
208,00:00:00.832,-0.01020858495030552
209,00:00:00.836,-0.015582888037897686
210,00:00:00.84,-0.00298029067926109
211,00:00:00.844,0.00765653769485653
212,00:00:00.848,0.02485472889384256
213,00:00:00.852,-0.0029091490432620083
214,00:00:00.856,-0.01421624748036265
215,00:00:00.86,-0.00324756256304681
216,00:00:00.864,0.00983030832139775
217,00:00:00.868,-0.00538041349500421
218,00:00:00.872,-0.017340873600915078
219,00:00:00.876,0.01364457956515253
220,00:00:00.88,0.02739821095019577
221,00:00:00.884,-0.02130755037069316
222,00:00:00.888,0.003958587069064369
223,00:00:00.892,-0.038871355354785905
224,00:00:00.896,0.00489765824750065
225,00:00:00.9,0.052239944227039786
226,00:00:00.904,0.011005768028553568
227,00:00:00.908,-0.01282539207022642
228,00:00:00.912,-0.022918279981240602
229,00:00:00.916,-0.03197060665115719
230,00:00:00.92,0.015056501724757245
231,00:00:00.924,0.011207949602976419
232,00:00:00.928,0.018897428410127717
233,00:00:00.932,-0.005382340052165081
234,00:00:00.936,-0.01413391530513763
235,00:00:00.94,0.006726189167238789
236,00:00:00.944,0.0019730515778064997
237,00:00:00.948,0.00206099799834192
238,00:00:00.952,0.0035602450370788696
239,00:00:00.956,-0.004148165171500293
240,00:00:00.96,-0.0012468132772482936
241,00:00:00.964,-0.02561213285662241
242,00:00:00.968,0.01254305208567528
243,00:00:00.972,0.02469292475143449
244,00:00:00.976,0.005527692846953869
245,00:00:00.98,-0.01889358926564453
246,00:00:00.984,-0.020834405440837152
247,00:00:00.988,0.01810371724423018
248,00:00:00.992,0.005974805506411977
249,00:00:00.996,-0.010008799843490101
250,00:00:01,0.03106943564489483
251,00:00:01.004,-0.011118318652734119
252,00:00:01.008,-0.02219104836694901
253,00:00:01.012,-0.03256301535293462
254,00:00:01.016,0.04025821574032301
255,00:00:01.02,0.02897806977853178
256,00:00:01.024,-0.008284026291221339
257,00:00:01.028,-0.026249676477163992
258,00:00:01.032,-0.01283681203494783
259,00:00:01.036,-0.0007008682005107715
260,00:00:01.04,0.023516849614679817
261,00:00:01.044,0.01796582993119958
262,00:00:01.048,-0.003294130321592101
263,00:00:01.052,-0.04625343321822585
264,00:00:01.056,0.013616566779091921
265,00:00:01.06,0.0396370710805058
266,00:00:01.064,0.0037505785003304516
267,00:00:01.068,-0.052727059461176395
268,00:00:01.072,-0.0026618149131536623
269,00:00:01.076,0.027101263869553797
270,00:00:01.08,0.01243960729334504
271,00:00:01.084,0.001184732187539398
272,00:00:01.088,-0.019686467596329717
273,00:00:01.092,0.003096668981015729
274,00:00:01.096,-0.01000411901623008
275,00:00:01.1,0.010139224759768714
276,00:00:01.104,0.02137628942728047
277,00:00:01.108,0.0002711692359298394
278,00:00:01.112,-0.023337057791650333
279,00:00:01.116,-0.028760867193341273
280,00:00:01.12,0.00845071254298091
281,00:00:01.124,0.043683078190952074
282,00:00:01.128,-0.014015554916113622
283,00:00:01.132,-0.005354738794267161
284,00:00:01.136,0.0146991448709741
285,00:00:01.14,0.002495587395969822
286,00:00:01.144,-0.00977445184253156
287,00:00:01.148,-0.02071508113294839
288,00:00:01.152,-0.011958490533288527
289,00:00:01.156,-0.002622633706778321
290,00:00:01.16,0.02664094464853413
291,00:00:01.164,0.021635782904922986
292,00:00:01.168,0.0010017105378210094
293,00:00:01.172,-0.008303168826387222
294,00:00:01.176,-0.01165984029648828
295,00:00:01.18,-0.014808098552748561
296,00:00:01.184,-0.0030318661301862427
297,00:00:01.188,0.015108907595276892
298,00:00:01.192,0.011951524997130057
299,00:00:01.196,-0.016222918202402042
300,00:00:01.2,-0.00565800163894891
301,00:00:01.204,0.03810579888522618
302,00:00:01.208,-0.015049230365548245
303,00:00:01.212,-0.04310266912216318
304,00:00:01.216,0.021881216438487127
305,00:00:01.22,0.014004240278154551
306,00:00:01.224,0.004385081585496661
307,00:00:01.228,0.014289220096543438
308,00:00:01.232,-0.02262476971372955
309,00:00:01.236,-0.03371113608591256
310,00:00:01.24,0.018507546745240692
311,00:00:01.244,0.040975493611767874
312,00:00:01.248,-0.01714201220602267
313,00:00:01.252,-0.0293881458928809
314,00:00:01.256,0.015527625335380397
315,00:00:01.26,0.00277591985650361
316,00:00:01.264,0.018623831332661232
317,00:00:01.268,-0.002838897693436599
318,00:00:01.272,-0.0213069701567292
319,00:00:01.276,0.01107830668843235
320,00:00:01.28,0.005367456004023599
321,00:00:01.284,-0.034009916533250334
322,00:00:01.288,-0.005804223132145124
323,00:00:01.292,0.032732754945755
324,00:00:01.296,0.019285536487586772
325,00:00:01.3,0.01236714888364077
326,00:00:01.304,-0.02325111534446475
327,00:00:01.308,-0.03679202776402238
328,00:00:01.312,0.003656905144453021
329,00:00:01.316,-0.00268913852050901
330,00:00:01.32,0.04713749431539329
331,00:00:01.324,0.00335035601165146
332,00:00:01.328,-0.0015845261514186582
333,00:00:01.332,-0.03237762302160266
334,00:00:01.336,-0.01301917224191129
335,00:00:01.34,0.0022223442792892196
336,00:00:01.344,0.01586054731160404
337,00:00:01.348,0.018320811446756124
338,00:00:01.352,-0.006912265904247752
339,00:00:01.356,-0.006723852944560341
340,00:00:01.36,0.0008253140840679394
341,00:00:01.364,0.00417775544337929
342,00:00:01.368,0.004762621712870894
343,00:00:01.372,-0.0379232420236804
344,00:00:01.376,-0.008565262425690893
345,00:00:01.38,0.05340200010687109
346,00:00:01.384,0.01390854740748182
347,00:00:01.388,-0.0030721537768840512
348,00:00:01.392,-0.02221028273925184
349,00:00:01.396,-0.05051705444930124
350,00:00:01.4,0.00792051223106682
351,00:00:01.404,0.0445493217557669
352,00:00:01.408,0.01723124296404419
353,00:00:01.412,-0.015222448593704035
354,00:00:01.416,-0.004194289119368474
355,00:00:01.42,-0.01445454487111419
356,00:00:01.424,-0.0007750517688691612
357,00:00:01.428,0.007151045545469974
358,00:00:01.432,0.017772818915545927
359,00:00:01.436,0.0016984324902296006
360,00:00:01.44,-0.050542480312287814
361,00:00:01.444,0.0038670537760481234
362,00:00:01.448,0.052255322225391906
363,00:00:01.452,-5.047512240707961e-05
364,00:00:01.456,-0.005709872348234061
365,00:00:01.46,-0.023120170459151233
366,00:00:01.464,-0.0354602739680559
367,00:00:01.468,0.03398550534620879
368,00:00:01.472,0.03455650270916524
369,00:00:01.476,-0.04141906974837186
370,00:00:01.48,0.01562268147245053
371,00:00:01.484,0.006302835419774042
372,00:00:01.488,0.005300538614392329
373,00:00:01.492,-0.0038307699287542718
374,00:00:01.496,-0.018886563251726374
375,00:00:01.5,0.009049747779499732
376,00:00:01.504,0.012263095253729301
377,00:00:01.508,-0.043185239657759666
378,00:00:01.512,0.00438623572699725
379,00:00:01.516,0.040880105458199964
380,00:00:01.52,0.002891382755478813
381,00:00:01.524,-0.00212923064827919
382,00:00:01.528,-0.0011117451358586597
383,00:00:01.532,-0.009779612766578799
384,00:00:01.536,-0.013804310932755429
385,00:00:01.54,0.00367623544298113
386,00:00:01.544,-0.02644510124810042
387,00:00:01.548,0.029183329199440822
388,00:00:01.552,0.01561773265711968
389,00:00:01.556,0.019339453254360733
390,00:00:01.56,-0.018879223614931134
391,00:00:01.564,-0.03685326129198068
392,00:00:01.568,0.02840291755273934
393,00:00:01.572,-0.009581745718605754
394,00:00:01.576,-0.01525753084570167
395,00:00:01.58,0.02800098014995452
396,00:00:01.584,0.014023292518686545
397,00:00:01.588,-0.02314403583295646
398,00:00:01.592,-0.00572643801569938
399,00:00:01.596,0.00704484549351037
400,00:00:01.6,0.0008705209475010304
401,00:00:01.604,0.006057122649508559
402,00:00:01.608,-0.00368750130292028
403,00:00:01.612,-0.006501242576632647
404,00:00:01.616,0.00225073925685137
405,00:00:01.62,-0.005780575564131139
406,00:00:01.624,0.006397597666364165
407,00:00:01.628,0.013913866830989722
408,00:00:01.632,0.0015198576729745406
409,00:00:01.636,-0.022973504368565073
410,00:00:01.64,-0.02528328105108813
411,00:00:01.644,0.041773636592552066
412,00:00:01.648,0.0080949924886226
413,00:00:01.652,-0.00446153152734042
414,00:00:01.656,-0.008791334112174809
415,00:00:01.66,-0.01310943637508896
416,00:00:01.664,-0.004839486908167601
417,00:00:01.668,-0.0003627205733209805
418,00:00:01.672,0.04058620333671563
419,00:00:01.676,-0.0095900350715965
420,00:00:01.68,-0.011010614107362919
421,00:00:01.684,-0.0021481815492734304
422,00:00:01.688,-0.01980276103131469
423,00:00:01.692,-0.010747230611741543
424,00:00:01.696,0.04328785417601464
425,00:00:01.7,0.001918800291605291
426,00:00:01.704,-0.011021393118426185
427,00:00:01.708,0.00502360856626179
428,00:00:01.712,-0.02342817117460071
429,00:00:01.716,-0.028754769416991614
430,00:00:01.72,0.03322190418839451
431,00:00:01.724,0.029366755741648428
432,00:00:01.728,0.01068994402885437
433,00:00:01.732,-0.014864127850160001
434,00:00:01.736,-0.03568471039761793
435,00:00:01.74,0.01482341834343974
436,00:00:01.744,0.004170221742242571
437,00:00:01.748,-0.009434868115931751
438,00:00:01.752,-0.0024064487661234757
439,00:00:01.756,0.01791019970551133
440,00:00:01.76,0.00205127056688067
441,00:00:01.764,-0.014894989755703098
442,00:00:01.768,-0.003352044950588607
443,00:00:01.772,0.0177378571825102
444,00:00:01.776,0.0077497589227278245
445,00:00:01.78,-0.01122881716582924
446,00:00:01.784,-0.004272219681297427
447,00:00:01.788,-0.019630390612292076
448,00:00:01.792,-0.0027088314527645672
449,00:00:01.796,0.034969421220012044
450,00:00:01.8,0.00992874056100844
451,00:00:01.804,-0.029072293080389493
452,00:00:01.808,0.001774522010237002
453,00:00:01.812,0.00014608399942522225
454,00:00:01.816,0.012416018173098573
455,00:00:01.82,-0.00698346784338355
456,00:00:01.824,0.00214790479003568
457,00:00:01.828,-2.777689951470922e-05
458,00:00:01.832,-0.01111197436694056
459,00:00:01.836,0.0006474410183727769
460,00:00:01.84,-0.005497620673850201
461,00:00:01.844,0.0224468363448977
462,00:00:01.848,0.006180748110637109
463,00:00:01.852,-0.01231066766194999
464,00:00:01.856,-0.007934588938951489
465,00:00:01.86,-0.002078210120089359
466,00:00:01.864,0.008213691569835646
467,00:00:01.868,-0.002616778016090388
468,00:00:01.872,-0.00446306017693131
469,00:00:01.876,0.00860515749081972
470,00:00:01.88,-0.02294945623725656
471,00:00:01.884,0.021176855079829672
472,00:00:01.888,0.018239185679703947
473,00:00:01.892,-0.00620141974650324
474,00:00:01.896,-0.02047666994621978
475,00:00:01.9,0.0017176629044115491
476,00:00:01.904,-0.011689056816976524
477,00:00:01.908,0.04071866907179349
478,00:00:01.912,-0.01556979201268403
479,00:00:01.916,-0.016622880008071626
480,00:00:01.92,-0.0031115615274757116
481,00:00:01.924,0.002546222996898
482,00:00:01.928,0.00414189556613561
483,00:00:01.932,0.01185206254012883
484,00:00:01.936,0.01905122306197884
485,00:00:01.94,-0.03802087437361477
486,00:00:01.944,-0.00045292061986400116
487,00:00:01.948,0.022246676147915388
488,00:00:01.952,-0.01283870835322883
489,00:00:01.956,0.0017290527466684597
490,00:00:01.96,0.0031386661576107097
491,00:00:01.964,-0.005578735232120383
492,00:00:01.968,0.004517306573688986
493,00:00:01.972,0.0009983984054998292
494,00:00:01.976,-0.0006742231780663202
495,00:00:01.98,0.013503900947398544
496,00:00:01.984,-0.033183956984430565
497,00:00:01.988,-0.010472955182194661
498,00:00:01.992,0.050319766625762
499,00:00:01.996,0.0012109410017728927
500,00:00:02,-0.023445998667739377
501,00:00:02.004,-0.00742989452555781
502,00:00:02.008,0.0119055958930403
503,00:00:02.012,0.0008850694866850937
504,00:00:02.016,-0.014537526032654558
505,00:00:02.02,0.01417334447614853
506,00:00:02.024,-0.011492567020468464
507,00:00:02.028,-0.011318150849547244
508,00:00:02.032,0.02966892812401057
509,00:00:02.036,-0.0143462885171175
510,00:00:02.04,0.014491681475192357
511,00:00:02.044,0.006083936896175091
512,00:00:02.048,-0.010678181890398208
513,00:00:02.052,-0.013623102102428671
514,00:00:02.056,0.0008408086141571992
515,00:00:02.06,-0.023858630389440853
516,00:00:02.064,0.033736458979547
517,00:00:02.068,0.011710867751389728
518,00:00:02.072,-0.002955237519927315
519,00:00:02.076,-0.016765942098572892
520,00:00:02.08,-0.005497728445334365
521,00:00:02.084,0.01368758222088217
522,00:00:02.088,0.01090355683118105
523,00:00:02.092,-0.00912025291472672
524,00:00:02.096,-0.03148180153220889
525,00:00:02.1,-0.0015208057593554195
526,00:00:02.104,0.04214412660803648
527,00:00:02.108,0.01172687673533806
528,00:00:02.112,-0.015355310402810572
529,00:00:02.116,-0.02195240207947787
530,00:00:02.12,0.00354624912142753
531,00:00:02.124,0.02790958900004621
532,00:00:02.128,-0.03716830880148336
533,00:00:02.132,-0.001478190097259361
534,00:00:02.136,0.014146455563604853
535,00:00:02.14,0.01554914959706365
536,00:00:02.144,-0.00292086449917406
537,00:00:02.148,-0.006751644774340121
538,00:00:02.152,0.0018530339002609305
539,00:00:02.156,-0.0005567762418650098
540,00:00:02.16,-0.02398198610171674
541,00:00:02.164,0.02689213119447234
542,00:00:02.168,0.0010140772938029858
543,00:00:02.172,0.0044330551754683195
544,00:00:02.176,-0.0204821196384728
545,00:00:02.18,-0.019655450247228187
546,00:00:02.184,0.03608487616293137
547,00:00:02.188,0.01462779031135142
548,00:00:02.192,-0.02842142945155498
549,00:00:02.196,-0.01074569486081598
550,00:00:02.2,0.0328768827021122
551,00:00:02.204,0.01522891223430634
552,00:00:02.208,-0.05270468024536971
553,00:00:02.212,-0.00923176517244427
554,00:00:02.216,0.02762504376005383
555,00:00:02.22,0.017891653813421782
556,00:00:02.224,0.0020928885787725093
557,00:00:02.228,-0.007910725194960768
558,00:00:02.232,-0.01592482184059918
559,00:00:02.236,-8.68700444698299e-05
560,00:00:02.24,0.008156443946063562
561,00:00:02.244,-0.01323293324094264
562,00:00:02.248,0.003491703653708095
563,00:00:02.252,0.0254633047152311
564,00:00:02.256,-0.01967036537826062
565,00:00:02.26,0.0023909177398309103
566,00:00:02.264,0.02115004416555168
567,00:00:02.268,-0.01926364051178094
568,00:00:02.272,-0.007527479203417901
569,00:00:02.276,-0.00937310932204127
570,00:00:02.28,-0.006587282521650169
571,00:00:02.284,0.029477670323103673
572,00:00:02.288,0.020504446700215378
573,00:00:02.292,-0.00790712330490348
574,00:00:02.296,-0.04663602402433756
575,00:00:02.3,0.0038483873941004207
576,00:00:02.304,0.0309194126166403
577,00:00:02.308,0.0021165697835385903
578,00:00:02.312,-0.00401934678666294
579,00:00:02.316,-0.007127668650355227
580,00:00:02.32,-0.017916027718456504
581,00:00:02.324,0.026975207030773208
582,00:00:02.328,0.01678070425987246
583,00:00:02.332,-0.01178244361653924
584,00:00:02.336,-0.0398790058679879
585,00:00:02.34,0.005636622227029878
586,00:00:02.344,0.02582292162696835
587,00:00:02.348,-0.003743555163964651
588,00:00:02.352,0.006327544339001139
589,00:00:02.356,0.010257872170768692
590,00:00:02.36,-0.017729094950482242
591,00:00:02.364,-0.022779977414756993
592,00:00:02.368,0.024320458993315714
593,00:00:02.372,0.010126067325472821
594,00:00:02.376,-0.01255513681098821
595,00:00:02.38,-0.00573270139284432
596,00:00:02.384,0.018177320540416955
597,00:00:02.388,-0.015258808271028119
598,00:00:02.392,0.0071610565646552425
599,00:00:02.396,-0.00867528223898262
600,00:00:02.4,-0.005852422094903901
601,00:00:02.404,0.00952654739376154
602,00:00:02.408,0.012183278915472329
603,00:00:02.412,-0.00017805304378271016
604,00:00:02.416,-0.002124429214745682
605,00:00:02.42,-0.004048631381010644
606,00:00:02.424,-0.012351413257419997
607,00:00:02.428,-0.03193733457010241
608,00:00:02.432,0.03331995382905008
609,00:00:02.436,0.03283606609329581
610,00:00:02.44,-0.0070906903129071015
611,00:00:02.444,-0.028118897767853895
612,00:00:02.448,0.0016749412752688209
613,00:00:02.452,0.007983970630448351
614,00:00:02.456,0.0233384978491813
615,00:00:02.46,-0.020006882026791607
616,00:00:02.464,-0.0032120114192366704
617,00:00:02.468,-0.021022175904363376
618,00:00:02.472,-0.001903022639453418
619,00:00:02.476,0.0224868385121226
620,00:00:02.48,0.014859236776828752
621,00:00:02.484,-0.00347179942764341
622,00:00:02.488,-0.01040661172010005
623,00:00:02.492,-2.982296427944675e-05
624,00:00:02.496,-0.010476849565748117
625,00:00:02.5,-0.006257600558456033
626,00:00:02.504,0.020279770018532917
627,00:00:02.508,0.013735861983150249
628,00:00:02.512,-0.006503780023194855
629,00:00:02.516,-0.024004896637052298
630,00:00:02.52,0.014475474366918201
631,00:00:02.524,-0.00983806233853102
632,00:00:02.528,0.00376181129831822
633,00:00:02.532,0.000872630116646185
634,00:00:02.536,0.008088786853477359
635,00:00:02.54,0.004670248235925097
636,00:00:02.544,0.0010834640124812445
637,00:00:02.548,-0.018850174266844988
638,00:00:02.552,-0.04839796119631493
639,00:00:02.556,0.05413206538651136
640,00:00:02.56,0.033598787849768996
641,00:00:02.564,0.008465704973787059
642,00:00:02.568,-0.01864606735762211
643,00:00:02.572,-0.03877719840966162
644,00:00:02.576,-0.003449547890340951
645,00:00:02.58,0.0029818977927788615
646,00:00:02.584,0.011561064515262799
647,00:00:02.588,0.02059675753116608
648,00:00:02.592,-0.01160357380285858
649,00:00:02.596,-0.0053073966410011105
650,00:00:02.6,0.00018365134019404465
651,00:00:02.604,-0.0037157984770601637
652,00:00:02.608,0.006031817058101299
653,00:00:02.612,0.02834494784474372
654,00:00:02.616,-0.01617685612291095
655,00:00:02.62,-0.015783900627866367
656,00:00:02.624,-0.02266901265829801
657,00:00:02.628,0.0015338267985498563
658,00:00:02.632,0.03259779373183852
659,00:00:02.636,0.008849649922922241
660,00:00:02.64,0.003790226532146339
661,00:00:02.644,-0.02889859396964309
662,00:00:02.648,-0.0012713037431240411
663,00:00:02.652,0.004678245226386959
664,00:00:02.656,0.00542008562479168
665,00:00:02.66,0.013599940342828588
666,00:00:02.664,-0.005281874327920379
667,00:00:02.668,-0.009409103018697353
668,00:00:02.672,-0.012072743673343251
669,00:00:02.676,-0.013323796447366521
670,00:00:02.68,0.04224675288423889
671,00:00:02.684,0.007384536671452222
672,00:00:02.688,-0.03000274440273645
673,00:00:02.692,0.0033432100899517614
674,00:00:02.696,-0.004103242070414118
675,00:00:02.7,0.010808433173224321
676,00:00:02.704,0.0030513973906636195
677,00:00:02.708,-0.021458688541315465
678,00:00:02.712,0.0092400957364589
679,00:00:02.716,0.011671010288409892
680,00:00:02.72,0.006302852882072347
681,00:00:02.724,0.005622309865429998
682,00:00:02.728,-0.01085868966765702
683,00:00:02.732,-0.029203221434727342
684,00:00:02.736,-0.0009629353880882385
685,00:00:02.74,0.013516060309484608
686,00:00:02.744,0.02464610314927999
687,00:00:02.748,-0.00037759053520857984
688,00:00:02.752,-0.00847884942777455
689,00:00:02.756,-0.01369875902310013
690,00:00:02.76,0.0068484767689369645
691,00:00:02.764,0.013992074993439019
692,00:00:02.768,0.00644591357558965
693,00:00:02.772,-0.04691984271630642
694,00:00:02.776,0.001701219822280099
695,00:00:02.78,0.022525605978444246
696,00:00:02.784,0.01997775002382694
697,00:00:02.788,-0.009661714764661159
698,00:00:02.792,-0.005972346989437929
699,00:00:02.796,0.007847388216760003
700,00:00:02.8,-0.005949642858467988
701,00:00:02.804,-0.005131808924488722
702,00:00:02.808,-0.029991492861881828
703,00:00:02.812,0.02328410116024318
704,00:00:02.816,0.0291245414409786
705,00:00:02.82,0.0022865770588396117
706,00:00:02.824,-0.02471386000979694
707,00:00:02.828,0.00432682852260768
708,00:00:02.832,-0.005787182133644822
709,00:00:02.836,-0.008325038710609082
710,00:00:02.84,-0.00183017563540489
711,00:00:02.844,0.004410351539263499
712,00:00:02.848,0.014956271392293278
713,00:00:02.852,0.02425345452502374
714,00:00:02.856,-0.03229559701867399
715,00:00:02.86,-0.00836786336731166
716,00:00:02.864,0.011605364969000241
717,00:00:02.868,-0.0038093561306595802
718,00:00:02.872,-0.0003356095403433089
719,00:00:02.876,0.016510947607457634
720,00:00:02.88,-0.007433770573697978
721,00:00:02.884,-0.026715885149315003
722,00:00:02.888,0.01344534731470048
723,00:00:02.892,0.012709607370197783
724,00:00:02.896,-0.00619916815776376
725,00:00:02.9,0.009068126557394892
726,00:00:02.904,0.0049541792832315
727,00:00:02.908,-0.01515329908579591
728,00:00:02.912,-0.0031919832108542393
729,00:00:02.916,-0.0008564207237213299
730,00:00:02.92,-8.11375066405088e-05
731,00:00:02.924,0.015439464477822188
732,00:00:02.928,-0.00998981506563724
733,00:00:02.932,-0.013561725150793756
734,00:00:02.936,0.013089367945212916
735,00:00:02.94,0.0025006593205034715
736,00:00:02.944,0.01115857437252998
737,00:00:02.948,0.009521154686808583
738,00:00:02.952,-0.023649199283681824
739,00:00:02.956,-0.02021316485479474
740,00:00:02.96,0.02473881735932082
741,00:00:02.964,-0.002431162720313294
742,00:00:02.968,-0.013426311605144285
743,00:00:02.972,0.001069396967068269
744,00:00:02.976,0.02175907371565701
745,00:00:02.98,-0.0007960479706525699
746,00:00:02.984,0.0003383717848919384
747,00:00:02.988,-0.0037899581366218705
748,00:00:02.992,-0.00564731075428426
749,00:00:02.996,-0.01252117357216776
750,00:00:03,0.006652215844951571
751,00:00:03.004,0.0016313660889863812
752,00:00:03.008,0.009021440753713268
753,00:00:03.012,-0.0005049752071499994
754,00:00:03.016,-0.006870571785839246
755,00:00:03.02,0.012382347485981899
756,00:00:03.024,0.0032225195318460495
757,00:00:03.028,-0.015286615525837958
758,00:00:03.032,-0.02042771107517187
759,00:00:03.036,0.01626248052343724
760,00:00:03.04,0.017034649150446068
761,00:00:03.044,-0.027710843598470078
762,00:00:03.048,0.01861174585064869
763,00:00:03.052,0.02146913995966312
764,00:00:03.056,-0.005923655000515289
765,00:00:03.06,-0.02308508520945906
766,00:00:03.064,-0.0033477426622994257
767,00:00:03.068,0.00536472536623476
768,00:00:03.072,-0.020885565085336545
769,00:00:03.076,0.02248597191646694
770,00:00:03.08,0.012361439876258349
771,00:00:03.084,0.0021468941704370086
772,00:00:03.088,-0.0063284046482294295
773,00:00:03.092,0.0022486057132482503
774,00:00:03.096,-0.00859570945613084
775,00:00:03.1,0.0020777592435479207
776,00:00:03.104,0.0019224551506340209
777,00:00:03.108,-0.01106212544254963
778,00:00:03.112,-0.006836502361693428
779,00:00:03.116,-0.0069296485744416315
780,00:00:03.12,0.020624816068448112
781,00:00:03.124,0.022057295602280622
782,00:00:03.128,-0.0035535786300897286
783,00:00:03.132,-0.014247520128265032
784,00:00:03.136,-0.00394543958827855
785,00:00:03.14,-0.00620794284623117
786,00:00:03.144,0.00462824420537797
787,00:00:03.148,-0.007281914120540032
788,00:00:03.152,-0.015323597472161048
789,00:00:03.156,0.03835623746272178
790,00:00:03.16,0.00499851745553315
791,00:00:03.164,-0.009162541478872289
792,00:00:03.168,-0.010475885355845089
793,00:00:03.172,-0.0015714892651885817
794,00:00:03.176,-0.01666140207089483
795,00:00:03.18,0.017821050278143954
796,00:00:03.184,0.0009162004571408031
797,00:00:03.188,0.02887687087059023
798,00:00:03.192,-0.023959975689649582
799,00:00:03.196,-0.03746936735115011
800,00:00:03.2,0.025139115285128372
801,00:00:03.204,0.01700019295094535
802,00:00:03.208,0.0038753803819417927
803,00:00:03.212,-0.0070716806512791715
804,00:00:03.216,-0.00955614057602357
805,00:00:03.22,-0.007832355098798911
806,00:00:03.224,0.01004358683712787
807,00:00:03.228,0.003543491358868782
808,00:00:03.232,0.006723925471305841
809,00:00:03.236,-0.006696801487123587
810,00:00:03.24,0.006484998157247903
811,00:00:03.244,-0.019406350213103014
812,00:00:03.248,-0.0038508258294314103
813,00:00:03.252,0.01927982945926488
814,00:00:03.256,-0.004741411656141279
815,00:00:03.26,0.004139522090554281
816,00:00:03.264,0.005819291342049832
817,00:00:03.268,0.0021990037057548787
818,00:00:03.272,-0.029335322091355965
819,00:00:03.276,-0.0040862085297703995
820,00:00:03.28,0.025855708168819526
821,00:00:03.284,0.010260789189487661
822,00:00:03.288,-0.0051790429861284775
823,00:00:03.292,-0.02534452546387917
824,00:00:03.296,0.005838221142766989
825,00:00:03.3,0.00756757194176321
826,00:00:03.304,0.02503985306248069
827,00:00:03.308,-0.006635392084717759
828,00:00:03.312,-0.01304196007549763
829,00:00:03.316,-0.014580454560928007
830,00:00:03.32,-0.008107756962999698
831,00:00:03.324,0.0071427251095883566
832,00:00:03.328,0.0032666772603988704
833,00:00:03.332,0.02647624738165174
834,00:00:03.336,-0.005323935649357729
835,00:00:03.34,0.0062955016037449475
836,00:00:03.344,-0.010983140207827091
837,00:00:03.348,-0.006456585368141529
838,00:00:03.352,-0.01850683521479366
839,00:00:03.356,-0.025061409571208063
840,00:00:03.36,0.03311461769044398
841,00:00:03.364,0.03601010516285893
842,00:00:03.368,0.014282852644100778
843,00:00:03.372,-0.0452197082340717
844,00:00:03.376,-0.02039050904568282
845,00:00:03.38,0.01888991845771673
846,00:00:03.384,0.012001335388049482
847,00:00:03.388,0.010929207957815377
848,00:00:03.392,-0.013387989951297639
849,00:00:03.396,-0.003286222694441711
850,00:00:03.4,-0.014542387798428551
851,00:00:03.404,0.0037893159314990104
852,00:00:03.408,0.012979848543182008
853,00:00:03.412,0.0024355942150577903
854,00:00:03.416,-0.003658276342321194
855,00:00:03.42,-0.0002466848818585229
856,00:00:03.424,-0.00394993531517685
857,00:00:03.428,-0.002516670618206272
858,00:00:03.432,0.014863188087474558
859,00:00:03.436,0.0008860448142514205
860,00:00:03.44,-0.00417527230456471
861,00:00:03.444,-0.01898136152885857
862,00:00:03.448,0.0194392129778862
863,00:00:03.452,-0.0033328668214380724
864,00:00:03.456,-0.038249850738793605
865,00:00:03.46,0.018149422074202455
866,00:00:03.464,0.04641161812469365
867,00:00:03.468,-0.003135615639621458
868,00:00:03.472,-0.026998479908797897
869,00:00:03.476,-0.009376697940751952
870,00:00:03.48,0.01157438859809189
871,00:00:03.484,-0.000490803737193379
872,00:00:03.488,-0.00534662930294872
873,00:00:03.492,-0.01013595855329186
874,00:00:03.496,0.00585877057164904
875,00:00:03.5,0.018247433239594112
876,00:00:03.504,-0.0013971792504889895
877,00:00:03.508,-0.0014900721726007742
878,00:00:03.512,-0.00357915461063389
879,00:00:03.516,0.006447286112234005
880,00:00:03.52,-0.006092645693570419
881,00:00:03.524,-0.02073158440180124
882,00:00:03.528,-0.0008198486175388002
883,00:00:03.532,0.014281411888077859
884,00:00:03.536,0.017420801334083063
885,00:00:03.54,-0.02174263214692478
886,00:00:03.544,0.009387503610923841
887,00:00:03.548,0.01913023460656402
888,00:00:03.552,-0.03477382527853477
889,00:00:03.556,0.0075329201063141105
890,00:00:03.56,0.018480361322872313
891,00:00:03.564,0.0025566595140844514
892,00:00:03.568,-0.01002359809353948
893,00:00:03.572,-0.013849053066223818
894,00:00:03.576,-0.00411274621728808
895,00:00:03.58,0.00890293251723052
896,00:00:03.584,0.003840701421722771
897,00:00:03.588,0.0066818953491747
898,00:00:03.592,0.00374209205619991
899,00:00:03.596,-0.011111682077171286
900,00:00:03.6,0.0020543292921502095
901,00:00:03.604,-0.010642538196407259
902,00:00:03.608,0.01089641684666275
903,00:00:03.612,0.01593110547401006
904,00:00:03.616,-0.03547315252944829
905,00:00:03.62,0.015863056760281317
906,00:00:03.624,0.017523723363410702
907,00:00:03.628,-0.004492260341066832
908,00:00:03.632,-0.020242287777364257
909,00:00:03.636,-0.0028859958983958
910,00:00:03.64,0.01724471745546908
911,00:00:03.644,0.002558967098593719
912,00:00:03.648,-0.007429879740811879
913,00:00:03.652,-0.0039836305659264395
914,00:00:03.656,-0.0009717006178107121
915,00:00:03.66,0.02618130529299378
916,00:00:03.664,-0.000689538312144581
917,00:00:03.668,-0.029110734700225252
918,00:00:03.672,-0.027368147391825942
919,00:00:03.676,0.022628784412518192
920,00:00:03.68,0.02425362961366772
921,00:00:03.684,0.01325660897418857
922,00:00:03.688,-0.008660372812300922
923,00:00:03.692,-0.017855342477560047
924,00:00:03.696,-0.009293917100876571
925,00:00:03.7,0.00325045990757644
926,00:00:03.704,0.01509685884229839
927,00:00:03.708,-0.00904396921396251
928,00:00:03.712,-0.007275421288795768
929,00:00:03.716,0.017290041316300638
930,00:00:03.72,0.00861557363532484
931,00:00:03.724,-0.027001237962394897
932,00:00:03.728,0.01388572872383521
933,00:00:03.732,0.0037587205879390483
934,00:00:03.736,-0.00692406855523587
935,00:00:03.74,-0.00045835331547999965
936,00:00:03.744,-0.0036799875088035995
937,00:00:03.748,0.006075521814636881
938,00:00:03.752,-0.00720919109880924
939,00:00:03.756,0.012739506317302604
940,00:00:03.76,-0.005207078065723193
941,00:00:03.764,-0.0052821231074631205
942,00:00:03.768,0.0013845385983586405
943,00:00:03.772,-0.0014902724651619818
944,00:00:03.776,-0.0007468431722372701
945,00:00:03.78,0.01960004586726432
946,00:00:03.784,-0.01171870506368578
947,00:00:03.788,-0.006521461997181179
948,00:00:03.792,0.02365901973098513
949,00:00:03.796,-0.03223139722831544
950,00:00:03.8,-0.015595348435454053
951,00:00:03.804,0.03225795039907097
952,00:00:03.808,-0.0020349931437522104
953,00:00:03.812,0.005264980136416842
954,00:00:03.816,-0.0017650760710239705
955,00:00:03.82,-0.017076772637665293
956,00:00:03.824,0.0017193388193845792
957,00:00:03.828,0.01214147848077118
958,00:00:03.832,0.021029446739703403
959,00:00:03.836,-0.01928280515130614
960,00:00:03.84,-0.012910906487377388
961,00:00:03.844,-0.0030614953138865504
962,00:00:03.848,0.022484739427454728
963,00:00:03.852,-0.022291548084467663
964,00:00:03.856,-0.02134433429455384
965,00:00:03.86,0.02986119221895933
966,00:00:03.864,0.03025788534432648
967,00:00:03.868,-0.0026315557770431497
968,00:00:03.872,-0.01626175618730481
969,00:00:03.876,-0.029478700860636295
970,00:00:03.88,0.00919039058499037
971,00:00:03.884,0.01507451850920911
972,00:00:03.888,-0.011123677686555282
973,00:00:03.892,0.00619014468975365
974,00:00:03.896,0.02299420465715228
975,00:00:03.9,-0.01650393905583769
976,00:00:03.904,-0.01795429829508067
977,00:00:03.908,0.00041679153218860884
978,00:00:03.912,0.00552580668590964
979,00:00:03.916,0.004903823370113969
980,00:00:03.92,0.01501264516264202
981,00:00:03.924,-0.0009963754564523695
982,00:00:03.928,-0.0141270605381578
983,00:00:03.932,0.01928632496856156
984,00:00:03.936,-0.03271732735447587
985,00:00:03.94,-0.020051568513736167
986,00:00:03.944,0.019529190845787553
987,00:00:03.948,0.03841630928218363
988,00:00:03.952,0.01473604072816668
989,00:00:03.956,-0.02264855150133362
990,00:00:03.96,-0.03151651099324225
991,00:00:03.964,0.00023313635028898976
992,00:00:03.968,0.00565015105530619
993,00:00:03.972,0.014376309642102562
994,00:00:03.976,0.0005409474251791778
995,00:00:03.98,-0.0022977851331234
996,00:00:03.984,-0.005577395204454669
997,00:00:03.988,0.016246855724602938
998,00:00:03.992,-0.006059705963707528
999,00:00:03.996,-0.02148794382810592
1000,00:00:04,0.013803989859297922
1001,00:00:04.004,0.009076959118829116
1002,00:00:04.008,-0.010391195886768395
1003,00:00:04.012,0.019218633882701418
1004,00:00:04.016,-0.01301369071006774
1005,00:00:04.02,-0.029863935429602858
1006,00:00:04.024,0.01864086138084532
1007,00:00:04.028,0.01612448628293356
1008,00:00:04.032,-0.016728906426578708
1009,00:00:04.036,-0.0018560159951449013
1010,00:00:04.04,0.02056477009318765
1011,00:00:04.044,0.01580004882998765
1012,00:00:04.048,-0.004760507261380597
1013,00:00:04.052,-0.028743943839799564
1014,00:00:04.056,-0.01762293092906475
1015,00:00:04.06,0.008960309438407376
1016,00:00:04.064,0.010266350640449671
1017,00:00:04.068,0.01528050797060133
1018,00:00:04.072,0.00511736422777176
1019,00:00:04.076,-0.004580795764923111
1020,00:00:04.08,-0.01235572551377118
1021,00:00:04.084,-0.006577561143785711
1022,00:00:04.088,0.00917666009627285
1023,00:00:04.092,0.013544351328164343
1024,00:00:04.096,-0.025889277370879437
1025,00:00:04.1,-0.028415337670594412
1026,00:00:04.104,0.04868464125320319
1027,00:00:04.108,0.042837246321141685
1028,00:00:04.112,-0.04565261770039799
1029,00:00:04.116,-0.02678806195035577
1030,00:00:04.12,0.00027049754862673407
1031,00:00:04.124,0.02306114137172701
1032,00:00:04.128,0.006882286223117263
1033,00:00:04.132,0.0044239978305995395
1034,00:00:04.136,-0.014666179893538321
1035,00:00:04.14,-0.0047052177833393286
1036,00:00:04.144,-0.0070560751482844405
1037,00:00:04.148,0.007063772063702352
1038,00:00:04.152,0.029866438359022168
1039,00:00:04.156,-0.012779121287167069
1040,00:00:04.16,-0.024909422267228344
1041,00:00:04.164,0.00532950111664836
1042,00:00:04.168,0.001347412966424595
1043,00:00:04.172,0.02080402954015883
1044,00:00:04.176,-0.00846272916533053
1045,00:00:04.18,-0.007556161843240261
1046,00:00:04.184,0.01413322892040014
1047,00:00:04.188,-0.014236741233617081
1048,00:00:04.192,0.008510024636052544
1049,00:00:04.196,-0.04808267578482631
1050,00:00:04.2,0.016062391048762944
1051,00:00:04.204,0.05734110239427542
1052,00:00:04.208,0.0034641686361282908
1053,00:00:04.212,-0.029795901849865938
1054,00:00:04.216,-0.00598114589229224
1055,00:00:04.22,-0.01618457492440943
1056,00:00:04.224,0.014291534025687707
1057,00:00:04.228,0.002280828077346128
1058,00:00:04.232,-0.00654063024558132
1059,00:00:04.236,0.006093777250498539
1060,00:00:04.24,0.005749573931097991
1061,00:00:04.244,0.01174221467226744
1062,00:00:04.248,-0.02865043841302395
1063,00:00:04.252,0.027171202236786488
1064,00:00:04.256,-0.01599412068026136
1065,00:00:04.26,-0.0175107480026781
1066,00:00:04.264,0.012394023418892171
1067,00:00:04.268,0.00833405763842165
1068,00:00:04.272,-0.006971786497160801
1069,00:00:04.276,0.017661146353930242
1070,00:00:04.28,-0.0042154500260949196
1071,00:00:04.284,-0.004124016326386482
1072,00:00:04.288,-0.006704619532683866
1073,00:00:04.292,0.006919895531609649
1074,00:00:04.296,-0.013512590900063499
1075,00:00:04.3,-0.026444977615028575
1076,00:00:04.304,0.035136647406034165
1077,00:00:04.308,0.028240291401743858
1078,00:00:04.312,-0.009172927122563129
1079,00:00:04.316,-0.025297271087765662
1080,00:00:04.32,0.01783353800419716
1081,00:00:04.324,-0.014956442920265507
1082,00:00:04.328,-0.009415660751983562
1083,00:00:04.332,0.01724128786008804
1084,00:00:04.336,-0.02366565400734539
1085,00:00:04.34,-0.0088252244458999
1086,00:00:04.344,0.03608809725847094
1087,00:00:04.348,0.017495050327852372
1088,00:00:04.352,-0.0012061863089911653
1089,00:00:04.356,-0.021900237537920537
1090,00:00:04.36,-0.01709584041964258
1091,00:00:04.364,0.02075100364163527
1092,00:00:04.368,-0.0011055039940401949
1093,00:00:04.372,-0.026066684396937448
1094,00:00:04.376,-0.00381023646332316
1095,00:00:04.38,0.02622798038646578
1096,00:00:04.384,0.02388662309385835
1097,00:00:04.388,-0.013456344604492219
1098,00:00:04.392,-0.009018794633448131
1099,00:00:04.396,-0.0033635782892815734
1100,00:00:04.4,-0.003953440784243859
1101,00:00:04.404,0.0011151770595461113
1102,00:00:04.408,-0.0022573831956833597
1103,00:00:04.412,0.0010505588725209705
1104,00:00:04.416,0.02015740639762952
1105,00:00:04.42,-0.024831087095662983
1106,00:00:04.424,0.004464072408154579
1107,00:00:04.428,0.004086392000317508
1108,00:00:04.432,0.015429540071636449
1109,00:00:04.436,-0.01690076012164355
1110,00:00:04.44,-0.002305976347997782
1111,00:00:04.444,0.004726139362901449
1112,00:00:04.448,-0.0013274888042360588
1113,00:00:04.452,-0.0006236421177163807
1114,00:00:04.456,-0.0010582823306321681
1115,00:00:04.46,0.01600183383561671
1116,00:00:04.464,-0.0008742106147110011
1117,00:00:04.468,-0.013326581567525819
1118,00:00:04.472,-0.02340706204995516
1119,00:00:04.476,0.004943345673382319
1120,00:00:04.48,0.026318346150219447
1121,00:00:04.484,0.019942897837609053
1122,00:00:04.488,-0.006899032974615698
1123,00:00:04.492,-0.026769345378852488
1124,00:00:04.496,-0.007155570725444704
1125,00:00:04.5,-0.012818030896596552
1126,00:00:04.504,0.0229317576158792
1127,00:00:04.508,0.024916189722716843
1128,00:00:04.512,-0.012738956895191188
1129,00:00:04.516,-0.0066869263828266395
1130,00:00:04.52,0.005482917651534081
1131,00:00:04.524,-0.010459184646606452
1132,00:00:04.528,-0.00601662672124807
1133,00:00:04.532,0.0038066231645643776
1134,00:00:04.536,0.00997312576510008
1135,00:00:04.54,0.01631488138809803
1136,00:00:04.544,-0.02061813231557612
1137,00:00:04.548,-0.008934420533478288
1138,00:00:04.552,-0.00416315486654636
1139,00:00:04.556,0.010404497970739616
1140,00:00:04.56,-0.00020483846310526046
1141,00:00:04.564,0.01154910598415877
1142,00:00:04.568,-0.006716315925586971
1143,00:00:04.572,-0.00542229413986206
1144,00:00:04.576,0.004099131845578088
1145,00:00:04.58,0.007455876562744381
1146,00:00:04.584,0.006440428085625191
1147,00:00:04.588,-0.00492137146648019
1148,00:00:04.592,-0.05608862324152144
1149,00:00:04.596,0.01654936873819681
1150,00:00:04.6,0.05570025555789471
1151,00:00:04.604,0.013392661581747239
1152,00:00:04.608,-0.01330419885925949
1153,00:00:04.612,-0.025046249793376725
1154,00:00:04.616,-0.03611150570213792
1155,00:00:04.62,0.0015015034005045795
1156,00:00:04.624,0.026830686721950762
1157,00:00:04.628,0.012706958223134248
1158,00:00:04.632,0.03651280002668496
1159,00:00:04.636,-0.0212252710480243
1160,00:00:04.64,-0.029589067795313867
1161,00:00:04.644,-0.007076561916619491
1162,00:00:04.648,-0.01670266501605511
1163,00:00:04.652,0.0207365428796038
1164,00:00:04.656,0.030083085875958163
1165,00:00:04.66,0.00506544834934175
1166,00:00:04.664,-0.00999979954212904
1167,00:00:04.668,-0.019384302664548173
1168,00:00:04.672,-0.0026051534805446802
1169,00:00:04.676,0.01357096468564126
1170,00:00:04.68,-0.012390144169330623
1171,00:00:04.684,-0.02079963800497352
1172,00:00:04.688,0.026463891845196482
1173,00:00:04.692,0.02291356399655345
1174,00:00:04.696,-0.01644771709106866
1175,00:00:04.7,0.0160527639091014
1176,00:00:04.704,-0.01579082151874899
1177,00:00:04.708,-0.021752160275354968
1178,00:00:04.712,0.0034040254540741704
1179,00:00:04.716,0.009732816834002692
1180,00:00:04.72,0.009105654840823227
1181,00:00:04.724,-0.012428021000232554
1182,00:00:04.728,0.004378759826067833
1183,00:00:04.732,0.012792827639714234
1184,00:00:04.736,0.007216807105578491
1185,00:00:04.74,-0.01617080881260339
1186,00:00:04.744,-0.012073635123670129
1187,00:00:04.748,0.004862181260250481
1188,00:00:04.752,0.010290594887919743
1189,00:00:04.756,-0.01179964526090771
1190,00:00:04.76,-0.006592475576326229
1191,00:00:04.764,0.0156399412080646
1192,00:00:04.768,0.008681760533363562
1193,00:00:04.772,0.001980061642825673
1194,00:00:04.776,-0.01128325541503723
1195,00:00:04.78,-0.0033439166727476047
1196,00:00:04.784,0.00395883724559098
1197,00:00:04.788,-0.001048506655934034
1198,00:00:04.792,-0.01887283386895433
1199,00:00:04.796,0.008325586910359561
1200,00:00:04.8,0.029714314616285223
1201,00:00:04.804,0.00599455228075386
1202,00:00:04.808,-0.02514560893177984
1203,00:00:04.812,-0.015486111864447642
1204,00:00:04.816,-0.0074648549780249596
1205,00:00:04.82,0.00729729011072777
1206,00:00:04.824,0.017814853694289947
1207,00:00:04.828,0.03170491615310315
1208,00:00:04.832,-0.01099300202622541
1209,00:00:04.836,-0.04509995353873818
1210,00:00:04.84,-0.00815884210169312
1211,00:00:04.844,0.03281783009879292
1212,00:00:04.848,0.0006673359312117178
1213,00:00:04.852,0.0318128652870655
1214,00:00:04.856,-0.02555510669481007
1215,00:00:04.86,-0.0628442652523518
1216,00:00:04.864,0.03862681612372401
1217,00:00:04.868,0.03991003520786757
1218,00:00:04.872,-0.0019850790267810278
1219,00:00:04.876,-0.02039139624685049
1220,00:00:04.88,-0.014048519544303419
1221,00:00:04.884,-0.00010470353299751444
1222,00:00:04.888,-0.00663999887183308
1223,00:00:04.892,0.015648569213226448
1224,00:00:04.896,0.03359722322784365
1225,00:00:04.9,-0.012925478629767848
1226,00:00:04.904,-0.03164557018317286
1227,00:00:04.908,0.003968333261582302
1228,00:00:04.912,-0.010397843085229449
1229,00:00:04.916,0.00437962217256428
1230,00:00:04.92,0.0374696731450967
1231,00:00:04.924,-0.01054839603602886
1232,00:00:04.928,-0.006942765612620864
1233,00:00:04.932,-0.011719739472027865
1234,00:00:04.936,0.017108510073740035
1235,00:00:04.94,-0.02006534067913886
1236,00:00:04.944,-0.01859432290075342
1237,00:00:04.948,0.040782330208457916
1238,00:00:04.952,0.0001948550343513801
1239,00:00:04.956,-0.0222707213833928
1240,00:00:04.96,0.023668386973440668
1241,00:00:04.964,-0.0091277789324522
1242,00:00:04.968,-0.011239820043556396
1243,00:00:04.972,-0.007594040012918409
1244,00:00:04.976,0.007341817341512075
1245,00:00:04.98,0.02143300510942932
1246,00:00:04.984,0.0072373722214251705
1247,00:00:04.988,-0.0428148451028392
1248,00:00:04.992,0.0061061782762408204
1249,00:00:04.996,0.013248716248199318
1250,00:00:05,0.01050017960369592
1251,00:00:05.004,-0.0049318529199808905
1252,00:00:05.008,0.009181716712191701
1253,00:00:05.012,-0.007153241063861058
1254,00:00:05.016,-0.003592488123103971
1255,00:00:05.02,-0.03824502567294988
1256,00:00:05.024,0.0107281738310121
1257,00:00:05.028,0.03865122236311433
1258,00:00:05.032,0.007129014702513829
1259,00:00:05.036,-0.003714127000421291
1260,00:00:05.04,-0.006439006014261399
1261,00:00:05.044,-0.0224668364971876
1262,00:00:05.048,0.0014332975260913684
1263,00:00:05.052,0.0003261819947510949
1264,00:00:05.056,0.010358182014897441
1265,00:00:05.06,0.008090570801869031
1266,00:00:05.064,-0.019044626504182833
1267,00:00:05.068,0.0018926253542303996
1268,00:00:05.072,0.019010023679584293
1269,00:00:05.076,-0.005421784473583101
1270,00:00:05.08,0.0014617091510444897
1271,00:00:05.084,-0.0014560155104845398
1272,00:00:05.088,3.455564728938347e-05
1273,00:00:05.092,-0.016147703863680328
1274,00:00:05.096,-0.005411325488239479
1275,00:00:05.1,0.01264750584959986
1276,00:00:05.104,0.02323443209752443
1277,00:00:05.108,-0.008945099543780059
1278,00:00:05.112,-0.029749661014648154
1279,00:00:05.116,0.0218687364831567
1280,00:00:05.12,0.0023470236919819875
1281,00:00:05.124,-0.00567482609767467
1282,00:00:05.128,0.0030056521936785256
1283,00:00:05.132,-0.003116729378234597
1284,00:00:05.136,-6.308860611170552e-05
1285,00:00:05.14,0.0004070051945745997
1286,00:00:05.144,-0.0164149987976998
1287,00:00:05.148,0.01995731308124962
1288,00:00:05.152,0.011242516571655896
1289,00:00:05.156,-0.01624642708338799
1290,00:00:05.16,0.01153447269462048
1291,00:00:05.164,-0.00878254370763898
1292,00:00:05.168,-0.020213944953866296
1293,00:00:05.172,0.017070494359359138
1294,00:00:05.176,0.0243663704022765
1295,00:00:05.18,-0.02317308867350218
1296,00:00:05.184,-0.001598770497366779
1297,00:00:05.188,-0.0018995190039277107
1298,00:00:05.192,0.0067744138650596185
1299,00:00:05.196,0.0025694500654935793
1300,00:00:05.2,-0.014716844714712313
1301,00:00:05.204,-0.010645564383594298
1302,00:00:05.208,0.01887201517820362
1303,00:00:05.212,0.02150143496692181
1304,00:00:05.216,-0.001257926458492856
1305,00:00:05.22,-0.017706611368339464
1306,00:00:05.224,-0.00716012134216726
1307,00:00:05.228,-0.0004010079428553503
1308,00:00:05.232,0.00905616930685938
1309,00:00:05.236,-0.015118263661861421
1310,00:00:05.24,0.013179004949051889
1311,00:00:05.244,0.012160406447947018
1312,00:00:05.248,-0.012385245179757472
1313,00:00:05.252,-0.00017591356299826062
1314,00:00:05.256,-0.002982484060339629
1315,00:00:05.26,0.0036804871633649306
1316,00:00:05.264,-0.01245969673618675
1317,00:00:05.268,0.02766190050169823
1318,00:00:05.272,-0.004299670807085926
1319,00:00:05.276,-0.02224539639428267
1320,00:00:05.28,0.00016665481962262804
1321,00:00:05.284,0.013548055663704841
1322,00:00:05.288,0.014756883261725329
1323,00:00:05.292,-0.041483726585283896
1324,00:00:05.296,0.012592423008754862
1325,00:00:05.3,0.022702211514115365
1326,00:00:05.304,-0.006939614540897271
1327,00:00:05.308,0.0008033412450458468
1328,00:00:05.312,0.0097739852499217
1329,00:00:05.316,-0.00855989684350791
1330,00:00:05.32,-0.017387017076544033
1331,00:00:05.324,-0.02061133226379748
1332,00:00:05.328,0.031637079257052426
1333,00:00:05.332,0.017637471202760928
1334,00:00:05.336,-0.015220012515783306
1335,00:00:05.34,-0.013359229080378988
1336,00:00:05.344,0.026907537132501578
1337,00:00:05.348,-0.013388800318352889
1338,00:00:05.352,-0.0024008848704397596
1339,00:00:05.356,-0.01556781120598316
1340,00:00:05.36,0.02286293145880337
1341,00:00:05.364,-0.007641813717782478
1342,00:00:05.368,-0.0011260639876125994
1343,00:00:05.372,-0.00773300696164367
1344,00:00:05.376,0.0104563282802701
1345,00:00:05.38,-0.001577604562044161
1346,00:00:05.384,0.00482027116231617
1347,00:00:05.388,0.001221368787810201
1348,00:00:05.392,-0.008987340028397734
1349,00:00:05.396,-7.356842979789311e-05
1350,00:00:05.4,0.00011672824621197092
1351,00:00:05.404,0.005636398214846851
1352,00:00:05.408,0.0020775774610228776
1353,00:00:05.412,-0.006024317990522866
1354,00:00:05.416,-0.0076203032513149065
1355,00:00:05.42,0.006748386484105093
1356,00:00:05.424,0.012492184527218309
1357,00:00:05.428,-0.002388198743574329
1358,00:00:05.432,-0.007085787132382399
1359,00:00:05.436,-0.0033059669658541714
1360,00:00:05.44,-0.01384126767516135
1361,00:00:05.444,-0.0005080853588879525
1362,00:00:05.448,0.024874012218788294
1363,00:00:05.452,0.006204696884196888
1364,00:00:05.456,0.0015346305444836998
1365,00:00:05.46,-0.01574000308755781
1366,00:00:05.464,-0.00650369143113495
1367,00:00:05.468,0.00774818332865835
1368,00:00:05.472,-0.007501524640247229
1369,00:00:05.476,-0.028501114575192377
1370,00:00:05.48,0.032930080313235514
1371,00:00:05.484,0.02172266226261859
1372,00:00:05.488,-0.00217790849274024
1373,00:00:05.492,-0.01079928479157388
1374,00:00:05.496,-0.005449536722153379
1375,00:00:05.5,1.1066673323509909e-05
1376,00:00:05.504,-0.00640657683834434
1377,00:00:05.508,-0.00353078125044704
1378,00:00:05.512,-0.005085535452963093
1379,00:00:05.516,0.0014504378195852102
1380,00:00:05.52,0.033252115361392526
1381,00:00:05.524,-0.02525487891398369
1382,00:00:05.528,-0.01983637496596198
1383,00:00:05.532,0.0462385984137655
1384,00:00:05.536,0.007472739089280371
1385,00:00:05.54,-0.01977626723237336
1386,00:00:05.544,-0.03416381170973178
1387,00:00:05.548,-0.0068139585200697305
1388,00:00:05.552,0.036658545490354244
1389,00:00:05.556,0.019922674691770226
1390,00:00:05.56,-0.02754048031056304
1391,00:00:05.564,-0.02616266231052575
1392,00:00:05.568,0.009969054663088185
1393,00:00:05.572,0.034055473050102605
1394,00:00:05.576,0.011720456473994997
1395,00:00:05.58,-0.010863216128200293
1396,00:00:05.584,-0.01850509364157915
1397,00:00:05.588,-0.01943926070816811
1398,00:00:05.592,0.013280879007652398
1399,00:00:05.596,0.010518971190322194
1400,00:00:05.6,0.005070981656899679
1401,00:00:05.604,-0.018868630671931844
1402,00:00:05.608,0.002082937222439794
1403,00:00:05.612,0.02914656803477551
1404,00:00:05.616,-0.023913142067613073
1405,00:00:05.62,-0.0009892275556921994
1406,00:00:05.624,-0.006028805102687295
1407,00:00:05.628,0.004287970368750459
1408,00:00:05.632,0.02018633252009747
1409,00:00:05.636,0.00810734555125234
1410,00:00:05.64,-0.02265023719519374
1411,00:00:05.644,-0.010810415726155043
1412,00:00:05.648,0.00872778473421933
1413,00:00:05.652,-0.0017594143282622112
1414,00:00:05.656,-0.002321007326827383
1415,00:00:05.66,0.008814395405352109
1416,00:00:05.664,0.003198005375452337
1417,00:00:05.668,0.005338423186913181
1418,00:00:05.672,-0.008510274812579157
1419,00:00:05.676,-0.013468394055962559
1420,00:00:05.68,0.018826532177627087
1421,00:00:05.684,-0.01664397725835448
1422,00:00:05.688,-0.003457370781688991
1423,00:00:05.692,0.01724316086620091
1424,00:00:05.696,-0.0007986051496118294
1425,00:00:05.7,0.007608039071783399
1426,00:00:05.704,0.00816855847369879
1427,00:00:05.708,-0.027160537429153957
1428,00:00:05.712,-0.012727749068289999
1429,00:00:05.716,0.004432647721841963
1430,00:00:05.72,0.01642180723138153
1431,00:00:05.724,0.02531951991841201
1432,00:00:05.728,-0.00022193044424056053
1433,00:00:05.732,-0.036898129619658
1434,00:00:05.736,-0.00978168519213796
1435,00:00:05.74,0.00704991433303803
1436,00:00:05.744,0.022297447081655247
1437,00:00:05.748,-0.005393520346842674
1438,00:00:05.752,0.004507731791818516
1439,00:00:05.756,-0.0120575366017874
1440,00:00:05.76,0.01381315640173851
1441,00:00:05.764,-0.022064408927690196
1442,00:00:05.768,0.02519939839839938
1443,00:00:05.772,0.000862951797898854
1444,00:00:05.776,-0.03674209397286174
1445,00:00:05.78,0.018423080444336
1446,00:00:05.784,0.005204088054597423
1447,00:00:05.788,0.012215718743391328
1448,00:00:05.792,-0.0026730549288913603
1449,00:00:05.796,-0.01594938850030303
1450,00:00:05.8,0.0081104775890708
1451,00:00:05.804,-0.009605762330465912
1452,00:00:05.808,0.007228671456687159
1453,00:00:05.812,-0.008873599115759129
1454,00:00:05.816,0.0035171514609828617
1455,00:00:05.82,0.0200897818431258
1456,00:00:05.824,0.014324354531709103
1457,00:00:05.828,-0.02657227753661581
1458,00:00:05.832,-0.013662502926308662
1459,00:00:05.836,-0.00784729153383522
1460,00:00:05.84,0.005093616411613771
1461,00:00:05.844,0.01977151492610574
1462,00:00:05.848,-0.002283344045281409
1463,00:00:05.852,0.00129074160940945
1464,00:00:05.856,0.007118213921785351
1465,00:00:05.86,0.0015861973224673464
1466,00:00:05.864,-0.008550466118322223
1467,00:00:05.868,-0.004657658282667403
1468,00:00:05.872,-0.0038677246775478107
1469,00:00:05.876,-0.02077377866953613
1470,00:00:05.88,0.011870928108692128
1471,00:00:05.884,0.01657288102433085
1472,00:00:05.888,0.0067180707119405495
1473,00:00:05.892,0.009791821474209459
1474,00:00:05.896,-0.018275654874742003
1475,00:00:05.9,-0.0025773190427571496
1476,00:00:05.904,-0.01258559548296037
1477,00:00:05.908,-0.0013341384474188003
1478,00:00:05.912,0.035367540083825574
1479,00:00:05.916,-0.0051807169802486905
1480,00:00:05.92,-0.03154681343585259
1481,00:00:05.924,0.014285696059232628
1482,00:00:05.928,0.0018505384214222778
1483,00:00:05.932,-0.0112335889134556
1484,00:00:05.936,0.013822044478729348
1485,00:00:05.94,0.00912983750458807
1486,00:00:05.944,-0.007485902053304011
1487,00:00:05.948,-0.0011731003178283498
1488,00:00:05.952,-0.004049891605973247
1489,00:00:05.956,-0.01111889211460952
1490,00:00:05.96,-0.0007185227004811185
1491,00:00:05.964,0.01806825678795575
1492,00:00:05.968,0.007334139081649482
1493,00:00:05.972,-0.00074646156281237
1494,00:00:05.976,-0.0008050170727074294
1495,00:00:05.98,-0.0342789294663816
1496,00:00:05.984,0.00651991437189281
1497,00:00:05.988,0.01991216186434025
1498,00:00:05.992,-0.0041628535836935095
1499,00:00:05.996,0.01008136931341137
1500,00:00:06,0.0035994208301417933
1501,00:00:06.004,-0.00254346011206508
1502,00:00:06.008,-0.017933598370291248
1503,00:00:06.012,0.00887804478406908
1504,00:00:06.016,-0.00521877175197005
1505,00:00:06.02,-0.005450343014672418
1506,00:00:06.024,0.0036038900725543386
1507,00:00:06.028,0.00801655184477568
1508,00:00:06.032,0.0041303374164271735
1509,00:00:06.036,-0.008994016796350483
1510,00:00:06.04,0.0026009937282651698
1511,00:00:06.044,-0.00291611033026129
1512,00:00:06.048,0.0044885972165502564
1513,00:00:06.052,0.021936290897428937
1514,00:00:06.056,-0.026154646184295388
1515,00:00:06.06,-0.00912552513182163
1516,00:00:06.064,0.010763088124804192
1517,00:00:06.068,-0.0011049516615457772
1518,00:00:06.072,-0.0008734338916838186
1519,00:00:06.076,0.0015659534547012323
1520,00:00:06.08,-0.003692820668220521
1521,00:00:06.084,0.026377627160400128
1522,00:00:06.088,-0.008403056999668469
1523,00:00:06.092,-0.02529895619954915
1524,00:00:06.096,-0.000689979409798978
1525,00:00:06.1,0.0019211128137612836
1526,00:00:06.104,0.01557851699180901
1527,00:00:06.108,0.018709516152739518
1528,00:00:06.112,-0.0012284773401916005
1529,00:00:06.116,-0.039569507353007745
1530,00:00:06.12,-0.01638498587999496
1531,00:00:06.124,0.025511838495731378
1532,00:00:06.128,0.02465181995648896
1533,00:00:06.132,0.0062784942565485904
1534,00:00:06.136,-0.002120342105627023
1535,00:00:06.14,-0.03526604641228906
1536,00:00:06.144,0.0039093167288228895
1537,00:00:06.148,-0.014632449485361536
1538,00:00:06.152,0.02892257913481443
1539,00:00:06.156,0.01709351199679072
1540,00:00:06.16,-0.00323358760215339
1541,00:00:06.164,-0.011473475140519438
1542,00:00:06.168,-0.01628365227952595
1543,00:00:06.172,-0.006625743932090703
1544,00:00:06.176,0.012018912937492087
1545,00:00:06.18,0.021440976299345472
1546,00:00:06.184,0.004212863306747752
1547,00:00:06.188,-0.030962416902184448
1548,00:00:06.192,-0.00824589317198846
1549,00:00:06.196,0.0073957624845206685
1550,00:00:06.2,0.0263134241104126
1551,00:00:06.204,-0.001535706222057339
1552,00:00:06.208,-0.011524377390742312
1553,00:00:06.212,-0.01361791905947027
1554,00:00:06.216,0.01772490912117067
1555,00:00:06.22,0.013134174456354229
1556,00:00:06.224,-0.03356119536329062
1557,00:00:06.228,0.003680393099784898
1558,00:00:06.232,-0.00781287299469113
1559,00:00:06.236,0.0031987931870389695
1560,00:00:06.24,0.0531504405662417
1561,00:00:06.244,-0.007405132870189811
1562,00:00:06.248,-0.00989125622436405
1563,00:00:06.252,-0.0443363562226295
1564,00:00:06.256,-0.00028678029775619984
1565,00:00:06.26,0.00372990942560136
1566,00:00:06.264,0.01837184256874028
1567,00:00:06.268,0.02599805191857744
1568,00:00:06.272,-0.00876322202384471
1569,00:00:06.276,-0.024964536074548932
1570,00:00:06.28,-0.002544093877077101
1571,00:00:06.284,0.0221847612410784
1572,00:00:06.288,-0.0014629564248025391
1573,00:00:06.292,-0.009347061626613182
1574,00:00:06.296,-0.0008345502428710409
1575,00:00:06.3,-0.0010148631408810893
1576,00:00:06.304,-0.0014353108708746753
1577,00:00:06.308,0.014037379762157801
1578,00:00:06.312,-0.008726361673325297
1579,00:00:06.316,0.0009488709038123497
1580,00:00:06.32,-0.02270633820444344
1581,00:00:06.324,0.024019945180043557
1582,00:00:06.328,-0.006723363883793319
1583,00:00:06.332,0.011279764003120349
1584,00:00:06.336,0.007453844184055932
1585,00:00:06.34,-0.013930084212915958
1586,00:00:06.344,0.0006608553230762586
1587,00:00:06.348,0.008523205062374473
1588,00:00:06.352,-0.02054860867792741
1589,00:00:06.356,0.0026836575707420702
1590,00:00:06.36,0.00010648090392355834
1591,00:00:06.364,-0.011546103633008903
1592,00:00:06.368,0.02247416041791439
1593,00:00:06.372,0.019288398092612603
1594,00:00:06.376,-0.006778925424441697
1595,00:00:06.38,-0.0178512514103204
1596,00:00:06.384,-0.007796926074661319
1597,00:00:06.388,-0.003391696431208402
1598,00:00:06.392,0.0005651928950101085
1599,00:00:06.396,0.02856391551904383
1600,00:00:06.4,0.0060234048869460795
1601,00:00:06.404,-0.01654787058942017
1602,00:00:06.408,-0.02686682995408777
1603,00:00:06.412,0.009607864310964914
1604,00:00:06.416,0.00975560746155681
1605,00:00:06.42,0.010430199559777979
1606,00:00:06.424,-0.008380727376788848
1607,00:00:06.428,-0.0009483070170972423
1608,00:00:06.432,0.00791469844989479
1609,00:00:06.436,-0.00035076506901532
1610,00:00:06.44,0.00997526198625564
1611,00:00:06.444,-0.05148267932236202
1612,00:00:06.448,0.013931433670222731
1613,00:00:06.452,0.0377982807112858
1614,00:00:06.456,0.01847455557435749
1615,00:00:06.46,-0.02239648113027213
1616,00:00:06.464,-0.027253267064224963
1617,00:00:06.468,-0.009249568975064909
1618,00:00:06.472,0.00506392028182745
1619,00:00:06.476,0.021488451980985722
1620,00:00:06.48,0.00405653775669635
1621,00:00:06.484,0.007124952157028019
1622,00:00:06.488,-0.00163931213319302
1623,00:00:06.492,-0.01821199175901711
1624,00:00:06.496,-0.014714952347276258
1625,00:00:06.5,0.028164809336885768
1626,00:00:06.504,-0.0018917783163487903
1627,00:00:06.508,0.001560903561767191
1628,00:00:06.512,-0.008783271361608055
1629,00:00:06.516,0.013384395919274572
1630,00:00:06.52,-0.02758844313211738
1631,00:00:06.524,-0.0031341637950390595
1632,00:00:06.528,0.02280859136953951
1633,00:00:06.532,-0.00821934570558369
1634,00:00:06.536,0.025366764515638407
1635,00:00:06.54,0.00025151483714581924
1636,00:00:06.544,-0.030730183236300942
1637,00:00:06.548,-0.019646910193841897
1638,00:00:06.552,0.013210263336077346
1639,00:00:06.556,0.02048557205125686
1640,00:00:06.56,0.02291235211305316
1641,00:00:06.564,-0.0173129476606846
1642,00:00:06.568,-0.013555485755205151
1643,00:00:06.572,-0.0034838414867408565
1644,00:00:06.576,0.017872797878226265
1645,00:00:06.58,-0.03795183295733297
1646,00:00:06.584,0.008796125883236482
1647,00:00:06.588,0.02970793633721773
1648,00:00:06.592,0.00430135230999439
1649,00:00:06.596,-0.01119123911485076
1650,00:00:06.6,0.0036948309279978605
1651,00:00:06.604,-0.013881674560252574
1652,00:00:06.608,0.0011040414683520902
1653,00:00:06.612,-0.01139814313501122
1654,00:00:06.616,0.015165075834374875
1655,00:00:06.62,0.01946054102154452
1656,00:00:06.624,-0.01996527193114158
1657,00:00:06.628,-0.0010988318244926592
1658,00:00:06.632,0.00208351021865383
1659,00:00:06.636,-0.013968321960419413
1660,00:00:06.64,0.002531730104237801
1661,00:00:06.644,0.014005537261255082
1662,00:00:06.648,0.02320113660243805
1663,00:00:06.652,0.008943941094912543
1664,00:00:06.656,-0.030391927459277202
1665,00:00:06.66,-0.05826669721864171
1666,00:00:06.664,0.009065897902473792
1667,00:00:06.668,0.055260551162064034
1668,00:00:06.672,0.01962157152593136
1669,00:00:06.676,-0.001152085606008801
1670,00:00:06.68,-0.0172121925279498
1671,00:00:06.684,-0.012604840507265182
1672,00:00:06.688,-0.018361542373895597
1673,00:00:06.692,0.00342462095431984
1674,00:00:06.696,0.0021002859575674
1675,00:00:06.7,0.014348726137541259
1676,00:00:06.704,0.016090543707832743
1677,00:00:06.708,-0.008881336543709081
1678,00:00:06.712,-0.0015891105867923087
1679,00:00:06.716,-0.0135612110607326
1680,00:00:06.72,0.0013684150762856002
1681,00:00:06.724,0.011099778115749389
1682,00:00:06.728,0.0015117032453417795
1683,00:00:06.732,-0.012414615266607146
1684,00:00:06.736,0.005199806997552511
1685,00:00:06.74,-0.0124296490685083
1686,00:00:06.744,0.009019763208925731
1687,00:00:06.748,0.01178383314982057
1688,00:00:06.752,0.01164576318114996
1689,00:00:06.756,-0.014063361566513732
1690,00:00:06.76,-0.01523876981809737
1691,00:00:06.764,-0.014359151944518062
1692,00:00:06.768,0.02348011394497005
1693,00:00:06.772,0.016728539718315
1694,00:00:06.776,-0.005752524000854464
1695,00:00:06.78,-0.0015734236221760494
1696,00:00:06.784,-0.017919135512784116
1697,00:00:06.788,-0.02182937134057289
1698,00:00:06.792,0.037633141502738054
1699,00:00:06.796,0.01837212534155696
1700,00:00:06.8,-0.02771736355498432
1701,00:00:06.804,-0.004323165485402575
1702,00:00:06.808,0.008022043853998162
1703,00:00:06.812,-0.0017875509802252082
1704,00:00:06.816,0.0005127475014887694
1705,00:00:06.82,0.011188642121851501
1706,00:00:06.824,-0.015768872806802402
1707,00:00:06.828,-0.004528442514128959
1708,00:00:06.832,0.00769596872851253
1709,00:00:06.836,-0.010464519960805772
1710,00:00:06.84,0.025196824062732028
1711,00:00:06.844,0.01730677857995032
1712,00:00:06.848,-0.02846042439341543
1713,00:00:06.852,-0.029640772379934795
1714,00:00:06.856,-0.004301764711271975
1715,00:00:06.86,0.050293614156544104
1716,00:00:06.864,0.018847382743842938
1717,00:00:06.868,-0.02857657370623199
1718,00:00:06.872,-0.02011827731621456
1719,00:00:06.876,-0.024045383092015947
1720,00:00:06.88,0.025231218831322608
1721,00:00:06.884,0.02379396837204691
1722,00:00:06.888,-0.00144125684164465
1723,00:00:06.892,0.007269275985891005
1724,00:00:06.896,-0.004524315940216168
1725,00:00:06.9,-0.037295841379091164
1726,00:00:06.904,-0.006140176439657759
1727,00:00:06.908,0.016327951336279435
1728,00:00:06.912,0.022396332758944468
1729,00:00:06.916,0.030441231559962
1730,00:00:06.92,-0.021355454344302388
1731,00:00:06.924,-0.030466642230749172
1732,00:00:06.928,-0.0042820533271879
1733,00:00:06.932,0.005866004852578041
1734,00:00:06.936,0.005103640258312219
1735,00:00:06.94,-0.007991353893885392
1736,00:00:06.944,0.008445319137535979
1737,00:00:06.948,0.02070810599252578
1738,00:00:06.952,0.007484426954761153
1739,00:00:06.956,-0.019300128798931834
1740,00:00:06.96,-0.01747043523937464
1741,00:00:06.964,0.0028896093135699604
1742,00:00:06.968,0.01785755041055379
1743,00:00:06.972,-0.01723487768322228
1744,00:00:06.976,-0.007586094317957757
1745,00:00:06.98,0.01734091108664869
1746,00:00:06.984,0.01705000502988696
1747,00:00:06.988,0.00347229838371281
1748,00:00:06.992,-0.013874211348593232
1749,00:00:06.996,-0.02998529234901069
1750,00:00:07,0.016497808508574963
1751,00:00:07.004,0.005055240122601442
1752,00:00:07.008,0.008153693750500679
1753,00:00:07.012,-0.004812573548406331
1754,00:00:07.016,0.01219583093188703
1755,00:00:07.02,-0.01441057166084648
1756,00:00:07.024,-0.015304288826882798
1757,00:00:07.028,-0.013313831252162341
1758,00:00:07.032,0.03370102960616347
1759,00:00:07.036,0.014976414851844309
1760,00:00:07.04,-0.004506199155002829
1761,00:00:07.044,-0.004540052264928821
1762,00:00:07.048,-0.02070513740181923
1763,00:00:07.052,-0.0042601721361279704
1764,00:00:07.056,0.018145852576708428
1765,00:00:07.06,-0.0017231930978596098
1766,00:00:07.064,-0.012648054864257581
1767,00:00:07.068,0.010706583503633741
1768,00:00:07.072,-0.00417859386652703
1769,00:00:07.076,0.01187064254190769
1770,00:00:07.08,0.004690565168857559
1771,00:00:07.084,0.0038234009407461
1772,00:00:07.088,-0.038711816072464
1773,00:00:07.092,-0.0012008266057819093
1774,00:00:07.096,0.02969743148423735
1775,00:00:07.1,0.0114927929826081
1776,00:00:07.104,-0.01246604230254888
1777,00:00:07.108,-0.010853376239538158
1778,00:00:07.112,0.007885400496888914
1779,00:00:07.116,0.002041119092609732
1780,00:00:07.12,-0.017192780040204518
1781,00:00:07.124,0.0018346033757551993
1782,00:00:07.128,0.029754769988358062
1783,00:00:07.132,-0.005969238671241328
1784,00:00:07.136,-0.021814248058944937
1785,00:00:07.14,-0.00649883598089218
1786,00:00:07.144,0.0037458267761394
1787,00:00:07.148,0.024117890279740116
1788,00:00:07.152,0.011230602394789468
1789,00:00:07.156,-0.021780180526548107
1790,00:00:07.16,-0.011632968205958608
1791,00:00:07.164,-0.00923977507045491
1792,00:00:07.168,0.019266446121037027
1793,00:00:07.172,0.00250596832484007
1794,00:00:07.176,0.003390634781681
1795,00:00:07.18,-0.008363698550965642
1796,00:00:07.184,0.011335029965266587
1797,00:00:07.188,0.0015059206634759504
1798,00:00:07.192,-0.01440365007147197
1799,00:00:07.196,-0.0098529513925314
1800,00:00:07.2,0.02263763081282382
1801,00:00:07.204,-0.0029965182766318495
1802,00:00:07.208,-0.028735020605381578
1803,00:00:07.212,0.015487023862078779
1804,00:00:07.216,0.023275700106751136
1805,00:00:07.22,-0.007086358731612569
1806,00:00:07.224,-0.0020431794691830804
1807,00:00:07.228,-0.004022105829790229
1808,00:00:07.232,-0.011009595938958231
1809,00:00:07.236,-0.007506552443373915
1810,00:00:07.24,0.00825026165693999
1811,00:00:07.244,0.02056476334109902
1812,00:00:07.248,0.0038238484412432185
1813,00:00:07.252,-0.028826673515141
1814,00:00:07.256,0.009110790444538072
1815,00:00:07.26,-0.0006132972193881895
1816,00:00:07.264,0.004572091624140788
1817,00:00:07.268,0.006889115262310952
1818,00:00:07.272,-0.00636766687966884
1819,00:00:07.276,-0.0033916055690496813
1820,00:00:07.28,-0.002885885493014936
1821,00:00:07.284,0.00274881522636866
1822,00:00:07.288,-0.0012482865713536679
1823,00:00:07.292,0.005099324742332139
1824,00:00:07.296,0.02150264568626885
1825,00:00:07.3,-0.02688224520534273
1826,00:00:07.304,-0.02616525627672671
1827,00:00:07.308,0.034901186387287474
1828,00:00:07.312,0.0024068839557004028
1829,00:00:07.316,-0.018161290907301023
1830,00:00:07.32,0.014028443023562489
1831,00:00:07.324,0.01172949094325308
1832,00:00:07.328,0.002344202266613135
1833,00:00:07.332,-0.0262670302763581
1834,00:00:07.336,-0.0009737052023410593
1835,00:00:07.34,-0.011448480421677261
1836,00:00:07.344,0.0073000025004149
1837,00:00:07.348,0.026281253318302302
1838,00:00:07.352,0.00665045809000731
1839,00:00:07.356,-0.0109560756245628
1840,00:00:07.36,-0.006785733858123421
1841,00:00:07.364,-0.014811848816435732
1842,00:00:07.368,0.01837629987858231
1843,00:00:07.372,-0.0032937307842075916
1844,00:00:07.376,-0.011848084861412601
1845,00:00:07.38,-0.010177543037571011
1846,00:00:07.384,0.03541687410324808
1847,00:00:07.388,0.005652049228956456
1848,00:00:07.392,-0.0040097583550959895
1849,00:00:07.396,-0.03108726837672292
1850,00:00:07.4,-0.015019617741927511
1851,00:00:07.404,0.02675987377006092
1852,00:00:07.408,0.0067872968502342285
1853,00:00:07.412,-0.0015256465412676707
1854,00:00:07.416,0.009365697391331161
1855,00:00:07.42,-0.00112790358252824
1856,00:00:07.424,-0.007117023225873699
1857,00:00:07.428,-0.0070479037240147695
1858,00:00:07.432,-0.017975118476897492
1859,00:00:07.436,0.014331845566630407
1860,00:00:07.44,0.018446389876771725
1861,00:00:07.444,-0.00589863362256438
1862,00:00:07.448,-0.005491104559041549
1863,00:00:07.452,0.008010474964976262
1864,00:00:07.456,-0.0075074452906847
1865,00:00:07.46,-0.006666377419605851
1866,00:00:07.464,-0.0052921590395271795
1867,00:00:07.468,0.0007359949813689982
1868,00:00:07.472,0.02155763749033213
1869,00:00:07.476,-0.00612711079884321
1870,00:00:07.48,0.0071392934769392
1871,00:00:07.484,-0.009214936755597598
1872,00:00:07.488,-0.012672565411776299
1873,00:00:07.492,-0.00051780673675239
1874,00:00:07.496,0.009977673646062609
1875,00:00:07.5,0.004386693821288641
1876,00:00:07.504,-0.0019001360051333809
1877,00:00:07.508,-0.008248023688793151
1878,00:00:07.512,0.011556472411029965
1879,00:00:07.516,0.011889567133039222
1880,00:00:07.52,-0.023891189135611092
1881,00:00:07.524,-0.01088955695740874
1882,00:00:07.528,0.01702276756986976
1883,00:00:07.532,0.007681393297389171
1884,00:00:07.536,0.005992960650473839
1885,00:00:07.54,-0.005800308892503341
1886,00:00:07.544,-0.010847297002328556
1887,00:00:07.548,-0.012010540056508036
1888,00:00:07.552,0.002503194380551579
1889,00:00:07.556,0.027827922254800838
1890,00:00:07.56,-0.009547197376377875
1891,00:00:07.564,-0.0361326480051503
1892,00:00:07.568,0.023135854280553737
1893,00:00:07.572,0.030153155792504507
1894,00:00:07.576,0.00874608161393553
1895,00:00:07.58,-0.02721451409161093
1896,00:00:07.584,-0.00771661335602402
1897,00:00:07.588,-0.010553611326031389
1898,00:00:07.592,-0.00494167424039915
1899,00:00:07.596,0.008936609840020536
1900,00:00:07.6,0.011862653045682237
1901,00:00:07.604,0.03027258417569103
1902,00:00:07.608,-0.01862012955825777
1903,00:00:07.612,-0.03182168304920199
1904,00:00:07.616,0.016144674737006422
1905,00:00:07.62,-0.007831477356376113
1906,00:00:07.624,0.01273178041446953
1907,00:00:07.628,-0.009098798269405961
1908,00:00:07.632,0.011932651628740111
1909,00:00:07.636,0.01690567075274886
1910,00:00:07.64,-0.02105304808355867
1911,00:00:07.644,-0.03259016666561373
1912,00:00:07.648,0.025189645588398
1913,00:00:07.652,0.02442281099501996
1914,00:00:07.656,-0.008715037081856282
1915,00:00:07.66,-0.01599896070547398
1916,00:00:07.664,0.00945033482275904
1917,00:00:07.668,0.0014256297145038895
1918,00:00:07.672,-0.021704304963350338
1919,00:00:07.676,0.024689780082553653
1920,00:00:07.68,0.00946472724899652
1921,00:00:07.684,-0.016270692227408297
1922,00:00:07.688,-0.01405403367243703
1923,00:00:07.692,0.01571223104838284
1924,00:00:07.696,-0.0015749491285533233
1925,00:00:07.7,-0.026488123112358132
1926,00:00:07.704,0.02090894093271341
1927,00:00:07.708,0.02396474080160259
1928,00:00:07.712,-0.005786951893242077
1929,00:00:07.716,-0.00500721507705749
1930,00:00:07.72,-0.016813239548355355
1931,00:00:07.724,0.0023866828996688115
1932,00:00:07.728,0.01401742058806121
1933,00:00:07.732,-0.00478478404693305
1934,00:00:07.736,-0.0004000962944701288
1935,00:00:07.74,-0.01871753903105854
1936,00:00:07.744,0.004549287870759146
1937,00:00:07.748,0.01297274907119575
1938,00:00:07.752,0.001526052248664191
1939,00:00:07.756,0.02054547984153036
1940,00:00:07.76,-0.01967479847371581
1941,00:00:07.764,-0.012231389759108412
1942,00:00:07.768,7.15622445568451e-05
1943,00:00:07.772,0.008725951891392471
1944,00:00:07.776,0.00038395769661292434
1945,00:00:07.78,0.00506381306331602
1946,00:00:07.784,-0.008425725856795952
1947,00:00:07.788,-0.0004491506551858033
1948,00:00:07.792,-0.01262678578495982
1949,00:00:07.796,0.0009156416635960288
1950,00:00:07.8,0.04041996318846943
1951,00:00:07.804,0.0007125597912818102
1952,00:00:07.808,-0.02286323253065347
1953,00:00:07.812,-0.01871546823531389
1954,00:00:07.816,-0.0009924909099936529
1955,00:00:07.82,0.01237815036438405
1956,00:00:07.824,0.009322872618213301
1957,00:00:07.828,-0.004088853951543571
1958,00:00:07.832,0.0029515509959310298
1959,00:00:07.836,-0.0035922199022024896
1960,00:00:07.84,-0.00476665562018754
1961,00:00:07.844,-0.0003000589786097364
1962,00:00:07.848,0.02157140034250913
1963,00:00:07.852,-0.01456326269544661
1964,00:00:07.856,-0.01104647503234446
1965,00:00:07.86,0.00035490465234033715
1966,00:00:07.864,0.00268524803686889
1967,00:00:07.868,0.016803307808004306
1968,00:00:07.872,-0.01238492014817898
1969,00:00:07.876,-0.002368492074310779
1970,00:00:07.88,-0.004535510204732479
1971,00:00:07.884,0.006002187903504819
1972,00:00:07.888,0.016274383291602138
1973,00:00:07.892,-0.01416773826349527
1974,00:00:07.896,-0.0059585222043097
1975,00:00:07.9,0.015452989609912031
1976,00:00:07.904,0.00033880153205242264
1977,00:00:07.908,-0.005654307780787392
1978,00:00:07.912,-0.036694634938612546
1979,00:00:07.916,0.010283005423843842
1980,00:00:07.92,0.01982936402782806
1981,00:00:07.924,0.03937965026125319
1982,00:00:07.928,-0.011479287757538243
1983,00:00:07.932,-0.038290402619168225
1984,00:00:07.936,-0.00210527144372464
1985,00:00:07.94,0.002224176889285451
1986,00:00:07.944,0.01319758687168356
1987,00:00:07.948,0.020104935509152717
1988,00:00:07.952,-0.026773931458592404
1989,00:00:07.956,-0.0112626124173403
1990,00:00:07.96,0.01740102597977962
1991,00:00:07.964,0.012033266248181459
1992,00:00:07.968,-0.010611007979605314
1993,00:00:07.972,0.006488353945314891
1994,00:00:07.976,-0.005709313500119565
1995,00:00:07.98,-0.012774315866408884
1996,00:00:07.984,-0.011253280012169851
1997,00:00:07.988,0.03044306440278889
1998,00:00:07.992,0.0032657037954777414
1999,00:00:07.996,-0.01706321805249897
2000,00:00:08,0.009244134533219006
2001,00:00:08.004,0.009469067095778876
2002,00:00:08.008,-0.015561863809125501
2003,00:00:08.012,-0.00039713781006864464
2004,00:00:08.016,-0.0012484339531511086
2005,00:00:08.02,-0.03808254376235706
2006,00:00:08.024,0.025667156209237936
2007,00:00:08.028,0.0532910926267504
2008,00:00:08.032,-0.01548804133199152
2009,00:00:08.036,-0.01344434055499732
2010,00:00:08.04,0.0019395127892494401
2011,00:00:08.044,-0.025689651258289842
2012,00:00:08.048,0.00797766400501132
2013,00:00:08.052,-0.01193548552691936
2014,00:00:08.056,0.004851432517170861
2015,00:00:08.06,0.02493889606557784
2016,00:00:08.064,0.0068507430842146
2017,00:00:08.068,-0.01407676516100765
2018,00:00:08.072,0.002331333234906188
2019,00:00:08.076,-0.01288895902689547
2020,00:00:08.08,-0.009399352595210042
2021,00:00:08.084,0.018541782628744844
2022,00:00:08.088,0.013763959519565133
2023,00:00:08.092,0.0029172929935157303
2024,00:00:08.096,-0.03061408991925421
2025,00:00:08.1,-0.003708841744810341
2026,00:00:08.104,0.0077419823501259115
2027,00:00:08.108,0.014957928506191816
2028,00:00:08.112,0.0050553320907056505
2029,00:00:08.116,-0.023102642968297036
2030,00:00:08.12,-0.00028280471451583994
2031,00:00:08.124,0.01697150664404033
2032,00:00:08.128,0.00408841343596576
2033,00:00:08.132,0.00692284095566722
2034,00:00:08.136,-0.021548441611230436
2035,00:00:08.14,-0.01233461452648044
2036,00:00:08.144,0.0026935533387587012
2037,00:00:08.148,0.0229178909212351
2038,00:00:08.152,0.004033664125017825
2039,00:00:08.156,-0.007381953473668549
2040,00:00:08.16,-0.01120045583229512
2041,00:00:08.164,0.021927976864390027
2042,00:00:08.168,-0.01548917405307293
2043,00:00:08.172,-0.017632807837799233
2044,00:00:08.176,-0.00141368503682315
2045,00:00:08.18,0.016649008030071855
2046,00:00:08.184,0.012495781760662801
2047,00:00:08.188,0.008602847694419321
2048,00:00:08.192,-0.01501309650484475
2049,00:00:08.196,-0.01410314766690135
2050,00:00:08.2,0.0038478474598377904
2051,00:00:08.204,0.01267409278079867
2052,00:00:08.208,0.007740925764665011
2053,00:00:08.212,-0.010921788401901653
2054,00:00:08.216,-0.02306767320260405
2055,00:00:08.22,0.0021611226839013385
2056,00:00:08.224,-1.6469508409498387e-05
2057,00:00:08.228,0.0250422166427597
2058,00:00:08.232,0.020766943460330377
2059,00:00:08.236,-0.008032518555410201
2060,00:00:08.24,-0.020575371105223887
2061,00:00:08.244,-0.006097877165302591
2062,00:00:08.248,0.0018545323982834712
2063,00:00:08.252,0.004140092525631191
2064,00:00:08.256,-0.013603190192952794
2065,00:00:08.26,0.0020524205174297155
2066,00:00:08.264,0.01564726047217846
2067,00:00:08.268,0.00462812022306025
2068,00:00:08.272,0.011043631413485855
2069,00:00:08.276,-0.00921776751056314
2070,00:00:08.28,-0.033509288914501716
2071,00:00:08.284,0.004111377173103401
2072,00:00:08.288,0.02825959236361089
2073,00:00:08.292,0.012854646658524871
2074,00:00:08.296,-0.026390409562736698
2075,00:00:08.3,0.01233730069361626
2076,00:00:08.304,-0.013196208339650208
2077,00:00:08.308,-0.01812505396083001
2078,00:00:08.312,0.021063421387225355
2079,00:00:08.316,0.0126843515317887
2080,00:00:08.32,-0.0024222505744546634
2081,00:00:08.324,0.00299868080765009
2082,00:00:08.328,0.013603289204183987
2083,00:00:08.332,-0.03726962837390599
2084,00:00:08.336,-0.017776598463569795
2085,00:00:08.34,0.007189808413386338
2086,00:00:08.344,0.024818830454023534
2087,00:00:08.348,0.02859525568783281
2088,00:00:08.352,-0.008231083163991581
2089,00:00:08.356,-0.0178418741561472
2090,00:00:08.36,-0.014736084965989002
2091,00:00:08.364,0.0028487149393185904
2092,00:00:08.368,0.0014176620170473996
2093,00:00:08.372,0.0009312171023339103
2094,00:00:08.376,0.0034658772347029277
2095,00:00:08.38,0.0019669379107653887
2096,00:00:08.384,0.018945407660794496
2097,00:00:08.388,-0.014120282954536423
2098,00:00:08.392,-0.01706751808524131
2099,00:00:08.396,0.009761714842170442
2100,00:00:08.4,0.0005235007265582603
2101,00:00:08.404,0.0006593274883925906
2102,00:00:08.408,0.012347587384283537
2103,00:00:08.412,-0.0017067850567400403
2104,00:00:08.416,0.0032700890442356407
2105,00:00:08.42,-0.03040232928469773
2106,00:00:08.424,-0.011062559235142544
2107,00:00:08.428,0.02366280555725101
2108,00:00:08.432,0.038399690733058295
2109,00:00:08.436,-0.023546751588583027
2110,00:00:08.44,-0.01387862139381469
2111,00:00:08.444,-0.0037984655937179936
2112,00:00:08.448,0.017133849913079747
2113,00:00:08.452,-0.0134086252655834
2114,00:00:08.456,-0.006197286071255831
2115,00:00:08.46,0.0009983585914596898
2116,00:00:08.464,0.0152419249352533
2117,00:00:08.468,0.00969313271343712
2118,00:00:08.472,-0.00869555631652474
2119,00:00:08.476,-0.0010366002097725903
2120,00:00:08.48,0.0028629726730287092
2121,00:00:08.484,-0.025215816218405983
2122,00:00:08.488,-0.01922693732922195
2123,00:00:08.492,0.03641951410099864
2124,00:00:08.496,0.00895117083564401
2125,00:00:08.5,0.016338960267603377
2126,00:00:08.504,-0.00803564907982944
2127,00:00:08.508,-0.017359901510644742
2128,00:00:08.512,-0.0008513119537383301
2129,00:00:08.516,-0.017649364541284733
2130,00:00:08.52,-0.0035184987355023605
2131,00:00:08.524,0.022767376620322508
2132,00:00:08.528,0.012434295378625351
2133,00:00:08.532,-0.029345896095037478
2134,00:00:08.536,0.026598449330776958
2135,00:00:08.54,0.0135508347302675
2136,00:00:08.544,-0.027147925953613504
2137,00:00:08.548,0.008457748612272555
2138,00:00:08.552,-0.018984412308782332
2139,00:00:08.556,-0.00276286643020285
2140,00:00:08.56,0.022892078559380066
2141,00:00:08.564,-0.0013512977166101402
2142,00:00:08.568,0.005226526525802914
2143,00:00:08.572,-0.0017421920783817785
2144,00:00:08.576,-0.0027361339889466806
2145,00:00:08.58,-0.02096213586628433
2146,00:00:08.584,-0.023344519024249135
2147,00:00:08.588,0.028317341813817634
2148,00:00:08.592,0.030989106744527747
2149,00:00:08.596,0.012424317770637568
2150,00:00:08.6,-0.018849418338504585
2151,00:00:08.604,-0.02644525747746229
2152,00:00:08.608,0.004868892719969152
2153,00:00:08.612,-0.00544760981574655
2154,00:00:08.616,0.0011037828589905915
2155,00:00:08.62,0.011283140396699354
2156,00:00:08.624,0.00372114963829517
2157,00:00:08.628,0.013331607362488288
2158,00:00:08.632,-0.01445350819267333
2159,00:00:08.636,-0.00084015505854039
2160,00:00:08.64,0.00785533688031133
2161,00:00:08.644,-0.0390176819637417
2162,00:00:08.648,0.0023402817314489904
2163,00:00:08.652,0.04762473981827495
2164,00:00:08.656,0.007710306905210001
2165,00:00:08.66,-0.004754184745252121
2166,00:00:08.664,-0.011893209535628571
2167,00:00:08.668,-0.03660200757440184
2168,00:00:08.672,-0.02666909340769048
2169,00:00:08.676,0.04354434864944777
2170,00:00:08.68,0.02198347839294006
2171,00:00:08.684,0.004830355523154129
2172,00:00:08.688,-0.00961797265335917
2173,00:00:08.692,0.00155093625653535
2174,00:00:08.696,0.007245378466905119
2175,00:00:08.7,-0.02731334604322907
2176,00:00:08.704,-0.01284266420407216
2177,00:00:08.708,0.0024781892134342377
2178,00:00:08.712,0.01678351417649537
2179,00:00:08.716,0.01505987974815071
2180,00:00:08.72,0.005642892327159638
2181,00:00:08.724,-0.00752399628981948
2182,00:00:08.728,-0.003777046920731622
2183,00:00:08.732,-0.014280746225267642
2184,00:00:08.736,-0.004016875755041831
2185,00:00:08.74,0.00157892005518078
2186,00:00:08.744,0.010334911989048151
2187,00:00:08.748,-0.0037583144730888233
2188,00:00:08.752,0.01654674793826417
2189,00:00:08.756,-0.00527545623481274
2190,00:00:08.76,0.00631115166470409
2191,00:00:08.764,-0.03033923231123476
2192,00:00:08.768,-0.0053490594145841844
2193,00:00:08.772,0.021493234205991
2194,00:00:08.776,0.021005649585276887
2195,00:00:08.78,-0.007127192104235291
2196,00:00:08.784,-0.012932095443829929
2197,00:00:08.788,-0.012212543282657879
2198,00:00:08.792,-0.003313262131996459
2199,00:00:08.796,0.012753281596815215
2200,00:00:08.8,0.016070284415036433
2201,00:00:08.804,-0.0040094754658639795
2202,00:00:08.808,-0.00456245883833617
2203,00:00:08.812,-0.015975811460521037
2204,00:00:08.816,0.005713238904718308
2205,00:00:08.82,0.004872632212936882
2206,00:00:08.824,-0.002061913721263361
2207,00:00:08.828,-0.00247242534533143
2208,00:00:08.832,0.008020658977329741
2209,00:00:08.836,0.016652421152684848
2210,00:00:08.84,-0.023840209352783814
2211,00:00:08.844,-0.02100860467180612
2212,00:00:08.848,0.008696432225406222
2213,00:00:08.852,0.033584960096050005
2214,00:00:08.856,0.01249448605813085
2215,00:00:08.86,-0.016312895342707606
2216,00:00:08.864,-0.025067017413675813
2217,00:00:08.868,-0.00556969729950651
2218,00:00:08.872,0.005819527315907222
2219,00:00:08.876,0.01301665510982275
2220,00:00:08.88,-0.00586997997015715
2221,00:00:08.884,0.002501402224879716
2222,00:00:08.888,0.006671520415693521
2223,00:00:08.892,0.0193581532221287
2224,00:00:08.896,-0.019722926896065522
2225,00:00:08.9,-0.017192959159729074
2226,00:00:08.904,0.004996618721634159
2227,00:00:08.908,0.005237672012299299
2228,00:00:08.912,-0.00517765030963346
2229,00:00:08.916,0.008754572598263628
2230,00:00:08.92,-0.00022754783276469036
2231,00:00:08.924,0.003578304022084938
2232,00:00:08.928,0.006977479060878985
2233,00:00:08.932,-0.0123107061954215
2234,00:00:08.936,0.004201380259473808
2235,00:00:08.94,-0.01977802487090232
2236,00:00:08.944,-0.0006806000601499405
2237,00:00:08.948,0.021259139291942168
2238,00:00:08.952,0.02254493418149647
2239,00:00:08.956,0.00287066982127726
2240,00:00:08.96,-0.052131532691419104
2241,00:00:08.964,-0.02250441047362988
2242,00:00:08.968,0.0533461449667811
2243,00:00:08.972,0.026523276232182987
2244,00:00:08.976,-0.03598364442586891
2245,00:00:08.98,-0.03426397053408438
2246,00:00:08.984,0.03472559014335274
2247,00:00:08.988,0.02163555345032364
2248,00:00:08.992,-0.006421828235033902
2249,00:00:08.996,-0.019244120456278328
2250,00:00:09,-0.004857195075601338
2251,00:00:09.004,0.0010141714592464333
2252,00:00:09.008,0.01756939745973794
2253,00:00:09.012,-0.004509244114160531
2254,00:00:09.016,0.0013529469724744602
2255,00:00:09.02,-0.01267415436450392
2256,00:00:09.024,-0.0010827980004250986
2257,00:00:09.028,0.00617121974937618
2258,00:00:09.032,0.004540454945527019
2259,00:00:09.036,0.0008320775814354484
2260,00:00:09.04,0.00038885185495015056
2261,00:00:09.044,-0.01667800359427927
2262,00:00:09.048,0.004613658180460363
2263,00:00:09.052,0.0009227694245055006
2264,00:00:09.056,0.025959243997931498
2265,00:00:09.06,0.0033110477961599987
2266,00:00:09.064,-0.018080972600728232
2267,00:00:09.068,-0.014642055146396164
2268,00:00:09.072,-0.0037464078050106686
2269,00:00:09.076,0.0005585644394159595
2270,00:00:09.08,0.005195966688916079
2271,00:00:09.084,0.02106605377048256
2272,00:00:09.088,0.00337541662156581
2273,00:00:09.092,-0.0029836313333361933
2274,00:00:09.096,-0.015211755526252098
2275,00:00:09.1,-0.02994896611198784
2276,00:00:09.104,0.022012330591678682
2277,00:00:09.108,0.03269406966865068
2278,00:00:09.112,-0.0074564828537404485
2279,00:00:09.116,-0.010730884852819141
2280,00:00:09.12,-0.016701996559277222
2281,00:00:09.124,-0.001754146418534214
2282,00:00:09.128,0.02598125673830509
2283,00:00:09.132,-0.000871779397130101
2284,00:00:09.136,-0.028053045738488398
2285,00:00:09.14,0.006217277608811873
2286,00:00:09.144,0.016708415001630787
2287,00:00:09.148,0.009242630796507022
2288,00:00:09.152,-0.01781252957880497
2289,00:00:09.156,-0.0018155861180275705
2290,00:00:09.16,0.0029827551916241707
2291,00:00:09.164,0.004678368102759119
2292,00:00:09.168,-0.0053643704159185195
2293,00:00:09.172,0.003725803231645838
2294,00:00:09.176,-0.004129651468247221
2295,00:00:09.18,0.0026989425532519193
2296,00:00:09.184,0.00014979601837699025
2297,00:00:09.188,0.006144605809822679
2298,00:00:09.192,-0.0078673360403627
2299,00:00:09.196,0.0138449494261295
2300,00:00:09.2,-0.014635468309279575
2301,00:00:09.204,-0.01885211560875175
2302,00:00:09.208,0.014738095487700754
2303,00:00:09.212,0.02049981197342277
2304,00:00:09.216,0.008251198567450081
2305,00:00:09.22,-0.048356016632169416
2306,00:00:09.224,0.0015632105350960085
2307,00:00:09.228,0.027519393712282222
2308,00:00:09.232,0.022872402245411615
2309,00:00:09.236,-0.008697118144482369
2310,00:00:09.24,-0.02408430818468333
2311,00:00:09.244,-0.00658875878434626
2312,00:00:09.248,0.018969147466123097
2313,00:00:09.252,-0.006147714739199725
2314,00:00:09.256,0.00030479533597827
2315,00:00:09.26,-0.007631312124431139
2316,00:00:09.264,0.003483741544187081
2317,00:00:09.268,0.01601200131699442
2318,00:00:09.272,-0.000386381871066994
2319,00:00:09.276,-0.01409674374372118
2320,00:00:09.28,-0.016094377904664676
2321,00:00:09.284,0.023797225672751658
2322,00:00:09.288,-0.00109120109118522
2323,00:00:09.292,-0.0028309412300586683
2324,00:00:09.296,-0.00588348461315036
2325,00:00:09.3,-0.006673589814454251
2326,00:00:09.304,0.03038288094103336
2327,00:00:09.308,-0.01065864984411746
2328,00:00:09.312,-0.01788964506704364
2329,00:00:09.316,0.028395254630595456
2330,00:00:09.32,-0.03954645991325384
2331,00:00:09.324,0.0014815907925367494
2332,00:00:09.328,0.02571622096002095
2333,00:00:09.332,0.00903902295976881
2334,00:00:09.336,-0.007951056708407124
2335,00:00:09.34,-0.006781206233426901
2336,00:00:09.344,-0.0059391812537796795
2337,00:00:09.348,0.0032911482267081807
2338,00:00:09.352,-0.0011090749758295732
2339,00:00:09.356,0.010746067448053509
2340,00:00:09.36,-0.007876188537920823
2341,00:00:09.364,-0.00816574553027749
2342,00:00:09.368,-0.0040451237000525
2343,00:00:09.372,0.015782088943524283
2344,00:00:09.376,0.005365218501538039
2345,00:00:09.38,0.004742425575386782
2346,00:00:09.384,-0.01011959882453084
2347,00:00:09.388,0.0017172172665596399
2348,00:00:09.392,-0.00805263992515397
2349,00:00:09.396,-0.011593960924074071
2350,00:00:09.4,-0.004165817634202579
2351,00:00:09.404,0.01667241775430742
2352,00:00:09.408,0.027585703239310574
2353,00:00:09.412,-0.01744900803896596
2354,00:00:09.416,-0.01898541161790494
2355,00:00:09.42,0.012636434752494092
2356,00:00:09.424,0.002050564828095956
2357,00:00:09.428,-0.004645349195925524
2358,00:00:09.432,-0.005056506139226271
2359,00:00:09.436,-0.00601307465694845
2360,00:00:09.44,0.020076262415386688
2361,00:00:09.444,-0.009267639034078456
2362,00:00:09.448,0.01057753409259021
2363,00:00:09.452,-0.0008098077960312401
2364,00:00:09.456,0.0021770934108644303
2365,00:00:09.46,-0.03229524521157145
2366,00:00:09.464,0.0025384356267750307
2367,00:00:09.468,0.031202466227114173
2368,00:00:09.472,-0.0057558747867005895
2369,00:00:09.476,-0.0194283488672227
2370,00:00:09.48,0.028096434078179317
2371,00:00:09.484,0.0037676403298974002
2372,00:00:09.488,-0.0107306353747845
2373,00:00:09.492,-0.027211234904825677
2374,00:00:09.496,-0.0014393725432455499
2375,00:00:09.5,0.01129151787608862
2376,00:00:09.504,0.016281262272968902
2377,00:00:09.508,0.004631972115021205
2378,00:00:09.512,-0.00939823407679796
2379,00:00:09.516,0.010454980249051006
2380,00:00:09.52,-0.009612944442778826
2381,00:00:09.524,-0.013697958085685968
2382,00:00:09.528,0.0032156758243218403
2383,00:00:09.532,0.008386947214603424
2384,00:00:09.536,0.003880983218550681
2385,00:00:09.54,-0.01770780328661203
2386,00:00:09.544,0.004233924730215224
2387,00:00:09.548,0.012082268949598081
2388,00:00:09.552,0.010888052871450768
2389,00:00:09.556,0.011921990429982567
2390,00:00:09.56,-0.026176209910772727
2391,00:00:09.564,0.001927796518430119
2392,00:00:09.568,-0.020901065785437857
2393,00:00:09.572,-0.028975619934499222
2394,00:00:09.576,0.0339157765265554
2395,00:00:09.58,0.04603448975831275
2396,00:00:09.584,0.0015329099842347265
2397,00:00:09.588,-0.01600481371860949
2398,00:00:09.592,-0.024812095798552
2399,00:00:09.596,-0.00752796186134219
2400,00:00:09.6,0.01132632396183908
2401,00:00:09.604,-0.011377474787877909
2402,00:00:09.608,0.00925693055614829
2403,00:00:09.612,0.01240614010021093
2404,00:00:09.616,0.01250020181760194
2405,00:00:09.62,-0.01548805320635443
2406,00:00:09.624,-0.01512354356236757
2407,00:00:09.628,-0.0005336473695933801
2408,00:00:09.632,0.008845138305332506
2409,00:00:09.636,0.007231633935589347
2410,00:00:09.64,-0.0019794553518295314
2411,00:00:09.644,0.006223474978469313
2412,00:00:09.648,-0.0040219067595899495
2413,00:00:09.652,0.01101064833346754
2414,00:00:09.656,-0.02510582155082376
2415,00:00:09.66,-0.01962625002488497
2416,00:00:09.664,0.0068788930075243246
2417,00:00:09.668,0.03537168761249632
2418,00:00:09.672,0.018674411869142225
2419,00:00:09.676,-0.023079338017851118
2420,00:00:09.68,0.00114659918472171
2421,00:00:09.684,-0.02406991599127649
2422,00:00:09.688,0.013173233717679981
2423,00:00:09.692,-0.02646135655231777
2424,00:00:09.696,0.01464228262193496
2425,00:00:09.7,0.02370540052652357
2426,00:00:09.704,0.013681449927389618
2427,00:00:09.708,-0.011072995490394536
2428,00:00:09.712,-0.01050242013297975
2429,00:00:09.716,-0.01221767021343112
2430,00:00:09.72,-0.0078458262141794
2431,00:00:09.724,-0.0024042142904363638
2432,00:00:09.728,0.0283340620808303
2433,00:00:09.732,-0.00018449686467647986
2434,00:00:09.736,0.008862197399139437
2435,00:00:09.74,-0.008839343907311559
2436,00:00:09.744,-0.003015882335603192
2437,00:00:09.748,-0.022378928493708393
2438,00:00:09.752,-0.00892969669803279
2439,00:00:09.756,0.01135097164660696
2440,00:00:09.76,0.012205925188027348
2441,00:00:09.764,0.04157202038913963
2442,00:00:09.768,-0.014450213289819627
2443,00:00:09.772,-0.033761623461032286
2444,00:00:09.776,-0.005395273823523887
2445,00:00:09.78,0.009440004942007406
2446,00:00:09.784,-0.0014671734534203902
2447,00:00:09.788,0.00266603752970696
2448,00:00:09.792,-0.0003462305758148406
2449,00:00:09.796,0.01067149126902226
2450,00:00:09.8,0.004018526349682355
2451,00:00:09.804,-0.02242394303902983
2452,00:00:09.808,0.009031315625179533
2453,00:00:09.812,0.01794744958169758
2454,00:00:09.816,-0.01039951643906534
2455,00:00:09.82,0.0034045282518491114
2456,00:00:09.824,-0.029519686882849786
2457,00:00:09.828,-0.00666220346465707
2458,00:00:09.832,0.036452251020818935
2459,00:00:09.836,0.011498765496071456
2460,00:00:09.84,-0.02415102533996102
2461,00:00:09.844,0.018947503762319698
2462,00:00:09.848,-0.003844296734314417
2463,00:00:09.852,-0.025818737456575064
2464,00:00:09.856,0.011638727562967691
2465,00:00:09.86,-0.0067619574256240714
2466,00:00:09.864,0.0031392415985464616
2467,00:00:09.868,0.01270890142768621
2468,00:00:09.872,0.0009729382582008492
2469,00:00:09.876,0.0026903753168880896
2470,00:00:09.88,-0.009583996055880556
2471,00:00:09.884,-0.01096869702450931
2472,00:00:09.888,0.0033877234091050923
2473,00:00:09.892,0.0026819727208931103
2474,00:00:09.896,-0.00391448183654575
2475,00:00:09.9,0.01189483155030754
2476,00:00:09.904,0.020772658870555478
2477,00:00:09.908,0.01515108789317307
2478,00:00:09.912,-0.043068082071840715
2479,00:00:09.916,-0.03293772274628285
2480,00:00:09.92,0.014744831714779121
2481,00:00:09.924,0.01988591090776026
2482,00:00:09.928,0.008007281925529196
2483,00:00:09.932,-0.00019774095562752374
2484,00:00:09.936,0.0005409542936831695
2485,00:00:09.94,0.00511891249334439
2486,00:00:09.944,-2.301254426128989e-05
2487,00:00:09.948,-0.015253116376698
2488,00:00:09.952,-0.012737554498016803
2489,00:00:09.956,0.0013093592133373
2490,00:00:09.96,0.02874077530577781
2491,00:00:09.964,-0.013770331075647839
2492,00:00:09.968,0.006667338428087573
2493,00:00:09.972,0.011516138620208925
2494,00:00:09.976,-0.03023441229015589
2495,00:00:09.98,0.004843218368478111
2496,00:00:09.984,0.01146546378731725
2497,00:00:09.988,-0.002304319757968191
2498,00:00:09.992,-0.022217830643057827
2499,00:00:09.996,0.02311251079663637
2500,00:00:10,0.014374745776876802
2501,00:00:10.004,-0.0073702440131455695
2502,00:00:10.008,-0.01641099806874992
2503,00:00:10.012,0.023450368316844147
2504,00:00:10.016,-0.012429689755663251
2505,00:00:10.02,-0.026551293674856438
2506,00:00:10.024,0.005621045478619641
2507,00:00:10.028,0.01231421041302383
2508,00:00:10.032,0.00818823929876086
2509,00:00:10.036,0.01236593688372523
2510,00:00:10.04,-0.0036892902571708
2511,00:00:10.044,-0.01516836928203702
2512,00:00:10.048,-0.0032238778658211604
2513,00:00:10.052,0.010590767022222291
2514,00:00:10.056,0.0037945556687191597
2515,00:00:10.06,-0.01225828519091009
2516,00:00:10.064,-0.002629605820402503
2517,00:00:10.068,-0.01237162458710372
2518,00:00:10.072,0.019228873250540384
2519,00:00:10.076,0.00983638221805449
2520,00:00:10.08,0.010687805945053669
2521,00:00:10.084,-0.014837375376373531
2522,00:00:10.088,-0.022079568821936832
2523,00:00:10.092,0.0036973536480218103
2524,00:00:10.096,0.01861650263890624
2525,00:00:10.1,-0.00683150533586741
2526,00:00:10.104,0.0011105596204288295
2527,00:00:10.108,0.00610288209281862
2528,00:00:10.112,-0.009795658290386177
2529,00:00:10.116,0.0015996454749256294
2530,00:00:10.12,0.0010377499274909522
2531,00:00:10.124,-0.00513707078061997
2532,00:00:10.128,0.019168384606018652
2533,00:00:10.132,-0.0025673584314063183
2534,00:00:10.136,-0.013582424027845241
2535,00:00:10.14,0.0029598193941637848
2536,00:00:10.144,-0.014969716197811024
2537,00:00:10.148,-0.0007374479027930664
2538,00:00:10.152,0.02393751195631925
2539,00:00:10.156,-0.0032265560294035666
2540,00:00:10.16,0.0005159048014320468
2541,00:00:10.164,0.01129571814090013
2542,00:00:10.168,-0.016701269021723385
2543,00:00:10.172,-0.018898290349170597
2544,00:00:10.176,0.002895062476454771
2545,00:00:10.18,0.019954323768615695
2546,00:00:10.184,0.00842425035079946
2547,00:00:10.188,-0.0043627447448670795
2548,00:00:10.192,-0.0009173304206342471
2549,00:00:10.196,-0.016865083278389634
2550,00:00:10.2,-0.00624302425421777
2551,00:00:10.204,0.009827303234487791
2552,00:00:10.208,0.018553391390014433
2553,00:00:10.212,0.002710441360250119
2554,00:00:10.216,-0.018032175139524077
2555,00:00:10.22,-0.00172108190599829
2556,00:00:10.224,0.00030266260728240187
2557,00:00:10.228,0.0038542882539332
2558,00:00:10.232,6.239099457161088e-05
2559,00:00:10.236,-0.002355963923037
2560,00:00:10.24,-0.010268080164678391
2561,00:00:10.244,0.02643875742796805
2562,00:00:10.248,0.002716269809752701
2563,00:00:10.252,-0.021793539170175773
2564,00:00:10.256,-0.00269635184668004
2565,00:00:10.26,4.7199428081510716e-05
2566,00:00:10.264,0.0021834280341863407
2567,00:00:10.268,0.0321307872363832
2568,00:00:10.272,-0.014616733882576269
2569,00:00:10.276,-0.02099172398447992
2570,00:00:10.28,-0.009907574858516462
2571,00:00:10.284,0.015154592227190792
2572,00:00:10.288,-0.0004980653466191097
2573,00:00:10.292,0.0013686371967197002
2574,00:00:10.296,0.00857991515658796
2575,00:00:10.3,0.0002143657766282385
2576,00:00:10.304,0.012758343509176517
2577,00:00:10.308,-0.009243243024684492
2578,00:00:10.312,-0.012257329377462153
2579,00:00:10.316,-0.006432489375583827
2580,00:00:10.32,0.010865685995668187
2581,00:00:10.324,-0.01578458631411194
2582,00:00:10.328,0.00650908378884194
2583,00:00:10.332,0.012313963379710908
2584,00:00:10.336,0.00360579090192914
2585,00:00:10.34,-0.006046325637726109
2586,00:00:10.344,0.0022061406634747913
2587,00:00:10.348,-0.010130253620445728
2588,00:00:10.352,0.01357168098911642
2589,00:00:10.356,0.013692018663277846
2590,00:00:10.36,-0.03007564973086115
2591,00:00:10.364,-0.01674975070636719
2592,00:00:10.368,0.01547839166596533
2593,00:00:10.372,0.01438636711100117
2594,00:00:10.376,0.01672514795791353
2595,00:00:10.38,-0.004905502079054709
2596,00:00:10.384,-0.05446786480024449
2597,00:00:10.388,0.02489888004492966
2598,00:00:10.392,0.04149124305695295
2599,00:00:10.396,-0.006991389673203229
2600,00:00:10.4,-0.02256925753317774
2601,00:00:10.404,-0.002092626877129092
2602,00:00:10.408,0.0035136924125254107
2603,00:00:10.412,-0.0015353008639067403
2604,00:00:10.416,-0.014509130734950308
2605,00:00:10.42,-0.00726168439723549
2606,00:00:10.424,0.04132064664736394
2607,00:00:10.428,0.010061262175440799
2608,00:00:10.432,-0.02812890452332795
2609,00:00:10.436,-0.005498601589351889
2610,00:00:10.44,-0.0026918512303382184
2611,00:00:10.444,-0.010417665471322831
2612,00:00:10.448,0.018308288301341243
2613,00:00:10.452,0.01794352266006173
2614,00:00:10.456,-0.008912815712392332
2615,00:00:10.46,0.0038316715508699096
2616,00:00:10.464,-0.020152903045527682
2617,00:00:10.468,-0.0037045062053948693
2618,00:00:10.472,0.00048825758858583824
2619,00:00:10.476,0.010232075605017602
2620,00:00:10.48,0.00943636149168014
2621,00:00:10.484,-0.01110073016025126
2622,00:00:10.488,0.013490413897670767
2623,00:00:10.492,0.02297818660736084
2624,00:00:10.496,-0.06451015546917915
2625,00:00:10.5,-0.0005351467989385076
2626,00:00:10.504,0.028055539820343273
2627,00:00:10.508,0.01740802358835935
2628,00:00:10.512,0.01282003591768443
2629,00:00:10.516,-0.02114314213395123
2630,00:00:10.52,-0.013403530407231292
2631,00:00:10.524,-0.0036095551913604192
2632,00:00:10.528,0.00736436247825622
2633,00:00:10.532,-0.01087952451780438
2634,00:00:10.536,0.012910304183606065
2635,00:00:10.54,0.02158393803983928
2636,00:00:10.544,-0.01603304315358397
2637,00:00:10.548,0.005364126525819271
2638,00:00:10.552,-0.012795358663424801
2639,00:00:10.556,-0.0016578857321291988
2640,00:00:10.56,-0.0025822659372352003
2641,00:00:10.564,-0.00672664295416325
2642,00:00:10.568,0.01419844455085694
2643,00:00:10.572,0.01060998160392048
2644,00:00:10.576,0.00519024161621928
2645,00:00:10.58,-0.019748027436435202
2646,00:00:10.584,-0.00829080271068961
2647,00:00:10.588,0.032431621104478794
2648,00:00:10.592,-0.03614566812757402
2649,00:00:10.596,0.00349371077027172
2650,00:00:10.6,0.019241197966039177
2651,00:00:10.604,0.002502248156815769
2652,00:00:10.608,-0.00413724430836737
2653,00:00:10.612,0.00981483492068945
2654,00:00:10.616,-0.018518419936299362
2655,00:00:10.62,-0.01806090655736628
2656,00:00:10.624,0.011562746018171272
2657,00:00:10.628,0.01833383413031696
2658,00:00:10.632,0.004565777373500171
2659,00:00:10.636,0.005692969774827394
2660,00:00:10.64,-0.021289238706231083
2661,00:00:10.644,-0.021799066220410196
2662,00:00:10.648,0.01501653925515712
2663,00:00:10.652,0.00991042843088508
2664,00:00:10.656,0.009526843205094351
2665,00:00:10.66,-0.006951668648980561
2666,00:00:10.664,-0.0031756607932038657
2667,00:00:10.668,0.00829608889762313
2668,00:00:10.672,0.00784566854417789
2669,00:00:10.676,-0.00908107263967394
2670,00:00:10.68,-0.02821808308362958
2671,00:00:10.684,-0.002817577682435509
2672,00:00:10.688,0.023531171784270524
2673,00:00:10.692,0.009673774824477722
2674,00:00:10.696,0.004972667084075509
2675,00:00:10.7,-0.01375764305703342
2676,00:00:10.704,0.00449491317704085
2677,00:00:10.708,0.0018746934947557773
2678,00:00:10.712,-0.00547899049706757
2679,00:00:10.716,-0.02180198440328241
2680,00:00:10.72,0.020277271978557148
2681,00:00:10.724,0.01488320564385504
2682,00:00:10.728,-0.012818074319511649
2683,00:00:10.732,0.002432533423416316
2684,00:00:10.736,-0.01640425273217258
2685,00:00:10.74,-0.0002530820202082413
2686,00:00:10.744,0.01667967298999427
2687,00:00:10.748,0.006946559704374536
2688,00:00:10.752,-0.00830164313083515
2689,00:00:10.756,0.001967070507816971
2690,00:00:10.76,-0.0044270789367146755
2691,00:00:10.764,-0.013874255120754247
2692,00:00:10.768,0.019730095955310424
2693,00:00:10.772,0.01450255000963803
2694,00:00:10.776,-0.041813833639025674
2695,00:00:10.78,0.01284330897033218
2696,00:00:10.784,-0.0020983000285923004
2697,00:00:10.788,0.012148782145231971
2698,00:00:10.792,0.021471741609275348
2699,00:00:10.796,-0.00455943611450493
2700,00:00:10.8,-0.01627029420342297
2701,00:00:10.804,-0.00557833630591633
2702,00:00:10.808,-0.016916060354560575
2703,00:00:10.812,0.007084566866978989
2704,00:00:10.816,0.010233040433377048
2705,00:00:10.82,0.00786649086512627
2706,00:00:10.824,0.021643622778356082
2707,00:00:10.828,-0.02120170323178171
2708,00:00:10.832,-0.012059856322593987
2709,00:00:10.836,-0.005043643061071629
2710,00:00:10.84,-0.0034072508569806493
2711,00:00:10.844,0.014347674557939208
2712,00:00:10.848,9.435380343346964e-05
2713,00:00:10.852,0.01120593276573345
2714,00:00:10.856,0.0074701224220916585
2715,00:00:10.86,-0.015455771703273068
2716,00:00:10.864,-0.005525645596208053
2717,00:00:10.868,0.00906215340364724
2718,00:00:10.872,-0.0092463205801323
2719,00:00:10.876,-0.02961580269038675
2720,00:00:10.88,0.024380710150580825
2721,00:00:10.884,0.01925543055403977
2722,00:00:10.888,0.00579613307490945
2723,00:00:10.892,-0.0006153316353447805
2724,00:00:10.896,-0.01045882771722972
2725,00:00:10.9,-0.026594065129756955
2726,00:00:10.904,0.00713445118162781
2727,00:00:10.908,0.01812832569703458
2728,00:00:10.912,0.02532060677185653
2729,00:00:10.916,-0.022256400203332347
2730,00:00:10.92,-0.031237238086760055
2731,00:00:10.924,0.011036266922019422
2732,00:00:10.928,0.01787479920312762
2733,00:00:10.932,-0.00937387743033468
2734,00:00:10.936,0.01459588576108218
2735,00:00:10.94,0.0015736687928438195
2736,00:00:10.944,-0.0167410228168592
2737,00:00:10.948,-0.010005365125834949
2738,00:00:10.952,0.022102423012256664
2739,00:00:10.956,0.0005774444434791821
2740,00:00:10.96,-0.01193674351088703
2741,00:00:10.964,0.011778660584241159
2742,00:00:10.968,-0.006165093509480354
2743,00:00:10.972,-0.022980341222137234
2744,00:00:10.976,0.02073705871589485
2745,00:00:10.98,0.012002756935544309
2746,00:00:10.984,-0.005866388557478789
2747,00:00:10.988,-0.0003411542274989177
2748,00:00:10.992,-0.003991221077740199
2749,00:00:10.996,-0.009566333843395121
2750,00:00:11,0.01317026163451372
2751,00:00:11.004,-0.008299652573441552
2752,00:00:11.008,0.014056117739528412
2753,00:00:11.012,-0.01493321522139013
2754,00:00:11.016,0.010022348025813692
2755,00:00:11.02,-0.02290671505033966
2756,00:00:11.024,0.004114915616810301
2757,00:00:11.028,0.020986716262996155
2758,00:00:11.032,0.005788512993603879
2759,00:00:11.036,-0.01018092664889993
2760,00:00:11.04,-0.0011063087731599296
2761,00:00:11.044,-0.002507253084331751
2762,00:00:11.048,0.0006282192189246401
2763,00:00:11.052,0.01675857580266893
2764,00:00:11.056,-0.020539457909762797
2765,00:00:11.06,-0.01814665040001273
2766,00:00:11.064,0.0033087288029492318
2767,00:00:11.068,0.02192215225659309
2768,00:00:11.072,0.00863522163126618
2769,00:00:11.076,0.0092760240077041
2770,00:00:11.08,-0.01755023282021284
2771,00:00:11.084,-0.01180039998143912
2772,00:00:11.088,0.00804538791999217
2773,00:00:11.092,-0.007876236457377672
2774,00:00:11.096,-0.0005095642991364193
2775,00:00:11.1,0.017159911280032192
2776,00:00:11.104,-0.016800480778329106
2777,00:00:11.108,-0.0010312765371054385
2778,00:00:11.112,0.023642106913030148
2779,00:00:11.116,-0.0024412735365331208
2780,00:00:11.12,-0.0076991813257336695
2781,00:00:11.124,-0.01547391165513547
2782,00:00:11.128,0.025203139288350978
2783,00:00:11.132,-0.027290284167975156
2784,00:00:11.136,-0.013776201172731815
2785,00:00:11.14,0.03549819742329423
2786,00:00:11.144,-0.017918956873472818
2787,00:00:11.148,0.01735195610672239
2788,00:00:11.152,0.013028832559939465
2789,00:00:11.156,-0.0032075264025479607
2790,00:00:11.16,-0.01255437429063023
2791,00:00:11.164,-0.02020249934867024
2792,00:00:11.168,-0.005879335280042143
2793,00:00:11.172,0.01784057845361535
2794,00:00:11.176,-0.00414508662652225
2795,00:00:11.18,0.01690837368369105
2796,00:00:11.184,0.009259829414077107
2797,00:00:11.188,-0.011539015918970143
2798,00:00:11.192,-0.016536567534785714
2799,00:00:11.196,-0.007602274155942733
2800,00:00:11.2,0.00048486437299288506
2801,00:00:11.204,0.026409128215163898
2802,00:00:11.208,0.00376537488773465
2803,00:00:11.212,-0.012561391282360997
2804,00:00:11.216,0.00038868561387061986
2805,00:00:11.22,0.008869723416864903
2806,00:00:11.224,-0.021932464092969912
2807,00:00:11.228,-0.0011824242683360396
2808,00:00:11.232,0.01372497365809975
2809,00:00:11.236,0.01403890969231725
2810,00:00:11.24,0.003365900134667792
2811,00:00:11.244,-0.05788602225948126
2812,00:00:11.248,0.004799822287168343
2813,00:00:11.252,0.061184486839920324
2814,00:00:11.256,0.006405013613402798
2815,00:00:11.26,-0.03214462008327246
2816,00:00:11.264,0.0007363100303336978
2817,00:00:11.268,-0.008758481591939992
2818,00:00:11.272,-0.0017002307577058703
2819,00:00:11.276,0.015381667704787126
2820,00:00:11.28,-0.009674792643636469
2821,00:00:11.284,-0.0026573787909001103
2822,00:00:11.288,-0.00857782643288373
2823,00:00:11.292,0.01094061078038067
2824,00:00:11.296,0.008343036752194171
2825,00:00:11.3,-0.003194795863237235
2826,00:00:11.304,0.01684053614735601
2827,00:00:11.308,-0.008502819808199991
2828,00:00:11.312,-0.01674388861283664
2829,00:00:11.316,-0.0008887627627700498
2830,00:00:11.32,-0.006837542168796018
2831,00:00:11.324,0.01508931117132308
2832,00:00:11.328,0.011799122439697413
2833,00:00:11.332,-0.010930728865787392
2834,00:00:11.336,0.012176327407360066
2835,00:00:11.34,-0.0182573953643441
2836,00:00:11.344,-0.03049108409322793
2837,00:00:11.348,0.02365063875913623
2838,00:00:11.352,0.043048033490777
2839,00:00:11.356,-0.02457627328112723
2840,00:00:11.36,-0.015772554557770522
2841,00:00:11.364,0.008235719054937361
2842,00:00:11.368,0.0002638167934492227
2843,00:00:11.372,-0.0029750864487141397
2844,00:00:11.376,0.00609241098572965
2845,00:00:11.38,0.01085373270325363
2846,00:00:11.384,-0.01833589095622301
2847,00:00:11.388,-0.006723530124872911
2848,00:00:11.392,0.002779118134640158
2849,00:00:11.396,0.01060319249518215
2850,00:00:11.4,0.001300030264246745
2851,00:00:11.404,0.0007244789740070701
2852,00:00:11.408,0.007020048680715268
2853,00:00:11.412,-0.01016712235286835
2854,00:00:11.416,-0.01675379695370794
2855,00:00:11.42,0.006410873262211677
2856,00:00:11.424,0.010199978249147541
2857,00:00:11.428,0.007695002015680121
2858,00:00:11.432,0.010425844811834395
2859,00:00:11.436,-0.01889209216460582
2860,00:00:11.44,-0.02416198572609578
2861,00:00:11.444,0.01112823083531104
2862,00:00:11.448,0.02000470343045891
2863,00:00:11.452,-0.0021632048301398693
2864,00:00:11.456,0.00797740626148878
2865,00:00:11.46,-0.0070034528616815805
2866,00:00:11.464,-0.014683303423225873
2867,00:00:11.468,0.0038788076490163846
2868,00:00:11.472,-0.000602342421188961
2869,00:00:11.476,0.0163439075695351
2870,00:00:11.48,-0.012337893829680983
2871,00:00:11.484,-0.00446241744793951
2872,00:00:11.488,0.00569260830525305
2873,00:00:11.492,0.00807368842652068
2874,00:00:11.496,-0.004116493626497685
2875,00:00:11.5,-0.014108910690993081
2876,00:00:11.504,0.00293066678568719
2877,00:00:11.508,0.011098455870524009
2878,00:00:11.512,-0.005615631816908651
2879,00:00:11.516,0.0033436310477554998
2880,00:00:11.52,0.008883591886842648
2881,00:00:11.524,-0.01665007171686738
2882,00:00:11.528,-0.0014447800349444522
2883,00:00:11.532,0.015534954145550752
2884,00:00:11.536,0.0119820972904563
2885,00:00:11.54,-0.02376374939922249
2886,00:00:11.544,-0.01273342361673709
2887,00:00:11.548,-0.0019708685576915793
2888,00:00:11.552,0.024152962694643013
2889,00:00:11.556,0.013058334123343271
2890,00:00:11.56,-0.013449737802147838
2891,00:00:11.564,-0.01583701977506278
2892,00:00:11.568,0.011822629137896
2893,00:00:11.572,0.016233307309448712
2894,00:00:11.576,-0.02820389112457637
2895,00:00:11.58,-0.016137438549776582
2896,00:00:11.584,0.02588289557024839
2897,00:00:11.588,0.02532215230166913
2898,00:00:11.592,-0.010940986801870192
2899,00:00:11.596,-0.01346016000024974
2900,00:00:11.6,-0.00762222323101014
2901,00:00:11.604,-0.008945039007812731
2902,00:00:11.608,0.0115338377654553
2903,00:00:11.612,0.017227192332939054
2904,00:00:11.616,0.0059742014855146425
2905,00:00:11.62,-0.011364629026502369
2906,00:00:11.624,-0.022321986907627486
2907,00:00:11.628,0.006673849582966796
2908,00:00:11.632,0.0015127900987863502
2909,00:00:11.636,-0.008555883774533871
2910,00:00:11.64,0.02106167702004314
2911,00:00:11.644,0.011462652066256813
2912,00:00:11.648,-0.0035227102343924374
2913,00:00:11.652,-0.0003426056355238
2914,00:00:11.656,-0.021230774000287014
2915,00:00:11.66,0.010998114943504339
2916,00:00:11.664,-0.0004465746460482929
2917,00:00:11.668,-0.027358727529644924
2918,00:00:11.672,0.012228123043314554
2919,00:00:11.676,0.02174478420056398
2920,00:00:11.68,-0.0014032139442861124
2921,00:00:11.684,-0.002768039936199779
2922,00:00:11.688,0.00816660211421552
2923,00:00:11.692,-0.0028925347141921295
2924,00:00:11.696,-0.01464411523193121
2925,00:00:11.7,0.0028426693752408
2926,00:00:11.704,-0.00790842459537088
2927,00:00:11.708,-0.0076030594063922815
2928,00:00:11.712,0.019750362262129777
2929,00:00:11.716,0.018836638075299547
2930,00:00:11.72,-0.01722907088696956
2931,00:00:11.724,-0.03069676738232376
2932,00:00:11.728,0.01835499284788966
2933,00:00:11.732,0.02212794777005911
2934,00:00:11.736,0.00637740991078317
2935,00:00:11.74,-0.00098450982477516
2936,00:00:11.744,-0.01339615392498671
2937,00:00:11.748,-0.02562702354043722
2938,00:00:11.752,-0.00452216411940753
2939,00:00:11.756,0.01928114169277251
2940,00:00:11.76,0.006703079212456941
2941,00:00:11.764,-0.0011871168389916906
2942,00:00:11.768,0.02373808110132816
2943,00:00:11.772,-0.01913511473685502
2944,00:00:11.776,-0.010000168927945198
2945,00:00:11.78,0.00027595186838879574
2946,00:00:11.784,0.011264399741776305
2947,00:00:11.788,-0.009724251169245685
2948,00:00:11.792,0.01691308675799522
2949,00:00:11.796,-0.032078051473945365
2950,00:00:11.8,-0.012540651019662577
2951,00:00:11.804,0.03960354439914231
2952,00:00:11.808,0.010469657659996353
2953,00:00:11.812,-0.009340557095129029
2954,00:00:11.816,0.01498054491821678
2955,00:00:11.82,-0.011407163256080776
2956,00:00:11.824,-0.049265513196587604
2957,00:00:11.828,0.00984952913131561
2958,00:00:11.832,0.02321031744941138
2959,00:00:11.836,0.017267329618334812
2960,00:00:11.84,-0.003563035803381355
2961,00:00:11.844,-0.01185863837599756
2962,00:00:11.848,0.0031043726485222565
2963,00:00:11.852,0.0003048366634175203
2964,00:00:11.856,-0.005599534779321405
2965,00:00:11.86,0.00026215601246803305
2966,00:00:11.864,0.008604094153270129
2967,00:00:11.868,-0.005961713584838434
2968,00:00:11.872,-0.00013123100507072844
2969,00:00:11.876,0.01118171401321888
2970,00:00:11.88,-0.01378810964524747
2971,00:00:11.884,-0.0024882964789867523
2972,00:00:11.888,-0.00622422725427896
2973,00:00:11.892,0.00240602635312825
2974,00:00:11.896,0.01833665184676647
2975,00:00:11.9,0.00782909791450947
2976,00:00:11.904,-0.0005024564452469401
2977,00:00:11.908,-0.02425182773731649
2978,00:00:11.912,-0.0076766505371779255
2979,00:00:11.916,0.01506309537217022
2980,00:00:11.92,-0.002976441290229598
2981,00:00:11.924,-0.0075920252129435505
2982,00:00:11.928,0.02556091843871396
2983,00:00:11.932,-0.01062296377494931
2984,00:00:11.936,-0.005885387305170279
2985,00:00:11.94,0.001524095423519611
2986,00:00:11.944,0.008511200081557029
2987,00:00:11.948,0.0010422191116958787
2988,00:00:11.952,-0.017800766043365012
2989,00:00:11.956,0.007516085654060587
2990,00:00:11.96,-0.0019428976956987806
2991,00:00:11.964,-0.004902974003925909
2992,00:00:11.968,0.028745217947289313
2993,00:00:11.972,-0.02593245403841132
2994,00:00:11.976,0.0003734540659934226
2995,00:00:11.98,-0.005139816552400589
2996,00:00:11.984,0.0062236213125288695
2997,00:00:11.988,0.01139142620377242
2998,00:00:11.992,0.02025546971708532
2999,00:00:11.996,-0.021685878746211598
3000,00:00:12,-0.04042142722755672
3001,00:00:12.004,0.01508173430920581
3002,00:00:12.008,0.02135662245564159
3003,00:00:12.012,0.010031325276941061
3004,00:00:12.016,0.031549549661576734
3005,00:00:12.02,-0.03461118601262574
3006,00:00:12.024,-0.051315941847860806
3007,00:00:12.028,0.023511367617174986
3008,00:00:12.032,0.020103578455746222
3009,00:00:12.036,0.01002608332782983
3010,00:00:12.04,0.010740231256932062
3011,00:00:12.044,-0.0066653892281465284
3012,00:00:12.048,-0.02408543974161144
3013,00:00:12.052,-0.013370692962780591
3014,00:00:12.056,0.020721112261526255
3015,00:00:12.06,0.005511884577572351
3016,00:00:12.064,-0.00925414985977113
3017,00:00:12.068,0.0033962852903641674
3018,00:00:12.072,0.0006758839590474955
3019,00:00:12.076,0.0037688610609620905
3020,00:00:12.08,0.014502826146781451
3021,00:00:12.084,-0.01866790406347721
3022,00:00:12.088,-0.0060443750116974115
3023,00:00:12.092,0.007942958618514219
3024,00:00:12.096,-0.0015681775985285683
3025,00:00:12.1,0.00479672686196864
3026,00:00:12.104,-0.01348782610148196
3027,00:00:12.108,0.011082842764153564
3028,00:00:12.112,0.014139336242806172
3029,00:00:12.116,-0.010937448154436386
3030,00:00:12.12,-0.01931607595179232
3031,00:00:12.124,0.0026359478943049908
3032,00:00:12.128,0.016025301534682547
3033,00:00:12.132,-0.00023258361034095938
3034,00:00:12.136,0.009902691002935171
3035,00:00:12.14,-0.014838214236078784
3036,00:00:12.144,-0.00940976571291682
3037,00:00:12.148,0.01790856476873167
3038,00:00:12.152,0.0016607595607638303
3039,00:00:12.156,-0.014232718385755959
3040,00:00:12.16,0.0017204897594638217
3041,00:00:12.164,-0.004533387196715923
3042,00:00:12.168,-0.0072036407655105
3043,00:00:12.172,0.019647561013698578
3044,00:00:12.176,0.02275473205372692
3045,00:00:12.18,-0.013297395897097886
3046,00:00:12.184,-0.0279166838154197
3047,00:00:12.188,0.013660268159583211
3048,00:00:12.192,-0.0066548984032124316
3049,00:00:12.196,-0.0028372103697620337
3050,00:00:12.2,0.01250648003770039
3051,00:00:12.204,-0.0010714677628129803
3052,00:00:12.208,-0.001663310918956989
3053,00:00:12.212,0.002498132643040664
3054,00:00:12.216,0.01399852451868355
3055,00:00:12.22,-0.010299346875399351
3056,00:00:12.224,-0.017720610368996862
3057,00:00:12.228,-0.0004782287869602416
3058,00:00:12.232,0.015528669056948273
3059,00:00:12.236,0.001498533878475425
3060,00:00:12.24,-0.004889595293207099
3061,00:00:12.244,-0.015093035297468303
3062,00:00:12.248,0.033262835233472274
3063,00:00:12.252,0.006803443655371701
3064,00:00:12.256,-0.0377346102613956
3065,00:00:12.26,-0.018220856843981868
3066,00:00:12.264,0.03104298841208216
3067,00:00:12.268,0.016907546785660067
3068,00:00:12.272,-0.006919648381881419
3069,00:00:12.276,-0.02277719974517825
3070,00:00:12.28,0.0125932270893827
3071,00:00:12.284,0.008211517590098078
3072,00:00:12.288,-0.010829523205757141
3073,00:00:12.292,0.00045512465294450175
3074,00:00:12.296,0.004886872367933388
3075,00:00:12.3,-0.0024585281498730087
3076,00:00:12.304,-0.006027122006344142
3077,00:00:12.308,9.746861178427935e-05
3078,00:00:12.312,0.01703628455288705
3079,00:00:12.316,0.005416045198217086
3080,00:00:12.32,-0.0090341696050018
3081,00:00:12.324,-0.01516370477474994
3082,00:00:12.328,-0.012427874287823215
3083,00:00:12.332,0.0009165553565253504
3084,00:00:12.336,0.024470784934237638
3085,00:00:12.34,0.024104200070723843
3086,00:00:12.344,-0.02032650099135931
3087,00:00:12.348,-0.01718652760609984
3088,00:00:12.352,-0.009115114931773862
3089,00:00:12.356,0.008434677263721829
3090,00:00:12.36,0.014991701813414691
3091,00:00:12.364,0.010305162752047231
3092,00:00:12.368,-0.007005665218457571
3093,00:00:12.372,-0.014407728333026198
3094,00:00:12.376,-0.004293390549719332
3095,00:00:12.38,0.012978664650290746
3096,00:00:12.384,-0.023600676096975755
3097,00:00:12.388,0.003094332059845329
3098,00:00:12.392,0.03354104794561858
3099,00:00:12.396,0.01377014722675085
3100,00:00:12.4,-0.02181250136345625
3101,00:00:12.404,-0.01099340617656708
3102,00:00:12.408,-0.007123977411538359
3103,00:00:12.412,-0.0028465598588809397
3104,00:00:12.416,-0.0025909944142767957
3105,00:00:12.42,0.01241514750290662
