,Elapsed Time,EMG
0,00:00:00,3.2838838994502995
1,00:00:00.004,-3.11665689945221
2,00:00:00.008,-2.5952343940734854
3,00:00:00.012,-0.34426256199367367
4,00:00:00.016,1.380099803209303
5,00:00:00.02,1.6623188406229046
6,00:00:00.024,1.020721867680547
7,00:00:00.028,0.08795975893735881
8,00:00:00.032,-0.5268721878528598
9,00:00:00.036,-0.6365776136517526
10,00:00:00.04,-0.4614363908767704
11,00:00:00.044,-0.1550772767513987
12,00:00:00.048,0.0702899936586619
13,00:00:00.052,0.1752130743116142
14,00:00:00.056,0.1771732065826655
15,00:00:00.06,0.11770994530525083
16,00:00:00.064,-0.02170990151353172
17,00:00:00.068,-0.070983643643558
18,00:00:00.072,-0.0158890793099999
19,00:00:00.076,-0.04223782930057497
20,00:00:00.08,-0.04143641702830795
21,00:00:00.084,0.012663387926295403
22,00:00:00.088,0.023557398351840675
23,00:00:00.092,0.0084509062580764
24,00:00:00.096,0.016272972949081987
25,00:00:00.1,0.02830610796809192
26,00:00:00.104,-0.016221905825659598
27,00:00:00.108,-0.01769679528661071
28,00:00:00.112,0.001177565194666351
29,00:00:00.116,-0.02500559506006535
30,00:00:00.12,0.01377891120500862
31,00:00:00.124,-0.005499897386471279
32,00:00:00.128,0.01421231392305345
33,00:00:00.132,-0.015184748452156772
34,00:00:00.136,0.02378460403997456
35,00:00:00.14,0.022106872638687533
36,00:00:00.144,-0.010199399154771529
37,00:00:00.148,-0.04930208041332662
38,00:00:00.152,0.004612603341229255
39,00:00:00.156,0.008405414453591251
40,00:00:00.16,0.03583850484574211
41,00:00:00.164,0.038970743422396516
42,00:00:00.168,-0.04871076741255811
43,00:00:00.172,-0.07196771074086425
44,00:00:00.176,0.0033577894791960404
45,00:00:00.18,0.058818196877837216
46,00:00:00.184,0.03949306125286972
47,00:00:00.188,-0.0007986373384483111
48,00:00:00.192,-0.04124880488961939
49,00:00:00.196,0.00863354094326496
50,00:00:00.2,-0.03671579493675377
51,00:00:00.204,0.02410123962908979
52,00:00:00.208,-0.005747308954596548
53,00:00:00.212,-0.00507144024595618
54,00:00:00.216,0.0072832957375794614
55,00:00:00.22,0.04149834299460055
56,00:00:00.224,-0.00842441921122371
57,00:00:00.228,-0.03127498249523337
58,00:00:00.232,-0.0025061899796128082
59,00:00:00.236,0.011351098539307661
60,00:00:00.24,0.01073327357880768
61,00:00:00.244,-0.025823861637036285
62,00:00:00.248,0.005046452628448612
63,00:00:00.252,0.0004533908213488762
64,00:00:00.256,-0.0029996107332408498
65,00:00:00.26,0.01697585609508678
66,00:00:00.264,0.025457671377807876
67,00:00:00.268,-0.043798640370369
68,00:00:00.272,-0.01913791801780458
69,00:00:00.276,0.03216426866129036
70,00:00:00.28,0.044828959740698365
71,00:00:00.284,-0.024362051801290356
72,00:00:00.288,-0.065341922454536
73,00:00:00.292,0.010364912159275312
74,00:00:00.296,0.035656883846968426
75,00:00:00.3,0.016410209762398154
76,00:00:00.304,0.0116415871307254
77,00:00:00.308,-0.0379648481030017
78,00:00:00.312,-0.012183994869701599
79,00:00:00.316,0.02285249903798107
80,00:00:00.32,0.011027924047084525
81,00:00:00.324,-0.02818543114699426
82,00:00:00.328,0.018242996535263907
83,00:00:00.332,0.020171768032014342
84,00:00:00.336,-0.02201285841874778
85,00:00:00.34,-0.03104509785771369
86,00:00:00.344,-0.0034413665416650214
87,00:00:00.348,0.019870266260113567
88,00:00:00.352,0.04433017806150019
89,00:00:00.356,0.01408872054889796
90,00:00:00.36,-0.034711190965026575
91,00:00:00.364,-0.04007210186682645
92,00:00:00.368,-0.0005120895802974718
93,00:00:00.372,0.02298282925039532
94,00:00:00.376,0.012934727885294706
95,00:00:00.38,0.001496709010098129
96,00:00:00.384,0.0035203126026317456
97,00:00:00.388,-0.0029818326001986896
98,00:00:00.392,-0.004820681875571611
99,00:00:00.396,-0.020507439388893593
100,00:00:00.4,0.01804494392126798
101,00:00:00.404,-0.003373839892446999
102,00:00:00.408,-0.0015866511093918228
103,00:00:00.412,-0.013429155573248839
104,00:00:00.416,0.011913655907846958
105,00:00:00.42,0.01927939383313055
106,00:00:00.424,0.015553955454379318
107,00:00:00.428,-0.025770266540348547
108,00:00:00.432,-0.01187250926159324
109,00:00:00.436,0.01616879575885828
110,00:00:00.44,-0.02742276684148233
111,00:00:00.444,-0.029574797954410266
112,00:00:00.448,0.03735296614468106
113,00:00:00.452,0.0575795639306307
114,00:00:00.456,-0.01812286116182806
115,00:00:00.46,-0.02701991866342725
116,00:00:00.464,-0.0025929443072527686
117,00:00:00.468,-0.004293784324545415
118,00:00:00.472,-0.012395854806527478
119,00:00:00.476,0.008955161785706869
120,00:00:00.48,0.013246670598164197
121,00:00:00.484,0.007734660524874934
122,00:00:00.488,0.0021610632538795397
123,00:00:00.492,-0.03384585422463714
124,00:00:00.496,0.00780154252424836
125,00:00:00.5,0.01671645045280455
126,00:00:00.504,0.01801556255668401
127,00:00:00.508,-0.03314276691526174
128,00:00:00.512,-0.003910998813807961
129,00:00:00.516,0.01095519051887097
130,00:00:00.52,0.02832438895711675
131,00:00:00.524,-0.0023690331727266294
132,00:00:00.528,-0.035478712059557424
133,00:00:00.532,-0.01230335643049333
134,00:00:00.536,0.01380084967240687
135,00:00:00.54,0.006875490478705625
136,00:00:00.544,0.025226334109902396
137,00:00:00.548,0.0036858327221125356
138,00:00:00.552,-0.03742489125579601
139,00:00:00.556,-0.0002675708383321771
140,00:00:00.56,0.013972383458167311
141,00:00:00.564,0.005573022208409386
142,00:00:00.568,-0.019978509750217237
143,00:00:00.572,0.009598315547918897
144,00:00:00.576,0.01123499823734165
145,00:00:00.58,0.018030748702585683
146,00:00:00.584,-0.013057291653240067
147,00:00:00.588,-0.019215990789234638
148,00:00:00.592,-0.00060887692961842
149,00:00:00.596,-0.01581037463620307
150,00:00:00.6,0.01354140148032455
151,00:00:00.604,-0.0075135321239940805
152,00:00:00.608,0.013803424779325718
153,00:00:00.612,0.04025998152792456
154,00:00:00.616,0.001640425878576938
155,00:00:00.62,-0.03201514249667523
156,00:00:00.624,-0.014008233876666054
157,00:00:00.628,-0.0007324325852096098
158,00:00:00.632,-0.023799668881110805
159,00:00:00.636,-0.0001766866189427728
160,00:00:00.64,0.04266771813854576
161,00:00:00.644,0.015230115270242098
162,00:00:00.648,-0.0028761928551830286
163,00:00:00.652,-0.008837109839078046
164,00:00:00.656,0.0059482548967935145
165,00:00:00.66,-0.073357183529879
166,00:00:00.664,0.008685626817168668
167,00:00:00.668,0.0611559832468629
168,00:00:00.672,0.00542652118019759
169,00:00:00.676,-0.012412553653120982
170,00:00:00.68,0.023741541022900492
171,00:00:00.684,-0.027799696807051053
172,00:00:00.688,-0.007309242268092934
173,00:00:00.692,-0.024515723576769254
174,00:00:00.696,-0.009739228640682959
175,00:00:00.7,0.05428126500919457
176,00:00:00.704,0.0091942292638123
177,00:00:00.708,-0.03363866242580119
178,00:00:00.712,-0.008872287740814501
179,00:00:00.716,0.01269069989211858
180,00:00:00.72,-0.01010388135910031
181,00:00:00.724,0.04475155877298677
182,00:00:00.728,-0.00732227903790772
183,00:00:00.732,-0.03434621097403579
184,00:00:00.736,-0.005992178572341803
185,00:00:00.74,0.01237671182025224
186,00:00:00.744,0.00010015559382736076
187,00:00:00.748,-0.0040738603565841905
188,00:00:00.752,0.028928890125826043
189,00:00:00.756,-0.02404897613450891
190,00:00:00.76,-0.026863724051509018
191,00:00:00.764,0.02696757798548787
192,00:00:00.768,0.02604515606071798
193,00:00:00.772,-0.00171551748644561
194,00:00:00.776,-0.02684571128338571
195,00:00:00.78,-0.0080181994708255
196,00:00:00.784,0.01579299173317849
197,00:00:00.788,-0.02140410663560033
198,00:00:00.792,0.007361127762123949
199,00:00:00.796,0.024321809789398727
200,00:00:00.8,-0.0012460292200557875
201,00:00:00.804,0.0027458268450573104
202,00:00:00.808,-0.00930776330642402
203,00:00:00.812,0.0069874023902229965
204,00:00:00.816,-0.04095969162881373
205,00:00:00.82,0.015979971620254243
206,00:00:00.824,0.01315193122718483
207,00:00:00.828,0.0039798752404749385
208,00:00:00.832,-0.00024949130602181045
209,00:00:00.836,-0.005882130790269009
210,00:00:00.84,0.002247420488856733
211,00:00:00.844,-0.003964075076510198
212,00:00:00.848,0.010156320175156011
213,00:00:00.852,-0.015028993133455501
214,00:00:00.856,0.01353628677316009
215,00:00:00.86,0.01820939313620333
216,00:00:00.864,-0.01733382791280745
217,00:00:00.868,-0.02533726789988577
218,00:00:00.872,-0.01166180660948157
219,00:00:00.876,0.044181366538396084
220,00:00:00.88,-0.0010487996041774715
221,00:00:00.884,-0.008353784214705229
222,00:00:00.888,-0.012287761550396677
223,00:00:00.892,0.01263815723359584
224,00:00:00.896,0.0026813130825758314
225,00:00:00.9,-0.005540995625778991
226,00:00:00.904,-0.029691249888855933
227,00:00:00.908,0.03700244287028912
228,00:00:00.912,0.001245169056346637
229,00:00:00.916,-0.0009191965218633387
230,00:00:00.92,0.0017006071284413398
231,00:00:00.924,-0.011176439991686458
232,00:00:00.928,-0.02068176120519641
233,00:00:00.932,0.03156635782215743
234,00:00:00.936,0.00037281075492501
235,00:00:00.94,-0.04094862076453862
236,00:00:00.944,-0.005248920992016841
237,00:00:00.948,0.033816607668995816
238,00:00:00.952,0.05099978926591581
239,00:00:00.956,0.010257465997710819
240,00:00:00.96,-0.05407181335613129
241,00:00:00.964,-0.02985203010030093
242,00:00:00.968,-0.03705374943092464
243,00:00:00.972,0.016377082152757797
244,00:00:00.976,0.066872576426249
245,00:00:00.98,0.03816559677943586
246,00:00:00.984,-0.03352073021233079
247,00:00:00.988,-0.04934949940070509
248,00:00:00.992,0.008692343049915511
249,00:00:00.996,0.01101795968133955
250,00:00:01,0.011800529071479127
251,00:00:01.004,-0.045094360830262296
252,00:00:01.008,0.01999374479055407
253,00:00:01.012,0.04253305704332884
254,00:00:01.016,0.00515965302474797
255,00:00:01.02,-0.008821767289191412
256,00:00:01.024,-0.04466960439458489
257,00:00:01.028,0.022820585872978
258,00:00:01.032,0.021798045840114348
259,00:00:01.036,-0.04777549114078278
260,00:00:01.04,-0.00633198977448042
261,00:00:01.044,-0.0105650001205504
262,00:00:01.048,0.05563381453976034
263,00:00:01.052,0.03304198780097064
264,00:00:01.056,-0.011078503448516134
265,00:00:01.06,-0.02202184170891993
266,00:00:01.064,-0.018632408347912088
267,00:00:01.068,-0.03761141677387056
268,00:00:01.072,0.03283623908646406
269,00:00:01.076,0.027293211780488453
270,00:00:01.08,-0.01493894890882074
271,00:00:01.084,-0.04814825300127261
272,00:00:01.088,0.03310186487215106
273,00:00:01.092,0.06439778418280184
274,00:00:01.096,-0.02080645365640521
275,00:00:01.1,-0.01896999636664989
276,00:00:01.104,-0.023009229684248542
277,00:00:01.108,-0.00996793131344021
278,00:00:01.112,-0.004673726565670219
279,00:00:01.116,0.02649227547226477
280,00:00:01.12,0.0062107127159834
281,00:00:01.124,-0.00935450964607298
282,00:00:01.128,0.00942554348148409
283,00:00:01.132,-0.00360837078187615
284,00:00:01.136,-0.0017516757361590793
285,00:00:01.14,0.007512894226238071
286,00:00:01.144,0.00832375045865775
287,00:00:01.148,-0.03712206240743396
288,00:00:01.152,-0.0001551818568259495
289,00:00:01.156,0.0237578245578334
290,00:00:01.16,0.010506237624213089
291,00:00:01.164,-0.0029386004607658833
292,00:00:01.168,-0.02336638572160153
293,00:00:01.172,-0.006222562165930859
294,00:00:01.176,0.007924843579530709
295,00:00:01.18,0.02432845858857032
296,00:00:01.184,0.020991871249861977
297,00:00:01.188,-0.04668256035074596
298,00:00:01.192,0.012403519300278302
299,00:00:01.196,0.008364194130990647
300,00:00:01.2,-0.04500198457390078
301,00:00:01.204,0.012054310645908102
302,00:00:01.208,0.04398643970489498
303,00:00:01.212,-0.0016250891785602926
304,00:00:01.216,0.01612222520634532
305,00:00:01.22,-0.04116915445774791
306,00:00:01.224,-0.03598110191524028
307,00:00:01.228,0.02532882348168646
308,00:00:01.232,0.02154413377866152
309,00:00:01.236,0.022491701412946027
310,00:00:01.24,-0.014718647464178499
311,00:00:01.244,-0.004082544299308205
312,00:00:01.248,-0.003856645693304011
313,00:00:01.252,-0.027313626371324097
314,00:00:01.256,-0.01896546722855423
315,00:00:01.26,0.04218955896794791
316,00:00:01.264,0.025759702431969327
317,00:00:01.268,0.01778953592292969
318,00:00:01.272,-0.02946595125831666
319,00:00:01.276,-0.02870383113622668
320,00:00:01.28,-0.016833205940201882
321,00:00:01.284,0.013745171541813764
322,00:00:01.288,-0.0009358292445540897
323,00:00:01.292,0.01734643708914519
324,00:00:01.296,0.04399999696761374
325,00:00:01.3,-0.01493777055293321
326,00:00:01.304,-0.03981940681114791
327,00:00:01.308,-0.00115273240953683
328,00:00:01.312,-0.006701916805468511
329,00:00:01.316,0.01317591010592879
330,00:00:01.32,0.01253776892554015
331,00:00:01.324,0.00462616397999227
332,00:00:01.328,0.0017277612932957535
333,00:00:01.332,0.0010179933160543398
334,00:00:01.336,-0.019886000081896782
335,00:00:01.34,-0.01488147699274126
336,00:00:01.344,0.015014733886346228
337,00:00:01.348,0.009258466307073821
338,00:00:01.352,-0.013562627602368628
339,00:00:01.356,0.01661694096401337
340,00:00:01.36,0.01031428086571396
341,00:00:01.364,-0.00885354934143834
342,00:00:01.368,-0.00781410641502589
343,00:00:01.372,-4.519871436058976e-05
344,00:00:01.376,0.0018622007776229977
345,00:00:01.38,-0.01350513938814404
346,00:00:01.384,0.01141556708171266
347,00:00:01.388,-0.012553224223665862
348,00:00:01.392,0.01717691123485566
349,00:00:01.396,0.0005150737633812289
350,00:00:01.4,-0.0003908725338988015
351,00:00:01.404,0.015419384464621518
352,00:00:01.408,-0.0069179981364869015
353,00:00:01.412,-0.03671631787437948
354,00:00:01.416,-0.0026088992599397603
355,00:00:01.42,0.027851043734699467
356,00:00:01.424,0.015355599578469992
357,00:00:01.428,-0.01082045533439668
358,00:00:01.432,-0.0013258392573334268
359,00:00:01.436,-0.011803530855104362
360,00:00:01.44,0.04042752459645274
361,00:00:01.444,-0.04244180978275831
362,00:00:01.448,-0.029304360046808173
363,00:00:01.452,0.040949327172711505
364,00:00:01.456,-0.008619504980742942
365,00:00:01.46,0.02035796362906691
366,00:00:01.464,0.00421710743103176
367,00:00:01.468,-0.007780709187500169
368,00:00:01.472,-0.00871684530284256
369,00:00:01.476,-0.038194521970581236
370,00:00:01.48,0.02665972150862212
371,00:00:01.484,0.04028029134497048
372,00:00:01.488,-0.032692672219127375
373,00:00:01.492,-0.013552838587202133
374,00:00:01.496,0.031396753154695076
375,00:00:01.5,0.006495687004644424
376,00:00:01.504,-0.030061852186918307
377,00:00:01.508,-0.013979007606394579
378,00:00:01.512,0.00899907993152736
379,00:00:01.516,0.01772727537900214
380,00:00:01.52,0.00653157534543425
381,00:00:01.524,-0.00623703049495817
382,00:00:01.528,0.016940782777965038
383,00:00:01.532,0.0032977535156533083
384,00:00:01.536,-0.05301995575427999
385,00:00:01.54,-0.04455706849694252
386,00:00:01.544,0.0544733786955475
387,00:00:01.548,0.05624251638073479
388,00:00:01.552,0.00775486149359495
389,00:00:01.556,-0.0143028227612376
390,00:00:01.56,-0.04618714167736471
391,00:00:01.564,-0.005255938245682045
392,00:00:01.568,0.01226959610357882
393,00:00:01.572,0.0130127074662596
394,00:00:01.576,-0.010579542311461361
395,00:00:01.58,-0.008360233623534493
396,00:00:01.584,-0.02436207700520751
397,00:00:01.588,0.046837543020956225
398,00:00:01.592,0.02149535948410631
399,00:00:01.596,-0.0062244373839348615
400,00:00:01.6,-2.968672197312984e-05
401,00:00:01.604,-0.031915781553834684
402,00:00:01.608,-0.027355068828910603
403,00:00:01.612,0.030529598705470513
404,00:00:01.616,-0.009611084475182032
405,00:00:01.62,-0.0038587460294365905
406,00:00:01.624,0.03313547885045408
407,00:00:01.628,0.017774118809029443
408,00:00:01.632,-0.0242979009635747
409,00:00:01.636,-0.01870912953745574
410,00:00:01.64,0.005592817466094855
411,00:00:01.644,-0.012801690900232648
412,00:00:01.648,0.016386280185543
413,00:00:01.652,0.016240284079685793
414,00:00:01.656,0.002712378511205309
415,00:00:01.66,-0.030605885083787164
416,00:00:01.664,-0.021851012017577852
417,00:00:01.668,0.034427300328388845
418,00:00:01.672,0.03871821891516442
419,00:00:01.676,-0.03245266852900383
420,00:00:01.68,-0.024940695613622683
421,00:00:01.684,-0.0029202983714640097
422,00:00:01.688,0.02606902271509169
423,00:00:01.692,0.02485499158501626
424,00:00:01.696,-0.012707700661849225
425,00:00:01.7,-0.03234395058825617
426,00:00:01.704,-0.02683356963098048
427,00:00:01.708,0.032904536696150864
428,00:00:01.712,0.02676437748596079
429,00:00:01.716,0.00239368330221623
430,00:00:01.72,-0.0026570687768980783
431,00:00:01.724,-0.00984898884780705
432,00:00:01.728,-0.016932309430558234
433,00:00:01.732,-0.00855962955392897
434,00:00:01.736,0.006295824350672774
435,00:00:01.74,0.014633964747190479
436,00:00:01.744,0.005609722575172791
437,00:00:01.748,0.017576684011146412
438,00:00:01.752,-0.02598015335388479
439,00:00:01.756,-0.014627103810198588
440,00:00:01.76,-0.01061380212195218
441,00:00:01.764,0.013693009939743194
442,00:00:01.768,0.025042837543878732
443,00:00:01.772,0.005169016774743789
444,00:00:01.776,-0.004741740180179479
445,00:00:01.78,-0.015972226101439464
446,00:00:01.784,-0.0004037906182929804
447,00:00:01.788,0.0158963875146583
448,00:00:01.792,-0.05537099577486506
449,00:00:01.796,0.01892293454147875
450,00:00:01.8,0.04529374535195525
451,00:00:01.804,0.033267556864302605
452,00:00:01.808,-0.0388460813555867
453,00:00:01.812,-0.06430460023693743
454,00:00:01.816,0.003481869334791554
455,00:00:01.82,0.05757963983342056
456,00:00:01.824,0.01651505567133427
457,00:00:01.828,-0.00913347347523084
458,00:00:01.832,-0.01906249561579895
459,00:00:01.836,-0.02103726658970117
460,00:00:01.84,0.01590777048841122
461,00:00:01.844,0.0036486987446551203
462,00:00:01.848,-0.01709294726606458
463,00:00:01.852,-0.0016067903197836135
464,00:00:01.856,0.02272300724871451
465,00:00:01.86,0.02734727202914657
466,00:00:01.864,-0.0055971024557948095
467,00:00:01.868,-0.008553658204618852
468,00:00:01.872,-0.04485324909910554
469,00:00:01.876,-0.0156029344070703
470,00:00:01.88,0.02601138851605356
471,00:00:01.884,0.05012601613998409
472,00:00:01.888,-0.013804974092636278
473,00:00:01.892,-0.00478236726485193
474,00:00:01.896,-0.010848367004655322
475,00:00:01.9,-0.02666428126394751
476,00:00:01.904,-0.00542598008178174
477,00:00:01.908,0.03844001307152207
478,00:00:01.912,0.00287418253719809
479,00:00:01.916,-0.022053758846595918
480,00:00:01.92,0.021838663727976406
481,00:00:01.924,0.022341958712786488
482,00:00:01.928,-0.047379462979734
483,00:00:01.932,-0.0227235802449286
484,00:00:01.936,0.02418476436287169
485,00:00:01.94,0.011938505689613521
486,00:00:01.944,-0.0004925592802465205
487,00:00:01.948,0.02175184153020386
488,00:00:01.952,0.005952892330242317
489,00:00:01.956,-0.029825827572494773
490,00:00:01.96,-0.009307497122790675
491,00:00:01.964,-0.01423366367816925
492,00:00:01.968,-0.01330097485333681
493,00:00:01.972,0.0599638179410249
494,00:00:01.976,0.008717404212802645
495,00:00:01.98,-0.02016131742857391
496,00:00:01.984,0.00584610318765044
497,00:00:01.988,-0.022543796978425297
498,00:00:01.992,-0.028201648499816614
499,00:00:01.996,0.007588047650642693
500,00:00:02,0.0553030697628856
501,00:00:02.004,-0.000745963130611929
502,00:00:02.008,-0.03561178781092165
503,00:00:02.012,-0.014770508510991927
504,00:00:02.016,0.02539164968766274
505,00:00:02.02,0.020313680812250844
506,00:00:02.024,0.0045830539893359
507,00:00:02.028,-0.03942559054121373
508,00:00:02.032,-0.016451922012493007
509,00:00:02.036,0.00038468278944491993
510,00:00:02.04,0.01831925520673397
511,00:00:02.044,0.04781753825955096
512,00:00:02.048,-0.020506303291767863
513,00:00:02.052,-0.02238150977063926
514,00:00:02.056,0.006166311097331345
515,00:00:02.06,0.02735982602462176
516,00:00:02.064,-0.05108061828650537
517,00:00:02.068,-0.03308434342034159
518,00:00:02.072,0.06973877083510156
519,00:00:02.076,0.025290846824645954
520,00:00:02.08,-0.050131258554756614
521,00:00:02.084,-0.00316320441197604
522,00:00:02.088,0.03418346680700779
523,00:00:02.092,0.004231250903103503
524,00:00:02.096,-0.037710371427237974
525,00:00:02.1,-0.0039054690860211815
526,00:00:02.104,0.00836938049178573
527,00:00:02.108,-0.018181126390118128
528,00:00:02.112,0.01567815861199052
529,00:00:02.116,0.04152691736817362
530,00:00:02.12,0.0076475159730762295
531,00:00:02.124,-0.015020529506728051
532,00:00:02.128,-0.041410392150282894
533,00:00:02.132,0.007704362869844775
534,00:00:02.136,-0.005816023563966159
535,00:00:02.14,-0.010859377449378371
536,00:00:02.144,0.02693386818282303
537,00:00:02.148,0.007333243731409319
538,00:00:02.152,0.01788163103628907
539,00:00:02.156,0.002035109850112343
540,00:00:02.16,-0.04110473394393925
541,00:00:02.164,-0.00434479210525751
542,00:00:02.168,0.005846329091582445
543,00:00:02.172,0.026987614051904498
544,00:00:02.176,0.01954163052141662
545,00:00:02.18,-0.041893937275744995
546,00:00:02.184,-0.012201952049508712
547,00:00:02.188,-0.00044753053225578005
548,00:00:02.192,0.009037488605827051
549,00:00:02.196,0.021533271530643112
550,00:00:02.2,0.0328716856893152
551,00:00:02.204,-0.03162021050229674
552,00:00:02.208,-0.03077521594241261
553,00:00:02.212,-0.00890267943032086
554,00:00:02.216,0.01975456485524775
555,00:00:02.22,0.03902177303098138
556,00:00:02.224,-0.005032142333220688
557,00:00:02.228,-0.04063912807032469
558,00:00:02.232,-0.00660613656509668
559,00:00:02.236,0.010725224670750327
560,00:00:02.24,0.03413824038580061
561,00:00:02.244,-0.01191587850917129
562,00:00:02.248,-0.03027906932402399
563,00:00:02.252,0.024661644827574544
564,00:00:02.256,0.02604058058932427
565,00:00:02.26,-0.03496033453848217
566,00:00:02.264,-0.013259121798910223
567,00:00:02.268,-0.01414348103571683
568,00:00:02.272,0.006181216216646134
569,00:00:02.276,0.03293997049331663
570,00:00:02.28,0.03846602106932555
571,00:00:02.284,0.008217854308895765
572,00:00:02.288,-0.0560382949188352
573,00:00:02.292,-0.03566355467773975
574,00:00:02.296,-0.01622071373276407
575,00:00:02.3,0.04772708332166083
576,00:00:02.304,0.01785502547863871
577,00:00:02.308,0.00502473302185535
578,00:00:02.312,0.008583922404795859
579,00:00:02.316,-0.008894826052710421
580,00:00:02.32,-0.028297915589064374
581,00:00:02.324,-0.014770401874557179
582,00:00:02.328,0.017924635321833228
583,00:00:02.332,0.009738024324178703
584,00:00:02.336,0.010240019299089931
585,00:00:02.34,-0.0017476211069151798
586,00:00:02.344,0.005652932566590609
587,00:00:02.348,-0.022063307056669135
588,00:00:02.352,-0.043791223317384734
589,00:00:02.356,0.0427701296284794
590,00:00:02.36,0.034012899501249166
591,00:00:02.364,0.00520690088160336
592,00:00:02.368,-0.023126060332287993
593,00:00:02.372,-0.008995111333206292
594,00:00:02.376,-0.017752646002918503
595,00:00:02.38,-0.015744191594421798
596,00:00:02.384,0.03381740883924062
597,00:00:02.388,0.019137983210384832
598,00:00:02.392,-0.01438145793508738
599,00:00:02.396,0.00741770915919915
600,00:00:02.4,-0.00176709122024477
601,00:00:02.404,-0.028978487476706512
602,00:00:02.408,0.00556316983420402
603,00:00:02.412,0.016741160827223177
604,00:00:02.416,0.0057566682808101195
605,00:00:02.42,-0.004645607430575184
606,00:00:02.424,0.004702485020970926
607,00:00:02.428,-0.01064818049781025
608,00:00:02.432,-0.032789823599159704
609,00:00:02.436,0.016933927312493328
610,00:00:02.44,0.023855011910200133
611,00:00:02.444,0.026634392794221636
612,00:00:02.448,-0.00294719293015077
613,00:00:02.452,-0.03242927626706662
614,00:00:02.456,-0.02877084165811541
615,00:00:02.46,0.03234453313052655
616,00:00:02.464,-0.005379207257647098
617,00:00:02.468,-0.0037246132269501686
618,00:00:02.472,0.018919413909316042
619,00:00:02.476,-0.03965754760429259
620,00:00:02.48,0.012488360691349988
621,00:00:02.484,0.051642172969877685
622,00:00:02.488,-0.008860131376422949
623,00:00:02.492,-0.0173139204271138
624,00:00:02.496,-0.017748896265402388
625,00:00:02.5,-0.01820102019701151
626,00:00:02.504,0.005859968485310681
627,00:00:02.508,0.025615253020077968
628,00:00:02.512,0.0007124107796698829
629,00:00:02.516,-0.005524232343304911
630,00:00:02.52,0.02324907761067155
631,00:00:02.524,0.00516341370530426
632,00:00:02.528,-0.04081086302176121
633,00:00:02.532,-0.04097575007472187
634,00:00:02.536,0.015042532701045278
635,00:00:02.54,0.0632907277613413
636,00:00:02.544,0.02543350623454902
637,00:00:02.548,-0.0306982584297657
638,00:00:02.552,-0.01859346000128423
639,00:00:02.556,-0.03225451108301062
640,00:00:02.56,0.01138305850327015
641,00:00:02.564,0.009943602373823518
642,00:00:02.568,0.016054268460720778
643,00:00:02.572,-0.0034113428191631097
644,00:00:02.576,0.0174679837655276
645,00:00:02.58,-0.004805424599908278
646,00:00:02.584,-0.05302624008618292
647,00:00:02.588,0.0305924105923623
648,00:00:02.592,0.03387292986735706
649,00:00:02.596,-0.013286143526784113
650,00:00:02.6,-0.01924286602297795
651,00:00:02.604,-0.01530523796100167
652,00:00:02.608,0.01206762250512837
653,00:00:02.612,0.004313107114285191
654,00:00:02.616,0.010379934450611469
655,00:00:02.62,0.0019424036145210231
656,00:00:02.624,-0.002974230723339138
657,00:00:02.628,-0.00211616768501699
658,00:00:02.632,-0.007006994361290706
659,00:00:02.636,0.005643520620651538
660,00:00:02.64,-0.010011064063292044
661,00:00:02.644,-0.0194984246045351
662,00:00:02.648,0.04403378407005221
663,00:00:02.652,0.009593743132427328
664,00:00:02.656,-0.01726526278071105
665,00:00:02.66,-0.01601433684118097
666,00:00:02.664,0.0027791348693426855
667,00:00:02.668,-0.0065697382669895905
668,00:00:02.672,0.0002281707711517698
669,00:00:02.676,0.021002281690016403
670,00:00:02.68,-0.012724377680569911
671,00:00:02.684,-0.0014292174600996125
672,00:00:02.688,0.016153157630469657
673,00:00:02.692,0.00846824143081899
674,00:00:02.696,-0.0263775335624814
675,00:00:02.7,-0.01736139925196765
676,00:00:02.704,0.00506291410420091
677,00:00:02.708,0.0226686636451632
678,00:00:02.712,0.01454405440017581
679,00:00:02.716,-0.011938605486648131
680,00:00:02.72,-0.009262470761314031
681,00:00:02.724,0.01763732027029622
682,00:00:02.728,-0.00788744841702282
683,00:00:02.732,-0.0460129006241914
684,00:00:02.736,0.018325425218790763
685,00:00:02.74,0.053592048818245495
686,00:00:02.744,-0.012907812022604047
687,00:00:02.748,-0.059080656617879874
688,00:00:02.752,0.03775824443437155
689,00:00:02.756,0.02369648520834747
690,00:00:02.76,-0.007408358273096379
691,00:00:02.764,-0.009041066281497478
692,00:00:02.768,-0.06395832169801
693,00:00:02.772,0.03863367132362325
694,00:00:02.776,0.057986073079519015
695,00:00:02.78,-0.0033053545048460304
696,00:00:02.784,-0.04585707187652592
697,00:00:02.788,-0.01019828720018266
698,00:00:02.792,0.03051331453025341
699,00:00:02.796,-0.006053276127204299
700,00:00:02.8,-0.008266147517133508
701,00:00:02.804,-0.026232900563627447
702,00:00:02.808,0.029538649134337933
703,00:00:02.812,0.02012034179642799
704,00:00:02.816,-0.01809617737308148
705,00:00:02.82,0.00018405189439363377
706,00:00:02.824,0.008195544447517066
707,00:00:02.828,-0.012814588611945545
708,00:00:02.832,0.011001872364431618
709,00:00:02.836,-0.03880812745774162
710,00:00:02.84,0.02613816800294442
711,00:00:02.844,0.052282094024121754
712,00:00:02.848,-0.03513369173742826
713,00:00:02.852,-0.053439730312675265
714,00:00:02.856,0.011390791158191828
715,00:00:02.86,0.03133676084689794
716,00:00:02.864,0.022629956481978287
717,00:00:02.868,-0.00786559889093042
718,00:00:02.872,-0.01193861546926201
719,00:00:02.876,-0.010918575106188658
720,00:00:02.88,-0.0032841318752616705
721,00:00:02.884,0.00922853290103371
722,00:00:02.888,0.013829745257680808
723,00:00:02.892,-0.033391451579518575
724,00:00:02.896,0.0092687982833013
725,00:00:02.9,0.027818389702588313
726,00:00:02.904,0.003660871065221722
727,00:00:02.908,-0.03208731580525642
728,00:00:02.912,-0.018711860757321123
729,00:00:02.916,0.02619728818535809
730,00:00:02.92,0.029324687784537687
731,00:00:02.924,-0.023506237863330174
732,00:00:02.928,0.024590945511590644
733,00:00:02.932,-0.023840920533984938
734,00:00:02.936,-0.027122057741507888
735,00:00:02.94,0.004462099401280285
736,00:00:02.944,0.01644311779637068
737,00:00:02.948,0.003230214817449461
738,00:00:02.952,0.0041526329587213695
739,00:00:02.956,0.008607711584772918
740,00:00:02.96,0.01657328172586857
741,00:00:02.964,-0.0392787242308259
742,00:00:02.968,-0.015536042163148562
743,00:00:02.972,0.03159537538886066
744,00:00:02.976,-0.006006719981087368
745,00:00:02.98,-0.01313063781708479
746,00:00:02.984,0.025464102858677482
747,00:00:02.988,-0.003092556609772152
748,00:00:02.992,-0.01497422740794717
749,00:00:02.996,0.00913055904675274
750,00:00:03,0.011448520759586241
751,00:00:03.004,-0.0233566681854427
752,00:00:03.008,-0.02244943357072773
753,00:00:03.012,0.0089396932162344
754,00:00:03.016,0.05233101011253893
755,00:00:03.02,0.00773912877775731
756,00:00:03.024,-0.012456943979486799
757,00:00:03.028,-0.037365909665823
758,00:00:03.032,-0.037826461717486326
759,00:00:03.036,0.03454083809629081
760,00:00:03.04,0.031869855243712636
761,00:00:03.044,-0.00432931818068031
762,00:00:03.048,-0.014800651697441939
763,00:00:03.052,-0.00195601338054985
764,00:00:03.056,0.019820423389319376
765,00:00:03.06,-0.02908131928415969
766,00:00:03.064,-0.0022464103531092405
767,00:00:03.068,0.037740751169621944
768,00:00:03.072,-0.012419724720530219
769,00:00:03.076,-0.02022681303787981
770,00:00:03.08,0.01541921263560653
771,00:00:03.084,0.0043319573160261
772,00:00:03.088,-0.0108825787901878
773,00:00:03.092,-0.011390705796657134
774,00:00:03.096,-0.00608176470268518
775,00:00:03.1,0.009814883116632658
776,00:00:03.104,0.01759920828044415
777,00:00:03.108,0.020941878319717992
778,00:00:03.112,-0.01009724126197398
779,00:00:03.116,-0.009411658829776577
780,00:00:03.12,-0.01982603198848662
781,00:00:03.124,-0.00487449456079503
782,00:00:03.128,-0.0044133944647910565
783,00:00:03.132,0.012649192474782491
784,00:00:03.136,-0.0003767039161175507
785,00:00:03.14,0.022938640206120943
786,00:00:03.144,-0.01034114183858037
787,00:00:03.148,0.015564213506877402
788,00:00:03.152,-0.022408779826946577
789,00:00:03.156,-0.02340648137032981
790,00:00:03.16,0.021396704949438548
791,00:00:03.164,0.029991555493324967
792,00:00:03.168,0.00458726391661913
793,00:00:03.172,-0.046775474213063724
794,00:00:03.176,-0.046250303275883205
795,00:00:03.18,0.05955219664610928
796,00:00:03.184,0.045419721282087294
797,00:00:03.188,-0.02799149928614498
798,00:00:03.192,-0.05301649193279442
799,00:00:03.196,0.05783472396433358
800,00:00:03.2,-0.01727140939328825
801,00:00:03.204,-0.009480170730967073
802,00:00:03.208,0.01480583846569061
803,00:00:03.212,0.0017497288063168504
804,00:00:03.216,-0.005994820705382149
805,00:00:03.22,-0.0026693507097661495
806,00:00:03.224,-0.0510533540509641
807,00:00:03.228,0.04487409861758351
808,00:00:03.232,0.02481496101245285
809,00:00:03.236,0.026149340847041444
810,00:00:03.24,-0.039564170408993946
811,00:00:03.244,-0.02021148637868469
812,00:00:03.248,0.009220436215400708
813,00:00:03.252,-0.01565167208900676
814,00:00:03.256,0.008853425548295536
815,00:00:03.26,0.01532264254637992
816,00:00:03.264,-0.00875883805565536
817,00:00:03.268,0.0043413138482719694
818,00:00:03.272,0.03377207461744546
819,00:00:03.276,0.0004173170600552129
820,00:00:03.28,-0.046417010365985285
821,00:00:03.284,-0.01394996372982857
822,00:00:03.288,0.01958206505514682
823,00:00:03.292,-0.01831177156418561
824,00:00:03.296,-0.001574636145960534
825,00:00:03.3,0.05803851736709473
826,00:00:03.304,0.03015143366064873
827,00:00:03.308,-0.041877440642565475
828,00:00:03.312,-0.045876297634094954
829,00:00:03.316,-0.017500606831163168
830,00:00:03.32,0.020212323099258394
831,00:00:03.324,0.047405751422047594
832,00:00:03.328,-0.0017434929031878701
833,00:00:03.332,-0.014641339657828187
834,00:00:03.336,-0.008955759869422786
835,00:00:03.34,0.02177247498184445
836,00:00:03.344,-0.037315924710128456
837,00:00:03.348,-0.013676797330845147
838,00:00:03.352,0.050624299095943584
839,00:00:03.356,-0.00904098059982066
840,00:00:03.36,-0.0282875581178814
841,00:00:03.364,0.00634624576196074
842,00:00:03.368,0.030601170845329793
843,00:00:03.372,0.0009911474771797692
844,00:00:03.376,-0.018654919229447838
845,00:00:03.38,-0.01900600001681599
846,00:00:03.384,0.00462717597838491
847,00:00:03.388,0.015225936193019131
848,00:00:03.392,0.004024560381367343
849,00:00:03.396,-0.0012211299035698147
850,00:00:03.4,0.003466117952484638
851,00:00:03.404,-0.01234052667859942
852,00:00:03.408,0.010443841456435659
853,00:00:03.412,0.01378206955268979
854,00:00:03.416,-0.04263194231316446
855,00:00:03.42,-0.0136554469354451
856,00:00:03.424,0.014288381906226319
857,00:00:03.428,0.04415625217370693
858,00:00:03.432,0.017546942457556693
859,00:00:03.436,-0.01995064411312345
860,00:00:03.44,-0.02183437382336706
861,00:00:03.444,-0.012520386604592202
862,00:00:03.448,-0.0012774576898664201
863,00:00:03.452,-0.014771641464903909
864,00:00:03.456,0.04197721928358075
865,00:00:03.46,0.005900729884160684
866,00:00:03.464,-0.030948570463806415
867,00:00:03.468,0.02902776293922219
868,00:00:03.472,0.0034582178341224816
869,00:00:03.476,-0.02362859714776276
870,00:00:03.48,-0.013451724575134008
871,00:00:03.484,-0.00590998074039817
872,00:00:03.488,0.04769616015255447
873,00:00:03.492,-0.0005414616316557312
874,00:00:03.496,-0.0150042490568012
875,00:00:03.5,-0.026928017847239992
876,00:00:03.504,-0.009319571312516931
877,00:00:03.508,0.020912631647661287
878,00:00:03.512,0.015998834278434536
879,00:00:03.516,-0.0011876379139721897
880,00:00:03.52,0.002297150233061991
881,00:00:03.524,-0.002024834509938954
882,00:00:03.528,0.005191726842895171
883,00:00:03.532,-0.010667349328286951
884,00:00:03.536,-0.01876933779567476
885,00:00:03.54,0.00421082065440714
886,00:00:03.544,-0.00735128810629245
887,00:00:03.548,0.022026870166882827
888,00:00:03.552,0.00837944517843425
889,00:00:03.556,0.005577472329605402
890,00:00:03.56,-0.010714908014051637
891,00:00:03.564,-0.007807174464687698
892,00:00:03.568,-0.0013001058250665654
893,00:00:03.572,0.004673573828767989
894,00:00:03.576,-0.01348765857983379
895,00:00:03.58,0.0011390657746232508
896,00:00:03.584,0.01647216372293768
897,00:00:03.588,-0.00028291903436181154
898,00:00:03.592,0.0049620675854385
899,00:00:03.596,-0.0035613006912171797
900,00:00:03.6,-0.0022182094398885896
901,00:00:03.604,-0.01689842127962041
902,00:00:03.608,-0.002832390135154114
903,00:00:03.612,-0.0008546020835637994
904,00:00:03.616,0.02790022664703426
905,00:00:03.62,0.00476342136971653
906,00:00:03.624,0.0037425849586725313
907,00:00:03.628,0.0063054207712412
908,00:00:03.632,-0.04789415746927262
909,00:00:03.636,-0.03476599603891371
910,00:00:03.64,0.04427065560594206
911,00:00:03.644,0.039606839185580583
912,00:00:03.648,-0.0026201633736491195
913,00:00:03.652,-0.02456683525815604
914,00:00:03.656,-0.01203330000862477
915,00:00:03.66,0.01748388051055372
916,00:00:03.664,0.00796290277503431
917,00:00:03.668,-0.024146530515281466
918,00:00:03.672,-0.01149891235399991
919,00:00:03.676,0.018619286012835818
920,00:00:03.68,0.012391273165121678
921,00:00:03.684,0.00602970959153026
922,00:00:03.688,-0.02552488492801785
923,00:00:03.692,0.008202328637707982
924,00:00:03.696,0.00047421292401849963
925,00:00:03.7,0.00453857379034162
926,00:00:03.704,0.0057476803776808135
927,00:00:03.708,0.0006296131759881908
928,00:00:03.712,-0.007883361075073522
929,00:00:03.716,-0.02793873933842402
930,00:00:03.72,0.02552640344947581
931,00:00:03.724,0.004084065789356821
932,00:00:03.728,0.00280271167866885
933,00:00:03.732,0.00941628077998758
934,00:00:03.736,-0.02963091138371969
935,00:00:03.74,-0.007882683072239108
936,00:00:03.744,0.024667754449183146
937,00:00:03.748,0.01986536744516348
938,00:00:03.752,-0.019461189163848723
939,00:00:03.756,-0.0021426367748063058
940,00:00:03.76,0.004309746553190055
941,00:00:03.764,0.0032343618804588957
942,00:00:03.768,-0.035714462748728665
943,00:00:03.772,0.007571132970042502
944,00:00:03.776,0.03135574451880534
945,00:00:03.78,0.01153531880117953
946,00:00:03.784,-0.013115911395289
947,00:00:03.788,-0.02457513590343292
948,00:00:03.792,0.02022946113720533
949,00:00:03.796,-0.010188309126533561
950,00:00:03.8,-0.013356076320633278
951,00:00:03.804,0.00839479645946994
952,00:00:03.808,0.014553078915923869
953,00:00:03.812,0.01977077347692103
954,00:00:03.816,-0.007039055257337173
955,00:00:03.82,-0.02602035831660035
956,00:00:03.824,0.012657365296036002
957,00:00:03.828,-0.029745739884674518
958,00:00:03.832,0.0063406960107386095
959,00:00:03.836,0.03128481935709718
960,00:00:03.84,-0.02443002228392284
961,00:00:03.844,0.01538378046825524
962,00:00:03.848,0.02749817969743162
963,00:00:03.852,-0.00977159093599766
964,00:00:03.856,-0.03049862461193694
965,00:00:03.86,-0.006304105685558168
966,00:00:03.864,0.013309950300026685
967,00:00:03.868,-0.01899002736900001
968,00:00:03.872,0.020777319557964826
969,00:00:03.876,0.005748890631366525
970,00:00:03.88,0.0108676846139133
971,00:00:03.884,-0.011084885569289361
972,00:00:03.888,-0.0015201615169644408
973,00:00:03.892,-0.0143914339132607
974,00:00:03.896,0.0047317472344730015
975,00:00:03.9,0.0094835163326934
976,00:00:03.904,-0.00034913529816548664
977,00:00:03.908,0.004021850734716284
978,00:00:03.912,0.001148114330135291
979,00:00:03.916,-0.0231838100589812
980,00:00:03.92,0.007558930316008629
981,00:00:03.924,0.012884856259915976
982,00:00:03.928,0.00871068064589053
983,00:00:03.932,-0.0031482997583225304
984,00:00:03.936,-0.059073069598525776
985,00:00:03.94,0.03936857217922805
986,00:00:03.944,0.0280726626515389
987,00:00:03.948,0.009765380156750356
988,00:00:03.952,0.006881860783323647
989,00:00:03.956,-0.047305496409535436
990,00:00:03.96,-0.01014518353622407
991,00:00:03.964,-0.004284100607037551
992,00:00:03.968,0.007278059143573051
993,00:00:03.972,0.02316574007272716
994,00:00:03.976,0.013349816203117364
995,00:00:03.98,-0.00906185619533062
996,00:00:03.984,0.0030785814160481095
997,00:00:03.988,-0.0028213810874149195
998,00:00:03.992,-0.022373444342520102
999,00:00:03.996,-0.01627339748665692
1000,00:00:04,0.03639649553224448
1001,00:00:04.004,0.01266407547518611
1002,00:00:04.008,-0.019743625540286303
1003,00:00:04.012,0.0021419692784547806
1004,00:00:04.016,0.0064274729229509804
1005,00:00:04.02,-0.020349544443888555
1006,00:00:04.024,0.006799943279474977
1007,00:00:04.028,0.00633680820465088
1008,00:00:04.032,-0.0038577456143684763
1009,00:00:04.036,-0.0032699197181500473
1010,00:00:04.04,0.00862136494833979
1011,00:00:04.044,0.01982956379652023
1012,00:00:04.048,-0.006371372553985567
1013,00:00:04.052,-0.04447239264845845
1014,00:00:04.056,0.00351859396323562
1015,00:00:04.06,0.02132208226248618
1016,00:00:04.064,0.034374257083982195
1017,00:00:04.068,-0.014219684526324267
1018,00:00:04.072,-0.01809578831307593
1019,00:00:04.076,-0.009623202495276931
1020,00:00:04.08,0.0021155275171622604
1021,00:00:04.084,-0.01098689844366163
1022,00:00:04.088,0.016194371040910427
1023,00:00:04.092,0.014814846159424598
1024,00:00:04.096,0.00825117260683328
1025,00:00:04.1,-0.0004177841474302161
1026,00:00:04.104,-0.008669216942507767
1027,00:00:04.108,-0.016634853905998205
1028,00:00:04.112,-0.029900224180892148
1029,00:00:04.116,0.012480956676881755
1030,00:00:04.12,0.01894281059503554
1031,00:00:04.124,0.04650496970862155
1032,00:00:04.128,-0.015183707262622206
1033,00:00:04.132,-0.03507556952536104
1034,00:00:04.136,-0.014142100233584651
1035,00:00:04.14,0.01970470976084466
1036,00:00:04.144,-0.004702540769358172
1037,00:00:04.148,-0.0004765859339386294
1038,00:00:04.152,0.03741951275151222
1039,00:00:04.156,0.0027527916245162587
1040,00:00:04.16,-0.05057891434989867
1041,00:00:04.164,-0.0066820629872381705
1042,00:00:04.168,0.020648424746468698
1043,00:00:04.172,-0.0019406392239034098
1044,00:00:04.176,0.0030181639594957245
1045,00:00:04.18,0.016413787496276207
1046,00:00:04.184,-0.005235243472270671
1047,00:00:04.188,0.00525393011048437
1048,00:00:04.192,-0.014893247513100541
1049,00:00:04.196,-0.002850132295861839
1050,00:00:04.2,0.007710220534136173
1051,00:00:04.204,-0.00168090406805276
1052,00:00:04.208,0.0028451660764403607
1053,00:00:04.212,-0.02203205833211544
1054,00:00:04.216,-0.004958101184456604
1055,00:00:04.22,0.04532438027672465
1056,00:00:04.224,-0.004897965351119639
1057,00:00:04.228,-0.032215584069490474
1058,00:00:04.232,0.02273863437585534
1059,00:00:04.236,-0.00560201745247468
1060,00:00:04.24,-0.01979479682631795
1061,00:00:04.244,0.02709220375982115
1062,00:00:04.248,0.02022664871765297
1063,00:00:04.252,-0.04397423448972408
1064,00:00:04.256,-0.012190818495582834
1065,00:00:04.26,0.024686746299266822
1066,00:00:04.264,0.02764730365015569
1067,00:00:04.268,-0.025795604567974844
1068,00:00:04.272,-0.012262285454198722
1069,00:00:04.276,0.00963686336763206
1070,00:00:04.28,0.010197355237323794
1071,00:00:04.284,-0.01551322708837683
1072,00:00:04.288,0.012566694873385131
1073,00:00:04.292,-0.013704654527828099
1074,00:00:04.296,0.0017262883484363539
1075,00:00:04.3,0.019894837867468602
1076,00:00:04.304,0.00236159120686352
1077,00:00:04.308,-0.007891400833614169
1078,00:00:04.312,0.0010522869415581122
1079,00:00:04.316,-0.021446233789902146
1080,00:00:04.32,-0.02536883275024592
1081,00:00:04.324,0.03091207635588943
1082,00:00:04.328,0.02462440030649301
1083,00:00:04.332,0.01176980254240334
1084,00:00:04.336,-0.010322471847757659
1085,00:00:04.34,-0.050458944169804544
1086,00:00:04.344,0.01710441801697016
1087,00:00:04.348,0.022858719341456883
1088,00:00:04.352,0.00833588466048241
1089,00:00:04.356,-0.00084646674804389
1090,00:00:04.36,-0.02013557672034954
1091,00:00:04.364,-0.005037628347054131
1092,00:00:04.368,-0.01443343935534358
1093,00:00:04.372,0.013888147892430449
1094,00:00:04.376,0.026756403734907508
1095,00:00:04.38,-0.00215905264485627
1096,00:00:04.384,-0.011873986986756757
1097,00:00:04.388,0.0008361575892195106
1098,00:00:04.392,-0.0023883104440756116
1099,00:00:04.396,-0.011287044500932089
1100,00:00:04.4,0.004254048239090486
1101,00:00:04.404,0.004689894063631076
1102,00:00:04.408,-0.00259367120452225
1103,00:00:04.412,0.013697760354261868
1104,00:00:04.416,0.01933855749666696
1105,00:00:04.42,-0.015247435891069468
1106,00:00:04.424,-0.05579103995114565
1107,00:00:04.428,0.01638648821972306
1108,00:00:04.432,0.020131210796535
1109,00:00:04.436,0.025456977448811844
1110,00:00:04.44,-5.164105095900812e-05
1111,00:00:04.444,-0.0001859182957559902
1112,00:00:04.448,-0.0017000753432512205
1113,00:00:04.452,-0.0418208665214479
1114,00:00:04.456,-0.02247552931657989
1115,00:00:04.46,0.04628682881593708
1116,00:00:04.464,0.00407292554154992
1117,00:00:04.468,0.008575447718612817
1118,00:00:04.472,0.024331350607098998
1119,00:00:04.476,-0.02075668174074966
1120,00:00:04.48,-0.0354904122650624
1121,00:00:04.484,-0.01863620267249641
1122,00:00:04.488,0.013973943016026166
1123,00:00:04.492,0.0337606224929914
1124,00:00:04.496,0.03143399697728455
1125,00:00:04.5,-0.011387931212084366
1126,00:00:04.504,-0.03588830481749024
1127,00:00:04.508,-0.028238141559995707
1128,00:00:04.512,-0.004793927189894017
1129,00:00:04.516,0.04051723703742029
1130,00:00:04.52,0.03086445946246387
1131,00:00:04.524,-0.00935822713654489
1132,00:00:04.528,-0.02084791148081422
1133,00:00:04.532,0.0016484621519339306
1134,00:00:04.536,-0.00905223761219527
1135,00:00:04.54,-0.009673476713942355
1136,00:00:04.544,-0.015713970176875623
1137,00:00:04.548,0.038525771000422517
1138,00:00:04.552,0.01844965573400255
1139,00:00:04.556,-0.02550344448536634
1140,00:00:04.56,0.0020379510242492013
1141,00:00:04.564,0.00031143950764089996
1142,00:00:04.568,-0.01512099988758564
1143,00:00:04.572,-0.0016851398977451087
1144,00:00:04.576,0.028524695197120347
1145,00:00:04.58,-0.008460616110824055
1146,00:00:04.584,-0.017299938714131737
1147,00:00:04.588,0.0172167578712106
1148,00:00:04.592,0.00485892663709819
1149,00:00:04.596,-0.01342084514908496
1150,00:00:04.6,-0.022766925336327397
1151,00:00:04.604,0.01282984763383861
1152,00:00:04.608,0.030086424085311637
1153,00:00:04.612,0.003270542423706502
1154,00:00:04.616,-0.016994813224300742
1155,00:00:04.62,-0.004453889559954404
1156,00:00:04.624,0.00209266121964901
1157,00:00:04.628,-0.01161728345323351
1158,00:00:04.632,-0.01436757214833051
1159,00:00:04.636,0.025326656526885948
1160,00:00:04.64,0.008777978713624192
1161,00:00:04.644,0.005213879630900909
1162,00:00:04.648,-0.010763688012957623
1163,00:00:04.652,-0.01773902459535748
1164,00:00:04.656,-0.003209566231817
1165,00:00:04.66,0.01283695665188134
1166,00:00:04.664,0.02804725943133237
1167,00:00:04.668,0.00457261700648815
1168,00:00:04.672,-0.03182372963055969
1169,00:00:04.676,-0.03467241534963251
1170,00:00:04.68,0.01653512753546238
1171,00:00:04.684,0.020332847256213475
1172,00:00:04.688,0.02562106586992746
1173,00:00:04.692,0.015930512221530118
1174,00:00:04.696,-0.03196135675534607
1175,00:00:04.7,-0.02139451168477534
1176,00:00:04.704,-0.0339894099161029
1177,00:00:04.708,0.02363020088523626
1178,00:00:04.712,0.034124789293855345
1179,00:00:04.716,0.00882919342257087
1180,00:00:04.72,-0.0031178926583379386
1181,00:00:04.724,-0.001134975929744538
1182,00:00:04.728,-0.01907701184973121
1183,00:00:04.732,-0.01567971368785948
1184,00:00:04.736,0.00046425708569586136
1185,00:00:04.74,0.023355612065643058
1186,00:00:04.744,0.00816917628981173
1187,00:00:04.748,-0.007248123874887821
1188,00:00:04.752,-0.005452321463963021
1189,00:00:04.756,0.005497390171512968
1190,00:00:04.76,-0.022808150504715748
1191,00:00:04.764,0.006268165074288799
1192,00:00:04.768,0.01627537002786993
1193,00:00:04.772,0.005299639422446489
1194,00:00:04.776,0.0053941081278025705
1195,00:00:04.78,-0.005484452471137049
1196,00:00:04.784,-0.03369607916101809
1197,00:00:04.788,0.0047986307181417595
1198,00:00:04.792,0.012918615364469622
1199,00:00:04.796,0.01896655187010762
1200,00:00:04.8,0.008718976401723914
1201,00:00:04.804,-0.034581405110657215
1202,00:00:04.808,0.0009722723625600301
1203,00:00:04.812,0.007734285434707999
1204,00:00:04.816,0.006603957153856753
1205,00:00:04.82,0.008748625288717438
1206,00:00:04.824,0.0033780318917706617
1207,00:00:04.828,-0.01957526593469083
1208,00:00:04.832,-0.01128290814813227
1209,00:00:04.836,-0.002173564746044575
1210,00:00:04.84,0.02962800720706581
1211,00:00:04.844,-0.007982370676472788
1212,00:00:04.848,-0.0026336935115978096
1213,00:00:04.852,0.016169089649338317
1214,00:00:04.856,-0.015767162432894073
1215,00:00:04.86,-0.038177600596100106
1216,00:00:04.864,0.036487378180026994
1217,00:00:04.868,0.028876292519271353
1218,00:00:04.872,-0.002634855627547949
1219,00:00:04.876,-0.04783830814994871
1220,00:00:04.88,-0.00892467238008976
1221,00:00:04.884,0.014143874635919918
1222,00:00:04.888,0.027007949538528926
1223,00:00:04.892,0.01198308286257084
1224,00:00:04.896,-0.00465170620009302
1225,00:00:04.9,-0.00817761803045869
1226,00:00:04.904,-0.031424850341863986
1227,00:00:04.908,0.00359513307921588
1228,00:00:04.912,0.01586475683143358
1229,00:00:04.916,0.02312239870661869
1230,00:00:04.92,-0.008117132587358359
1231,00:00:04.924,-0.032743329647928504
1232,00:00:04.928,-0.00498174698441289
1233,00:00:04.932,0.05316035263240334
1234,00:00:04.936,-0.006119551137089729
1235,00:00:04.94,-0.035303414799272965
1236,00:00:04.944,-0.00011162491864525497
1237,00:00:04.948,0.015640258323401247
1238,00:00:04.952,-0.01118020317517221
1239,00:00:04.956,0.010975802317261689
1240,00:00:04.96,0.007583641970995805
1241,00:00:04.964,-0.015488141681999018
1242,00:00:04.968,0.012109788280213252
1243,00:00:04.972,-0.00030192662961779984
1244,00:00:04.976,-0.011129903257824491
1245,00:00:04.98,-0.01695502188522371
1246,00:00:04.984,0.03375616995617743
1247,00:00:04.988,-0.007932673848699726
1248,00:00:04.992,-0.0009630394342821059
1249,00:00:04.996,-0.00646050949580967
1250,00:00:05,0.0256310990080237
1251,00:00:05.004,-0.005883970297873019
1252,00:00:05.008,-0.026823797081306187
1253,00:00:05.012,-0.02320319879800082
1254,00:00:05.016,0.01880475622601804
1255,00:00:05.02,0.017450301907956607
1256,00:00:05.024,0.0134729859419167
1257,00:00:05.028,0.0007726075127720798
1258,00:00:05.032,-0.01412993669509889
1259,00:00:05.036,0.004862406232859948
1260,00:00:05.04,-0.00462498830165713
1261,00:00:05.044,-0.023359540326055167
1262,00:00:05.048,-0.01498413004446775
1263,00:00:05.052,0.03920749539975081
1264,00:00:05.056,0.0279681736137718
1265,00:00:05.06,-0.013191217032726875
1266,00:00:05.064,-0.012669093266595162
1267,00:00:05.068,-0.01399628526996824
1268,00:00:05.072,-0.011037250515073541
1269,00:00:05.076,0.026130432954232695
1270,00:00:05.08,-0.003930019214749322
1271,00:00:05.084,-0.011075337417423713
1272,00:00:05.088,0.016829377040266998
1273,00:00:05.092,-0.026372345164418207
1274,00:00:05.096,0.02722986950539057
1275,00:00:05.1,0.01103556936141104
1276,00:00:05.104,-0.02341212565079329
1277,00:00:05.108,-0.012367267307126895
1278,00:00:05.112,0.00622985395602881
1279,00:00:05.116,0.009539962280541648
1280,00:00:05.12,0.0035496156197041277
1281,00:00:05.124,-0.0017207544879056518
1282,00:00:05.128,0.006960581406019649
1283,00:00:05.132,0.01272107544355092
1284,00:00:05.136,-0.03839463996700946
1285,00:00:05.14,-0.01752441516146059
1286,00:00:05.144,0.03555156057700514
1287,00:00:05.148,0.01941295480355628
1288,00:00:05.152,-0.005308008519932631
1289,00:00:05.156,-0.006123909843154249
1290,00:00:05.16,-0.0026388529222458553
1291,00:00:05.164,-0.04442737624049187
1292,00:00:05.168,0.01355175604112447
1293,00:00:05.172,0.03775019559543583
1294,00:00:05.176,-0.00903152953833346
1295,00:00:05.18,0.01353273075073955
1296,00:00:05.184,0.01398544432595375
1297,00:00:05.188,-0.03737520077265799
1298,00:00:05.192,-0.01996302185580137
1299,00:00:05.196,-0.01271298888605088
1300,00:00:05.2,0.029459638521075297
1301,00:00:05.204,0.029469926143065102
1302,00:00:05.208,0.01124398037791248
1303,00:00:05.212,-0.014823838835582137
1304,00:00:05.216,-0.029819117859005952
1305,00:00:05.22,-0.01640720013529067
1306,00:00:05.224,-0.004222059767926109
1307,00:00:05.228,0.05831228347960856
1308,00:00:05.232,0.01244689524173733
1309,00:00:05.236,-0.03322685323655611
1310,00:00:05.24,-0.007440366345690558
1311,00:00:05.244,-0.0038782171905040984
1312,00:00:05.248,-0.01357447728514672
1313,00:00:05.252,0.006951567484065923
1314,00:00:05.256,-0.00848104502074421
1315,00:00:05.26,0.03859328432008628
1316,00:00:05.264,0.004339583843830044
1317,00:00:05.268,0.0008338421976077374
1318,00:00:05.272,-0.010259082991979087
1319,00:00:05.276,-0.02631272212602199
1320,00:00:05.28,0.01282011636067182
1321,00:00:05.284,-0.014369278942467645
1322,00:00:05.288,-0.00793389417231083
1323,00:00:05.292,0.02163345646113149
1324,00:00:05.296,0.01693421736126768
1325,00:00:05.3,-0.0032445250544696994
1326,00:00:05.304,-0.00533318589441478
1327,00:00:05.308,-0.0007747903000563392
1328,00:00:05.312,-0.0027603872586041698
1329,00:00:05.316,-0.01004880212713033
1330,00:00:05.32,-0.005024925601901483
1331,00:00:05.324,0.014460016682278375
1332,00:00:05.328,0.0168451078934595
1333,00:00:05.332,-0.013417306938208633
1334,00:00:05.336,-0.027851225808262797
1335,00:00:05.34,0.010074376594275231
1336,00:00:05.344,0.013548718998208661
1337,00:00:05.348,0.02238565334118899
1338,00:00:05.352,-0.011140493734274073
1339,00:00:05.356,-0.017411208944395212
1340,00:00:05.36,-0.0014910851605236513
1341,00:00:05.364,-0.00963628292083745
1342,00:00:05.368,-8.797302143646706e-05
1343,00:00:05.372,0.024921140866354118
1344,00:00:05.376,0.01065442268736661
1345,00:00:05.38,0.002034503733739251
1346,00:00:05.384,-0.018778393277898472
1347,00:00:05.388,-0.022627416066825407
1348,00:00:05.392,0.00503102573566137
1349,00:00:05.396,0.01211015041917562
1350,00:00:05.4,0.0044600147230084985
1351,00:00:05.404,-2.5019573513421472e-05
1352,00:00:05.408,0.019229357014410167
1353,00:00:05.412,0.0018906014156527867
1354,00:00:05.416,-0.042529433965683025
1355,00:00:05.42,-0.00704930955544115
1356,00:00:05.424,0.021321880863979473
1357,00:00:05.428,0.01067858655005693
1358,00:00:05.432,0.00967340986244383
1359,00:00:05.436,0.01360709103755654
1360,00:00:05.44,-0.013456900371238601
1361,00:00:05.444,-0.02985745458863674
1362,00:00:05.448,-0.03322954487521205
1363,00:00:05.452,0.00989105110056698
1364,00:00:05.456,0.051569710951298475
1365,00:00:05.46,0.03006120491772893
1366,00:00:05.464,0.00777263299096381
1367,00:00:05.468,-0.0419127335771918
1368,00:00:05.472,-0.04192340653389695
1369,00:00:05.476,-0.01070984289981429
1370,00:00:05.48,0.025609794538468136
1371,00:00:05.484,0.03867342136800285
1372,00:00:05.488,-0.00194531679153442
1373,00:00:05.492,-0.008097365382127469
1374,00:00:05.496,-0.01517734886147081
1375,00:00:05.5,-0.002032431104453281
1376,00:00:05.504,0.00733176106587052
1377,00:00:05.508,0.007952547108288861
1378,00:00:05.512,-0.017563066940056157
1379,00:00:05.516,0.013503147696610584
1380,00:00:05.52,-0.011539732106029968
1381,00:00:05.524,-0.0030994599219411603
1382,00:00:05.528,0.027782917022705092
1383,00:00:05.532,-0.0042343801469542025
1384,00:00:05.536,-0.01508228853344917
1385,00:00:05.54,-0.01755529665388164
1386,00:00:05.544,-0.008926123264245696
1387,00:00:05.548,0.03601795108988886
1388,00:00:05.552,0.00374099728651344
1389,00:00:05.556,-0.005224931053817279
1390,00:00:05.56,0.0013855474535375877
1391,00:00:05.564,0.01064558955840766
1392,00:00:05.568,-0.024766141548752812
1393,00:00:05.572,-6.486801430583e-05
1394,00:00:05.576,-0.006569481454789632
1395,00:00:05.58,-0.0009047809871844982
1396,00:00:05.584,0.02591137681156401
1397,00:00:05.588,-0.012661934830248401
1398,00:00:05.592,-0.007077752641635017
1399,00:00:05.596,0.01468532020226126
1400,00:00:05.6,0.02357046771794554
1401,00:00:05.604,-0.024151768728188427
1402,00:00:05.608,-0.05970393307507035
1403,00:00:05.612,0.050785971572622636
1404,00:00:05.616,0.019700758159160583
1405,00:00:05.62,-0.007457828956830817
1406,00:00:05.624,-0.006038103601895269
1407,00:00:05.628,-0.0023602468427270677
1408,00:00:05.632,-0.00214333937037736
1409,00:00:05.636,0.0003658212954178496
1410,00:00:05.64,0.005721049150452019
1411,00:00:05.644,-0.03183663269737731
1412,00:00:05.648,0.014076061663217837
1413,00:00:05.652,0.01716971991118044
1414,00:00:05.656,0.010566810917225672
1415,00:00:05.66,-0.0051508982433006185
1416,00:00:05.664,0.00440143537707627
1417,00:00:05.668,-0.014930116478353751
1418,00:00:05.672,-0.008822731208056211
1419,00:00:05.676,-0.005134251085110004
1420,00:00:05.68,0.02460780274122958
1421,00:00:05.684,-0.013575299817603078
1422,00:00:05.688,-0.003333036787808009
1423,00:00:05.692,0.00281736999750137
1424,00:00:05.696,0.0001233744842465906
1425,00:00:05.7,-0.0036807879805564802
1426,00:00:05.704,0.00317950244061649
1427,00:00:05.708,0.03377544088289141
1428,00:00:05.712,-0.008067498449236151
1429,00:00:05.716,-0.02178981248289344
1430,00:00:05.72,-0.00999430124647914
1431,00:00:05.724,-0.011857818928547242
1432,00:00:05.728,-0.0031870055245235597
1433,00:00:05.732,0.029042693531664526
1434,00:00:05.736,0.007579996599815821
1435,00:00:05.74,0.03375651338137683
1436,00:00:05.744,-0.023383442312479002
1437,00:00:05.748,-0.062297103460878106
1438,00:00:05.752,-0.001005638972856104
1439,00:00:05.756,0.027663349173963053
1440,00:00:05.76,0.019080378813669103
1441,00:00:05.764,0.0329147069714964
1442,00:00:05.768,0.008390528135350876
1443,00:00:05.772,-0.050830221036449116
1444,00:00:05.776,-0.025756138842552928
1445,00:00:05.78,0.003650659171398731
1446,00:00:05.784,0.01196303335018456
1447,00:00:05.788,0.03130715130828318
1448,00:00:05.792,-0.007701982976868749
1449,00:00:05.796,0.00394260662142187
1450,00:00:05.8,-0.004636632962501608
1451,00:00:05.804,-0.026907981373369673
1452,00:00:05.808,0.00941506377421319
1453,00:00:05.812,0.03356075705960392
1454,00:00:05.816,-0.03131157020106913
1455,00:00:05.82,-0.017478547524660822
1456,00:00:05.824,0.01990059547824788
1457,00:00:05.828,0.02120370976626869
1458,00:00:05.832,-0.015226525836624205
1459,00:00:05.836,0.00575182016473263
1460,00:00:05.84,0.0039773861208232154
1461,00:00:05.844,-0.004697646247223049
1462,00:00:05.848,-0.016669974254909868
1463,00:00:05.852,-0.0023821732029318896
1464,00:00:05.856,-0.007437402091454718
1465,00:00:05.86,0.02447099040728067
1466,00:00:05.864,0.01018528203712777
1467,00:00:05.868,-0.0172577942721546
1468,00:00:05.872,-0.009074083995074037
1469,00:00:05.876,0.02209642855450515
1470,00:00:05.88,0.0056147382128983675
1471,00:00:05.884,-0.01326529390644282
1472,00:00:05.888,-0.008650795120047402
1473,00:00:05.892,-0.00010801333701238687
1474,00:00:05.896,-0.007861673482693782
1475,00:00:05.9,0.020588779356330578
1476,00:00:05.904,-0.00664107780903578
1477,00:00:05.908,-0.00784201873466373
1478,00:00:05.912,0.01746416836977004
1479,00:00:05.916,-0.00543349585495888
1480,00:00:05.92,-0.021571471588686074
1481,00:00:05.924,0.02618490741588173
1482,00:00:05.928,0.022466808091849116
1483,00:00:05.932,-0.022520551166962853
1484,00:00:05.936,-0.03304466465488075
1485,00:00:05.94,0.010753964364994303
1486,00:00:05.944,-0.01656950451433656
1487,00:00:05.948,0.029227441875264017
1488,00:00:05.952,0.03257598541676996
1489,00:00:05.956,-0.02016495447605848
1490,00:00:05.96,-0.013979774172184998
1491,00:00:05.964,-0.011372108478099071
1492,00:00:05.968,0.01767394132912158
1493,00:00:05.972,0.0011222629109397505
1494,00:00:05.976,-0.006173204252263531
1495,00:00:05.98,-0.00561318104155362
1496,00:00:05.984,0.0046498334850184585
1497,00:00:05.988,0.014885030919685962
1498,00:00:05.992,-0.0190166998654604
1499,00:00:05.996,0.002357791177928441
1500,00:00:06,0.0072973472997546205
1501,00:00:06.004,-0.008309977129101809
1502,00:00:06.008,-0.015734402462840042
1503,00:00:06.012,0.03206556523218747
1504,00:00:06.016,0.02285018900875005
1505,00:00:06.02,-0.0276202142704278
1506,00:00:06.024,-0.019606462912634043
1507,00:00:06.028,-0.006771476804715356
1508,00:00:06.032,0.01422639330849055
1509,00:00:06.036,-0.005379209760576489
1510,00:00:06.04,0.009881523175863544
1511,00:00:06.044,0.006883328780531871
1512,00:00:06.048,0.016803017584607005
1513,00:00:06.052,-0.0051066209452983406
1514,00:00:06.056,-0.03109601186588408
1515,00:00:06.06,-0.015065521700307772
1516,00:00:06.064,0.030582693405449432
1517,00:00:06.068,0.012764301616698502
1518,00:00:06.072,-0.01088842237368226
1519,00:00:06.076,-0.009521035477519021
1520,00:00:06.08,0.0023598892148584106
1521,00:00:06.084,0.003866223113618618
1522,00:00:06.088,-0.006594262784346946
1523,00:00:06.092,0.017760059679858373
1524,00:00:06.096,0.009723573341034353
1525,00:00:06.1,-0.02884012757567688
1526,00:00:06.104,-0.01447725656908001
1527,00:00:06.108,0.01835275319172068
1528,00:00:06.112,-0.011482884408906099
1529,00:00:06.116,0.001571739208884535
1530,00:00:06.12,0.03440752159804101
1531,00:00:06.124,0.0022137390915304405
1532,00:00:06.128,-0.0062760864384472405
1533,00:00:06.132,-0.02343076304532586
1534,00:00:06.136,-0.014325580385047942
1535,00:00:06.14,0.010683609056286522
1536,00:00:06.144,0.018307494639884726
1537,00:00:06.148,-0.00275414600037038
1538,00:00:06.152,-0.01665969751775262
1539,00:00:06.156,-0.003680721623823043
1540,00:00:06.16,0.02688144473358993
1541,00:00:06.164,-0.0068756896071136015
1542,00:00:06.168,0.01667524804361165
1543,00:00:06.172,-0.010540798655711111
1544,00:00:06.176,-0.01348059775773435
1545,00:00:06.18,-0.0067015986423939414
1546,00:00:06.184,-0.02632764214649796
1547,00:00:06.188,0.007375598070211707
1548,00:00:06.192,0.03729597246274352
1549,00:00:06.196,0.014034362335223753
1550,00:00:06.2,-0.005796105833724139
1551,00:00:06.204,-0.0012072445242665708
1552,00:00:06.208,-0.004409860819578169
1553,00:00:06.212,-0.03395061381161208
1554,00:00:06.216,0.0006697892094962315
1555,00:00:06.22,-0.001663131261011589
1556,00:00:06.224,0.03995253564789896
1557,00:00:06.228,0.002713660450126559
1558,00:00:06.232,-0.0133688040077686
1559,00:00:06.236,0.01155157579341906
1560,00:00:06.24,-0.03788423910737035
1561,00:00:06.244,0.002397077449131752
1562,00:00:06.248,0.00037666532443835583
1563,00:00:06.252,0.0150121096521616
1564,00:00:06.256,0.024466508999466882
1565,00:00:06.26,-0.025295887608081127
1566,00:00:06.264,0.014455880082095971
1567,00:00:06.268,-0.006269710342166944
1568,00:00:06.272,-0.00435992146958597
1569,00:00:06.276,-0.003499337995890532
1570,00:00:06.28,-0.012174558360129598
1571,00:00:06.284,0.01420920726377517
1572,00:00:06.288,-0.002529404562665147
1573,00:00:06.292,0.011477896943688348
1574,00:00:06.296,0.0014510763576254231
1575,00:00:06.3,-0.0012598354369401997
1576,00:00:06.304,-0.039530754089355497
1577,00:00:06.308,0.02060715080006053
1578,00:00:06.312,0.020431840326637002
1579,00:00:06.316,0.00011911476030945084
1580,00:00:06.32,-0.0036031003110110604
1581,00:00:06.324,0.01190050970762966
1582,00:00:06.328,-0.01725135557353493
1583,00:00:06.332,-0.014423516811802987
1584,00:00:06.336,0.0037110155681148197
1585,00:00:06.34,-0.01826260704547164
1586,00:00:06.344,0.01109138556057588
1587,00:00:06.348,0.03832471382338549
1588,00:00:06.352,0.02876767748966809
1589,00:00:06.356,-0.040014988393522806
1590,00:00:06.36,-0.04415073664858936
1591,00:00:06.364,0.002799025154672568
1592,00:00:06.368,0.037421770510263797
1593,00:00:06.372,0.006935001118108627
1594,00:00:06.376,-0.00519779208116233
1595,00:00:06.38,0.0034160169452661713
1596,00:00:06.384,-0.00991607061587274
1597,00:00:06.388,-0.02535642986185845
1598,00:00:06.392,0.01534773129969837
1599,00:00:06.396,0.011808932991698391
1600,00:00:06.4,0.006448916938097689
1601,00:00:06.404,-0.00564664299599826
1602,00:00:06.408,0.004532502876827498
1603,00:00:06.412,-0.014188894885592211
1604,00:00:06.416,-0.005315679038176317
1605,00:00:06.42,-0.0012235402537044146
1606,00:00:06.424,0.024646166712045673
1607,00:00:06.428,-0.00352249341085553
1608,00:00:06.432,-0.019653311115689593
1609,00:00:06.436,0.00850877864286306
1610,00:00:06.44,0.0040335832163691555
1611,00:00:06.444,0.004662471590563655
1612,00:00:06.448,-0.00939064152771607
1613,00:00:06.452,-0.0008780625648796606
1614,00:00:06.456,-0.00629546970594674
1615,00:00:06.46,0.020199842838337614
1616,00:00:06.464,-0.004600139951435272
1617,00:00:06.468,-0.01614863204304132
1618,00:00:06.472,0.00448253308422864
1619,00:00:06.476,0.01813459672848698
1620,00:00:06.48,-0.0018206550739705602
1621,00:00:06.484,-0.01281366578768943
1622,00:00:06.488,-0.0030678820330649597
1623,00:00:06.492,0.00727592350449412
1624,00:00:06.496,-0.02867165510542692
1625,00:00:06.5,0.02679275302216406
1626,00:00:06.504,0.02037604223005471
1627,00:00:06.508,-0.008166696177795531
1628,00:00:06.512,-0.010835678200237451
1629,00:00:06.516,-0.02172464272007344
1630,00:00:06.52,0.003747306065633899
1631,00:00:06.524,0.02575476886704565
1632,00:00:06.528,0.011600805213674906
1633,00:00:06.532,-0.00542429508641362
1634,00:00:06.536,-0.03565276367589831
1635,00:00:06.54,0.01114571304060519
1636,00:00:06.544,0.014223049598513155
1637,00:00:06.548,-0.004045007925014948
1638,00:00:06.552,-0.0023839303757995293
1639,00:00:06.556,-0.0023026450071483885
1640,00:00:06.56,0.0008634247351437807
1641,00:00:06.564,-0.0036261394270695746
1642,00:00:06.568,0.012327807082328918
1643,00:00:06.572,0.02045490394812078
1644,00:00:06.576,-0.029423549305647622
1645,00:00:06.58,-0.01309326279442753
1646,00:00:06.584,-0.0018382773268967897
1647,00:00:06.588,0.03614938689861444
1648,00:00:06.592,-0.007815879711415659
1649,00:00:06.596,-0.011727129283826765
1650,00:00:06.6,-0.01223652344197035
1651,00:00:06.604,0.00641579227522016
1652,00:00:06.608,0.013002095627598503
1653,00:00:06.612,-0.013970994390547269
1654,00:00:06.616,0.024642614647746048
1655,00:00:06.62,-0.003720624255947774
1656,00:00:06.624,-0.02205993840470906
1657,00:00:06.628,0.007695563370361921
1658,00:00:06.632,-0.0016573863103985821
1659,00:00:06.636,-0.009429848381842017
1660,00:00:06.64,0.01134470256511122
1661,00:00:06.644,0.01546245068311691
1662,00:00:06.648,-0.017139149596914618
1663,00:00:06.652,0.000502287060953678
1664,00:00:06.656,0.0037602683296426923
1665,00:00:06.66,0.0017098442767746747
1666,00:00:06.664,-0.0049248262657783665
1667,00:00:06.668,0.002093566406983882
1668,00:00:06.672,0.01005006214836612
1669,00:00:06.676,0.0022731621284037915
1670,00:00:06.68,-0.02609759289771317
1671,00:00:06.684,-0.006465590733569117
1672,00:00:06.688,-0.006238294066861178
1673,00:00:06.692,0.04275979078374805
1674,00:00:06.696,0.00819761550519611
1675,00:00:06.7,-0.02447651559486988
1676,00:00:06.704,0.012633991471375387
1677,00:00:06.708,0.007394226864562372
1678,00:00:06.712,-0.0283536824863404
1679,00:00:06.716,-0.035756120458245284
1680,00:00:06.72,0.03707091510295865
1681,00:00:06.724,0.008615921018645167
1682,00:00:06.728,-0.00637052371166646
1683,00:00:06.732,0.03385705233085897
1684,00:00:06.736,-8.552381768822583e-05
1685,00:00:06.74,-0.04789393022656441
1686,00:00:06.744,-0.01249634253326804
1687,00:00:06.748,0.02487519371788949
1688,00:00:06.752,0.02405226416885852
1689,00:00:06.756,0.008285947842523449
1690,00:00:06.76,-0.02074780780822041
1691,00:00:06.764,-0.013155856169760203
1692,00:00:06.768,-0.02693493710830806
1693,00:00:06.772,0.01608104258775714
1694,00:00:06.776,0.02101684967055915
1695,00:00:06.78,0.03768175421282651
1696,00:00:06.784,-0.009741330286487937
1697,00:00:06.788,-0.03974069142714142
1698,00:00:06.792,0.0006170474225655237
1699,00:00:06.796,-0.0045511294156312995
1700,00:00:06.8,-0.025740485638380068
1701,00:00:06.804,0.021569027565419625
1702,00:00:06.808,0.04435673193074761
1703,00:00:06.812,0.02536615286953751
1704,00:00:06.816,-0.030227501294575652
1705,00:00:06.82,-0.06639172416180374
1706,00:00:06.824,0.031244330108165696
1707,00:00:06.828,0.02228714339435096
1708,00:00:06.832,-0.00588937336578965
1709,00:00:06.836,-0.007467903255019332
1710,00:00:06.84,-0.009808192844502642
1711,00:00:06.844,0.00895393476821483
1712,00:00:06.848,0.04171701916493475
1713,00:00:06.852,-0.035290900937980055
1714,00:00:06.856,-0.02043081191368397
1715,00:00:06.86,0.011018531164154447
1716,00:00:06.864,0.018790023532346857
1717,00:00:06.868,-0.013900938152801244
1718,00:00:06.872,0.00635171262547374
1719,00:00:06.876,0.004121567006222899
1720,00:00:06.88,-0.012455272022634791
1721,00:00:06.884,-0.013849360868334791
1722,00:00:06.888,0.028096160735003647
1723,00:00:06.892,0.01880108145996929
1724,00:00:06.896,-0.01620390638709068
1725,00:00:06.9,-0.04608808783814309
1726,00:00:06.904,0.01910080621019005
1727,00:00:06.908,0.02582485956372696
1728,00:00:06.912,0.0003987359814345802
1729,00:00:06.916,-0.0257329419255257
1730,00:00:06.92,0.02236741874367003
1731,00:00:06.924,0.011243590328376744
1732,00:00:06.928,-0.01136653171852229
1733,00:00:06.932,-0.0251775155775249
1734,00:00:06.936,0.0021984361637805696
1735,00:00:06.94,0.02181864250451323
1736,00:00:06.944,0.0016832067631185053
1737,00:00:06.948,-0.01717139547690746
1738,00:00:06.952,0.00964508077595383
1739,00:00:06.956,0.010387062269728629
1740,00:00:06.96,-0.0018414793303236298
1741,00:00:06.964,-0.01101920241490006
1742,00:00:06.968,-0.006095545773860069
1743,00:00:06.972,-0.007454380276612941
1744,00:00:06.976,0.02079027821309865
1745,00:00:06.98,0.009406310389749711
1746,00:00:06.984,-0.005371318082325166
1747,00:00:06.988,-0.01730558602139353
1748,00:00:06.992,0.003975695930421359
1749,00:00:06.996,-0.00278842612169683
1750,00:00:07,0.009420797083294024
1751,00:00:07.004,-0.01584440749138593
1752,00:00:07.008,0.02429186634253709
1753,00:00:07.012,0.02025477541610598
1754,00:00:07.016,-0.029343151254579466
1755,00:00:07.02,-0.0368781702127308
1756,00:00:07.024,0.02228881511837247
1757,00:00:07.028,0.021526607692067067
1758,00:00:07.032,0.011265223438385872
1759,00:00:07.036,-0.02333688689395784
1760,00:00:07.04,-0.01312741846777497
1761,00:00:07.044,0.01999535085633396
1762,00:00:07.048,0.012180661549791713
1763,00:00:07.052,-0.008695844211615615
1764,00:00:07.056,-0.01456978439819068
1765,00:00:07.06,-0.004855375504121181
1766,00:00:07.064,0.010556538589298718
1767,00:00:07.068,-0.00459774443879724
1768,00:00:07.072,0.00247111951466649
1769,00:00:07.076,0.03903534822165969
1770,00:00:07.08,-0.025064890563953668
1771,00:00:07.084,-0.021061171137262153
1772,00:00:07.088,-0.00204827752895653
1773,00:00:07.092,-0.0005363940726965692
1774,00:00:07.096,0.018556120572611662
1775,00:00:07.1,-0.01172561640851199
1776,00:00:07.104,0.020534571260213852
1777,00:00:07.108,-0.0006309694726951426
1778,00:00:07.112,-0.02789725176990036
1779,00:00:07.116,0.0072957889642566495
1780,00:00:07.12,0.013308994472026811
1781,00:00:07.124,0.002458859118632972
1782,00:00:07.128,-0.014245115336962053
1783,00:00:07.132,0.013108500279486188
1784,00:00:07.136,-0.013165749434847392
1785,00:00:07.14,-0.00238382001407445
1786,00:00:07.144,0.006588548654690388
1787,00:00:07.148,0.01623779040528466
1788,00:00:07.152,0.010616293409839269
1789,00:00:07.156,-0.0421309408266098
1790,00:00:07.16,-0.01098503940738738
1791,00:00:07.164,0.02805040146631655
1792,00:00:07.168,0.00596345239318907
1793,00:00:07.172,0.007324095786316326
1794,00:00:07.176,-0.00579896557610482
1795,00:00:07.18,-0.011940960597712512
1796,00:00:07.184,-0.012985517969354989
1797,00:00:07.188,0.03140703542158005
1798,00:00:07.192,0.0007914450616226508
1799,00:00:07.196,-0.02122045471332967
1800,00:00:07.2,4.0537386666977294e-05
1801,00:00:07.204,0.002437646675389256
1802,00:00:07.208,-0.011789351003244493
1803,00:00:07.212,0.01985433278605339
1804,00:00:07.216,-0.00421579019166525
1805,00:00:07.22,0.009600697318091982
1806,00:00:07.224,0.000926479042391301
1807,00:00:07.228,0.0011359120835550188
1808,00:00:07.232,0.00038440863136201923
1809,00:00:07.236,-0.03090491954935716
1810,00:00:07.24,-0.00304907839745283
1811,00:00:07.244,0.013461682945489838
1812,00:00:07.248,0.0131102878367528
1813,00:00:07.252,0.005821153754368421
1814,00:00:07.256,-0.0012878542765975
1815,00:00:07.26,-0.021480222545505953
1816,00:00:07.264,0.017246362403966507
1817,00:00:07.268,0.01914485031738882
1818,00:00:07.272,-0.023715751274721652
1819,00:00:07.276,-0.011471102945506581
1820,00:00:07.28,-0.00032181490678340544
1821,00:00:07.284,0.01599719026125972
1822,00:00:07.288,-0.01815842464566233
1823,00:00:07.292,0.017630897462368032
1824,00:00:07.296,0.005314331618137659
1825,00:00:07.3,-0.019218867179006296
1826,00:00:07.304,0.02100082347169515
1827,00:00:07.308,-0.01315858459565788
1828,00:00:07.312,0.022418595384806412
1829,00:00:07.316,-0.02919938461855049
1830,00:00:07.32,-0.020753236021846564
1831,00:00:07.324,0.02846634667366746
1832,00:00:07.328,0.027143094630446313
1833,00:00:07.332,-0.007146519725210965
1834,00:00:07.336,-0.03132153116166593
1835,00:00:07.34,-0.018976676612510332
1836,00:00:07.344,0.034559236839413726
1837,00:00:07.348,0.01782660046592352
1838,00:00:07.352,0.0015813596546649916
1839,00:00:07.356,-0.04156973891076633
1840,00:00:07.36,-0.001862450037151608
1841,00:00:07.364,0.030121821066131843
1842,00:00:07.368,0.0033366381248924803
1843,00:00:07.372,-0.01556559186428785
1844,00:00:07.376,-0.005912963650189339
1845,00:00:07.38,0.011049095075577487
1846,00:00:07.384,-0.0019287689938209925
1847,00:00:07.388,0.012562022544443559
1848,00:00:07.392,-0.01733782027440613
1849,00:00:07.396,0.0027338239597156705
1850,00:00:07.4,0.0040241318056359904
1851,00:00:07.404,-0.001633186842809666
1852,00:00:07.408,-0.0063348913099616705
1853,00:00:07.412,-0.00925550991814817
1854,00:00:07.416,0.011658600997179752
1855,00:00:07.42,0.019580234162276645
1856,00:00:07.424,0.00184881081804633
1857,00:00:07.428,-0.0094798936042935
1858,00:00:07.432,-0.02149321336764842
1859,00:00:07.436,-0.00486483681015671
1860,00:00:07.44,0.01158098806627095
1861,00:00:07.444,0.000507352699059993
1862,00:00:07.448,0.018173178716097013
1863,00:00:07.452,0.027311429614201157
1864,00:00:07.456,-0.04715526616200798
1865,00:00:07.46,-0.026877021184191073
1866,00:00:07.464,0.027938058599829688
1867,00:00:07.468,0.026797521859407383
1868,00:00:07.472,-0.009308448527008292
1869,00:00:07.476,-0.01811427297070622
1870,00:00:07.48,0.00147909217048437
1871,00:00:07.484,-0.0034805643954314257
1872,00:00:07.488,-0.0061950923409313016
1873,00:00:07.492,0.007641959469765427
1874,00:00:07.496,0.024145684670656913
1875,00:00:07.5,0.033071863494114985
1876,00:00:07.504,-0.03843252686783671
1877,00:00:07.508,-0.034567272989079384
1878,00:00:07.512,-0.004310864198487258
1879,00:00:07.516,0.010030187200754902
1880,00:00:07.52,0.018954156432300848
1881,00:00:07.524,-0.005454145866679033
1882,00:00:07.528,0.02045577799435706
1883,00:00:07.532,0.003183192457072428
1884,00:00:07.536,-0.013008804729906816
1885,00:00:07.54,-0.0033316239132545854
1886,00:00:07.544,-0.01005316502414643
1887,00:00:07.548,-0.00637247143458807
1888,00:00:07.552,0.000417090195696799
1889,00:00:07.556,0.009315364120993735
1890,00:00:07.56,0.01049952651374042
1891,00:00:07.564,0.007591533125378199
1892,00:00:07.568,-0.0069325286312960175
1893,00:00:07.572,-0.010815039044246069
1894,00:00:07.576,-0.00690368493087589
1895,00:00:07.58,0.00973246386274694
1896,00:00:07.584,0.00019244034774601806
1897,00:00:07.588,0.00132507248781621
1898,00:00:07.592,0.01711133008939212
1899,00:00:07.596,-0.03286992060020563
1900,00:00:07.6,-0.012727560009807331
1901,00:00:07.604,0.02900036700884808
1902,00:00:07.608,0.017509632394649068
1903,00:00:07.612,0.010036443360149857
1904,00:00:07.616,-0.02053584880195557
1905,00:00:07.62,-0.01330502075143162
1906,00:00:07.624,-0.02747545088641341
1907,00:00:07.628,0.0006534622516482895
1908,00:00:07.632,0.035933119128458195
1909,00:00:07.636,0.01944332802668215
1910,00:00:07.64,-0.015996870133676577
1911,00:00:07.644,0.005118269997183234
1912,00:00:07.648,-0.01392059295903891
1913,00:00:07.652,0.0009517451981082502
1914,00:00:07.656,-0.01819498103577643
1915,00:00:07.66,0.00545663223601878
1916,00:00:07.664,0.02028121426701545
1917,00:00:07.668,0.019207962439395522
1918,00:00:07.672,-0.018327879835851525
1919,00:00:07.676,-0.01832957135047764
1920,00:00:07.68,-0.0018106390489265294
1921,00:00:07.684,-0.009653127752244431
1922,00:00:07.688,0.01107284880708903
1923,00:00:07.692,0.014472356066107708
1924,00:00:07.696,0.01646718150004748
1925,00:00:07.7,-0.005822297069244079
1926,00:00:07.704,-0.013707692764000983
1927,00:00:07.708,-0.0001491552684456199
1928,00:00:07.712,0.00783819705247879
1929,00:00:07.716,-0.01853768900036812
1930,00:00:07.72,-0.02165953721851111
1931,00:00:07.724,0.02706442354246975
1932,00:00:07.728,0.01752069033682347
1933,00:00:07.732,0.0026728911325335602
1934,00:00:07.736,0.0013857719022780605
1935,00:00:07.74,-0.016848617757204906
1936,00:00:07.744,-0.01652288110926749
1937,00:00:07.748,-0.0228393282741307
1938,00:00:07.752,0.026328186970204087
1939,00:00:07.756,0.03754321509040893
1940,00:00:07.76,0.006490452578873368
1941,00:00:07.764,-0.005258678866084669
1942,00:00:07.768,-0.015499495202675462
1943,00:00:07.772,-0.04268685868009925
1944,00:00:07.776,-0.011967567290412262
1945,00:00:07.78,0.030216102721169587
1946,00:00:07.784,0.01936480728909373
1947,00:00:07.788,0.030091041699051878
1948,00:00:07.792,0.00759932026267051
1949,00:00:07.796,-0.04528815863886841
1950,00:00:07.8,-0.035951178753748564
1951,00:00:07.804,0.0013735748361796162
1952,00:00:07.808,0.03466781834140422
1953,00:00:07.812,0.0255596936913207
1954,00:00:07.816,-0.00153396831592545
1955,00:00:07.82,-0.0045910159824416
1956,00:00:07.824,-0.0015240283100865833
1957,00:00:07.828,-0.053202382172457874
1958,00:00:07.832,-0.007849545392673464
1959,00:00:07.836,0.05225959233939652
1960,00:00:07.84,0.013653518632054348
1961,00:00:07.844,-0.0030700629577040603
1962,00:00:07.848,-0.010269725695252422
1963,00:00:07.852,0.0008741018828004549
1964,00:00:07.856,-0.012555824359878901
1965,00:00:07.86,-0.02665725583210591
1966,00:00:07.864,0.0037692863261327147
1967,00:00:07.868,0.03442397946491835
1968,00:00:07.872,0.04229156696237624
1969,00:00:07.876,-0.02635832992382343
1970,00:00:07.88,-0.05355142464395614
1971,00:00:07.884,0.01100094674620775
1972,00:00:07.888,0.022319441195577397
1973,00:00:07.892,-0.006744911566784145
1974,00:00:07.896,0.00432677834760398
1975,00:00:07.9,0.00408816686831415
1976,00:00:07.904,0.004643332678824656
1977,00:00:07.908,0.0083312522619963
1978,00:00:07.912,-0.03452449617907409
1979,00:00:07.916,-0.0020139741245657197
1980,00:00:07.92,0.01970142120262612
1981,00:00:07.924,-0.0027268318226560963
1982,00:00:07.928,-0.009840110782533839
1983,00:00:07.932,0.02960711074410942
1984,00:00:07.936,0.0034660347737371904
1985,00:00:07.94,-0.007027432300674265
1986,00:00:07.944,-0.01292334869503978
1987,00:00:07.948,-0.00641270028427243
1988,00:00:07.952,-0.03057691999129018
1989,00:00:07.956,0.004340020706877109
1990,00:00:07.96,0.036981055513024316
1991,00:00:07.964,0.030147786950692514
1992,00:00:07.968,-0.021767989266663852
1993,00:00:07.972,-0.01570518384687606
1994,00:00:07.976,-0.0024202240165323028
1995,00:00:07.98,-0.005337138951290394
1996,00:00:07.984,0.00901238317601381
1997,00:00:07.988,-0.0005957414396107197
1998,00:00:07.992,0.00738443166483194
1999,00:00:07.996,-0.00923457019962371
2000,00:00:08,-0.0071843387268017925
2001,00:00:08.004,0.010223839548416429
2002,00:00:08.008,0.0010672301286831511
2003,00:00:08.012,0.005935827153734859
2004,00:00:08.016,0.0025326507166028014
2005,00:00:08.02,-2.8552036383191402e-05
2006,00:00:08.024,-0.02512855036184194
2007,00:00:08.028,-0.00870499992743135
2008,00:00:08.032,0.044700529426336275
2009,00:00:08.036,-0.007546618347987529
2010,00:00:08.04,-0.028637151001021294
2011,00:00:08.044,0.0017397232586517887
2012,00:00:08.048,0.00715212256181985
2013,00:00:08.052,0.01909398578573018
2014,00:00:08.056,0.0061621782078873115
2015,00:00:08.06,0.00358036404941231
2016,00:00:08.064,-0.029457132564857644
2017,00:00:08.068,-0.02726283931406213
2018,00:00:08.072,0.012853318825364158
2019,00:00:08.076,0.038490622537210584
2020,00:00:08.08,-0.012100382708013079
2021,00:00:08.084,0.00722763838712126
2022,00:00:08.088,0.009469381999224424
2023,00:00:08.092,-0.03336038370616733
2024,00:00:08.096,-0.00379915744997562
2025,00:00:08.1,0.012375047896057367
2026,00:00:08.104,0.013299906160682452
2027,00:00:08.108,-0.00035575905349105943
2028,00:00:08.112,-0.017117084469646167
2029,00:00:08.116,-0.002796915709041054
2030,00:00:08.12,0.01546399446669966
2031,00:00:08.124,-0.009731037076562622
2032,00:00:08.128,0.007697257213294509
2033,00:00:08.132,0.006717638621921684
2034,00:00:08.136,-0.014218144584447171
2035,00:00:08.14,-0.009283436229452489
2036,00:00:08.144,0.021792100975289917
2037,00:00:08.148,-0.002166995996958576
2038,00:00:08.152,-0.008451123663689946
2039,00:00:08.156,0.0008018056396394951
2040,00:00:08.16,-0.003963810857385411
2041,00:00:08.164,0.004834450315684084
2042,00:00:08.168,0.01479200855828826
2043,00:00:08.172,0.007809930364601349
2044,00:00:08.176,-0.03185062587726861
2045,00:00:08.18,-0.010567785589955785
2046,00:00:08.184,0.010041309462394532
2047,00:00:08.188,-0.0004479174967855202
2048,00:00:08.192,0.00765070179477333
2049,00:00:08.196,0.029896485852077652
2050,00:00:08.2,0.0018847639294108428
2051,00:00:08.204,-0.032702303375117495
2052,00:00:08.208,-0.010709770955145359
2053,00:00:08.212,0.0026182403089478603
2054,00:00:08.216,0.0075556347146630305
2055,00:00:08.22,0.0045054160291329
2056,00:00:08.224,0.0029234574176371115
2057,00:00:08.228,0.015712125197751482
2058,00:00:08.232,-0.03294285805895928
2059,00:00:08.236,0.015292140655219553
2060,00:00:08.24,0.00634520291350782
2061,00:00:08.244,0.00473078165668994
2062,00:00:08.248,-0.01682957378216092
2063,00:00:08.252,-0.021553620928898457
2064,00:00:08.256,0.03122775070369247
2065,00:00:08.26,0.01306897867470975
2066,00:00:08.264,-0.018407542840577648
2067,00:00:08.268,0.0007841209881007611
2068,00:00:08.272,-0.004044620611239226
2069,00:00:08.276,0.01773848657467165
2070,00:00:08.28,-0.03413322335109105
2071,00:00:08.284,-0.0020677449647337203
2072,00:00:08.288,0.03152683004736895
2073,00:00:08.292,0.02689004759304225
2074,00:00:08.296,-0.02501678606495257
2075,00:00:08.3,-0.0177079914137721
2076,00:00:08.304,-0.0065215068170800805
2077,00:00:08.308,-0.012162452097982189
2078,00:00:08.312,0.007673197891563181
2079,00:00:08.316,0.02912014583125715
2080,00:00:08.32,0.014025962445884952
2081,00:00:08.324,-0.006918079161550892
2082,00:00:08.328,0.00252837862353771
2083,00:00:08.332,-0.026833848562091568
2084,00:00:08.336,-0.029518945841118686
2085,00:00:08.34,0.012602817936567624
2086,00:00:08.344,0.02979339007288213
2087,00:00:08.348,0.007874737260863178
2088,00:00:08.352,-0.00631242501549423
2089,00:00:08.356,-0.007857704771595309
2090,00:00:08.36,-0.020913274260237792
2091,00:00:08.364,0.027930916752666252
2092,00:00:08.368,-0.0029957359656691603
2093,00:00:08.372,-0.01063449180219322
2094,00:00:08.376,0.01041778782382612
2095,00:00:08.38,0.018298013601452123
2096,00:00:08.384,-0.020768844056874517
2097,00:00:08.388,-0.018949229270219838
2098,00:00:08.392,0.004078413767274474
2099,00:00:08.396,0.01006429083645344
2100,00:00:08.4,0.01139119977597151
2101,00:00:08.404,0.0084079927764833
2102,00:00:08.408,-0.017177403671666962
2103,00:00:08.412,-0.024402152514085222
2104,00:00:08.416,0.007488397393899504
2105,00:00:08.42,0.024977475171908754
2106,00:00:08.424,0.01431308593600989
2107,00:00:08.428,-0.005536011391086506
2108,00:00:08.432,-0.012916935607790938
2109,00:00:08.436,-0.016655880550388233
2110,00:00:08.44,-0.006165050232084477
2111,00:00:08.444,0.03357972414232791
2112,00:00:08.448,-0.005920153824263256
2113,00:00:08.452,-0.04339151643216611
2114,00:00:08.456,0.036289385519921835
2115,00:00:08.46,0.01650055032223461
2116,00:00:08.464,-0.020542159676551822
2117,00:00:08.468,0.013533657765947251
2118,00:00:08.472,-0.01141836587339639
2119,00:00:08.476,-0.0022120546782389275
2120,00:00:08.48,0.01111128355842084
2121,00:00:08.484,-0.01917013921774921
2122,00:00:08.488,0.0023135545779950995
2123,00:00:08.492,0.01789486384950575
2124,00:00:08.496,-0.0048257486196234545
2125,00:00:08.5,-0.01152385072782635
2126,00:00:08.504,-0.021778196096420233
2127,00:00:08.508,0.02860368927940725
2128,00:00:08.512,0.05295712407678366
2129,00:00:08.516,-0.03860706312116233
2130,00:00:08.52,-0.03512607328593735
2131,00:00:08.524,-0.02337453560903667
2132,00:00:08.528,0.03360355366021398
2133,00:00:08.532,0.03758950252085921
2134,00:00:08.536,0.0035196353419450627
2135,00:00:08.54,-0.024348344129975854
2136,00:00:08.544,-0.02099195192568001
2137,00:00:08.548,-0.00035128300078213085
2138,00:00:08.552,0.01012540256488137
2139,00:00:08.556,-0.002209823869634412
2140,00:00:08.56,0.01875378296244892
2141,00:00:08.564,0.000635236559901387
2142,00:00:08.568,-0.011392250889912239
2143,00:00:08.572,0.002913583477493378
2144,00:00:08.576,-0.01446204318199306
2145,00:00:08.58,-0.006623536115512229
2146,00:00:08.584,0.006469311614637259
2147,00:00:08.588,0.030357735231518777
2148,00:00:08.592,0.01377892354503275
2149,00:00:08.596,-0.034208407858386684
2150,00:00:08.6,-0.031033335020765624
2151,00:00:08.604,0.01867436338216064
2152,00:00:08.608,0.03984364389907566
2153,00:00:08.612,-0.02445029403315861
2154,00:00:08.616,-0.011359155105310485
2155,00:00:08.62,0.00273743632715195
2156,00:00:08.624,0.014605632517486788
2157,00:00:08.628,0.006753428688170964
2158,00:00:08.632,-0.023959554906468814
2159,00:00:08.636,0.0035208405461162285
2160,00:00:08.64,-0.0013447464443743212
2161,00:00:08.644,0.010564402371528548
2162,00:00:08.648,-0.009413158026291061
2163,00:00:08.652,0.00333633727859705
2164,00:00:08.656,0.013932227157056387
2165,00:00:08.66,-0.0008929342438932543
2166,00:00:08.664,0.007497456856071951
2167,00:00:08.668,-0.0306576939765364
2168,00:00:08.672,-0.025170770473778237
2169,00:00:08.676,0.05032893549650906
2170,00:00:08.68,0.020688633143436125
2171,00:00:08.684,-0.034837517887353904
2172,00:00:08.688,-0.02733132964931425
2173,00:00:08.692,0.02188971079885961
2174,00:00:08.696,0.007072824984788899
2175,00:00:08.7,-0.005261875689029695
2176,00:00:08.704,0.023906507412903007
2177,00:00:08.708,0.00111520884092897
2178,00:00:08.712,-0.01980959507636724
2179,00:00:08.716,-0.01908199582248927
2180,00:00:08.72,0.02210726216435436
2181,00:00:08.724,0.004585064714774489
2182,00:00:08.728,-0.00835853535681963
2183,00:00:08.732,-0.022362191346473954
2184,00:00:08.736,0.01178006781265135
2185,00:00:08.74,0.0311876428313553
2186,00:00:08.744,0.0029582546558231193
2187,00:00:08.748,-0.01638583571184431
2188,00:00:08.752,-0.009934543864801502
2189,00:00:08.756,-0.004417505086166789
2190,00:00:08.76,-0.014340873807668731
2191,00:00:08.764,0.00635731581132855
2192,00:00:08.768,0.024832188151776798
2193,00:00:08.772,0.007760342676192518
2194,00:00:08.776,-0.0022188872098922695
2195,00:00:08.78,-0.01685172482393681
2196,00:00:08.784,-0.01102395087946206
2197,00:00:08.788,0.02645562635734676
2198,00:00:08.792,0.003480210623820312
2199,00:00:08.796,-0.03139704558998347
2200,00:00:08.8,-0.015359290875494501
2201,00:00:08.804,0.023528316989541068
2202,00:00:08.808,0.01409518904983997
2203,00:00:08.812,0.023322217224631462
2204,00:00:08.816,-0.020028584171086543
2205,00:00:08.82,-0.02415606612339613
2206,00:00:08.824,-0.01073109311982994
2207,00:00:08.828,0.03905479051172734
2208,00:00:08.832,-0.005757824168540542
2209,00:00:08.836,0.006545477081090261
2210,00:00:08.84,-0.02704768930561841
2211,00:00:08.844,-0.00860689440742132
2212,00:00:08.848,0.004852886719163514
2213,00:00:08.852,0.022449596435762907
2214,00:00:08.856,0.0006624661036767092
2215,00:00:08.86,0.012683039181865703
2216,00:00:08.864,-0.01020831451751291
2217,00:00:08.868,-0.00934389943722636
2218,00:00:08.872,-0.025790246902033638
2219,00:00:08.876,0.0045420606620609795
2220,00:00:08.88,0.021776322973892072
2221,00:00:08.884,0.011064757767599076
2222,00:00:08.888,0.00818966212682426
2223,00:00:08.892,-0.00999626377597454
2224,00:00:08.896,-0.03184569347649815
2225,00:00:08.9,-0.0003550812834873778
2226,00:00:08.904,0.026192123070359192
2227,00:00:08.908,0.014098527259193357
2228,00:00:08.912,-0.015445293392986061
2229,00:00:08.916,-0.012154645053669779
2230,00:00:08.92,0.006980102101806548
2231,00:00:08.924,-9.08421061467401e-05
2232,00:00:08.928,0.01269411342218517
2233,00:00:08.932,0.002095214935252443
2234,00:00:08.936,-0.01800245358026587
2235,00:00:08.94,-0.005881369346752759
2236,00:00:08.944,-0.01421115535777065
2237,00:00:08.948,0.029633822559844654
2238,00:00:08.952,0.0099163573468104
2239,00:00:08.956,-0.01762631128076459
2240,00:00:08.96,-0.0002505094525986299
2241,00:00:08.964,0.01712548069190229
2242,00:00:08.968,0.0017617890989640782
2243,00:00:08.972,-0.011277130106464028
2244,00:00:08.976,-0.01913954748306421
2245,00:00:08.98,-0.019311897172883633
2246,00:00:08.984,0.03645559819415216
2247,00:00:08.988,0.01994942035526035
2248,00:00:08.992,-0.0035809439141303305
2249,00:00:08.996,-0.017161980154924098
2250,00:00:09,-0.021902018459513756
2251,00:00:09.004,0.006225236924365159
2252,00:00:09.008,0.01314875180833045
2253,00:00:09.012,0.021348970010876663
2254,00:00:09.016,-0.01217093039304019
2255,00:00:09.02,-0.019494478241540537
2256,00:00:09.024,0.011987168196355957
2257,00:00:09.028,-0.02037590520922094
2258,00:00:09.032,0.04292896119295617
2259,00:00:09.036,0.014938788954168562
2260,00:00:09.04,-0.047304793726652875
2261,00:00:09.044,-0.030018659599591022
2262,00:00:09.048,0.0212921111378819
2263,00:00:09.052,0.022558240103535403
2264,00:00:09.056,0.010491808177903302
2265,00:00:09.06,-0.005670739657944069
2266,00:00:09.064,-0.005713966558687401
2267,00:00:09.068,-0.016779248602688278
2268,00:00:09.072,0.016001950949430462
2269,00:00:09.076,0.003911929205060059
2270,00:00:09.08,0.005604493489954619
2271,00:00:09.084,-0.02043446712195875
2272,00:00:09.088,-0.001407719217240767
2273,00:00:09.092,0.01371304475105721
2274,00:00:09.096,0.0015010191127657613
2275,00:00:09.1,-0.022668223129585392
2276,00:00:09.104,0.01776303607039153
2277,00:00:09.108,0.004852137994021198
2278,00:00:09.112,-0.001270970940822732
2279,00:00:09.116,-0.015414372202940306
2280,00:00:09.12,0.01166341116186229
2281,00:00:09.124,0.01328381407074631
2282,00:00:09.128,-0.016543366597034023
2283,00:00:09.132,-0.00153043400496244
2284,00:00:09.136,0.01128298614639788
2285,00:00:09.14,0.017464670265326294
2286,00:00:09.144,-0.035919830086641
2287,00:00:09.148,-0.02198631735518574
2288,00:00:09.152,0.03745083883404729
2289,00:00:09.156,-0.00868255883688107
2290,00:00:09.16,0.01078158366726712
2291,00:00:09.164,-0.006529294973006472
2292,00:00:09.168,0.006937423022463921
2293,00:00:09.172,0.0026029340224340497
2294,00:00:09.176,-0.003595018642954529
2295,00:00:09.18,-0.005870165070518847
2296,00:00:09.184,-0.008431608323007822
2297,00:00:09.188,-0.01169110290356913
2298,00:00:09.192,0.018598264548927504
2299,00:00:09.196,0.010213476431090435
2300,00:00:09.2,0.00561505137011409
2301,00:00:09.204,0.002554986771428961
2302,00:00:09.208,-0.0037172583397477206
2303,00:00:09.212,-0.03833255195058877
2304,00:00:09.216,-0.0060649036895483776
2305,00:00:09.22,0.025871135294437426
2306,00:00:09.224,0.026358005590736876
2307,00:00:09.228,-0.012037265580147508
2308,00:00:09.232,-0.002342911961022768
2309,00:00:09.236,-0.0027763542020693404
2310,00:00:09.24,-0.012185429688543059
2311,00:00:09.244,0.00273834518156945
2312,00:00:09.248,0.022036788403056548
2313,00:00:09.252,-0.02096667326986789
2314,00:00:09.256,-0.007135596126317981
2315,00:00:09.26,-0.0006341205444187002
2316,00:00:09.264,0.01744568503090706
2317,00:00:09.268,0.0050203797873109605
2318,00:00:09.272,-0.011025134474039074
2319,00:00:09.276,0.00888854952063412
2320,00:00:09.28,-0.007598857395350941
2321,00:00:09.284,-0.008011380326934162
2322,00:00:09.288,0.012218890944495799
2323,00:00:09.292,0.00983468082631589
2324,00:00:09.296,-0.0013997294008731998
2325,00:00:09.3,-0.03735022048931567
2326,00:00:09.304,-0.00972211186308419
2327,00:00:09.308,0.04025880014523865
2328,00:00:09.312,0.004907021997496491
2329,00:00:09.316,-0.00243605161085725
2330,00:00:09.32,0.01667685384745714
2331,00:00:09.324,-0.0354666877537966
2332,00:00:09.328,-0.004203984630294149
2333,00:00:09.332,0.01818553963676095
2334,00:00:09.336,-0.0015588086098432493
2335,00:00:09.34,-0.0062450922850985175
2336,00:00:09.344,0.004861253662966173
2337,00:00:09.348,-0.0008364876266568882
2338,00:00:09.352,0.00540980836376552
2339,00:00:09.356,0.0027175946161150898
2340,00:00:09.36,-0.02229787711985405
2341,00:00:09.364,0.01386053347960115
2342,00:00:09.368,-0.001778552890755241
2343,00:00:09.372,-0.0033845391008071606
2344,00:00:09.376,0.022578758653253282
2345,00:00:09.38,-0.0192337038461119
2346,00:00:09.384,-0.01697249861899763
2347,00:00:09.388,0.033300644368864554
2348,00:00:09.392,0.006722095888108022
2349,00:00:09.396,-0.02717370307072993
2350,00:00:09.4,-0.023146190214902163
2351,00:00:09.404,0.02841954398900277
2352,00:00:09.408,0.0226517531555146
2353,00:00:09.412,-0.014247887651436003
2354,00:00:09.416,-0.012408002337906482
2355,00:00:09.42,0.0023517198860645303
2356,00:00:09.424,0.003160315565764899
2357,00:00:09.428,-0.01399325509555637
2358,00:00:09.432,-0.0019494453008519505
2359,00:00:09.436,0.03639710746938361
2360,00:00:09.44,-0.01417434215545656
2361,00:00:09.444,0.00180865195579826
2362,00:00:09.448,0.00872747495304793
2363,00:00:09.452,-0.02624656422995027
2364,00:00:09.456,-0.02504022419452665
2365,00:00:09.46,0.0036388403968885476
2366,00:00:09.464,0.04641736646590288
2367,00:00:09.468,0.01827255589887497
2368,00:00:09.472,-0.004552906961180275
2369,00:00:09.476,-0.0486562447622418
2370,00:00:09.48,0.00823749986011535
2371,00:00:09.484,-0.00326949032023549
2372,00:00:09.488,-0.00329392217099667
2373,00:00:09.492,0.04118780698627238
2374,00:00:09.496,-0.006617400969844312
2375,00:00:09.5,-0.03759065782651307
2376,00:00:09.504,0.015590995084494332
2377,00:00:09.508,0.028295697004068667
2378,00:00:09.512,-0.026280701160430964
2379,00:00:09.516,-0.020298146526329188
2380,00:00:09.52,0.022759892046451527
2381,00:00:09.524,0.00989829783793539
2382,00:00:09.528,-0.005003723083063962
2383,00:00:09.532,0.004455659945961082
2384,00:00:09.536,-0.024652416817843924
2385,00:00:09.54,0.00872951210476458
2386,00:00:09.544,0.02591554226819425
2387,00:00:09.548,-0.03683867002837363
2388,00:00:09.552,0.01558390702120962
2389,00:00:09.556,0.02548868255689741
2390,00:00:09.56,-0.03156153485178947
2391,00:00:09.564,0.005086672375909991
2392,00:00:09.568,0.007560724858194562
2393,00:00:09.572,-0.00740212533855811
2394,00:00:09.576,0.001881928415969009
2395,00:00:09.58,-0.01255420106463135
2396,00:00:09.584,0.00554620753973723
2397,00:00:09.588,0.03693018574267627
2398,00:00:09.592,-0.03597235679626465
2399,00:00:09.596,-0.01323935342952608
2400,00:00:09.6,0.02993524284102023
2401,00:00:09.604,0.015330008231103419
2402,00:00:09.608,-0.014824066078290314
2403,00:00:09.612,-0.02305533469188958
2404,00:00:09.616,-0.016022321768105082
2405,00:00:09.62,0.02716203383170072
2406,00:00:09.624,0.00471170654054731
2407,00:00:09.628,0.01032184553332627
2408,00:00:09.632,0.0005394972395151832
2409,00:00:09.636,-0.01364405266940594
2410,00:00:09.64,-0.017334704054519527
2411,00:00:09.644,0.00944183580577373
2412,00:00:09.648,0.019762927142437596
2413,00:00:09.652,0.01340151531621811
2414,00:00:09.656,-0.044944324414245715
2415,00:00:09.66,-0.00911635463126003
2416,00:00:09.664,0.02839602809399368
2417,00:00:09.668,0.03387413732707498
2418,00:00:09.672,-0.00696006719954311
2419,00:00:09.676,-0.0573787958128378
2420,00:00:09.68,-0.00099479348864406
2421,00:00:09.684,0.03146191209089008
2422,00:00:09.688,0.028527002781629562
2423,00:00:09.692,-0.02387091889977458
2424,00:00:09.696,0.0021899961866438406
2425,00:00:09.7,-0.014326580334454782
2426,00:00:09.704,0.002307819406269113
2427,00:00:09.708,-0.0076206820667721305
2428,00:00:09.712,0.01845997315831477
2429,00:00:09.716,0.00779830722603947
2430,00:00:09.72,0.00269321515224874
2431,00:00:09.724,-0.016232303110882588
2432,00:00:09.728,-0.036615391378290965
2433,00:00:09.732,0.01617165200877933
2434,00:00:09.736,0.039765250112395734
2435,00:00:09.74,0.010627898256643674
2436,00:00:09.744,-0.01738781062886123
2437,00:00:09.748,-0.030358548974618316
2438,00:00:09.752,0.006130180263426155
2439,00:00:09.756,0.022329865023493812
2440,00:00:09.76,-0.01815089955925942
2441,00:00:09.764,0.0031393922399729404
2442,00:00:09.768,0.01708552148193122
2443,00:00:09.772,0.014149184804409718
2444,00:00:09.776,-0.05783585994504391
2445,00:00:09.78,0.001274458656553179
2446,00:00:09.784,0.02661859837826339
2447,00:00:09.788,0.025819655525992823
2448,00:00:09.792,0.01455193571746354
2449,00:00:09.796,-0.026147446886170607
2450,00:00:09.8,-0.01799751212820411
2451,00:00:09.804,-0.03261645417660476
2452,00:00:09.808,0.01453768170904364
2453,00:00:09.812,0.03769697365351027
2454,00:00:09.816,0.006534707628816246
2455,00:00:09.82,-0.0030102267628535698
2456,00:00:09.824,-0.013453954394208264
2457,00:00:09.828,-0.011486868083011366
2458,00:00:09.832,0.01464008120819927
2459,00:00:09.836,-0.01295578468125314
2460,00:00:09.84,0.0015547820948995658
2461,00:00:09.844,0.0005743529181927497
2462,00:00:09.848,-0.0012973353732377278
2463,00:00:09.852,0.007510380833991803
2464,00:00:09.856,0.013866743189282679
2465,00:00:09.86,0.013481337751727551
2466,00:00:09.864,-0.05622638860950248
2467,00:00:09.868,0.013086148304864759
2468,00:00:09.872,0.016613904153928192
2469,00:00:09.876,0.011903884493221988
2470,00:00:09.88,-0.02386059705168006
2471,00:00:09.884,0.01520393718965352
2472,00:00:09.888,0.007488044037017956
2473,00:00:09.892,0.004463118840249099
2474,00:00:09.896,-0.031126595451496607
2475,00:00:09.9,-0.022455631755292402
2476,00:00:09.904,0.04289752896875145
2477,00:00:09.908,0.0025739260017871406
2478,00:00:09.912,-0.02285787416622048
2479,00:00:09.916,0.030626302585005736
2480,00:00:09.92,0.0015618000179529225
2481,00:00:09.924,-0.019537258136551855
2482,00:00:09.928,-0.009695997461676601
2483,00:00:09.932,0.011235553072765445
2484,00:00:09.936,-0.0016047309181885761
2485,00:00:09.94,0.012521138181909919
2486,00:00:09.944,-0.01529854885302481
2487,00:00:09.948,-0.015618238789670613
2488,00:00:09.952,0.014495800540316834
2489,00:00:09.956,0.009551324881613261
2490,00:00:09.96,0.0013429371174424895
2491,00:00:09.964,0.011012766510248191
2492,00:00:09.968,-0.0075628633203450625
2493,00:00:09.972,-0.02560294652357698
2494,00:00:09.976,0.009364034602185715
2495,00:00:09.98,0.01330157043412327
2496,00:00:09.984,-0.002809223136864599
2497,00:00:09.988,0.0012029682111460698
2498,00:00:09.992,-0.02055128081701701
2499,00:00:09.996,0.009859479789156488
2500,00:00:10,0.0012364977446850348
2501,00:00:10.004,0.02418129227589817
2502,00:00:10.008,-0.004597262886818493
2503,00:00:10.012,-0.014844770776107869
2504,00:00:10.016,-0.00110741231765132
2505,00:00:10.02,-0.03360332269221544
2506,00:00:10.024,0.03013752214610573
2507,00:00:10.028,0.02507452305871993
2508,00:00:10.032,-0.0012301743845455353
2509,00:00:10.036,-0.03937809000490236
2510,00:00:10.04,0.011982697236817287
2511,00:00:10.044,0.02223041292745625
2512,00:00:10.048,0.00112122262362391
2513,00:00:10.052,-0.01163119473494589
2514,00:00:10.056,-0.020453159231692532
2515,00:00:10.06,0.00030957304261391977
2516,00:00:10.064,0.02698032977059484
2517,00:00:10.068,-0.007518501835875218
2518,00:00:10.072,-0.00611127982847392
2519,00:00:10.076,0.014095762278884646
2520,00:00:10.08,-0.008746030973270529
2521,00:00:10.084,-0.010304328156053102
2522,00:00:10.088,-0.00354409299325202
2523,00:00:10.092,0.009246617439202959
2524,00:00:10.096,0.01440578978508714
2525,00:00:10.1,0.011062302975915322
2526,00:00:10.104,-0.02523172227665779
2527,00:00:10.108,-0.008034579688683138
2528,00:00:10.112,-0.00474354275502265
2529,00:00:10.116,0.01294324244372546
2530,00:00:10.12,0.0011487179435789516
2531,00:00:10.124,0.0007701702415942903
2532,00:00:10.128,0.006062304135411978
2533,00:00:10.132,0.003966594114899641
2534,00:00:10.136,-0.008816306944936531
2535,00:00:10.14,-0.004116682102903733
2536,00:00:10.144,0.01426205039024357
2537,00:00:10.148,0.00031488522654399547
2538,00:00:10.152,-0.04221321316435933
2539,00:00:10.156,0.01183475856669247
2540,00:00:10.16,0.03600911842659113
2541,00:00:10.164,0.004362580119050107
2542,00:00:10.168,-0.032187243574298884
2543,00:00:10.172,-0.007910739514045419
2544,00:00:10.176,0.02721897899755282
2545,00:00:10.18,-0.0011011071619577732
2546,00:00:10.184,-0.0065953310113400195
2547,00:00:10.188,0.0025539519265294717
2548,00:00:10.192,-0.003673316678032273
2549,00:00:10.196,0.013893008464947381
2550,00:00:10.2,0.0007265849271789315
2551,00:00:10.204,-0.054295212146826116
2552,00:00:10.208,0.010890015866607452
2553,00:00:10.212,0.029711950803175548
2554,00:00:10.216,0.02521145215723663
2555,00:00:10.22,-0.00401585758663713
2556,00:00:10.224,-0.00586120085790753
2557,00:00:10.228,-0.011629326560068869
2558,00:00:10.232,-0.013261068845167761
2559,00:00:10.236,-0.005650847801007328
2560,00:00:10.24,-0.00793324410915374
2561,00:00:10.244,0.003994618309661751
2562,00:00:10.248,0.01804289082065227
2563,00:00:10.252,0.011683877790346738
2564,00:00:10.256,0.011478502536192578
2565,00:00:10.26,-0.0051730256527662295
2566,00:00:10.264,-0.00421350903343409
2567,00:00:10.268,-0.022797328070737442
2568,00:00:10.272,-0.011284153733868119
2569,00:00:10.276,0.02663666079752148
2570,00:00:10.28,-0.014589608646929259
2571,00:00:10.284,-0.0017403108067810796
2572,00:00:10.288,0.010345327187678777
2573,00:00:10.292,-0.002981112804263799
2574,00:00:10.296,0.016914708307012923
2575,00:00:10.3,-0.015886840876191858
2576,00:00:10.304,0.017716363945510204
2577,00:00:10.308,-0.008005190000403669
2578,00:00:10.312,-0.02424556273035703
2579,00:00:10.316,-0.010663540277164435
2580,00:00:10.32,0.030821744352579138
2581,00:00:10.324,0.029570235172286647
2582,00:00:10.328,-0.020028454833664045
2583,00:00:10.332,-0.034679617150686626
2584,00:00:10.336,0.016065574251115357
2585,00:00:10.34,0.02117011509835723
2586,00:00:10.344,-0.02940397011116146
2587,00:00:10.348,-0.007356697693467161
2588,00:00:10.352,0.02655007177963851
2589,00:00:10.356,0.004775915993377558
2590,00:00:10.36,-0.00986412074416872
2591,00:00:10.364,0.0051954246591777
2592,00:00:10.368,0.0020654760301113
2593,00:00:10.372,-0.0012302487157285205
2594,00:00:10.376,-0.011339076329022639
2595,00:00:10.38,-0.0034228402655571795
2596,00:00:10.384,0.0001835615839809161
2597,00:00:10.388,0.016652018530294303
2598,00:00:10.392,-0.013080359643026899
2599,00:00:10.396,0.003328773658722601
2600,00:00:10.4,0.00655085884500295
2601,00:00:10.404,-0.005139488377608349
2602,00:00:10.408,-0.00581130431964994
2603,00:00:10.412,0.0022493088617920797
2604,00:00:10.416,4.7786903451197066e-05
2605,00:00:10.42,0.014918496250174985
2606,00:00:10.424,0.0060110073536634445
2607,00:00:10.428,-0.02787723776418717
2608,00:00:10.432,0.00161379249766469
2609,00:00:10.436,0.022100099362432988
2610,00:00:10.44,-0.01559458579868074
2611,00:00:10.444,-0.0199709930384415
2612,00:00:10.448,0.009044460719451312
2613,00:00:10.452,0.03189381537958984
2614,00:00:10.456,-0.002263463160488751
2615,00:00:10.46,-0.024610581458546187
2616,00:00:10.464,0.006581559660844475
2617,00:00:10.468,0.0009437286498723599
2618,00:00:10.472,0.014444436295889325
2619,00:00:10.476,-0.005275420044199563
2620,00:00:10.48,-0.020931714592734386
2621,00:00:10.484,-0.013679474592208862
2622,00:00:10.488,0.01280413521453738
2623,00:00:10.492,0.03573944652453058
2624,00:00:10.496,0.00016336760018020955
2625,00:00:10.5,-0.04121529357507821
2626,00:00:10.504,0.005901005468331274
2627,00:00:10.508,0.021145563456229872
2628,00:00:10.512,0.01885808957740665
2629,00:00:10.516,-0.017257478553801782
2630,00:00:10.52,-0.02525368751958011
2631,00:00:10.524,0.0065563709940761015
2632,00:00:10.528,-0.0183176682330668
2633,00:00:10.532,0.011795367114245902
2634,00:00:10.536,0.03521748576895333
2635,00:00:10.54,-0.006296642124652859
2636,00:00:10.544,-0.005922202952206141
2637,00:00:10.548,0.002634824719280041
2638,00:00:10.552,-0.007790077943354839
2639,00:00:10.556,-0.00178098259493709
2640,00:00:10.56,-0.01136842987034469
2641,00:00:10.564,-0.02644907223293555
2642,00:00:10.568,0.03281731496099384
2643,00:00:10.572,0.026320338249206588
2644,00:00:10.576,0.00333509582560509
2645,00:00:10.58,-0.024939095834270123
2646,00:00:10.584,-0.00151515455218032
2647,00:00:10.588,-0.0016189096495509104
2648,00:00:10.592,-0.0163265333976597
2649,00:00:10.596,0.006925234571099329
2650,00:00:10.6,-0.00455453037284311
2651,00:00:10.604,0.029703550739213866
2652,00:00:10.608,0.012452368158847081
2653,00:00:10.612,-0.01084219757467509
2654,00:00:10.616,-0.012999585131183267
2655,00:00:10.62,0.0012483464379329247
2656,00:00:10.624,-0.010608690092340091
2657,00:00:10.628,-0.026546322740614428
2658,00:00:10.632,0.003138387342914938
2659,00:00:10.636,0.0427046921104193
2660,00:00:10.64,0.01873051747679705
2661,00:00:10.644,-0.00734901812393219
2662,00:00:10.648,-0.012399135157465942
2663,00:00:10.652,-0.01113400747999549
2664,00:00:10.656,-0.01649003004422413
2665,00:00:10.66,0.01535854465328158
2666,00:00:10.664,-0.015824017173144918
2667,00:00:10.668,-0.014015475309861363
2668,00:00:10.672,0.031230021268129366
2669,00:00:10.676,0.03178977547213435
2670,00:00:10.68,-0.00958666182123125
2671,00:00:10.684,-0.01039043904165737
2672,00:00:10.688,-0.018154205288738064
2673,00:00:10.692,-0.01105508930049837
2674,00:00:10.696,-0.0002281120978295816
2675,00:00:10.7,0.01120904606068511
2676,00:00:10.704,0.008818182162940509
2677,00:00:10.708,0.01115039782598615
2678,00:00:10.712,0.009172322810627524
2679,00:00:10.716,-0.027461121091619183
2680,00:00:10.72,0.009146735348622275
2681,00:00:10.724,-0.01008484925841912
2682,00:00:10.728,-0.020758762839250322
2683,00:00:10.732,0.00965843664016574
2684,00:00:10.736,0.04269491089507934
2685,00:00:10.74,-0.011672194581478838
2686,00:00:10.744,-0.02375272940844296
2687,00:00:10.748,0.017431767802918288
2688,00:00:10.752,-0.003801042446866635
2689,00:00:10.756,-0.01127254334278404
2690,00:00:10.76,-0.0034743866417556975
2691,00:00:10.764,0.016678299201885252
2692,00:00:10.768,0.0031823351746425015
2693,00:00:10.772,-0.01090283691883087
2694,00:00:10.776,-0.004308318253606561
2695,00:00:10.78,-0.0112842521630228
2696,00:00:10.784,0.02984080649912358
2697,00:00:10.788,0.001093986473279072
2698,00:00:10.792,-0.015314224350731782
2699,00:00:10.796,-0.00232256983872504
2700,00:00:10.8,0.0037682605907320994
2701,00:00:10.804,-0.014660418150015222
2702,00:00:10.808,0.01927472063107413
2703,00:00:10.812,0.005388687364757063
2704,00:00:10.816,-0.015671051281969967
2705,00:00:10.82,0.008198975585401062
2706,00:00:10.824,0.00997163797728718
2707,00:00:10.828,-0.009721928741782859
2708,00:00:10.832,-0.013194948958698653
2709,00:00:10.836,0.007978703244589274
2710,00:00:10.84,0.006816547596827148
2711,00:00:10.844,-0.013927707215771079
2712,00:00:10.848,-0.010270109283737835
2713,00:00:10.852,0.029655312187969657
2714,00:00:10.856,0.01181987003656106
2715,00:00:10.86,-0.017926681437529596
2716,00:00:10.864,-0.0048737956094555565
2717,00:00:10.868,0.0013918155455030449
2718,00:00:10.872,0.00039603281766176007
2719,00:00:10.876,0.003022290708031508
2720,00:00:10.88,-0.01148978527635336
2721,00:00:10.884,0.0021612648852169496
2722,00:00:10.888,0.007143659517168988
2723,00:00:10.892,-0.0028871564427390703
2724,00:00:10.896,-0.0013366236817091703
2725,00:00:10.9,0.009960259252693504
2726,00:00:10.904,-0.01977521041408181
2727,00:00:10.908,0.021437669871374937
2728,00:00:10.912,0.01980309211649001
2729,00:00:10.916,-0.044764451333321575
2730,00:00:10.92,-0.00500163109973073
2731,00:00:10.924,0.01844806224107745
2732,00:00:10.928,0.02804968622513114
2733,00:00:10.932,-0.02228234263020573
2734,00:00:10.936,-0.015786472707986828
2735,00:00:10.94,0.011614074930548661
2736,00:00:10.944,0.002676393196452413
2737,00:00:10.948,-0.008719901430595204
2738,00:00:10.952,0.013284306158311643
2739,00:00:10.956,0.00024508498609065316
2740,00:00:10.96,-0.0041549048182787365
2741,00:00:10.964,0.004655915714465664
2742,00:00:10.968,-0.005125723051605747
2743,00:00:10.972,-0.01613060315139592
2744,00:00:10.976,-0.015259708045050521
2745,00:00:10.98,0.03534314071293914
2746,00:00:10.984,0.03873683605343099
2747,00:00:10.988,-0.03707746649160985
2748,00:00:10.992,-0.03459975728765129
2749,00:00:10.996,0.016842683340655674
2750,00:00:11,0.010143739636987451
2751,00:00:11.004,0.009083522880246164
2752,00:00:11.008,-0.0010234607616439488
2753,00:00:11.012,-0.008955783938290551
2754,00:00:11.016,0.01422094984445723
2755,00:00:11.02,-0.024872902780771297
2756,00:00:11.024,-0.00098286988213658
2757,00:00:11.028,0.01666378043591974
2758,00:00:11.032,0.01045849849469959
2759,00:00:11.036,-0.017140631098300264
2760,00:00:11.04,-0.010068563977256419
2761,00:00:11.044,0.016933824168518137
2762,00:00:11.048,-0.01137612026650459
2763,00:00:11.052,0.02084319898858667
2764,00:00:11.056,-0.008959740574937314
2765,00:00:11.06,-0.0014478251832770218
2766,00:00:11.064,-0.014324387215310711
2767,00:00:11.068,0.013388194318395129
2768,00:00:11.072,0.001959251152584328
2769,00:00:11.076,-0.0109043887350708
2770,00:00:11.08,0.011326048523187669
2771,00:00:11.084,-0.0005375812761485507
2772,00:00:11.088,-0.02867558132857086
2773,00:00:11.092,0.012746664404403422
2774,00:00:11.096,0.04795151459984478
2775,00:00:11.1,-0.016119853826239726
2776,00:00:11.104,-0.028707084944471672
2777,00:00:11.108,0.01710546133108439
2778,00:00:11.112,-0.02027460420504218
2779,00:00:11.116,-0.01241847523488101
2780,00:00:11.12,0.020764581859111772
2781,00:00:11.124,0.014077636878937459
2782,00:00:11.128,-0.00399960787035525
2783,00:00:11.132,-0.003783774562180049
2784,00:00:11.136,-0.01078565162606537
2785,00:00:11.14,0.011029120534658472
2786,00:00:11.144,0.002658908975718084
2787,00:00:11.148,0.004177484486717733
2788,00:00:11.152,-0.0153510360978544
2789,00:00:11.156,-0.0011468618176877594
2790,00:00:11.16,0.008084796718321735
2791,00:00:11.164,-0.00011556735262274916
2792,00:00:11.168,-0.01815466809784997
2793,00:00:11.172,0.01724474749062214
2794,00:00:11.176,0.021938869496807407
2795,00:00:11.18,-0.0010113805183209496
2796,00:00:11.184,-0.02867058507399632
2797,00:00:11.188,-0.017061528167687343
2798,00:00:11.192,0.01832761475816369
2799,00:00:11.196,0.00930200098082423
2800,00:00:11.2,0.0027095122059108668
2801,00:00:11.204,-0.0012225470854900795
2802,00:00:11.208,-0.002629735739901661
2803,00:00:11.212,0.00398740929085761
2804,00:00:11.216,-0.01321152178570632
2805,00:00:11.22,0.005212606221903116
2806,00:00:11.224,-0.0030391365580726393
2807,00:00:11.228,0.0065243353601545095
2808,00:00:11.232,-0.00635659135878086
2809,00:00:11.236,0.0051109003343299195
2810,00:00:11.24,0.02768172044306994
2811,00:00:11.244,-0.022892045322805647
2812,00:00:11.248,-0.010008539073169197
2813,00:00:11.252,-0.023777878144755942
2814,00:00:11.256,0.014595253975130652
2815,00:00:11.26,0.02735836477950214
2816,00:00:11.264,0.0014936741208657657
2817,00:00:11.268,-0.016171372961252907
2818,00:00:11.272,0.00021421903511509906
2819,00:00:11.276,-0.003347548423334963
2820,00:00:11.28,0.008959454338764765
2821,00:00:11.284,0.00813302153255791
2822,00:00:11.288,-0.019095460651442412
2823,00:00:11.292,0.011478554399218407
2824,00:00:11.296,-0.0067103438777849096
2825,00:00:11.3,-0.01561022992245849
2826,00:00:11.304,0.014712462900206464
2827,00:00:11.308,0.023064771638018986
2828,00:00:11.312,-0.00778812868520618
2829,00:00:11.316,-0.0178812061203644
2830,00:00:11.32,-0.01240159559529278
2831,00:00:11.324,0.012929514487041155
2832,00:00:11.328,0.00314792967401445
2833,00:00:11.332,0.012649953656364246
2834,00:00:11.336,0.0007272113580256705
2835,00:00:11.34,-0.01897261076373983
2836,00:00:11.344,0.0066445799311622995
2837,00:00:11.348,0.005941853742115191
2838,00:00:11.352,-0.00255263922736048
2839,00:00:11.356,-0.0313087054528296
2840,00:00:11.36,0.016995302401483108
2841,00:00:11.364,0.03572702500969175
2842,00:00:11.368,-0.00511327618733049
2843,00:00:11.372,-0.015263597655575717
2844,00:00:11.376,0.01009532375610429
2845,00:00:11.38,-0.02633886551484467
2846,00:00:11.384,-0.0256935167126358
2847,00:00:11.388,0.01824366289656609
2848,00:00:11.392,0.04614800051786008
2849,00:00:11.396,0.004853281890973459
2850,00:00:11.4,-0.030410239938646583
2851,00:00:11.404,-0.014691606163978582
2852,00:00:11.408,0.027787097729742485
2853,00:00:11.412,-0.004804711323231462
2854,00:00:11.416,-0.03944976674392817
2855,00:00:11.42,0.01606605958659198
2856,00:00:11.424,0.01511803502216932
2857,00:00:11.428,0.0022797775454819103
2858,00:00:11.432,0.0195005653658882
2859,00:00:11.436,-0.0022835731506347717
2860,00:00:11.44,-0.013815348822390612
2861,00:00:11.444,-0.021590299904346417
2862,00:00:11.448,-0.01275625801645219
2863,00:00:11.452,0.01558055123314264
2864,00:00:11.456,0.009198818355798721
2865,00:00:11.46,0.02037283591926098
2866,00:00:11.464,0.005447484756587067
2867,00:00:11.468,-0.01291481335647402
2868,00:00:11.472,-0.011379623785614957
2869,00:00:11.476,-0.01662604487501087
2870,00:00:11.48,0.0030648640822619204
2871,00:00:11.484,0.023469084873795447
2872,00:00:11.488,-0.00021797243971377004
2873,00:00:11.492,-0.001720078755170101
2874,00:00:11.496,0.0003071671817451707
2875,00:00:11.5,-0.02022156096063555
2876,00:00:11.504,0.01896876387763765
2877,00:00:11.508,-0.0023134946823120603
2878,00:00:11.512,-0.02232547826133669
2879,00:00:11.516,0.009246753703337158
2880,00:00:11.52,0.012160380836576262
2881,00:00:11.524,0.009397039655595978
2882,00:00:11.528,0.011178458458744
2883,00:00:11.532,-0.011021644400898358
2884,00:00:11.536,-0.010428535810206079
2885,00:00:11.54,-0.008083648688625553
2886,00:00:11.544,-0.01990182045847177
2887,00:00:11.548,0.0006256703054532391
2888,00:00:11.552,0.014302758499980101
2889,00:00:11.556,0.04892608989030127
2890,00:00:11.56,0.012638396823604119
2891,00:00:11.564,-0.05726584373041983
2892,00:00:11.568,-0.019074975512921838
2893,00:00:11.572,0.007571095600724211
2894,00:00:11.576,0.018699750879022762
2895,00:00:11.58,0.00452124187722802
2896,00:00:11.584,-0.008440789300948381
2897,00:00:11.588,0.00877503585070375
2898,00:00:11.592,0.013838271872373291
2899,00:00:11.596,0.0008331785211339553
2900,00:00:11.6,-0.030333484290167717
2901,00:00:11.604,-0.012481782410759484
2902,00:00:11.608,0.020826718653552276
2903,00:00:11.612,-0.0017851099837571409
2904,00:00:11.616,0.0041076228953898
2905,00:00:11.62,0.00888329418376089
2906,00:00:11.624,0.006491916836239399
2907,00:00:11.628,-0.005841422127559779
2908,00:00:11.632,-0.0050578296650201
2909,00:00:11.636,-0.020601368276402385
2910,00:00:11.64,0.005281655176077038
2911,00:00:11.644,0.010285715805366677
2912,00:00:11.648,-0.00826334289740771
2913,00:00:11.652,0.03117232513614003
2914,00:00:11.656,-0.01528821210376919
2915,00:00:11.66,-0.02182096456817814
2916,00:00:11.664,0.019317156169563532
2917,00:00:11.668,0.007645744131878018
2918,00:00:11.672,-0.020446531940251592
2919,00:00:11.676,-0.0026882225647568694
2920,00:00:11.68,0.018983991583809298
2921,00:00:11.684,0.008150841167662291
2922,00:00:11.688,-0.021830821526236856
2923,00:00:11.692,-0.0030068293563090326
2924,00:00:11.696,0.00056220300029963
2925,00:00:11.7,0.009292730188462883
2926,00:00:11.704,0.003991300705820329
2927,00:00:11.708,0.002275273436680429
2928,00:00:11.712,0.0107338518137112
2929,00:00:11.716,-0.01766815723385657
2930,00:00:11.72,-0.017342095787171285
2931,00:00:11.724,-0.0011108547914773202
2932,00:00:11.728,0.01442723977379505
2933,00:00:11.732,0.04318962898105387
2934,00:00:11.736,-0.05293170176446435
2935,00:00:11.74,-0.0021708302956540103
2936,00:00:11.744,0.035677104257047176
2937,00:00:11.748,0.00299074221402407
2938,00:00:11.752,-0.05223604245111348
2939,00:00:11.756,-0.00957922614179552
2940,00:00:11.76,0.05346985161304475
2941,00:00:11.764,0.01325256889685988
2942,00:00:11.768,-0.02213148912414907
2943,00:00:11.772,0.00034106872044504036
2944,00:00:11.776,-0.00710600195452571
2945,00:00:11.78,0.01142141409218312
2946,00:00:11.784,-0.024684723699465408
2947,00:00:11.788,-0.0149313965812325
2948,00:00:11.792,0.0185235284734517
2949,00:00:11.796,0.021792063489556292
2950,00:00:11.8,0.00624152226373554
2951,00:00:11.804,0.009866319247521465
2952,00:00:11.808,-0.020265015307813876
2953,00:00:11.812,-0.02030434319749472
2954,00:00:11.816,0.004706199048087
2955,00:00:11.82,-0.005407221615314488
2956,00:00:11.824,0.0002501245471648871
2957,00:00:11.828,0.006448406842537221
2958,00:00:11.832,0.028655468486249402
2959,00:00:11.836,-0.010392972209956493
2960,00:00:11.84,-0.01093174971174449
2961,00:00:11.844,0.0017149008344858902
2962,00:00:11.848,0.005514145246706901
2963,00:00:11.852,0.01133068413037108
2964,00:00:11.856,-0.025680449987703427
2965,00:00:11.86,-0.01541345287114382
2966,00:00:11.864,0.011409842729335696
2967,00:00:11.868,-0.0113409014884382
2968,00:00:11.872,0.028031803201884
2969,00:00:11.876,0.0394461734686047
2970,00:00:11.88,-0.02271886239759628
2971,00:00:11.884,-0.05217064588214264
2972,00:00:11.888,0.014044706535059952
2973,00:00:11.892,0.018854610854759802
2974,00:00:11.896,0.006062284111976619
2975,00:00:11.9,-0.002373412833549081
2976,00:00:11.904,-0.011427049234043814
2977,00:00:11.908,-0.00432052882388234
2978,00:00:11.912,0.009540688304696189
2979,00:00:11.916,-0.0039614411070942905
2980,00:00:11.92,0.022256386931985592
2981,00:00:11.924,-0.0075807931134477605
2982,00:00:11.928,-0.02558761299587787
2983,00:00:11.932,0.008545512333512306
2984,00:00:11.936,0.0059505132958293
2985,00:00:11.94,-0.0018147299997508509
2986,00:00:11.944,-0.012924229842610659
2987,00:00:11.948,0.01776309788692748
2988,00:00:11.952,0.02684932015836239
2989,00:00:11.956,-0.024955317785497734
2990,00:00:11.96,-0.02269521518610413
2991,00:00:11.964,0.01606673013884576
2992,00:00:11.968,0.01220933708827943
2993,00:00:11.972,-0.02943234221311282
2994,00:00:11.976,0.017890709335915692
2995,00:00:11.98,0.02356462553143506
2996,00:00:11.984,-0.017621090053580733
2997,00:00:11.988,-0.01180314552038909
2998,00:00:11.992,-0.004702107311459255
2999,00:00:11.996,0.0014439787846640684
3000,00:00:12,0.008854777319356799
3001,00:00:12.004,0.00920215272344653
3002,00:00:12.008,-0.00193729600869119
3003,00:00:12.012,0.014882367744576179
3004,00:00:12.016,-0.013883097562938939
3005,00:00:12.02,-0.027439067489467596
3006,00:00:12.024,0.004096887430932841
3007,00:00:12.028,0.0087424757075496
3008,00:00:12.032,0.01147896517068147
3009,00:00:12.036,0.0038515537744388
3010,00:00:12.04,0.013806491770083128
3011,00:00:12.044,-0.008346241374965759
3012,00:00:12.048,-0.030644048500107646
3013,00:00:12.052,-0.01011841255240143
3014,00:00:12.056,0.03566790604963897
3015,00:00:12.06,0.016925317700952288
3016,00:00:12.064,-0.02037426584865896
3017,00:00:12.068,-0.01668181736022234
3018,00:00:12.072,0.0015214529121294635
3019,00:00:12.076,0.011518930317834011
3020,00:00:12.08,0.010423506377264857
3021,00:00:12.084,-0.006855724379420289
3022,00:00:12.088,-0.028580133337527475
3023,00:00:12.092,0.01469260244630281
3024,00:00:12.096,0.024103469215333437
3025,00:00:12.1,-0.0012224549427628495
3026,00:00:12.104,-0.010880163055844603
3027,00:00:12.108,-0.009337925526779145
3028,00:00:12.112,0.01131117035401981
3029,00:00:12.116,0.01333408232312654
3030,00:00:12.12,-0.026378085138276226
3031,00:00:12.124,-0.012465264415368452
3032,00:00:12.128,0.00085595226846635
3033,00:00:12.132,0.04590794537216425
3034,00:00:12.136,-0.01345615030732006
3035,00:00:12.14,-0.0246979678777279
3036,00:00:12.144,0.009999656234867878
3037,00:00:12.148,0.0016548495041206418
3038,00:00:12.152,0.004783836731803599
3039,00:00:12.156,0.007448787335306399
3040,00:00:12.16,-0.008105144486762582
3041,00:00:12.164,0.004340244922786949
3042,00:00:12.168,-0.02495351433753965
3043,00:00:12.172,-0.012460827769245956
3044,00:00:12.176,0.03942806343547997
3045,00:00:12.18,0.004738629068015142
3046,00:00:12.184,-0.015405136393383138
3047,00:00:12.188,0.012965403846465098
3048,00:00:12.192,0.0015525066992268018
3049,00:00:12.196,-0.022998031228780712
3050,00:00:12.2,-0.010810088366270081
3051,00:00:12.204,0.00934266555123031
3052,00:00:12.208,0.01046942092943937
3053,00:00:12.212,0.027869393758010085
3054,00:00:12.216,-0.01988630846608429
3055,00:00:12.22,-0.01660228113178161
3056,00:00:12.224,-0.012242463417351239
3057,00:00:12.228,0.025710559100843928
3058,00:00:12.232,0.02332613038015554
3059,00:00:12.236,-0.027722806204110422
3060,00:00:12.24,-0.02404964622110126
3061,00:00:12.244,0.008358886698260942
3062,00:00:12.248,0.032502005342394086
3063,00:00:12.252,0.002802338683977699
3064,00:00:12.256,-0.02365643082885075
3065,00:00:12.26,-0.010606838128296674
3066,00:00:12.264,0.011452738690422848
3067,00:00:12.268,0.030343844366143395
3068,00:00:12.272,-0.03262216981966044
3069,00:00:12.276,-0.016866277059307332
3070,00:00:12.28,0.01248012576252226
3071,00:00:12.284,0.016728806600440245
3072,00:00:12.288,0.01068346563261003
3073,00:00:12.292,-0.0073199067264795685
3074,00:00:12.296,-0.016997478087432683
3075,00:00:12.3,-0.019331100862473277
3076,00:00:12.304,0.0260893874801695
3077,00:00:12.308,0.008208762388676391
3078,00:00:12.312,0.011922597885131789
3079,00:00:12.316,-0.00510171591304243
3080,00:00:12.32,-0.01904290495440368
3081,00:00:12.324,-0.01721178437583147
3082,00:00:12.328,-0.0036695646122098
3083,00:00:12.332,0.02448602695949376
3084,00:00:12.336,0.02104664442595091
3085,00:00:12.34,0.00778797036036849
3086,00:00:12.344,-0.032229430507868556
3087,00:00:12.348,-0.023527599754743233
3088,00:00:12.352,0.022791190538555422
3089,00:00:12.356,0.02018365915864707
3090,00:00:12.36,-0.03347934741759677
3091,00:00:12.364,0.01896696770563718
3092,00:00:12.368,0.02197065041400495
3093,00:00:12.372,-0.01047877827659254
3094,00:00:12.376,-0.03437769156880681
3095,00:00:12.38,0.0050893040606752
3096,00:00:12.384,0.03151242295280097
3097,00:00:12.388,-0.00978196575306357
3098,00:00:12.392,-0.015597231060382879
3099,00:00:12.396,0.01628075540065766
3100,00:00:12.4,0.012908757722470923
3101,00:00:12.404,-0.016535012051463148
3102,00:00:12.408,-0.0013372327666729715
3103,00:00:12.412,-0.028677945956587778
3104,00:00:12.416,-0.0169480750337243
3105,00:00:12.42,0.05867313640192151
3106,00:00:12.424,0.027424584142863723
3107,00:00:12.428,-0.02193166944198311
3108,00:00:12.432,-0.02030984358862039
3109,00:00:12.436,-0.01031075464561579
3110,00:00:12.44,0.0017417168710380914
3111,00:00:12.444,0.00955466864979821
3112,00:00:12.448,-0.0014839475188637148
