,Elapsed Time,EMG
0,00:00:00,7.167668879032139
1,00:00:00.004,-6.816636949777607
2,00:00:00.008,-5.669773221015932
3,00:00:00.012,-0.6268515922129155
4,00:00:00.016,2.910075888037686
5,00:00:00.02,3.572721660137181
6,00:00:00.024,2.177370950579638
7,00:00:00.028,0.25396282318979524
8,00:00:00.032,-1.0259004682302475
9,00:00:00.036,-1.4169463068246881
10,00:00:00.04,-1.0345590785145764
11,00:00:00.044,-0.37675848044455046
12,00:00:00.048,0.1455712416209285
13,00:00:00.052,0.4044881034642462
14,00:00:00.056,0.38319894671440163
15,00:00:00.06,0.20347496494650816
16,00:00:00.064,0.00419400120154023
17,00:00:00.068,-0.1009174031205475
18,00:00:00.072,-0.12852967204526047
19,00:00:00.076,-0.09677193686366081
20,00:00:00.08,-0.0015773014165460803
21,00:00:00.084,0.03375407122075558
22,00:00:00.088,0.025708042085170777
23,00:00:00.092,-0.0021502496674656695
24,00:00:00.096,0.008077452657744282
25,00:00:00.1,0.029949015704914893
26,00:00:00.104,0.0019629653543233884
27,00:00:00.108,-0.00509565515676514
28,00:00:00.112,-0.01244141074130312
29,00:00:00.116,-0.02058340481016785
30,00:00:00.12,-0.004812041705008601
31,00:00:00.124,0.010686481662560253
32,00:00:00.128,0.00590699934400618
33,00:00:00.132,0.00589342159219086
34,00:00:00.136,0.00811203336343169
35,00:00:00.14,-0.0076293418969726155
36,00:00:00.144,-0.02050778316333888
37,00:00:00.148,0.006675621669273827
38,00:00:00.152,0.011195073093404066
39,00:00:00.156,0.0205047541530803
40,00:00:00.16,-0.008057376308897798
41,00:00:00.164,-0.01525293139275166
42,00:00:00.168,-0.02051652316004038
43,00:00:00.172,0.0040473325643688406
44,00:00:00.176,0.014446274319197983
45,00:00:00.18,0.00394136324030114
46,00:00:00.184,0.001865412952611226
47,00:00:00.188,0.0052565640071407
48,00:00:00.192,0.0022860739845782596
49,00:00:00.196,-0.001982329980819487
50,00:00:00.2,-0.012706866720691282
51,00:00:00.204,-0.0025991079164668887
52,00:00:00.208,-0.0024547799694119047
53,00:00:00.212,0.0004562139511108303
54,00:00:00.216,0.011322628939524262
55,00:00:00.22,0.006244041724130501
56,00:00:00.224,0.0009197369217872602
57,00:00:00.228,-0.01327168056741361
58,00:00:00.232,0.00150015343388077
59,00:00:00.236,-0.0120259013492614
60,00:00:00.24,0.007764995563775302
61,00:00:00.244,0.024370077997446088
62,00:00:00.248,-0.01342882052995265
63,00:00:00.252,-0.01491404930129649
64,00:00:00.256,0.010152991613722434
65,00:00:00.26,0.01586748438421633
66,00:00:00.264,-0.01062825077679004
67,00:00:00.268,-0.016178005025722093
68,00:00:00.272,-0.008712921669939535
69,00:00:00.276,0.005695062573067891
70,00:00:00.28,0.030984750017523804
71,00:00:00.284,-0.00567736267112193
72,00:00:00.288,-0.007047327002510429
73,00:00:00.292,-0.005394802314185653
74,00:00:00.296,-0.0024417507811449438
75,00:00:00.3,0.00016788837092462385
76,00:00:00.304,0.00154797092545777
77,00:00:00.308,-0.00664161052554846
78,00:00:00.312,0.01305814110673964
79,00:00:00.316,0.0069572629872709495
80,00:00:00.32,-0.006896456121467057
81,00:00:00.324,-0.009621329663787032
82,00:00:00.328,-0.0032823541405377957
83,00:00:00.332,0.00676045008003711
84,00:00:00.336,-0.0012569785612868128
85,00:00:00.34,0.008581969828810541
86,00:00:00.344,-0.0013689215411432142
87,00:00:00.348,-0.01425663311965763
88,00:00:00.352,0.01963826040446292
89,00:00:00.356,-0.004217338748276241
90,00:00:00.36,-0.00596422550734132
91,00:00:00.364,-0.0017370303539792084
92,00:00:00.368,-0.01506533380597831
93,00:00:00.372,-0.00271090492606163
94,00:00:00.376,0.040302384632013896
95,00:00:00.38,0.00956416828557849
96,00:00:00.384,-0.02986511611379684
97,00:00:00.388,-0.019914388365577882
98,00:00:00.392,0.00808583223260939
99,00:00:00.396,0.007856135955080439
100,00:00:00.4,0.00615718471817676
101,00:00:00.404,0.009167826414341117
102,00:00:00.408,-0.008236477093305442
103,00:00:00.412,0.0011630950029939222
104,00:00:00.416,0.001081217313185335
105,00:00:00.42,-0.013806528600980531
106,00:00:00.424,-0.005444377748062838
107,00:00:00.428,0.008741921512410052
108,00:00:00.432,0.010761791025288401
109,00:00:00.436,0.0035018062253584555
110,00:00:00.44,-0.0050908813718706395
111,00:00:00.444,-0.0116841800045222
112,00:00:00.448,0.00337157049216331
113,00:00:00.452,0.005299614218529316
114,00:00:00.456,0.00447731395252049
115,00:00:00.46,-0.00886749359779062
116,00:00:00.464,0.004277416039258241
117,00:00:00.468,0.007141435868106807
118,00:00:00.472,-0.0070048021152615495
119,00:00:00.476,-0.012608196586370479
120,00:00:00.48,0.00870550877880306
121,00:00:00.484,0.011799113359302322
122,00:00:00.488,-0.01326188025996087
123,00:00:00.492,-0.011364293808583215
124,00:00:00.496,0.03206631343346095
125,00:00:00.5,-0.010422252235002812
126,00:00:00.504,-0.00867407373152674
127,00:00:00.508,-0.0010468673426657898
128,00:00:00.512,-0.004773255670443169
129,00:00:00.516,0.00541807974877884
130,00:00:00.52,0.005682318762410436
131,00:00:00.524,0.0001395378349116072
132,00:00:00.528,-0.001160356876425796
133,00:00:00.532,0.001098748762160538
134,00:00:00.536,-0.0024786109570413906
135,00:00:00.54,-0.00802711897995323
136,00:00:00.544,0.02442312258062888
137,00:00:00.548,-0.0016207921580644372
138,00:00:00.552,-0.027271397295407993
139,00:00:00.556,-0.00780143728479743
140,00:00:00.56,0.0027782789547927712
141,00:00:00.564,0.019692583271535127
142,00:00:00.568,0.009874575538560745
143,00:00:00.572,-0.00038667267654091467
144,00:00:00.576,-0.00601227034348995
145,00:00:00.58,0.003908693790435789
146,00:00:00.584,-0.01781123678665604
147,00:00:00.588,-0.01720005122479056
148,00:00:00.592,0.03671026416122912
149,00:00:00.596,-0.007212434022221676
150,00:00:00.6,-0.010467768355738373
151,00:00:00.604,-3.4500844776691117e-06
152,00:00:00.608,0.00879498873837292
153,00:00:00.612,0.004553963080979881
154,00:00:00.616,-0.01587336673401297
155,00:00:00.62,0.013722596690058708
156,00:00:00.624,0.009930992498993867
157,00:00:00.628,-0.02002689451910555
158,00:00:00.632,-0.009122387273237123
159,00:00:00.636,0.01378350192680955
160,00:00:00.64,0.00730017537716777
161,00:00:00.644,0.001673060643952335
162,00:00:00.648,-0.006335384678095583
163,00:00:00.652,-0.014237640483770521
164,00:00:00.656,-0.0005418755463324426
165,00:00:00.66,0.02823846251703795
166,00:00:00.664,-0.01581348828040064
167,00:00:00.668,-0.008222552714869382
168,00:00:00.672,0.009538921673083685
169,00:00:00.676,-8.992757648229415e-05
170,00:00:00.68,-0.009649501065723596
171,00:00:00.684,0.01593116426374764
172,00:00:00.688,0.005487795919179921
173,00:00:00.692,-0.00695691071450712
174,00:00:00.696,-0.010622013360261919
175,00:00:00.7,-0.004673115516197872
176,00:00:00.704,-0.00032647646730765006
177,00:00:00.708,0.004694686969742181
178,00:00:00.712,0.003808595247392085
179,00:00:00.716,0.00989371095784008
180,00:00:00.72,-0.00378988590091469
181,00:00:00.724,0.01581633809837509
182,00:00:00.728,-0.030185876181349137
183,00:00:00.732,-0.0038967560976743702
184,00:00:00.736,0.008593713806476444
185,00:00:00.74,0.007382084266282621
186,00:00:00.744,0.00021956546697765936
187,00:00:00.748,-0.0017577077960595584
188,00:00:00.752,-0.00351202022284269
189,00:00:00.756,-0.0006054048426449299
190,00:00:00.76,0.0058998470267397265
191,00:00:00.764,0.004456414491869509
192,00:00:00.768,-0.003824764455202968
193,00:00:00.772,-0.013422173506114651
194,00:00:00.776,0.00094248470850289
195,00:00:00.78,0.006465635728091
196,00:00:00.784,0.011888824403286011
197,00:00:00.788,-0.0016566690173931418
198,00:00:00.792,-0.0016732938356653895
199,00:00:00.796,-0.010607465519569821
200,00:00:00.8,-0.0007504036548198207
201,00:00:00.804,-0.0017735651344992186
202,00:00:00.808,0.006275995301621155
203,00:00:00.812,0.0024014376103878
204,00:00:00.816,-0.0058530606329441105
205,00:00:00.82,0.01571696042810795
206,00:00:00.824,-0.01201887795468788
207,00:00:00.828,0.0038108222506707526
208,00:00:00.832,-0.006808136124163869
209,00:00:00.836,-0.0033772239694371806
210,00:00:00.84,-0.002269046031869944
211,00:00:00.844,0.01027391070965678
212,00:00:00.848,0.015175029635429379
213,00:00:00.852,-0.00992636382579801
214,00:00:00.856,-0.008808060782030225
215,00:00:00.86,-0.0079214961733669
216,00:00:00.864,0.00476162368431692
217,00:00:00.868,0.02083449717611079
218,00:00:00.872,-0.016798015160020434
219,00:00:00.876,-0.0057394580217078345
220,00:00:00.88,0.0016439194441772984
221,00:00:00.884,-0.0019486933160806057
222,00:00:00.888,0.01145955186802893
223,00:00:00.892,-0.010335011058487
224,00:00:00.896,0.0182559675304219
225,00:00:00.9,0.01998616871424017
226,00:00:00.904,-0.02926468173973266
227,00:00:00.908,-0.029216249473392977
228,00:00:00.912,0.013514214195311045
229,00:00:00.916,0.014447269903030274
230,00:00:00.92,-0.0018482608138583622
231,00:00:00.924,0.008935894584283231
232,00:00:00.928,-0.012358476233202933
233,00:00:00.932,0.002621315506985409
234,00:00:00.936,0.0021538573782891
235,00:00:00.94,0.01157117728143929
236,00:00:00.944,-0.009798685663554352
237,00:00:00.948,-0.008906422794098033
238,00:00:00.952,0.0023459996591554946
239,00:00:00.956,0.00163977104239165
240,00:00:00.96,-0.00248881347943097
241,00:00:00.964,0.003193348064087334
242,00:00:00.968,0.01417497918009758
243,00:00:00.972,-0.00599391892319545
244,00:00:00.976,-0.014801057550357606
245,00:00:00.98,-0.0003052086976822469
246,00:00:00.984,0.02215451514348385
247,00:00:00.988,-0.01259126747027037
248,00:00:00.992,-0.008839496411383149
249,00:00:00.996,-0.002450952139042786
250,00:00:01,0.0005664856580551636
251,00:00:01.004,0.025325526716187572
252,00:00:01.008,0.004412447335198521
253,00:00:01.012,-0.009854636387899511
254,00:00:01.016,-0.023102319799363627
255,00:00:01.02,-0.010372937133070104
256,00:00:01.024,0.01093417475931346
257,00:00:01.028,0.014344822498969692
258,00:00:01.032,0.010398724931292229
259,00:00:01.036,0.0027260791393928212
260,00:00:01.04,-0.001708212912490121
261,00:00:01.044,-0.014727185858646439
262,00:00:01.048,-0.011726791330147542
263,00:00:01.052,0.001407673495123155
264,00:00:01.056,0.00903194828424602
265,00:00:01.06,0.004520579241216179
266,00:00:01.064,0.0014979715924710105
267,00:00:01.068,-0.00045168632641435016
268,00:00:01.072,-0.00548798637464641
269,00:00:01.076,0.006773385917767881
270,00:00:01.08,-0.009780886757653208
271,00:00:01.084,0.01099815289489926
272,00:00:01.088,0.000898130063433201
273,00:00:01.092,-0.012430938251782198
274,00:00:01.096,0.009760853979969402
275,00:00:01.1,-0.00559924158733339
276,00:00:01.104,-0.010230671497993168
277,00:00:01.108,0.009009244713524822
278,00:00:01.112,0.01502457098104059
279,00:00:01.116,-0.0013875371078029258
280,00:00:01.12,-0.0034358690027147484
281,00:00:01.124,-0.018822349025867897
282,00:00:01.128,0.0020724568166770015
283,00:00:01.132,0.0011180357250850646
284,00:00:01.136,0.013259155239211383
285,00:00:01.14,0.00013999913790030188
286,00:00:01.144,-0.00484983641945291
287,00:00:01.148,-0.004116519081435395
288,00:00:01.152,0.011318348639179021
289,00:00:01.156,-0.00418364570941776
290,00:00:01.16,0.01159334741532802
291,00:00:01.164,-0.00896758888848126
292,00:00:01.168,-0.019576129736378824
293,00:00:01.172,-0.005658142996253448
294,00:00:01.176,0.011770143173634999
295,00:00:01.18,0.014167361077852509
296,00:00:01.184,-0.000734428729629151
297,00:00:01.188,0.0010388758382759945
298,00:00:01.192,0.0026369986589998068
299,00:00:01.196,-0.011406666482798769
300,00:00:01.2,-0.00447899848222732
301,00:00:01.204,0.007533032359788189
302,00:00:01.208,0.008180367760360227
303,00:00:01.212,-0.01780213951133194
304,00:00:01.216,-0.005608533276245
305,00:00:01.22,0.022556367330253083
306,00:00:01.224,1.2164673535152362e-05
307,00:00:01.228,-0.006199181443662383
308,00:00:01.232,-0.006787916412577028
309,00:00:01.236,0.004931409843266007
310,00:00:01.24,-0.0050823069541365866
311,00:00:01.244,-0.0011544181033968904
312,00:00:01.248,0.00552084704395379
313,00:00:01.252,0.015036435215733963
314,00:00:01.256,-0.008662600303068747
315,00:00:01.26,-0.013981433468870843
316,00:00:01.264,0.006656395620666409
317,00:00:01.268,0.005718398606404658
318,00:00:01.272,-0.00204193138051778
319,00:00:01.276,-0.009741212474182252
320,00:00:01.28,0.00816253549419344
321,00:00:01.284,-0.0029776295705232804
322,00:00:01.288,-0.0015008945483714398
323,00:00:01.292,-0.0044513049942906955
324,00:00:01.296,0.01515098987147207
325,00:00:01.3,-0.0009885194012895218
326,00:00:01.304,0.004149042069911998
327,00:00:01.308,0.010305732488632199
328,00:00:01.312,-0.030815587379038355
329,00:00:01.316,-0.01645350310718641
330,00:00:01.32,0.0201908061280847
331,00:00:01.324,0.01090589872910641
332,00:00:01.328,0.00332152843475342
333,00:00:01.332,-0.005696722189895838
334,00:00:01.336,-0.0036090890644118207
335,00:00:01.34,0.01671678258571774
336,00:00:01.344,-0.009672141284681864
337,00:00:01.348,-0.015310807153582533
338,00:00:01.352,0.0020823389131692203
339,00:00:01.356,-0.000138049479573964
340,00:00:01.36,0.012160983402281961
341,00:00:01.364,-0.004402280144859104
342,00:00:01.368,-0.00481261557433754
343,00:00:01.372,0.01401067990809679
344,00:00:01.376,0.02006264659576122
345,00:00:01.38,-0.04186461260542275
346,00:00:01.384,0.005133561789989463
347,00:00:01.388,0.010139774531126019
348,00:00:01.392,-0.005401052534580241
349,00:00:01.396,-0.0077546342508867504
350,00:00:01.4,-0.0028307591564953414
351,00:00:01.404,0.015377330273622616
352,00:00:01.408,0.01474993722513318
353,00:00:01.412,-0.007604932412505152
354,00:00:01.416,-0.00543017621384934
355,00:00:01.42,-0.0021309045987436505
356,00:00:01.424,-0.00848374061752109
357,00:00:01.428,0.010284394491463891
358,00:00:01.432,0.0025269987236242746
359,00:00:01.436,-0.013895438984036439
360,00:00:01.44,-0.007347232196480039
361,00:00:01.444,0.01324113714508713
362,00:00:01.448,0.010767982399556786
363,00:00:01.452,-0.006249263460631486
364,00:00:01.456,-0.01300227292813361
365,00:00:01.46,0.03099753145352225
366,00:00:01.464,0.01055846503004431
367,00:00:01.468,-0.04273772099986668
368,00:00:01.472,-0.0125235669547692
369,00:00:01.476,0.015724502794910174
370,00:00:01.48,0.005915210436796766
371,00:00:01.484,0.008045234950259324
372,00:00:01.488,-0.0032957175571937097
373,00:00:01.492,-0.00032882673258427097
374,00:00:01.496,0.004685093779698949
375,00:00:01.5,-0.005890232452657078
376,00:00:01.504,-0.0018357472727075193
377,00:00:01.508,0.0024941968731582304
378,00:00:01.512,0.00741602247580886
379,00:00:01.516,-0.00874558417126536
380,00:00:01.52,-0.006546264805365356
381,00:00:01.524,0.006096532189985735
382,00:00:01.528,-0.014411219337489449
383,00:00:01.532,0.025857708154944654
384,00:00:01.536,0.004185949452221401
385,00:00:01.54,-0.01791611267253752
386,00:00:01.544,0.0005544668529182646
387,00:00:01.548,-0.0012845572127844246
388,00:00:01.552,0.0025358163984492317
389,00:00:01.556,-0.00417718337848782
390,00:00:01.56,0.0002254058726975924
391,00:00:01.564,0.010308473312761636
392,00:00:01.568,0.0025679029349703316
393,00:00:01.572,-0.0005448188167065431
394,00:00:01.576,-0.00818835035897792
395,00:00:01.58,-0.00889039458706975
396,00:00:01.584,0.00856039603240788
397,00:00:01.588,0.010967884911224248
398,00:00:01.592,-0.00332936889026314
399,00:00:01.596,-0.006696986267343161
400,00:00:01.6,-0.012586296070367061
401,00:00:01.604,0.009488556737778708
402,00:00:01.608,-0.0016238228126894704
403,00:00:01.612,0.009671542677097071
404,00:00:01.616,-0.0034047873923555043
405,00:00:01.62,0.012132558040320873
406,00:00:01.624,-0.015065891435369851
407,00:00:01.628,0.007205112314295568
408,00:00:01.632,-0.003597654693294313
409,00:00:01.636,-0.0028887726366519997
410,00:00:01.64,-0.010351802804507312
411,00:00:01.644,-0.0030415653109230273
412,00:00:01.648,0.011048927030060444
413,00:00:01.652,0.012212089728564027
414,00:00:01.656,0.00572449762512406
415,00:00:01.66,-0.0017203809693455594
416,00:00:01.664,-0.0038912409218028188
417,00:00:01.668,-0.028916387993376678
418,00:00:01.672,0.001880807438283225
419,00:00:01.676,0.02107982594316127
420,00:00:01.68,0.0030723676318302803
421,00:00:01.684,-0.004418171243742109
422,00:00:01.688,0.0015372323105111597
423,00:00:01.692,-0.005691920292520086
424,00:00:01.696,0.01278462109621612
425,00:00:01.7,-0.00721132708713413
426,00:00:01.704,-0.00976171181537211
427,00:00:01.708,0.0019628143636509793
428,00:00:01.712,0.02090102154761549
429,00:00:01.716,-0.02146017458289859
430,00:00:01.72,-0.01528372918255627
431,00:00:01.724,0.016010143066523607
432,00:00:01.728,0.01856731114094148
433,00:00:01.732,-0.006814116146415481
434,00:00:01.736,-0.010781882330775263
435,00:00:01.74,0.004959948753821672
436,00:00:01.744,0.011862359009683139
437,00:00:01.748,-0.011057275813072882
438,00:00:01.752,-0.01428760471753778
439,00:00:01.756,-0.00442463043145835
440,00:00:01.76,0.01118917693383995
441,00:00:01.764,0.02342169149778784
442,00:00:01.768,-0.007424274401273584
443,00:00:01.772,-0.011644048150628764
444,00:00:01.776,-0.0016281361458823102
445,00:00:01.78,-0.00323713861871511
446,00:00:01.784,0.0006892830133438102
447,00:00:01.788,0.013860757928341651
448,00:00:01.792,-0.00633237673901021
449,00:00:01.796,-0.00639746541855856
450,00:00:01.8,0.0010096732585225198
451,00:00:01.804,-0.0033078305423259718
452,00:00:01.808,0.016253793728537868
453,00:00:01.812,-0.002572441706433889
454,00:00:01.816,-0.015092938439920569
455,00:00:01.82,0.005656804409227338
456,00:00:01.824,0.004095536482054731
457,00:00:01.828,0.00310631608590484
458,00:00:01.832,-0.00514547945931553
459,00:00:01.836,0.0028047172818333292
460,00:00:01.84,-0.007796118501573799
461,00:00:01.844,0.005566410953179
462,00:00:01.848,0.0016479319310747098
463,00:00:01.852,-0.009194283396936967
464,00:00:01.856,0.002195338543970136
465,00:00:01.86,0.015759901027195128
466,00:00:01.864,7.038342300802209e-05
467,00:00:01.868,-0.01765063847415145
468,00:00:01.872,-0.005560997757129369
469,00:00:01.876,0.004566910443827508
470,00:00:01.88,0.018231848633149667
471,00:00:01.884,0.0019985000835731695
472,00:00:01.888,-0.01064937305636704
473,00:00:01.892,-0.005603637022431943
474,00:00:01.896,0.0010709850466810078
475,00:00:01.9,0.001843059435486794
476,00:00:01.904,-0.0032551841577515015
477,00:00:01.908,-0.0022592120221815986
478,00:00:01.912,0.010971769748721227
479,00:00:01.916,-0.007290879031643265
480,00:00:01.92,0.009185857070406197
481,00:00:01.924,0.005838489567395296
482,00:00:01.928,-0.014184075407683851
483,00:00:01.932,0.005703654605895278
484,00:00:01.936,-0.012804246740415701
485,00:00:01.94,-0.007084470882546157
486,00:00:01.944,0.01124986098147925
487,00:00:01.948,0.01701950246933844
488,00:00:01.952,-0.006320512620732181
489,00:00:01.956,-0.00549703370779752
490,00:00:01.96,0.008064725843723863
491,00:00:01.964,-0.015830721706152
492,00:00:01.968,0.003220401966245846
493,00:00:01.972,0.0012718711514025888
494,00:00:01.976,0.010210584616288553
495,00:00:01.98,-0.005883751437067992
496,00:00:01.984,-0.00537749810609967
497,00:00:01.988,-0.0048116221150849015
498,00:00:01.992,0.014857677917461797
499,00:00:01.996,-0.003576243383577089
500,00:00:02,0.0016929087746575503
501,00:00:02.004,-0.002596099919173868
502,00:00:02.008,-0.0007357995200436519
503,00:00:02.012,-0.01361224625725295
504,00:00:02.016,0.01065753097645936
505,00:00:02.02,0.02591001451946798
506,00:00:02.024,-0.02485176175832751
507,00:00:02.028,-0.00961593247484412
508,00:00:02.032,-0.0027989041991531797
509,00:00:02.036,0.01610550156328831
510,00:00:02.04,-0.00762158026918771
511,00:00:02.044,0.005695866420865059
512,00:00:02.048,0.015841274987906218
513,00:00:02.052,0.0014197300188243094
514,00:00:02.056,-0.02495933789759877
515,00:00:02.06,-0.0047325723571702795
516,00:00:02.064,1.2181000784039064e-05
517,00:00:02.068,0.005631437539705077
518,00:00:02.072,0.009020903657074085
519,00:00:02.076,0.010814973240485408
520,00:00:02.08,-0.01911749737337229
521,00:00:02.084,0.011586895212531086
522,00:00:02.088,0.0018698822241276503
523,00:00:02.092,-0.008983380626887088
524,00:00:02.096,-0.0061104183550924
525,00:00:02.1,-0.0001853480935096706
526,00:00:02.104,0.0035992310731671803
527,00:00:02.108,-3.5639153793449833e-05
528,00:00:02.112,0.0022607042919844393
529,00:00:02.116,-0.0028418553119990923
530,00:00:02.12,0.020649890415370468
531,00:00:02.124,0.00779118156060576
532,00:00:02.128,-0.026670311577618087
533,00:00:02.132,-0.0026307805383112286
534,00:00:02.136,-0.00893699913285673
535,00:00:02.14,-0.00421833910513669
536,00:00:02.144,0.007196971011580904
537,00:00:02.148,0.02416839334182442
538,00:00:02.152,0.002990672830492251
539,00:00:02.156,-0.011442452028859414
540,00:00:02.16,0.009773576806765048
541,00:00:02.164,-0.02202119817957279
542,00:00:02.168,-0.00810661516152322
543,00:00:02.172,0.006121627515312861
544,00:00:02.176,0.00687712081708014
545,00:00:02.18,0.009748060663696372
546,00:00:02.184,-0.001371472491882733
547,00:00:02.188,0.0024936979170889183
548,00:00:02.192,-0.004326293943449851
549,00:00:02.196,-0.011659984127618329
550,00:00:02.2,-0.005481260828673838
551,00:00:02.204,0.016912867780774797
552,00:00:02.208,-0.00532960728742183
553,00:00:02.212,0.0029225576436147545
554,00:00:02.216,0.01107560913078488
555,00:00:02.22,0.0005284014623612096
556,00:00:02.224,-0.02463111258111898
557,00:00:02.228,0.004596644357661721
558,00:00:02.232,0.01637193514034153
559,00:00:02.236,-0.012953813369676933
560,00:00:02.24,-0.00418092287145555
561,00:00:02.244,-0.0015621848287992197
562,00:00:02.248,0.0005120623682159919
563,00:00:02.252,0.021042583102825987
564,00:00:02.256,0.00412460335064679
565,00:00:02.26,-0.00894294353201981
566,00:00:02.264,-0.011593968003580814
567,00:00:02.268,-0.006821686518378556
568,00:00:02.272,0.0060669872909784196
569,00:00:02.276,0.008794581342954189
570,00:00:02.28,-0.00319751433562488
571,00:00:02.284,0.0036556325358105815
572,00:00:02.288,0.0007776232669130011
573,00:00:02.292,-0.0025726127205416504
574,00:00:02.296,-0.0034205779666080997
575,00:00:02.3,-0.012520327465608709
576,00:00:02.304,0.00137166259810328
577,00:00:02.308,0.019380274403374677
578,00:00:02.312,0.009144147858023638
579,00:00:02.316,0.00444046431221068
580,00:00:02.32,-0.030126496683806188
581,00:00:02.324,-0.013392111053690313
582,00:00:02.328,0.013718268135562539
583,00:00:02.332,0.005775350742624142
584,00:00:02.336,0.023644024273380623
585,00:00:02.34,-0.0016019511967897485
586,00:00:02.344,-0.025434203445911394
587,00:00:02.348,-0.010651514770870535
588,00:00:02.352,0.00612848973833025
589,00:00:02.356,0.0104058034485206
590,00:00:02.36,0.01749753358308228
591,00:00:02.364,-0.00618654384743423
592,00:00:02.368,-0.01888226275332275
593,00:00:02.372,0.001642724317207467
594,00:00:02.376,0.012315323285292827
595,00:00:02.38,-0.004213169566355647
596,00:00:02.384,0.001520260524557675
597,00:00:02.388,-0.012918943306431181
598,00:00:02.392,0.00525848311372101
599,00:00:02.396,0.01140032312832773
600,00:00:02.4,-0.0028684618882834807
601,00:00:02.404,-0.0086023926269263
602,00:00:02.408,0.010420082602649929
603,00:00:02.412,-0.005997211963403969
604,00:00:02.416,0.003686245108838192
605,00:00:02.42,-0.0011785946553573008
606,00:00:02.424,-0.01734386524185538
607,00:00:02.428,0.01390899554826319
608,00:00:02.432,0.011284274223726212
609,00:00:02.436,-0.005539174773730339
610,00:00:02.44,0.0017949733883142497
611,00:00:02.444,-0.010260190611006706
612,00:00:02.448,-0.011460852983873336
613,00:00:02.452,0.018312379135750213
614,00:00:02.456,0.0026121364207938357
615,00:00:02.46,-0.0048564541357336635
616,00:00:02.464,-0.000997199720586645
617,00:00:02.468,0.002382782375207169
618,00:00:02.472,-0.001577904506120839
619,00:00:02.476,-0.0077614944893866795
620,00:00:02.48,0.00976105162408203
621,00:00:02.484,-0.0066987018799409236
622,00:00:02.488,0.01225424173753711
623,00:00:02.492,-0.0016443615313619397
624,00:00:02.496,-0.0013279645354486943
625,00:00:02.5,-0.009979135007597506
626,00:00:02.504,-0.014668307179817921
627,00:00:02.508,0.01864711940288547
628,00:00:02.512,0.011912179877981552
629,00:00:02.516,0.004803199786692821
630,00:00:02.52,-0.01633684674743562
631,00:00:02.524,-0.004308981471695001
632,00:00:02.528,-0.009760391898453291
633,00:00:02.532,0.013967809965834032
634,00:00:02.536,0.01007961202412843
635,00:00:02.54,-0.0059208582970313745
636,00:00:02.544,-0.006023833571816793
637,00:00:02.548,0.0025373827666044205
638,00:00:02.552,0.0020290464162826503
639,00:00:02.556,-0.010677993646822866
640,00:00:02.56,0.00622967502567917
641,00:00:02.564,0.01707465643994511
642,00:00:02.568,-0.00587796326726675
643,00:00:02.572,-0.020601575844921154
644,00:00:02.576,0.008150489185936744
645,00:00:02.58,-0.00410294532775879
646,00:00:02.584,0.013133108324836957
647,00:00:02.588,-0.00834586040582508
648,00:00:02.592,9.959778981282917e-05
649,00:00:02.596,0.013936772011220474
650,00:00:02.6,-0.004804295720532539
651,00:00:02.604,-0.0011202458990737794
652,00:00:02.608,-0.011615569412242616
653,00:00:02.612,-0.0003391588106751407
654,00:00:02.616,0.0038485259283334
655,00:00:02.62,0.00579432828817516
656,00:00:02.624,-0.00018225218809675946
657,00:00:02.628,0.0003137857875117416
658,00:00:02.632,-0.011600875644944608
659,00:00:02.636,0.0038142146077006604
660,00:00:02.64,0.0045395044144242985
661,00:00:02.644,0.01183744240552187
662,00:00:02.648,0.0017169506754726015
663,00:00:02.652,-0.006932288815733047
664,00:00:02.656,-0.010773777205031367
665,00:00:02.66,-0.01574385468848049
666,00:00:02.664,0.00892830733209848
667,00:00:02.668,0.012783381389454
668,00:00:02.672,0.009220362568157725
669,00:00:02.676,-0.0039013979840092417
670,00:00:02.68,-0.01614699326455597
671,00:00:02.684,0.02323255490045998
672,00:00:02.688,-0.0037418602878460674
673,00:00:02.692,-0.01483157416805625
674,00:00:02.696,-0.0011091079795732999
675,00:00:02.7,-0.00792751112021506
676,00:00:02.704,0.005828678607940682
677,00:00:02.708,0.015170755563303849
678,00:00:02.712,-0.006474030902609229
679,00:00:02.716,0.00591743714176117
680,00:00:02.72,-0.00014054973144084605
681,00:00:02.724,0.00043223006650808943
682,00:00:02.728,-0.001676335930824279
683,00:00:02.732,-0.02172529604285959
684,00:00:02.736,0.0025335422251373503
685,00:00:02.74,0.0126977900508791
686,00:00:02.744,0.00871740630827844
687,00:00:02.748,0.0034647913416847587
688,00:00:02.752,-0.0014324728399515202
689,00:00:02.756,-0.014545779413310807
690,00:00:02.76,-0.0006847584154456902
691,00:00:02.764,0.003052684245631059
692,00:00:02.768,-0.00160250999033451
693,00:00:02.772,0.002853551981388584
694,00:00:02.776,-0.001179286162368952
695,00:00:02.78,0.007279117387952282
696,00:00:02.784,0.0008442333783023002
697,00:00:02.788,-0.0025968296686187395
698,00:00:02.792,-0.005175027763471011
699,00:00:02.796,-0.00403987546451389
700,00:00:02.8,0.01779501955024895
701,00:00:02.804,-0.013785661605652463
702,00:00:02.808,-0.007446544594131414
703,00:00:02.812,-0.0003170798008795882
704,00:00:02.816,0.02484508045017721
705,00:00:02.82,-0.004429134482052174
706,00:00:02.824,-0.01050808466970925
707,00:00:02.828,-0.010491891182027748
708,00:00:02.832,0.007731191697530452
709,00:00:02.836,0.00261227716691792
710,00:00:02.84,-0.007410668360535052
711,00:00:02.844,0.00197000289335846
712,00:00:02.848,0.016634330037049942
713,00:00:02.852,-0.004757954855449499
714,00:00:02.856,0.007801368832588227
715,00:00:02.86,-0.006092007126426317
716,00:00:02.864,-0.016154282435309187
717,00:00:02.868,-0.006836426124209548
718,00:00:02.872,0.0037277655210346005
719,00:00:02.876,0.014616951637435704
720,00:00:02.88,0.005323199471604348
721,00:00:02.884,-0.003897179092746228
722,00:00:02.888,-0.015144263030379104
723,00:00:02.892,0.01783647102638501
724,00:00:02.896,0.004632295167539267
725,00:00:02.9,-0.02224380357074551
726,00:00:02.904,-0.002857355822925461
727,00:00:02.908,0.019784861709922594
728,00:00:02.912,0.0070176247972995095
729,00:00:02.916,-0.01306812115944922
730,00:00:02.92,-0.015533788246102631
731,00:00:02.924,0.011741170892491938
732,00:00:02.928,0.010374659614171836
733,00:00:02.932,-0.006655199441524949
734,00:00:02.936,-0.0028260953258723073
735,00:00:02.94,-0.00149050424806774
736,00:00:02.944,0.012184724117105361
737,00:00:02.948,-0.006843051669420671
738,00:00:02.952,-0.004040532279759651
739,00:00:02.956,0.0036780161317437896
740,00:00:02.96,0.010092833719681941
741,00:00:02.964,-0.023648644681088588
742,00:00:02.968,-0.00757465581409633
743,00:00:02.972,0.0354525633483718
744,00:00:02.976,0.0044656705940724385
745,00:00:02.98,-0.015369832864962551
746,00:00:02.984,-0.02135025802999733
747,00:00:02.988,6.1183236538895486e-06
748,00:00:02.992,0.01011487864889205
749,00:00:02.996,-0.00020072871120646585
750,00:00:03,0.02529119444079695
751,00:00:03.004,0.00611925823614001
752,00:00:03.008,-0.016853278037160642
753,00:00:03.012,-0.017674137605354197
754,00:00:03.016,-0.0037058986199554
755,00:00:03.02,0.004741022421512759
756,00:00:03.024,0.00285147654358297
757,00:00:03.028,0.004839822504436594
758,00:00:03.032,0.013011181494221098
759,00:00:03.036,-0.00141286849975585
760,00:00:03.04,-0.010991855291649701
761,00:00:03.044,-0.0020671824795499547
762,00:00:03.048,0.0069640898145735194
763,00:00:03.052,-0.002796586020849651
764,00:00:03.056,-0.01457334647420798
765,00:00:03.06,-0.00029804743826388966
766,00:00:03.064,0.01897370675578713
767,00:00:03.068,0.009698052890598743
768,00:00:03.072,-0.009242674452252679
769,00:00:03.076,0.0009242296691809285
770,00:00:03.08,-0.021661272796336527
771,00:00:03.084,0.009767219191417095
772,00:00:03.088,0.00787250266876067
773,00:00:03.092,-0.014781921112444212
774,00:00:03.096,0.0176104588899761
775,00:00:03.1,0.003822736267466104
776,00:00:03.104,-0.012297483219299467
777,00:00:03.108,-0.0019746827892959096
778,00:00:03.112,0.004746043850900601
779,00:00:03.116,0.00530907118081814
780,00:00:03.12,0.000132369837956495
781,00:00:03.124,-0.005533503965125416
782,00:00:03.128,-0.003897971502738067
783,00:00:03.132,-0.004615927871782333
784,00:00:03.136,0.005831599235534677
785,00:00:03.14,0.0035952360776718706
786,00:00:03.144,0.0059801879469887345
787,00:00:03.148,0.0004199387039989155
788,00:00:03.152,-0.003957317152526234
789,00:00:03.156,-0.012976991478353742
790,00:00:03.16,-0.003146133007248866
791,00:00:03.164,0.02883511409163471
792,00:00:03.168,-0.007045806822134183
793,00:00:03.172,-0.01847482169978322
794,00:00:03.176,-0.003966612275689844
795,00:00:03.18,0.002061064587906
796,00:00:03.184,0.01460612073424272
797,00:00:03.188,0.02337643003556874
798,00:00:03.192,0.00028422172181308096
799,00:00:03.196,-0.037542506121098995
800,00:00:03.2,-0.015390888554975429
801,00:00:03.204,0.01192921493202449
802,00:00:03.208,0.00883981655351814
803,00:00:03.212,0.009795355785172434
804,00:00:03.216,0.00891694822348655
805,00:00:03.22,-0.0027328545434102164
806,00:00:03.224,-0.00929348857607692
807,00:00:03.228,-0.0062405065400526
808,00:00:03.232,-0.00105467159301043
809,00:00:03.236,0.01072467816993594
810,00:00:03.24,-0.002581771885161287
811,00:00:03.244,-0.0022109322017058687
812,00:00:03.248,-0.005773953627794988
813,00:00:03.252,-0.004960249876603481
814,00:00:03.256,0.009462781534239165
815,00:00:03.26,0.013913698465330481
816,00:00:03.264,-0.0065789057989604815
817,00:00:03.268,-0.0061356617370620405
818,00:00:03.272,0.00296190613880753
819,00:00:03.276,-0.01036983815720305
820,00:00:03.28,-0.0036460541887208785
821,00:00:03.284,0.0023012435412965706
822,00:00:03.288,0.017455764259466343
823,00:00:03.292,0.01550013292580843
824,00:00:03.296,-0.018876482849009377
825,00:00:03.3,-0.02064687968231736
826,00:00:03.304,0.002302810084074741
827,00:00:03.308,0.0010240474512102052
828,00:00:03.312,0.02570269489660859
829,00:00:03.316,-0.00491381529718639
830,00:00:03.32,-0.011239114566706121
831,00:00:03.324,0.006004020920954609
832,00:00:03.328,0.0029357526218518597
833,00:00:03.332,-0.006964078289456659
834,00:00:03.336,-0.01141866995021701
835,00:00:03.34,0.0075490692979655995
836,00:00:03.344,0.005749305593781172
837,00:00:03.348,-0.0018411899800412322
838,00:00:03.352,0.005504519212990949
839,00:00:03.356,0.005716248393582647
840,00:00:03.36,-0.017232944766874463
841,00:00:03.364,0.010615922438773849
842,00:00:03.368,-0.007116402033716431
843,00:00:03.372,-0.00062298375996761
844,00:00:03.376,-0.008730360306799419
845,00:00:03.38,0.00743480655364692
846,00:00:03.384,0.019303839828353382
847,00:00:03.388,-0.0037339592818170894
848,00:00:03.392,-0.01340167131274936
849,00:00:03.396,-0.00022234721109271136
850,00:00:03.4,-0.0019937895704060698
851,00:00:03.404,0.0008615922997705621
852,00:00:03.408,0.009103563439566614
853,00:00:03.412,-0.005227715824730732
854,00:00:03.416,0.0004465864622034137
855,00:00:03.42,0.00924953678622842
856,00:00:03.424,-0.01415008981712162
857,00:00:03.428,0.000684336642734709
858,00:00:03.432,0.003504928172333161
859,00:00:03.436,-0.00844628748018295
860,00:00:03.44,0.0014756658929400146
861,00:00:03.444,0.012928161770105372
862,00:00:03.448,0.01669387752190232
863,00:00:03.452,-0.006030434975400565
864,00:00:03.456,-0.02695072535425429
865,00:00:03.46,0.00254886611946859
866,00:00:03.464,-0.003952668710553557
867,00:00:03.468,-0.008174968075763896
868,00:00:03.472,0.01891121128574014
869,00:00:03.476,0.01715332898311317
870,00:00:03.48,0.0006578024476766506
871,00:00:03.484,-0.01022038306109607
872,00:00:03.488,-0.0029125837609171906
873,00:00:03.492,-0.00964423781260851
874,00:00:03.496,0.0024350496241822843
875,00:00:03.5,-0.0010161119280382976
876,00:00:03.504,-0.007501405838411301
877,00:00:03.508,0.010438659403007464
878,00:00:03.512,0.007097644820532882
879,00:00:03.516,0.004107868298888209
880,00:00:03.52,0.008649172494187951
881,00:00:03.524,-0.012655120597628414
882,00:00:03.528,-0.01881527190562335
883,00:00:03.532,-0.0007034365553408894
884,00:00:03.536,0.0034899609163403598
885,00:00:03.54,-0.00045942855649627745
886,00:00:03.544,0.03399818006437274
887,00:00:03.548,0.0006588888354599432
888,00:00:03.552,-0.022646916913799917
889,00:00:03.556,-0.02301711007021369
890,00:00:03.56,0.017586412373930202
891,00:00:03.564,0.010791169232106764
892,00:00:03.568,0.012050865683704637
893,00:00:03.572,-0.02614180557429789
894,00:00:03.576,-0.007342806900851428
895,00:00:03.58,0.00790224841330201
896,00:00:03.584,0.013896881369873881
897,00:00:03.588,0.00953333941288292
898,00:00:03.592,-0.01137177087366581
899,00:00:03.596,-0.012337325606495133
900,00:00:03.6,0.0013019643083680421
901,00:00:03.604,-0.0013696779496967701
902,00:00:03.608,0.01777734456118199
903,00:00:03.612,0.0021411550696939204
904,00:00:03.616,-0.01506880391389131
905,00:00:03.62,-0.008265665819635611
906,00:00:03.624,0.00600499217398465
907,00:00:03.628,0.00922445708420128
908,00:00:03.632,-0.0007992536993697273
909,00:00:03.636,0.0016907735262066104
910,00:00:03.64,-0.0031681900145486006
911,00:00:03.644,-0.005216459278017289
912,00:00:03.648,-0.007573626935482018
913,00:00:03.652,0.00799849955365064
914,00:00:03.656,0.024592929170466998
915,00:00:03.66,-0.0028069708496331804
916,00:00:03.664,-0.03548592654988175
917,00:00:03.668,0.000488608740852217
918,00:00:03.672,0.011104916309705013
919,00:00:03.676,0.0006786971935071051
920,00:00:03.68,0.00675028178375214
921,00:00:03.684,0.0066713611595332605
922,00:00:03.688,-0.0038498139474540897
923,00:00:03.692,0.005776962439995255
924,00:00:03.696,-0.0016542680095881195
925,00:00:03.7,-0.017919260310009077
926,00:00:03.704,-0.005798264377517629
927,00:00:03.708,0.008692322735441843
928,00:00:03.712,0.008454220485873524
929,00:00:03.716,0.0012067930874763988
930,00:00:03.72,-0.007609912645420993
931,00:00:03.724,0.002190007595345409
932,00:00:03.728,0.00795391586143524
933,00:00:03.732,0.00614602485438809
934,00:00:03.736,-0.011798973690019931
935,00:00:03.74,-0.012947300565428997
936,00:00:03.744,-0.00102848574897507
937,00:00:03.748,0.022077007626649017
938,00:00:03.752,0.0032516329738427894
939,00:00:03.756,-0.004039387276861813
940,00:00:03.76,-0.019687286578118787
941,00:00:03.764,0.008265038428362459
942,00:00:03.768,-0.0002176485722884488
943,00:00:03.772,0.002672007874934937
944,00:00:03.776,0.00247884239070117
945,00:00:03.78,-0.0011022601538570682
946,00:00:03.784,-0.0005524552543647613
947,00:00:03.788,-0.0037411657394841305
948,00:00:03.792,0.01499883085489273
949,00:00:03.796,-3.7199351936577016e-05
950,00:00:03.8,-0.01602486334741116
951,00:00:03.804,-0.008073733188211921
952,00:00:03.808,0.00889622862450778
953,00:00:03.812,-0.00019831942063319426
954,00:00:03.816,0.01636580895865339
955,00:00:03.82,-0.0037543341750279125
956,00:00:03.824,-0.00594682921655476
957,00:00:03.828,-0.01942053763195868
958,00:00:03.832,0.01174640958197418
959,00:00:03.836,0.02453439543023704
960,00:00:03.84,-0.008624141861218956
961,00:00:03.844,-0.0220436578383669
962,00:00:03.848,-0.0053930405410937965
963,00:00:03.852,0.017498258792329576
964,00:00:03.856,0.0006030427757650599
965,00:00:03.86,0.0009026997722685302
966,00:00:03.864,-0.00146633095573634
967,00:00:03.868,0.00803191587328911
968,00:00:03.872,-0.0030534750549122804
969,00:00:03.876,-0.007783516775816679
970,00:00:03.88,-0.003842290549073371
971,00:00:03.884,0.011321353027597101
972,00:00:03.888,-0.006557472632266571
973,00:00:03.892,-0.0051285248191561515
974,00:00:03.896,-0.0035940090310759864
975,00:00:03.9,0.00999252044130117
976,00:00:03.904,0.0177114142570645
977,00:00:03.908,-0.005018676980398595
978,00:00:03.912,-0.02423015481326728
979,00:00:03.916,-0.0008621645974926609
980,00:00:03.92,0.0033891565399244436
981,00:00:03.924,0.0068387123756110686
982,00:00:03.928,0.012358116830000633
983,00:00:03.932,0.007181084947660561
984,00:00:03.936,-0.007298269076272849
985,00:00:03.94,-0.01110367948422208
986,00:00:03.944,-0.026069231797009672
987,00:00:03.948,0.01228894491214308
988,00:00:03.952,0.0260198130272329
989,00:00:03.956,-0.006952239142265139
990,00:00:03.96,-0.001372736049233932
991,00:00:03.964,0.007975557527970521
992,00:00:03.968,-0.00868266023462639
993,00:00:03.972,-0.003572474641259753
994,00:00:03.976,0.000564459362067282
995,00:00:03.98,-0.006335260113701221
996,00:00:03.984,-0.001138176856329665
997,00:00:03.988,-0.00013006269000470573
998,00:00:03.992,0.01548058888874951
999,00:00:03.996,0.0007568863220512915
1000,00:00:04,7.172301411629937e-05
1001,00:00:04.004,-0.007799365092068941
1002,00:00:04.008,0.003203243057214422
1003,00:00:04.012,-0.00817820115480572
1004,00:00:04.016,0.0002970651839859749
1005,00:00:04.02,0.0025981333310483024
1006,00:00:04.024,-0.008273225539596755
1007,00:00:04.028,0.004486669087782459
1008,00:00:04.032,0.022270185523666462
1009,00:00:04.036,0.001478307880461209
1010,00:00:04.04,-0.02716143894940615
1011,00:00:04.044,-0.008313327271025628
1012,00:00:04.048,0.02084180887322875
1013,00:00:04.052,0.007495842335629281
1014,00:00:04.056,-0.015580843668431045
1015,00:00:04.06,0.0048931932251434825
1016,00:00:04.064,0.0024005314335226995
1017,00:00:04.068,-0.00481843110173941
1018,00:00:04.072,0.0019679121323861147
1019,00:00:04.076,-0.01076984824612737
1020,00:00:04.08,0.011743985931389
1021,00:00:04.084,0.01700542541220785
1022,00:00:04.088,-0.01416399423033002
1023,00:00:04.092,-0.010286841163178882
1024,00:00:04.096,0.0022443389752879713
1025,00:00:04.1,0.00607012747786939
1026,00:00:04.104,-0.01033796486444771
1027,00:00:04.108,-0.0001845509978011205
1028,00:00:04.112,0.02104047825559969
1029,00:00:04.116,-0.002813080791383982
1030,00:00:04.12,-0.0017818445339798919
1031,00:00:04.124,-0.006890974473208191
1032,00:00:04.128,-0.009578014258295303
1033,00:00:04.132,-0.0038000573404133493
1034,00:00:04.136,0.004699492565123368
1035,00:00:04.14,0.01419005484785886
1036,00:00:04.144,0.0062446239171549695
1037,00:00:04.148,-0.0070903407176956595
1038,00:00:04.152,0.0031409781076945334
1039,00:00:04.156,-0.019005261827260263
1040,00:00:04.16,0.00288492511026562
1041,00:00:04.164,0.006940334453247491
1042,00:00:04.168,-0.00015361123951151685
1043,00:00:04.172,-0.004185798810794951
1044,00:00:04.176,0.01544127659872174
1045,00:00:04.18,-0.007362080184975595
1046,00:00:04.184,0.0009680584771558597
1047,00:00:04.188,-0.01126441708765924
1048,00:00:04.192,0.00471340259537101
1049,00:00:04.196,0.0030675255693495256
1050,00:00:04.2,0.0011159005225636
1051,00:00:04.204,0.005958901834674176
1052,00:00:04.208,-0.012978933984413722
1053,00:00:04.212,-0.0018035543616861096
1054,00:00:04.216,0.010195106471655894
1055,00:00:04.22,-0.003340785027830862
1056,00:00:04.224,-0.0024889665655791803
1057,00:00:04.228,0.013420735951513042
1058,00:00:04.232,-0.005093829706311221
1059,00:00:04.236,-0.011750487086828791
1060,00:00:04.24,0.00029233365785331
1061,00:00:04.244,0.008184707199689013
1062,00:00:04.248,-0.0047508759889751655
1063,00:00:04.252,0.00395503849722445
1064,00:00:04.256,0.000383545178920037
1065,00:00:04.26,-0.0009148253011517258
1066,00:00:04.264,-0.011314833012875173
1067,00:00:04.268,0.02395412372425197
1068,00:00:04.272,-0.005587373452726752
1069,00:00:04.276,-0.01655328832566738
1070,00:00:04.28,0.00284302327781915
1071,00:00:04.284,0.0018000248728640093
1072,00:00:04.288,0.0007651752966921861
1073,00:00:04.292,0.013035265525104471
1074,00:00:04.296,-0.011037914810003715
1075,00:00:04.3,0.0014864374534226958
1076,00:00:04.304,0.002336141740670425
1077,00:00:04.308,0.01452822261489926
1078,00:00:04.312,-0.017593766388017712
1079,00:00:04.316,-0.013421760580968136
1080,00:00:04.32,-0.004787082711118275
1081,00:00:04.324,0.0137654781574383
1082,00:00:04.328,0.018450054791173863
1083,00:00:04.332,-0.008220299409003928
1084,00:00:04.336,0.0020971596240997306
1085,00:00:04.34,-0.011532124597579246
1086,00:00:04.344,0.009320886456407608
1087,00:00:04.348,-0.0067628025135491095
1088,00:00:04.352,-0.00918261986225844
1089,00:00:04.356,0.004533374216407539
1090,00:00:04.36,0.017603911925107272
1091,00:00:04.364,-0.003493417520076039
1092,00:00:04.368,-0.014064465940464285
1093,00:00:04.372,-0.0008952887728810302
1094,00:00:04.376,0.014866784797050059
1095,00:00:04.38,-0.0033519691205583504
1096,00:00:04.384,-0.01441406062804166
1097,00:00:04.388,0.01330753951333464
1098,00:00:04.392,-0.0026681737508624775
1099,00:00:04.396,-0.0034478204906918087
1100,00:00:04.4,-0.0043683479307219395
1101,00:00:04.404,0.00809247244615107
1102,00:00:04.408,0.01604843628592787
1103,00:00:04.412,-0.009904382866807256
1104,00:00:04.416,-0.020105189178138968
1105,00:00:04.42,0.01345905975904313
1106,00:00:04.424,-0.0013099943753331908
1107,00:00:04.428,-0.004534939012955869
1108,00:00:04.432,0.0042259750189259674
1109,00:00:04.436,0.0017568820621818209
1110,00:00:04.44,-0.0034088089596480096
1111,00:00:04.444,-8.731210255064089e-05
1112,00:00:04.448,0.011069182306528093
1113,00:00:04.452,0.0012543125485535672
1114,00:00:04.456,-0.011209837772184986
1115,00:00:04.46,6.358255632223217e-06
1116,00:00:04.464,-0.0005748298426624389
1117,00:00:04.468,0.004405076208058743
1118,00:00:04.472,-0.0071188761576195195
1119,00:00:04.476,0.001763275271514427
1120,00:00:04.48,0.0015637115611752976
1121,00:00:04.484,0.006260046131501441
1122,00:00:04.488,-0.00227035768330098
1123,00:00:04.492,-0.0006584729999303783
1124,00:00:04.496,-0.0007782193715684109
1125,00:00:04.5,-0.0071336415130645
1126,00:00:04.504,0.013589685899205551
1127,00:00:04.508,-0.0010621189430821722
1128,00:00:04.512,-0.01192629907745864
1129,00:00:04.516,-0.002597979269921752
1130,00:00:04.52,0.009871896774711753
1131,00:00:04.524,-0.00079152826219798
1132,00:00:04.528,0.008795339090283964
1133,00:00:04.532,-0.00982361403293908
1134,00:00:04.536,-0.00710433546919375
1135,00:00:04.54,0.006375002671120452
1136,00:00:04.544,-0.003459178871707992
1137,00:00:04.548,0.0038928504218347414
1138,00:00:04.552,0.0015867031179368511
1139,00:00:04.556,-0.0033141067251563003
1140,00:00:04.56,0.01247248251456768
1141,00:00:04.564,0.00124463345855475
1142,00:00:04.568,-0.01699682930484414
1143,00:00:04.572,-0.006155394774395969
1144,00:00:04.576,0.015951523731928288
1145,00:00:04.58,-0.0005876530194655126
1146,00:00:04.584,-0.00825174877536483
1147,00:00:04.588,0.005774268072855195
1148,00:00:04.592,-0.008746856008656321
1149,00:00:04.596,0.0003571624401956901
1150,00:00:04.6,0.024521840037778048
1151,00:00:04.604,-0.009926150552928479
1152,00:00:04.608,-0.0017920045647770192
1153,00:00:04.612,-0.00984043104108424
1154,00:00:04.616,-0.007094474291079676
1155,00:00:04.62,-0.0027307128766551544
1156,00:00:04.624,0.016615587752312422
1157,00:00:04.628,0.00990011042449623
1158,00:00:04.632,-0.00114652933552862
1159,00:00:04.636,-0.01760104496497665
1160,00:00:04.64,-0.005550360830966383
1161,00:00:04.644,0.014695718185976139
1162,00:00:04.648,-0.002356494514970113
1163,00:00:04.652,-0.000706023361999535
1164,00:00:04.656,0.004744437988847499
1165,00:00:04.66,-0.0031390316435135988
1166,00:00:04.664,0.0032716889400035195
1167,00:00:04.668,-0.0086210168665275
1168,00:00:04.672,0.008522406686097377
1169,00:00:04.676,-0.0052070284727960894
1170,00:00:04.68,-0.004477824899367986
1171,00:00:04.684,-0.010460651014000179
1172,00:00:04.688,0.006532584995511571
1173,00:00:04.692,0.029829629696905648
1174,00:00:04.696,-0.004191105719655756
1175,00:00:04.7,-0.011368846171535558
1176,00:00:04.704,-0.013846887479303389
1177,00:00:04.708,-0.0021775125787826207
1178,00:00:04.712,0.0023201408330351097
1179,00:00:04.716,0.01188045530579984
1180,00:00:04.72,-0.0005755409365519799
1181,00:00:04.724,-0.00850340211763978
1182,00:00:04.728,0.013389723433647305
1183,00:00:04.732,0.007861655205488252
1184,00:00:04.736,-0.015134840155951648
1185,00:00:04.74,-0.013127429527230509
1186,00:00:04.744,0.001221518963575371
1187,00:00:04.748,0.013802733039483431
1188,00:00:04.752,-0.0009368069004267502
1189,00:00:04.756,0.00025312662910437217
1190,00:00:04.76,0.0004281823057681305
1191,00:00:04.764,0.008239232236519449
1192,00:00:04.768,-0.006423580882255921
1193,00:00:04.772,-0.00519765797071159
1194,00:00:04.776,-0.01110769470687955
1195,00:00:04.78,-0.0006089702947065304
1196,00:00:04.784,0.024292709538713153
1197,00:00:04.788,0.005511945171747355
1198,00:00:04.792,-0.013783119618892678
1199,00:00:04.796,-0.01306997798383236
1200,00:00:04.8,-0.002348819369217389
1201,00:00:04.804,0.0035989479220006632
1202,00:00:04.808,0.017817045911215232
1203,00:00:04.812,-0.005537148215807969
1204,00:00:04.816,0.00255918619222939
1205,00:00:04.82,-0.00845671608112751
1206,00:00:04.824,0.008649223484098911
1207,00:00:04.828,0.0007357723661698381
1208,00:00:04.832,-0.013073614652967084
1209,00:00:04.836,-0.0015719564980827222
1210,00:00:04.84,0.005765111003711357
1211,00:00:04.844,0.00437822553794831
1212,00:00:04.848,-0.0032339632452931238
1213,00:00:04.852,0.00040856267150957484
1214,00:00:04.856,-0.0029949695745017362
1215,00:00:04.86,-0.00376693659927696
1216,00:00:04.864,0.008924345020204784
1217,00:00:04.868,0.020745510933920762
1218,00:00:04.872,-0.005555671916226853
1219,00:00:04.876,-0.02550395997241137
1220,00:00:04.88,-0.01034663547761738
1221,00:00:04.884,0.004169611842371518
1222,00:00:04.888,0.014600893104216084
1223,00:00:04.892,0.005036941729485985
1224,00:00:04.896,-0.0015702457167208195
1225,00:00:04.9,-0.0036939652636647207
1226,00:00:04.904,0.02225316595286132
1227,00:00:04.908,-0.018005863705184293
1228,00:00:04.912,-0.016203043516725312
1229,00:00:04.916,0.0012646630639210309
1230,00:00:04.92,0.00918690208345652
1231,00:00:04.924,-4.505860852076996e-05
1232,00:00:04.928,0.002716787625104188
1233,00:00:04.932,0.012669712421484292
1234,00:00:04.936,-0.017660199533565943
1235,00:00:04.94,0.004895096208201728
1236,00:00:04.944,0.008517557460436368
1237,00:00:04.948,-0.007054800633341069
1238,00:00:04.952,-0.007376668305369093
1239,00:00:04.956,-0.012703251559287315
1240,00:00:04.96,0.00375698902644217
1241,00:00:04.964,0.02209808543557305
1242,00:00:04.968,0.01692319465792026
1243,00:00:04.972,-0.020104180788621334
1244,00:00:04.976,-0.009887340420391404
1245,00:00:04.98,0.0021965506603010033
1246,00:00:04.984,-0.011855249667860343
1247,00:00:04.988,0.010172651149332522
1248,00:00:04.992,0.014556380454450851
1249,00:00:04.996,-0.006787012913264341
1250,00:00:05,0.012399760773405415
1251,00:00:05.004,-0.016399395186454058
1252,00:00:05.008,-0.01176286861300468
1253,00:00:05.012,0.006326058879494658
1254,00:00:05.016,0.0014765792293474128
1255,00:00:05.02,0.007162696099840061
1256,00:00:05.024,0.012223854719195508
1257,00:00:05.028,-0.012739914178382643
1258,00:00:05.032,-0.007911895867437131
1259,00:00:05.036,0.0013482894282787986
1260,00:00:05.04,0.005755981474067085
1261,00:00:05.044,0.004794280277565123
1262,00:00:05.048,-0.01736592478118837
1263,00:00:05.052,0.013894133968278771
1264,00:00:05.056,0.00531643599970267
1265,00:00:05.06,-0.00400960887782281
1266,00:00:05.064,-0.006922693282831462
1267,00:00:05.068,0.0038377522723749297
1268,00:00:05.072,0.00016776029951870008
1269,00:00:05.076,-0.0053859428444411606
1270,00:00:05.08,-0.0032755613210611024
1271,00:00:05.084,0.0069875743938609906
1272,00:00:05.088,0.003655246691778302
1273,00:00:05.092,0.005218748585321008
1274,00:00:05.096,-0.0005223357002250842
1275,00:00:05.1,-0.008741884725168349
1276,00:00:05.104,-0.005039650393882766
1277,00:00:05.108,0.0005300187622196978
1278,00:00:05.112,0.0015206450480036429
1279,00:00:05.116,0.0138770746998489
1280,00:00:05.12,-0.0002817789791151812
1281,00:00:05.124,-0.00633375300094486
1282,00:00:05.128,-0.02047933265566826
1283,00:00:05.132,0.013334994320757729
1284,00:00:05.136,0.0102964830584824
1285,00:00:05.14,-0.0020525157451629795
1286,00:00:05.144,0.006568529293872411
1287,00:00:05.148,-0.011752605147194114
1288,00:00:05.152,-0.00592114019673318
1289,00:00:05.156,-0.003755316487513475
1290,00:00:05.16,0.007682902156375349
1291,00:00:05.164,0.00503830215893687
1292,00:00:05.168,0.010617803141940382
1293,00:00:05.172,-0.003857684438116844
1294,00:00:05.176,-0.0120726212626323
1295,00:00:05.18,-0.00790434260852635
1296,00:00:05.184,0.00785473940777592
1297,00:00:05.188,0.005103355506435029
1298,00:00:05.192,-0.0003048825310543199
1299,00:00:05.196,-0.004912875359877951
1300,00:00:05.2,0.014214571798220249
1301,00:00:05.204,-0.006336423568427561
1302,00:00:05.208,-0.009751098928973093
1303,00:00:05.212,-0.0048379063955508094
1304,00:00:05.216,0.01159873534925282
1305,00:00:05.22,0.019646574161015416
1306,00:00:05.224,-0.012680700790951953
1307,00:00:05.228,-0.019235012354329277
1308,00:00:05.232,-0.01050395262427628
1309,00:00:05.236,0.00555312362462246
1310,00:00:05.24,0.02149214223027226
1311,00:00:05.244,0.013580440776422613
1312,00:00:05.248,-0.00811344047542662
1313,00:00:05.252,-0.002713139168918128
1314,00:00:05.256,-0.013955281989183261
1315,00:00:05.26,-0.00681611301843077
1316,00:00:05.264,0.004458722862182188
1317,00:00:05.268,0.0048978021368384405
1318,00:00:05.272,0.00455240276642143
1319,00:00:05.276,0.0088422120315954
1320,00:00:05.28,-0.001557559065986421
1321,00:00:05.284,-0.004104239924345169
1322,00:00:05.288,-0.013749838341027491
1323,00:00:05.292,-0.006382774794474241
1324,00:00:05.296,0.011319369950797407
1325,00:00:05.3,0.016421151813119678
1326,00:00:05.304,-0.0070006392779760045
1327,00:00:05.308,-0.009977741923648897
1328,00:00:05.312,0.0058891251683235194
1329,00:00:05.316,0.01034550910117103
1330,00:00:05.32,-0.015221974521409734
1331,00:00:05.324,0.0013540959917008911
1332,00:00:05.328,-0.0033870047191157902
1333,00:00:05.332,0.00012911518570036043
1334,00:00:05.336,0.0033392151817679423
1335,00:00:05.34,0.00792535347864031
1336,00:00:05.344,-0.0018235166498925546
1337,00:00:05.348,0.0008698888123035388
1338,00:00:05.352,0.0025986862019635824
1339,00:00:05.356,-0.01743144099600618
1340,00:00:05.36,0.00401943561155349
1341,00:00:05.364,0.00489310175180435
1342,00:00:05.368,0.005245051230303941
1343,00:00:05.372,-0.00113087578210979
1344,00:00:05.376,-0.006601684843190011
1345,00:00:05.38,0.006550043355673559
1346,00:00:05.384,-0.0050604685675352794
1347,00:00:05.388,-0.0025367640773765777
1348,00:00:05.392,0.010118335252627739
1349,00:00:05.396,0.003970256395405167
1350,00:00:05.4,-0.01597321312874556
1351,00:00:05.404,-0.00271985784638673
1352,00:00:05.408,0.01109153067227453
1353,00:00:05.412,0.0022536648903042134
1354,00:00:05.416,0.004921210434986281
1355,00:00:05.42,-0.005791373667307202
1356,00:00:05.424,0.00013378006406129014
1357,00:00:05.428,-0.01041506754700092
1358,00:00:05.432,0.008528261256287806
1359,00:00:05.436,-0.010224081634078168
1360,00:00:05.44,-0.003301371238194409
1361,00:00:05.444,0.005581913050264119
1362,00:00:05.448,0.01046742289327085
1363,00:00:05.452,0.00992391887120902
1364,00:00:05.456,-0.0024515242548659487
1365,00:00:05.46,-0.007541202940046799
1366,00:00:05.464,-0.008697225945070391
1367,00:00:05.468,0.001152085722424098
1368,00:00:05.472,0.00449751305859536
1369,00:00:05.476,-0.009100138526264331
1370,00:00:05.48,0.010410819901153445
1371,00:00:05.484,-0.002138074312824754
1372,00:00:05.488,-0.008433090522885319
1373,00:00:05.492,0.008462409605272114
1374,00:00:05.496,0.009064686018973589
1375,00:00:05.5,0.0008168267086148301
1376,00:00:05.504,-0.007290221692528581
1377,00:00:05.508,-0.01461099740117785
1378,00:00:05.512,0.01200432649056893
1379,00:00:05.516,0.01039994764141738
1380,00:00:05.52,-0.01958156531327402
1381,00:00:05.524,0.00602167670149355
1382,00:00:05.528,0.00721347774378954
1383,00:00:05.532,-0.0026265596970915395
1384,00:00:05.536,-0.007224237022455782
1385,00:00:05.54,0.003193763608578588
1386,00:00:05.544,0.00853946572169661
1387,00:00:05.548,-0.010302934329956777
1388,00:00:05.552,0.00398191483691335
1389,00:00:05.556,0.002256695996038619
1390,00:00:05.56,0.00055753893684596
1391,00:00:05.564,0.009761137363966523
1392,00:00:05.568,-0.00885173445567485
1393,00:00:05.572,-0.019364454405149483
1394,00:00:05.576,0.01948929192440123
1395,00:00:05.58,-0.003200877981726081
1396,00:00:05.584,-0.00454318610718474
1397,00:00:05.588,0.004009319847682486
1398,00:00:05.592,-0.0009452929371036624
1399,00:00:05.596,0.0020765420704265125
1400,00:00:05.6,-0.002724772377405317
1401,00:00:05.604,-0.004446201259270311
1402,00:00:05.608,0.010114797507412728
1403,00:00:05.612,0.011972179869189891
1404,00:00:05.616,0.0027743788668885914
1405,00:00:05.62,-0.024473707424476736
1406,00:00:05.624,-0.01399356214096766
1407,00:00:05.628,0.0045505820307880605
1408,00:00:05.632,0.01765577273908999
1409,00:00:05.636,-0.0006994087016209904
1410,00:00:05.64,0.010892244521528508
1411,00:00:05.644,-0.004700458957813689
1412,00:00:05.648,-0.005576608804403805
1413,00:00:05.652,-0.010757472482509866
1414,00:00:05.656,0.00595682009588927
1415,00:00:05.66,-0.0007904425729066199
1416,00:00:05.664,-0.00574261089786888
1417,00:00:05.668,0.010300557245500379
1418,00:00:05.672,0.01159137696959079
1419,00:00:05.676,-0.0016926425741985358
1420,00:00:05.68,-0.01600027584936466
1421,00:00:05.684,0.00504091416951269
1422,00:00:05.688,-0.00872305023949594
1423,00:00:05.692,0.002066695946268743
1424,00:00:05.696,0.005592739476924176
1425,00:00:05.7,0.010539574665017433
1426,00:00:05.704,0.003675407788250589
1427,00:00:05.708,-0.01815801183693114
1428,00:00:05.712,-0.0032414877787232486
1429,00:00:05.716,0.0054576694383285974
1430,00:00:05.72,0.004533832776360226
1431,00:00:05.724,-0.007137327454984198
1432,00:00:05.728,0.0024845252046361596
1433,00:00:05.732,0.01068460091482848
1434,00:00:05.736,0.00282565131783486
1435,00:00:05.74,-0.015158416237682059
1436,00:00:05.744,0.002914927434176209
1437,00:00:05.748,-0.000594835801166479
1438,00:00:05.752,-0.004289305883503399
1439,00:00:05.756,0.006965093780308967
1440,00:00:05.76,0.0005601834272965806
1441,00:00:05.764,0.001647710247198123
1442,00:00:05.768,5.4890537285247256e-05
1443,00:00:05.772,-0.0034011502284556597
1444,00:00:05.776,0.00245059333610698
1445,00:00:05.78,-0.0013447296805679872
1446,00:00:05.784,-0.007860650308430188
1447,00:00:05.788,0.00534653500653804
1448,00:00:05.792,0.01159990485757589
1449,00:00:05.796,-0.008665638597449284
1450,00:00:05.8,0.00969462969806045
1451,00:00:05.804,-0.018082524882629562
1452,00:00:05.808,-0.005081572624476387
1453,00:00:05.812,0.01293961377814408
1454,00:00:05.816,-0.00239405874162912
1455,00:00:05.82,-0.0033457410754635978
1456,00:00:05.824,0.01042534108273686
1457,00:00:05.828,0.003182451269822195
1458,00:00:05.832,0.0016213221242651343
1459,00:00:05.836,-0.008472971967421476
1460,00:00:05.84,-0.015073300804942852
1461,00:00:05.844,0.00010930396092589924
1462,00:00:05.848,0.023218379879835962
1463,00:00:05.852,-0.0048347276169806285
1464,00:00:05.856,0.0054497331730090064
1465,00:00:05.86,-0.007446823903592304
1466,00:00:05.864,-0.003070655511692167
1467,00:00:05.868,-0.008431531721726067
1468,00:00:05.872,0.0005220836210355656
1469,00:00:05.876,-0.0014297324232757074
1470,00:00:05.88,0.012750535504892465
1471,00:00:05.884,0.009512364165857441
1472,00:00:05.888,-0.011413443542551253
1473,00:00:05.892,0.0045540798455476796
1474,00:00:05.896,-0.0012505123740993425
1475,00:00:05.9,-0.012828993319999421
1476,00:00:05.904,-0.006454766495153309
1477,00:00:05.908,0.004676650743931534
1478,00:00:05.912,0.015746235847473148
1479,00:00:05.916,0.016128425253555147
1480,00:00:05.92,-0.0039093173108994995
1481,00:00:05.924,-0.02808405272662637
1482,00:00:05.928,-0.006568577198777392
1483,00:00:05.932,0.01232935767620802
1484,00:00:05.936,0.0096666615572758
1485,00:00:05.94,-0.0043482839828357205
1486,00:00:05.944,-0.003744304645806555
1487,00:00:05.948,-0.00410006323363631
1488,00:00:05.952,0.012504493817687031
1489,00:00:05.956,-0.0024040074786171295
1490,00:00:05.96,-0.0016090366789285335
1491,00:00:05.964,0.0010767397470772223
1492,00:00:05.968,0.0016414974816143595
1493,00:00:05.972,-0.0057904422283172295
1494,00:00:05.976,0.002776202687527986
1495,00:00:05.98,0.0029636430554092
1496,00:00:05.984,-0.0058650680002756035
1497,00:00:05.988,-0.01246188930235803
1498,00:00:05.992,-0.004468254162929961
1499,00:00:05.996,0.029577864333987257
1500,00:00:06,-0.0024350490421056704
1501,00:00:06.004,0.0030299987702164803
1502,00:00:06.008,-0.007092838561220557
1503,00:00:06.012,-0.011379198014765283
1504,00:00:06.016,0.0007489568233722838
1505,00:00:06.02,0.01031615189276632
1506,00:00:06.024,-0.00689943437464535
1507,00:00:06.028,-0.0061391149647534
1508,00:00:06.032,0.012256656050794845
1509,00:00:06.036,0.004747215396491808
1510,00:00:06.04,-0.0042902488930849445
1511,00:00:06.044,-0.005057196816778746
1512,00:00:06.048,-0.002432751585729421
1513,00:00:06.052,0.00034905772190541983
1514,00:00:06.056,0.005955165179329929
1515,00:00:06.06,-0.00836392608471215
1516,00:00:06.064,-0.0025979402907978467
1517,00:00:06.068,0.01262076862622052
1518,00:00:06.072,0.0025509179104119496
1519,00:00:06.076,0.005958531110081817
1520,00:00:06.08,-0.011336645693518211
1521,00:00:06.084,-0.00687709776684642
1522,00:00:06.088,-0.0013357339194044497
1523,00:00:06.092,-0.005952180072199558
1524,00:00:06.096,0.02166788186877966
1525,00:00:06.1,0.001237191259860989
1526,00:00:06.104,-0.01902109384536743
1527,00:00:06.108,0.007632949826074764
1528,00:00:06.112,0.007267264212714513
1529,00:00:06.116,-0.0017631317023187893
1530,00:00:06.12,-0.0064435167587362265
1531,00:00:06.124,-0.00942203134763986
1532,00:00:06.128,0.00683727255091072
1533,00:00:06.132,0.005791503004729739
1534,00:00:06.136,-0.0031016334251034996
1535,00:00:06.14,0.01240395870991051
1536,00:00:06.144,-0.0005363418022170598
1537,00:00:06.148,0.008154714596457769
1538,00:00:06.152,-0.026164596900343853
1539,00:00:06.156,-0.02084896783344448
1540,00:00:06.16,0.026464323280379207
1541,00:00:06.164,0.01709239336196329
1542,00:00:06.168,-0.01414265448693183
1543,00:00:06.172,-0.0017098592361435051
1544,00:00:06.176,-0.01115717214997858
1545,00:00:06.18,0.01472131931222977
1546,00:00:06.184,0.0014099307009019
1547,00:00:06.188,0.004633956123143431
1548,00:00:06.192,-0.0029504629201255773
1549,00:00:06.196,-0.00295911577995866
1550,00:00:06.2,-0.005490305906278081
1551,00:00:06.204,0.0016638794913887995
1552,00:00:06.208,-0.00708858272992074
1553,00:00:06.212,-0.0007331038359552604
1554,00:00:06.216,0.007351477775955576
1555,00:00:06.22,0.010643459972925531
1556,00:00:06.224,0.0023946424480527613
1557,00:00:06.228,-0.0026218321290798485
1558,00:00:06.232,-0.01487582549452782
1559,00:00:06.236,-0.012715909077087466
1560,00:00:06.24,0.023893484845757488
1561,00:00:06.244,0.0008714591676834991
1562,00:00:06.248,0.0037581149954348603
1563,00:00:06.252,-0.017128658073488637
1564,00:00:06.256,0.005346373422071329
1565,00:00:06.26,0.0038089482113718995
1566,00:00:06.264,-0.005562763137277212
1567,00:00:06.268,0.00255918747279793
1568,00:00:06.272,0.0011576644610613602
1569,00:00:06.276,0.003182685410138218
1570,00:00:06.28,-0.00740831371513195
1571,00:00:06.284,0.01897164973524921
1572,00:00:06.288,-0.0074296203383710235
1573,00:00:06.292,-0.008633233592263426
1574,00:00:06.296,-0.01309015264268961
1575,00:00:06.3,0.00568468973506245
1576,00:00:06.304,0.007143517137592429
1577,00:00:06.308,0.007512015690736003
1578,00:00:06.312,0.0021750564919784682
1579,00:00:06.316,-0.0024635578156448883
1580,00:00:06.32,-0.008266849908977742
1581,00:00:06.324,0.0007709152414463417
1582,00:00:06.328,0.004212006460875273
1583,00:00:06.332,0.003139860637020319
1584,00:00:06.336,-0.005861498686499541
1585,00:00:06.34,-0.008368148002773516
1586,00:00:06.344,0.0038595843361690623
1587,00:00:06.348,0.005863879632670429
1588,00:00:06.352,-0.0008727137865207598
1589,00:00:06.356,-0.004314295714721084
1590,00:00:06.36,0.019683451348100737
1591,00:00:06.364,0.007370668725343423
1592,00:00:06.368,-0.026491200922464448
1593,00:00:06.372,-0.018657925455045164
1594,00:00:06.376,-0.00493453128729016
1595,00:00:06.38,0.03369438112713398
1596,00:00:06.384,0.015102926525287351
1597,00:00:06.388,-0.00761579850222916
1598,00:00:06.392,-0.01225134381093085
1599,00:00:06.396,-0.01199180725961923
1600,00:00:06.4,0.0025074012228287735
1601,00:00:06.404,0.00410894036758691
1602,00:00:06.408,0.006407932107322269
1603,00:00:06.412,0.00287183013278991
1604,00:00:06.416,-0.0030345731647685196
1605,00:00:06.42,-0.0008052049670368403
1606,00:00:06.424,-0.0008844509720802394
1607,00:00:06.428,-0.0030812260811217125
1608,00:00:06.432,0.007541651139035819
1609,00:00:06.436,-0.0022963403025642102
1610,00:00:06.44,-0.01050942845176906
1611,00:00:06.444,-0.00061256578192115
1612,00:00:06.448,0.004932600008032744
1613,00:00:06.452,0.009538855403661731
1614,00:00:06.456,0.00305602396838367
1615,00:00:06.46,-0.017747357313055517
1616,00:00:06.464,0.01672641607001427
1617,00:00:06.468,0.0037350286729633704
1618,00:00:06.472,-0.014610742859076698
1619,00:00:06.476,-0.011004394968040284
1620,00:00:06.48,0.00508840149268512
1621,00:00:06.484,0.0063122512365225624
1622,00:00:06.488,0.011402373958844695
1623,00:00:06.492,0.0005549468914978182
1624,00:00:06.496,-0.013519285828806418
1625,00:00:06.5,0.0022091209539212317
1626,00:00:06.504,-0.0027791791071649597
1627,00:00:06.508,0.006572448910446833
1628,00:00:06.512,0.003408338496228687
1629,00:00:06.516,-0.009664639423135663
1630,00:00:06.52,0.010570783400908109
1631,00:00:06.524,-0.01063980895560235
1632,00:00:06.528,0.0005442561814561599
1633,00:00:06.532,-0.00088194874115289
1634,00:00:06.536,0.010307616379577663
1635,00:00:06.54,-0.004495583241805437
1636,00:00:06.544,0.0001060279319062803
1637,00:00:06.548,0.002147856313968079
1638,00:00:06.552,-0.01104936198680662
1639,00:00:06.556,0.01352541404776271
1640,00:00:06.56,0.00405539479106665
1641,00:00:06.564,-0.01930482010357082
1642,00:00:06.568,0.004464568861294533
1643,00:00:06.572,-0.0016503304941579678
1644,00:00:06.576,0.0018187304958701103
1645,00:00:06.58,0.00864880345761778
1646,00:00:06.584,0.002108372762450015
1647,00:00:06.588,0.004560361499898139
1648,00:00:06.592,-0.0046203107631299645
1649,00:00:06.596,-0.013201076071709388
1650,00:00:06.6,0.001365421136142686
1651,00:00:06.604,0.00628860818687826
1652,00:00:06.608,-0.00350546441040933
1653,00:00:06.612,-0.00557725795079022
1654,00:00:06.616,0.012227226863615218
1655,00:00:06.62,-0.0014650792290922222
1656,00:00:06.624,0.0017134391237050312
1657,00:00:06.628,0.004054971272125844
1658,00:00:06.632,-0.00383337074890733
1659,00:00:06.636,-0.013787060976028439
1660,00:00:06.64,0.000448065460659567
1661,00:00:06.644,0.00409526354633272
1662,00:00:06.648,0.013886949745938177
1663,00:00:06.652,0.00438741536345332
1664,00:00:06.656,-0.015520110115176015
1665,00:00:06.66,-0.00878775794990361
1666,00:00:06.664,0.01633972448325948
1667,00:00:06.668,0.009948946069926055
1668,00:00:06.672,-0.018698656902415633
1669,00:00:06.676,-0.011547330068424334
1670,00:00:06.68,0.012266693986020979
1671,00:00:06.684,-0.00898573931772262
1672,00:00:06.688,0.018853153829695615
1673,00:00:06.692,0.001937845780048522
1674,00:00:06.696,3.9735255995764895e-05
1675,00:00:06.7,-0.00623501208610834
1676,00:00:06.704,-0.007583961589261888
1677,00:00:06.708,0.0019518619556038188
1678,00:00:06.712,-0.007675339933484799
1679,00:00:06.716,0.01708559680264443
1680,00:00:06.72,-0.00438580045010895
1681,00:00:06.724,-0.0031229968299157913
1682,00:00:06.728,-0.0005465168505907041
1683,00:00:06.732,0.011405619618017223
1684,00:00:06.736,-0.0044813907588832115
1685,00:00:06.74,-0.017748065292835208
1686,00:00:06.744,0.0037284715363057348
1687,00:00:06.748,0.004180497722700241
1688,00:00:06.752,0.009157380205579099
1689,00:00:06.756,0.00593383493833244
1690,00:00:06.76,-0.012309973157243819
1691,00:00:06.764,0.009909888962283722
1692,00:00:06.768,-0.003409998942515814
1693,00:00:06.772,-0.00866496533853933
1694,00:00:06.776,-1.8124919733964774e-05
1695,00:00:06.78,-0.008808977931039406
1696,00:00:06.784,0.004719249787740409
1697,00:00:06.788,0.006260166323045274
1698,00:00:06.792,0.015923356404528022
1699,00:00:06.796,-0.0072725388454273395
1700,00:00:06.8,-0.00465941242873668
1701,00:00:06.804,-0.0031971505377441606
1702,00:00:06.808,-0.005754512505518502
1703,00:00:06.812,0.010094913657667334
1704,00:00:06.816,-0.005899333336856213
1705,00:00:06.82,0.0026056478964164827
1706,00:00:06.824,-0.002126011970176475
1707,00:00:06.828,0.0015071020461618892
1708,00:00:06.832,0.001515270851086829
1709,00:00:06.836,-0.003754256758838892
1710,00:00:06.84,0.00550862727686763
1711,00:00:06.844,0.004655073455069218
1712,00:00:06.848,-0.005823074228828775
1713,00:00:06.852,-0.011545511428266732
1714,00:00:06.856,-0.0017048573354259203
1715,00:00:06.86,0.01883028831798579
1716,00:00:06.864,0.0023082671687006994
1717,00:00:06.868,-0.004857381689362219
1718,00:00:06.872,-0.0013188813536544348
1719,00:00:06.876,-0.008959299360867624
1720,00:00:06.88,-0.0013456310261972218
1721,00:00:06.884,0.0008977229299489454
1722,00:00:06.888,0.00578393251635134
1723,00:00:06.892,-5.764362867921938e-05
1724,00:00:06.896,0.012942347442731272
1725,00:00:06.9,-0.004263684852048753
1726,00:00:06.904,-0.012619678396731619
1727,00:00:06.908,-0.009938870323821881
1728,00:00:06.912,0.01029835498775358
1729,00:00:06.916,0.0010267536854371407
1730,00:00:06.92,0.01230929116718471
1731,00:00:06.924,0.0057046940783038735
1732,00:00:06.928,-0.015689891588408496
1733,00:00:06.932,-0.008240482769906469
1734,00:00:06.936,0.004481440759263929
1735,00:00:06.94,0.0030262463260442
1736,00:00:06.944,0.001866587204858658
1737,00:00:06.948,-0.0013101786316838111
1738,00:00:06.952,-0.006419659883249556
1739,00:00:06.956,0.009007083019241696
1740,00:00:06.96,0.006169193773530426
1741,00:00:06.964,0.0015762536786496813
1742,00:00:06.968,-0.0002406940329819935
1743,00:00:06.972,-0.008058313163928691
1744,00:00:06.976,-0.01149078295566142
1745,00:00:06.98,-0.007016086601652205
1746,00:00:06.984,0.0025941706844605436
1747,00:00:06.988,0.01445785048417747
1748,00:00:06.992,0.01878515118733048
1749,00:00:06.996,-0.003877206559991468
1750,00:00:07,-0.017039016180206087
1751,00:00:07.004,-0.002512537641450762
1752,00:00:07.008,0.002046204084763307
1753,00:00:07.012,0.006376434583216898
1754,00:00:07.016,0.0012674678582698098
1755,00:00:07.02,-0.01344320795033127
1756,00:00:07.024,-0.0043938726303167615
1757,00:00:07.028,0.015911186754237867
1758,00:00:07.032,0.00716598366852849
1759,00:00:07.036,-0.001763503591064363
1760,00:00:07.04,-0.01000976050272579
1761,00:00:07.044,-0.01789575233124194
1762,00:00:07.048,0.0209704063636309
1763,00:00:07.052,0.022648842248599973
1764,00:00:07.056,-0.01944394223392006
1765,00:00:07.06,-0.015035639982670554
1766,00:00:07.064,-0.007012529764324421
1767,00:00:07.068,0.01173810067120939
1768,00:00:07.072,0.015301070525310989
1769,00:00:07.076,-0.0020865296246483896
1770,00:00:07.08,-0.00989287637639791
1771,00:00:07.084,0.01476271031424406
1772,00:00:07.088,-0.01538463681936262
1773,00:00:07.092,-0.010123333369847425
1774,00:00:07.096,0.00799757754430175
1775,00:00:07.1,0.01066678902134299
1776,00:00:07.104,-0.0008508478058502095
1777,00:00:07.108,0.004883879795670549
1778,00:00:07.112,-0.008120948768919334
1779,00:00:07.116,-0.013169859972549602
1780,00:00:07.12,0.00436803512275219
1781,00:00:07.124,0.007524234390643871
1782,00:00:07.128,0.0043597058393061204
1783,00:00:07.132,0.0002243141643703103
1784,00:00:07.136,-0.004333863907959311
1785,00:00:07.14,-0.01517331216018648
1786,00:00:07.144,0.03254859591834243
1787,00:00:07.148,-0.00013647437299369077
1788,00:00:07.152,-0.030013013398274797
1789,00:00:07.156,-0.0026250984519720112
1790,00:00:07.16,0.006067681630156581
1791,00:00:07.164,0.00832892325706777
1792,00:00:07.168,0.007783708017086612
1793,00:00:07.172,0.014000410679727784
1794,00:00:07.176,-0.01937948586419225
1795,00:00:07.18,-0.016897693742066622
1796,00:00:07.184,0.002706106286495929
1797,00:00:07.188,0.01550667861010879
1798,00:00:07.192,-0.002571814373368396
1799,00:00:07.196,0.012029995908960709
1800,00:00:07.2,-0.01073888083919881
1801,00:00:07.204,-0.002541206602472817
1802,00:00:07.208,-0.006811968312831603
1803,00:00:07.212,0.0014979068655520712
1804,00:00:07.216,0.0067371333716437195
1805,00:00:07.22,-0.00018118228763341904
1806,00:00:07.224,0.010047338670119638
1807,00:00:07.228,-0.009299485203882796
1808,00:00:07.232,-0.003294718917459253
1809,00:00:07.236,0.005809390801005065
1810,00:00:07.24,-0.013464816380292188
1811,00:00:07.244,0.0018813266797224081
1812,00:00:07.248,0.012874558102339503
1813,00:00:07.252,0.005379444744903587
1814,00:00:07.256,-0.01152364874724298
1815,00:00:07.26,-0.00708069431129843
1816,00:00:07.264,0.01338535605464131
1817,00:00:07.268,-0.0045535751269198885
1818,00:00:07.272,-0.0027149953530170015
1819,00:00:07.276,-0.00029950425960124146
1820,00:00:07.28,0.00321300511131995
1821,00:00:07.284,-0.004770477593410762
1822,00:00:07.288,0.0010399187449365904
1823,00:00:07.292,0.00516666541807353
1824,00:00:07.296,0.00451236055232585
1825,00:00:07.3,-0.005058279493823639
1826,00:00:07.304,-0.0002360276412218796
1827,00:00:07.308,-0.002847369411028922
1828,00:00:07.312,-0.00787403632421046
1829,00:00:07.316,-2.459262032060948e-05
1830,00:00:07.32,0.02470977819757536
1831,00:00:07.324,-0.00494405650533736
1832,00:00:07.328,-0.01725584280211477
1833,00:00:07.332,-0.0069037314970046195
1834,00:00:07.336,0.012593547629876392
1835,00:00:07.34,0.015282229054719182
1836,00:00:07.344,-0.013702087802812441
1837,00:00:07.348,-0.0018597182061057525
1838,00:00:07.352,0.0005892750341445104
1839,00:00:07.356,-0.0018738273065537197
1840,00:00:07.36,0.0016528656706213999
1841,00:00:07.364,-0.00698758824728429
1842,00:00:07.368,0.0060080406256020095
1843,00:00:07.372,0.005958696710877125
1844,00:00:07.376,0.003758341714274138
1845,00:00:07.38,-0.003882351564243429
1846,00:00:07.384,-0.008927691495046023
1847,00:00:07.388,-0.0006778259994462074
1848,00:00:07.392,0.011521829816047113
1849,00:00:07.396,-0.008609621901996439
1850,00:00:07.4,0.007455756829585882
1851,00:00:07.404,-0.007509127550292767
1852,00:00:07.408,-0.0020790230482816696
1853,00:00:07.412,0.006160048740639458
1854,00:00:07.416,-0.0007887936662882536
1855,00:00:07.42,-0.0032202550064539546
1856,00:00:07.424,-0.00212570931762457
1857,00:00:07.428,0.01467884483281522
1858,00:00:07.432,-0.005796653800643977
1859,00:00:07.436,-0.0027842794079333505
1860,00:00:07.44,0.002207662211731072
1861,00:00:07.444,-0.003045585006475441
1862,00:00:07.448,-0.00134092615917325
1863,00:00:07.452,-0.01372545259073377
1864,00:00:07.456,0.004893334888038227
1865,00:00:07.46,0.01389687811024487
1866,00:00:07.464,0.00681527145206928
1867,00:00:07.468,-0.003922805422917011
1868,00:00:07.472,-0.010358608735259622
1869,00:00:07.476,0.0019637146033346605
1870,00:00:07.48,-0.005775358586106453
1871,00:00:07.484,0.012252870132215297
1872,00:00:07.488,-0.0008036100189201562
1873,00:00:07.492,7.019167969701812e-05
1874,00:00:07.496,-0.012937862629769377
1875,00:00:07.5,0.0022633246553596187
1876,00:00:07.504,0.0037163355518714516
1877,00:00:07.508,0.003690518904477359
1878,00:00:07.512,0.0021137500880286106
1879,00:00:07.516,0.006369763347890966
1880,00:00:07.52,-0.00505328259896487
1881,00:00:07.524,-0.01053604681510481
1882,00:00:07.528,0.002809596364386378
1883,00:00:07.532,-0.010769062093459071
1884,00:00:07.536,0.019157907343469602
1885,00:00:07.54,0.008692722796695303
1886,00:00:07.544,-0.01174428593367338
1887,00:00:07.548,-0.0029012787854298993
1888,00:00:07.552,-0.00494305836036798
1889,00:00:07.556,-0.0005852069007232798
1890,00:00:07.56,0.0071817394345998695
1891,00:00:07.564,0.004000141052529218
1892,00:00:07.568,-0.006916120517416851
1893,00:00:07.572,-0.0013075491879135297
1894,00:00:07.576,0.006016469793394161
1895,00:00:07.58,0.006718361226376137
1896,00:00:07.584,-0.00781044992618262
1897,00:00:07.588,-0.013114063127432048
1898,00:00:07.592,0.00028997451317991336
1899,00:00:07.596,0.013599831145256758
1900,00:00:07.6,0.007712372811511165
1901,00:00:07.604,-0.00314467237330974
1902,00:00:07.608,-0.00796742108650505
1903,00:00:07.612,-5.763926310464707e-05
1904,00:00:07.616,-0.00760189385619015
1905,00:00:07.62,0.00777546106837689
1906,00:00:07.624,-0.00020436808699741924
1907,00:00:07.628,0.006305344300926667
1908,00:00:07.632,-0.0024564873892814
1909,00:00:07.636,0.0070806265575811215
1910,00:00:07.64,-0.01545111113227908
1911,00:00:07.644,-0.0017761634662747392
1912,00:00:07.648,0.009925190301146357
1913,00:00:07.652,-0.014329286990687279
1914,00:00:07.656,0.00698303617537023
1915,00:00:07.66,0.025861668400466425
1916,00:00:07.664,-0.009769147727638467
1917,00:00:07.668,-0.018776429584249812
1918,00:00:07.672,-0.007380534196272491
1919,00:00:07.676,0.00841465627308935
1920,00:00:07.68,0.002894420176744469
1921,00:00:07.684,0.01411373051814735
1922,00:00:07.688,-0.0020770481787621975
1923,00:00:07.692,0.0020442797103896702
1924,00:00:07.696,-0.01453750173095614
1925,00:00:07.7,-0.0038148637104313803
1926,00:00:07.704,-0.004075711010955273
1927,00:00:07.708,0.02024606015766035
1928,00:00:07.712,-0.006062357279006388
1929,00:00:07.716,-0.0067265050020069
1930,00:00:07.72,0.007537705940194429
1931,00:00:07.724,-0.0065656067308736965
1932,00:00:07.728,-0.00273566716350615
1933,00:00:07.732,0.009120708215050389
1934,00:00:07.736,0.00721266260370612
1935,00:00:07.74,0.0029273999389261
1936,00:00:07.744,-0.01224574632942677
1937,00:00:07.748,-0.009427074459381405
1938,00:00:07.752,-0.01202182588167489
1939,00:00:07.756,0.01805841806344689
1940,00:00:07.76,0.01808055234141646
1941,00:00:07.764,-0.014767519896849993
1942,00:00:07.768,-0.008397725992836051
1943,00:00:07.772,0.013462631730362776
1944,00:00:07.776,-0.00202865921892226
1945,00:00:07.78,-0.00659175915643573
1946,00:00:07.784,0.008100690261926497
1947,00:00:07.788,-0.005762751257861968
1948,00:00:07.792,-0.008781068594544195
1949,00:00:07.796,0.003984527371358121
1950,00:00:07.8,0.016683242836734266
1951,00:00:07.804,-0.008337511520949194
1952,00:00:07.808,-0.00409170502098277
1953,00:00:07.812,-0.0033301463117822927
1954,00:00:07.816,0.00029724434716626286
1955,00:00:07.82,0.004638665821403268
1956,00:00:07.824,0.006887519099109346
1957,00:00:07.828,-0.006218657887075097
1958,00:00:07.832,-0.011454366074758589
1959,00:00:07.836,0.017677977724815754
1960,00:00:07.84,-0.012813890120014541
1961,00:00:07.844,0.0036260845372453297
1962,00:00:07.848,0.013155892724171333
1963,00:00:07.852,-0.008690196060342712
1964,00:00:07.856,-0.01052161445841194
1965,00:00:07.86,0.004269268276402719
1966,00:00:07.864,-0.0011660270392894797
1967,00:00:07.868,0.0054938172688707805
1968,00:00:07.872,0.005672340281307699
1969,00:00:07.876,2.623299951665407e-05
1970,00:00:07.88,-0.01216871431097388
1971,00:00:07.884,0.003649546066299081
1972,00:00:07.888,-0.004051014097058212
1973,00:00:07.892,0.006592196004930881
1974,00:00:07.896,0.017119339201599363
1975,00:00:07.9,-0.01601275440771132
1976,00:00:07.904,-0.015047784429043531
1977,00:00:07.908,0.007043488731142126
1978,00:00:07.912,0.006601534900255489
1979,00:00:07.916,0.005414996499894182
1980,00:00:07.92,-0.003952851053327323
1981,00:00:07.924,-0.003453550118138087
1982,00:00:07.928,-0.0068052148562856105
1983,00:00:07.932,0.009372811531648042
1984,00:00:07.936,0.010869267047382936
1985,00:00:07.94,-0.0019438443705439602
1986,00:00:07.944,-0.015770844358485143
1987,00:00:07.948,0.0034549163246992893
1988,00:00:07.952,0.0020346364472061417
1989,00:00:07.956,-0.0039003506244625974
1990,00:00:07.96,-0.0007295021787285822
1991,00:00:07.964,0.0005989961500745319
1992,00:00:07.968,0.011705535696819421
1993,00:00:07.972,0.002059347927570345
1994,00:00:07.976,-0.008472871530102562
1995,00:00:07.98,-0.003765541710890832
1996,00:00:07.984,0.0038102602702565487
1997,00:00:07.988,-0.006690911395708105
1998,00:00:07.992,0.0023554500075988524
1999,00:00:07.996,-0.0022083127405494694
2000,00:00:08,0.010310654441127557
2001,00:00:08.004,-0.0011493259517010319
2002,00:00:08.008,0.009830151218920991
2003,00:00:08.012,-0.01298027380835266
2004,00:00:08.016,0.0007921853102743686
2005,00:00:08.02,-0.0019158193608745898
2006,00:00:08.024,-0.014758338918909432
2007,00:00:08.028,0.0026118497771676673
2008,00:00:08.032,0.012246449710801242
2009,00:00:08.036,0.00482830032706261
2010,00:00:08.04,0.01415551497484553
2011,00:00:08.044,-0.0017951258341781786
2012,00:00:08.048,-0.01928019782644696
2013,00:00:08.052,-0.0174440591363236
2014,00:00:08.056,0.01519110496155918
2015,00:00:08.06,0.01725968829123299
2016,00:00:08.064,-0.012037321808747987
2017,00:00:08.068,-0.0069744037464261
2018,00:00:08.072,0.00900923053268343
2019,00:00:08.076,-0.0032250104341073928
2020,00:00:08.08,0.0040655627090018225
2021,00:00:08.084,0.0014774338633287661
2022,00:00:08.088,-0.0019439063908066583
2023,00:00:08.092,-0.007248834124766289
2024,00:00:08.096,-0.0023444502148777294
2025,00:00:08.1,0.004757120157592
2026,00:00:08.104,0.010722413127950853
2027,00:00:08.108,-0.014662858215160661
2028,00:00:08.112,0.006141665595350781
2029,00:00:08.116,0.0016824664198793484
2030,00:00:08.12,0.00415934075135738
2031,00:00:08.124,-0.00237292912788688
2032,00:00:08.128,-0.0037105001974850923
2033,00:00:08.132,-0.01265193778090179
2034,00:00:08.136,0.01172588067129251
2035,00:00:08.14,0.01151814032346009
2036,00:00:08.144,-0.00533786066807811
2037,00:00:08.148,0.005677961336914453
2038,00:00:08.152,-0.022964415606111302
2039,00:00:08.156,0.007385464385151861
2040,00:00:08.16,0.002371819922700533
2041,00:00:08.164,0.0016009438550099696
2042,00:00:08.168,-0.004741044482216238
2043,00:00:08.172,0.013132516178302462
2044,00:00:08.176,-0.01324583141831679
2045,00:00:08.18,0.011184586910530932
2046,00:00:08.184,0.01046320819295941
2047,00:00:08.188,-0.013335978845134358
2048,00:00:08.192,-0.00703193119261411
2049,00:00:08.196,-0.0059616984799504245
2050,00:00:08.2,0.0034574503079056775
2051,00:00:08.204,0.00808908231556415
2052,00:00:08.208,0.0023114916402846514
2053,00:00:08.212,-0.000445880788902286
2054,00:00:08.216,-0.00344822951592505
2055,00:00:08.22,0.0007286483887583095
2056,00:00:08.224,-0.005264474428258839
2057,00:00:08.228,0.010144303552806381
2058,00:00:08.232,0.00451462459750474
2059,00:00:08.236,-0.01572676422074438
2060,00:00:08.24,-0.011141259263240492
2061,00:00:08.244,0.03532538621220742
2062,00:00:08.248,-0.0051265605725348065
2063,00:00:08.252,-0.02201185162994078
2064,00:00:08.256,0.010066384100355201
2065,00:00:08.26,-0.0014721307379659226
2066,00:00:08.264,-0.004891034448519351
2067,00:00:08.268,-0.0027598830638453395
2068,00:00:08.272,0.005029064515838398
2069,00:00:08.276,0.0034484141506254604
2070,00:00:08.28,0.006664767279289665
2071,00:00:08.284,-0.00500703928992152
2072,00:00:08.288,0.006489619147032502
2073,00:00:08.292,-0.00801237148698419
2074,00:00:08.296,-0.010326740295568019
2075,00:00:08.3,0.013871356844902042
2076,00:00:08.304,-0.00743303587660194
2077,00:00:08.308,0.006171437809825827
2078,00:00:08.312,0.003256680211052309
2079,00:00:08.316,-0.01026221364736557
2080,00:00:08.32,0.001621972216526049
2081,00:00:08.324,-0.003026403370313349
2082,00:00:08.328,0.005188576062209902
2083,00:00:08.332,0.00429221231024713
2084,00:00:08.336,0.004957459153956735
2085,00:00:08.34,-0.01612581231165677
2086,00:00:08.344,0.00617971085011959
2087,00:00:08.348,0.014535796188283705
2088,00:00:08.352,-0.01148317637853322
2089,00:00:08.356,-0.00181959057226777
2090,00:00:08.36,-0.017685210623312714
2091,00:00:08.364,0.006044737037882438
2092,00:00:08.368,0.026360751595348147
2093,00:00:08.372,0.0022809713846072494
2094,00:00:08.376,-0.02436540275812149
2095,00:00:08.38,-0.0114477183669806
2096,00:00:08.384,0.01973992330022154
2097,00:00:08.388,0.006866320327389984
2098,00:00:08.392,-0.0010553344036452446
2099,00:00:08.396,6.893835961818869e-05
2100,00:00:08.4,-0.007596650480991225
2101,00:00:08.404,-0.015342029102612287
2102,00:00:08.408,0.009742913163790938
2103,00:00:08.412,0.02980638551525774
2104,00:00:08.416,-0.01563593151513483
2105,00:00:08.42,-0.01708442810922863
2106,00:00:08.424,-0.0049166654644068305
2107,00:00:08.428,0.003159698433591982
2108,00:00:08.432,0.008370724972337491
2109,00:00:08.436,0.02010865800548342
2110,00:00:08.44,-0.00016782165039331458
2111,00:00:08.444,-0.02709452656563372
2112,00:00:08.448,0.01133485347963871
2113,00:00:08.452,0.00391637987922877
2114,00:00:08.456,-0.011198243824765131
2115,00:00:08.46,-0.007335991133004424
2116,00:00:08.464,0.01339685171842575
2117,00:00:08.468,0.0026147798780584756
2118,00:00:08.472,-0.004901386797428129
2119,00:00:08.476,0.00489551993086937
2120,00:00:08.48,0.0027308249846100803
2121,00:00:08.484,-0.00967782759107649
2122,00:00:08.488,0.0003800601698458299
2123,00:00:08.492,0.001413039062754251
2124,00:00:08.496,0.02124769845977425
2125,00:00:08.5,-0.011477360269054769
2126,00:00:08.504,-0.01799692365602827
2127,00:00:08.508,0.00278879003599286
2128,00:00:08.512,0.0021714020986110007
2129,00:00:08.516,0.011650729109533119
2130,00:00:08.52,-0.008794532652245838
2131,00:00:08.524,-0.009080143325263634
2132,00:00:08.528,0.016806891740998302
2133,00:00:08.532,0.005371420702431347
2134,00:00:08.536,-0.0009891394875012334
2135,00:00:08.54,-0.012103550106985505
2136,00:00:08.544,-0.00022359748982125286
2137,00:00:08.548,-0.0066322652855888
2138,00:00:08.552,0.006547188037075102
2139,00:00:08.556,0.012514832254964837
2140,00:00:08.56,-0.008189345069695248
2141,00:00:08.564,-0.008919169136788698
2142,00:00:08.568,0.003667224053060641
2143,00:00:08.572,0.00758036990009716
2144,00:00:08.576,0.007024574035312989
2145,00:00:08.58,-0.01005890883971006
2146,00:00:08.584,-0.003184737637639059
2147,00:00:08.588,-0.00010536576155573303
2148,00:00:08.592,-0.00522150099277496
2149,00:00:08.596,0.007013082737103101
2150,00:00:08.6,0.0056373566621914515
2151,00:00:08.604,0.002862420456949629
2152,00:00:08.608,-0.00457188743166625
2153,00:00:08.612,-0.01114959130063653
2154,00:00:08.616,-0.004617869126377625
2155,00:00:08.62,0.021652245137374796
2156,00:00:08.624,0.0011442407267168208
2157,00:00:08.628,-0.018922160845249898
2158,00:00:08.632,0.018197761077317444
2159,00:00:08.636,-0.00663297052960844
2160,00:00:08.64,-0.01431651512393729
2161,00:00:08.644,0.0037725330330431505
2162,00:00:08.648,0.01405471737962215
2163,00:00:08.652,-0.011320546389470113
2164,00:00:08.656,0.009732541191624493
2165,00:00:08.66,0.02014961559325457
2166,00:00:08.664,-0.026799088111147302
2167,00:00:08.668,-0.01647560834499018
2168,00:00:08.672,0.0072603244334459305
2169,00:00:08.676,0.009139876579865824
2170,00:00:08.68,0.00636676431167872
2171,00:00:08.684,0.00198246154468507
2172,00:00:08.688,0.0006057898990547976
2173,00:00:08.692,-0.004859646782279009
2174,00:00:08.696,0.004173026391072202
2175,00:00:08.7,-0.017576883838046307
2176,00:00:08.704,0.008473684079945129
2177,00:00:08.708,-0.002410687215160587
2178,00:00:08.712,0.006668483591056432
2179,00:00:08.716,0.006286545249167828
2180,00:00:08.72,-0.0024066288024187105
2181,00:00:08.724,-0.01304884813725944
2182,00:00:08.728,-0.005801285267807541
2183,00:00:08.732,0.019817898573819527
2184,00:00:08.736,0.00817409550654702
2185,00:00:08.74,0.00025615711638237544
2186,00:00:08.744,-0.01901778660248963
2187,00:00:08.748,-0.0045049233012832745
2188,00:00:08.752,-0.0020622557494789397
2189,00:00:08.756,-0.00253810081630946
2190,00:00:08.76,0.010033323429524899
2191,00:00:08.764,0.024206470465287587
2192,00:00:08.768,-0.005897432623896739
2193,00:00:08.772,-0.015266231261193778
2194,00:00:08.776,-0.013169447076506871
2195,00:00:08.78,0.0016421024920418793
2196,00:00:08.784,0.014374863822013171
2197,00:00:08.788,-0.0005550567293539648
2198,00:00:08.792,0.008619093976449247
2199,00:00:08.796,-0.005579417804256081
2200,00:00:08.8,-0.004721208475530131
2201,00:00:08.804,-0.007108253019396218
2202,00:00:08.808,-0.0030624645296484297
2203,00:00:08.812,0.01631406135857103
2204,00:00:08.816,-0.007397642824798821
2205,00:00:08.82,0.00730980304069817
2206,00:00:08.824,-0.00182509946171194
2207,00:00:08.828,-0.006456054805312304
2208,00:00:08.832,-0.01769995957147331
2209,00:00:08.836,0.02306228806264697
2210,00:00:08.84,0.01483144937083126
2211,00:00:08.844,-0.012639470631256752
2212,00:00:08.848,-0.00999779776611831
2213,00:00:08.852,0.000988718529697514
2214,00:00:08.856,-0.01216135686263442
2215,00:00:08.86,0.012776586925610905
2216,00:00:08.864,0.009144641342572861
2217,00:00:08.868,0.004236394539475441
2218,00:00:08.872,0.0013578891084762333
2219,00:00:08.876,-0.00785145454574374
2220,00:00:08.88,-0.01439749030396343
2221,00:00:08.884,-0.004147534793446542
2222,00:00:08.888,0.007547642278950661
2223,00:00:08.892,0.00248923571780323
2224,00:00:08.896,0.012682052329182654
2225,00:00:08.9,0.011238703969866039
2226,00:00:08.904,-0.00768564024474472
2227,00:00:08.908,-0.022695790721627432
2228,00:00:08.912,-0.0023774333531037
2229,00:00:08.916,0.01075536955613645
2230,00:00:08.92,0.0034365831525065013
2231,00:00:08.924,-0.007489648647606372
2232,00:00:08.928,0.014042425726074741
2233,00:00:08.932,0.002315810124855486
2234,00:00:08.936,-0.000447039723439957
2235,00:00:08.94,-0.02019248134456576
2236,00:00:08.944,0.00716697797179222
2237,00:00:08.948,-0.0027539814618648987
2238,00:00:08.952,0.013161120121367276
2239,00:00:08.956,-0.0032932724570855533
2240,00:00:08.96,-0.013326664171472637
2241,00:00:08.964,0.01433702150825416
2242,00:00:08.968,0.0060115140513517
2243,00:00:08.972,-0.017858085222542258
2244,00:00:08.976,0.0026844306266866702
2245,00:00:08.98,0.0017654626572038948
2246,00:00:08.984,0.004665536835091195
2247,00:00:08.988,0.008681450744916224
2248,00:00:08.992,-0.004312458797357976
2249,00:00:08.996,-0.013101845295750538
2250,00:00:09,0.0018136831204174052
2251,00:00:09.004,0.00672227202448994
2252,00:00:09.008,-0.01378454873338342
2253,00:00:09.012,0.014421672851312912
2254,00:00:09.016,0.005980137269943951
2255,00:00:09.02,0.007229755050502716
2256,00:00:09.024,-0.01424218399915843
2257,00:00:09.028,-0.010648316354490768
2258,00:00:09.032,-0.005241985956672582
2259,00:00:09.036,0.021687945351004618
2260,00:00:09.04,0.0019566870760172597
2261,00:00:09.044,-0.009574923198670138
2262,00:00:09.048,-0.0055572386190760915
2263,00:00:09.052,0.0007750838994979897
2264,00:00:09.056,0.004073459516803268
2265,00:00:09.06,0.007980702735949311
2266,00:00:09.064,0.010183430160395792
2267,00:00:09.068,-0.011511681950651113
2268,00:00:09.072,-0.022097686007327852
2269,00:00:09.076,0.003612082451581959
2270,00:00:09.08,0.01491643168264995
2271,00:00:09.084,0.00397625577170402
2272,00:00:09.088,-0.013591852941317463
2273,00:00:09.092,0.015470497310161589
2274,00:00:09.096,0.008051227152463973
2275,00:00:09.1,-0.012780754244886332
2276,00:00:09.104,-0.01050790876615792
2277,00:00:09.108,5.016010254621175e-05
2278,00:00:09.112,0.0042441390687599796
2279,00:00:09.116,0.014517139410600028
2280,00:00:09.12,-0.01609684294089678
2281,00:00:09.124,0.0017258662264794068
2282,00:00:09.128,0.010769631480798129
2283,00:00:09.132,-0.01015511760488152
2284,00:00:09.136,-0.010181877121794969
2285,00:00:09.14,0.01434949389658865
2286,00:00:09.144,0.0055698635987937485
2287,00:00:09.148,0.0032604732550680594
2288,00:00:09.152,-0.011769182980060609
2289,00:00:09.156,-0.00065935717429966
2290,00:00:09.16,-0.0006902083405293522
2291,00:00:09.164,-0.0036101070490985846
2292,00:00:09.168,-0.0009382823482155802
2293,00:00:09.172,0.02088008914142847
2294,00:00:09.176,-0.00182639807462692
2295,00:00:09.18,-0.015471465827431537
2296,00:00:09.184,0.0005878130905330151
2297,00:00:09.188,-0.005616053589619691
2298,00:00:09.192,0.008760964672546823
2299,00:00:09.196,0.003801566490437831
2300,00:00:09.2,-0.004517219133958858
2301,00:00:09.204,-0.0045087046455592
2302,00:00:09.208,0.009208109637256712
2303,00:00:09.212,0.0023730683024041337
2304,00:00:09.216,-0.017107125837355852
2305,00:00:09.22,0.01197704952210187
2306,00:00:09.224,0.00894270278513432
2307,00:00:09.228,-0.0008325187009177171
2308,00:00:09.232,-0.0065518687479198
2309,00:00:09.236,-0.01684641232714057
2310,00:00:09.24,0.00271519349189475
2311,00:00:09.244,0.00873887410853058
2312,00:00:09.248,0.0005813079769723099
2313,00:00:09.252,0.01849935931386426
2314,00:00:09.256,-0.00859104283154011
2315,00:00:09.26,-0.012925789225846501
2316,00:00:09.264,0.005819611149490772
2317,00:00:09.268,-0.010794628382427658
2318,00:00:09.272,0.01215775927994404
2319,00:00:09.276,0.00537370142410509
2320,00:00:09.28,-0.008142325765220464
2321,00:00:09.284,-0.01356596380355772
2322,00:00:09.288,0.016796763200545718
2323,00:00:09.292,0.02117681293748321
2324,00:00:09.296,-0.03031240962445731
2325,00:00:09.3,-0.0052106849616393395
2326,00:00:09.304,0.005542919505387539
2327,00:00:09.308,0.0027479538548504973
2328,00:00:09.312,0.00363765517249703
2329,00:00:09.316,0.017792262253351555
2330,00:00:09.32,-0.00827380549162626
2331,00:00:09.324,-0.01194490375928578
2332,00:00:09.328,-0.004090055444976306
2333,00:00:09.332,-0.007649429921002594
2334,00:00:09.336,0.01474398095160723
2335,00:00:09.34,-0.00300436047837138
2336,00:00:09.344,0.006911148637300366
2337,00:00:09.348,0.0073243560545961355
2338,00:00:09.352,-0.010321030858904122
2339,00:00:09.356,-0.010146248183446008
2340,00:00:09.36,0.0009706282289698703
2341,00:00:09.364,0.013711161212995647
2342,00:00:09.368,-0.00934248458361253
2343,00:00:09.372,0.0054483423009514505
2344,00:00:09.376,0.01613398245535795
2345,00:00:09.38,-0.017238039465155435
2346,00:00:09.384,-0.018016829621046806
2347,00:00:09.388,0.0005222852341830691
2348,00:00:09.392,0.010337599087506519
2349,00:00:09.396,0.018765279324725312
2350,00:00:09.4,0.0034981667995452794
2351,00:00:09.404,-0.01314887951593847
2352,00:00:09.408,0.0007022705394774693
2353,00:00:09.412,-0.013517793966457269
2354,00:00:09.416,0.0017835354519775155
2355,00:00:09.42,0.01422496381564996
2356,00:00:09.424,-0.005573683476541198
2357,00:00:09.428,-0.0074557599727995616
2358,00:00:09.432,0.001736954029183832
2359,00:00:09.436,0.0048283137512044084
2360,00:00:09.44,0.011970359089900743
2361,00:00:09.444,-0.009016993804834788
2362,00:00:09.448,0.0024717603810131498
2363,00:00:09.452,-0.0028116742614656695
2364,00:00:09.456,-0.01271605610963892
2365,00:00:09.46,-0.003217176592443135
2366,00:00:09.464,0.010153193434234702
2367,00:00:09.468,0.008840673137456144
2368,00:00:09.472,-0.0035093849292025005
2369,00:00:09.476,0.01603337272536006
2370,00:00:09.48,-0.02153842546977106
2371,00:00:09.484,0.00547192756494041
2372,00:00:09.488,-0.004615633166395131
2373,00:00:09.492,-0.00320831208955497
2374,00:00:09.496,0.004895207946901794
2375,00:00:09.5,-0.007077680842485279
2376,00:00:09.504,0.005720367771573361
2377,00:00:09.508,0.010323804337531328
2378,00:00:09.512,-0.0059498277259990495
2379,00:00:09.516,-0.002960414305562153
2380,00:00:09.52,0.0018398060929030197
2381,00:00:09.524,-0.005096851586131381
2382,00:00:09.528,0.00954759732121606
2383,00:00:09.532,-0.0003627724945545205
2384,00:00:09.536,0.00027560116723179037
2385,00:00:09.54,-0.0072319704195251714
2386,00:00:09.544,-0.004407933680340646
2387,00:00:09.548,0.0004024023655802072
2388,00:00:09.552,-0.0009036861592903742
2389,00:00:09.556,-0.0009373184875585197
2390,00:00:09.56,0.02762483549304311
2391,00:00:09.564,-0.00887211458757519
2392,00:00:09.568,-0.013620960991829651
2393,00:00:09.572,-0.006428610911825669
2394,00:00:09.576,-0.004888338618911804
2395,00:00:09.58,0.01932271756231784
2396,00:00:09.584,0.014210746317985452
2397,00:00:09.588,-0.023987853201106222
2398,00:00:09.592,-0.0035011198488064076
2399,00:00:09.596,0.008219396579079321
2400,00:00:09.6,0.0005687663797289098
2401,00:00:09.604,0.005128031596541403
2402,00:00:09.608,-0.014787797117605809
2403,00:00:09.612,0.00736964517273004
2404,00:00:09.616,0.00475377915427088
2405,00:00:09.62,-0.00155105651356275
2406,00:00:09.624,-0.008370606345124541
2407,00:00:09.628,0.005065752193331719
2408,00:00:09.632,0.009423475363291831
2409,00:00:09.636,-0.006751182518200949
2410,00:00:09.64,0.0029417024925351212
2411,00:00:09.644,-0.0018188962712883915
2412,00:00:09.648,-0.0115155302337371
2413,00:00:09.652,0.007861729362048205
2414,00:00:09.656,0.004365823813714084
2415,00:00:09.66,-0.006004267750540749
2416,00:00:09.664,0.003933920772396959
2417,00:00:09.668,0.0048913162609096564
2418,00:00:09.672,-0.0149536461103708
2419,00:00:09.676,0.0015930117806419728
2420,00:00:09.68,0.01750743115553629
2421,00:00:09.684,0.00605326576624066
2422,00:00:09.688,-0.020781477098353228
2423,00:00:09.692,-0.0028647051658481403
2424,00:00:09.696,0.007852766386349694
2425,00:00:09.7,0.0022286036983132
2426,00:00:09.704,-0.0031756542739458434
2427,00:00:09.708,-0.004088059067726141
2428,00:00:09.712,0.004411946050822739
2429,00:00:09.716,-0.0007419463945552685
2430,00:00:09.72,2.8533395379778254e-05
2431,00:00:09.724,0.00749113503843546
2432,00:00:09.728,-0.0024754843907430803
2433,00:00:09.732,-0.010444691171869629
2434,00:00:09.736,-0.000599034479819239
2435,00:00:09.74,0.013010688591748441
2436,00:00:09.744,0.0033017116948030932
2437,00:00:09.748,-0.0038383549544960295
2438,00:00:09.752,-0.00991188874468208
2439,00:00:09.756,-0.004060780527652246
2440,00:00:09.76,0.00649943767348304
2441,00:00:09.764,-0.0009879774297587578
2442,00:00:09.768,0.00696712743956596
2443,00:00:09.772,0.0009534191340208002
2444,00:00:09.776,-0.006280521454755217
2445,00:00:09.78,-0.0007364046759903405
2446,00:00:09.784,0.00781170313712211
2447,00:00:09.788,-0.00013660322292708094
2448,00:00:09.792,-0.010264911281410658
2449,00:00:09.796,0.006191960594151165
2450,00:00:09.8,-0.006910225842148068
2451,00:00:09.804,-0.00451190728927031
2452,00:00:09.808,0.011757296597352244
2453,00:00:09.812,0.0033377751242369396
2454,00:00:09.816,0.00539588730316609
2455,00:00:09.82,0.00016849359963089298
2456,00:00:09.824,-0.02098420867696404
2457,00:00:09.828,0.0020037605136167206
2458,00:00:09.832,0.002734391076955947
2459,00:00:09.836,0.01037890336010605
2460,00:00:09.84,-0.0022786103654652795
2461,00:00:09.844,-0.00737711053807289
2462,00:00:09.848,0.005149398924913842
2463,00:00:09.852,0.01268236379837618
2464,00:00:09.856,-0.015962837591359868
2465,00:00:09.86,0.004990185756469145
2466,00:00:09.864,-0.0030273890733951737
2467,00:00:09.868,-0.0025669878741609907
2468,00:00:09.872,-0.001979004242457447
2469,00:00:09.876,-0.004427582724019888
2470,00:00:09.88,0.015799178450834006
2471,00:00:09.884,0.01232204923871903
2472,00:00:09.888,-0.01121356035582722
2473,00:00:09.892,-0.016113198114908304
2474,00:00:09.896,-0.00686818215763196
2475,00:00:09.9,0.013514913793187588
2476,00:00:09.904,0.006369020484271456
2477,00:00:09.908,0.00566035113297403
2478,00:00:09.912,-0.0011113988002762198
2479,00:00:09.916,-0.011573794938158247
2480,00:00:09.92,0.0006114823336247322
2481,00:00:09.924,0.002272026322316378
2482,00:00:09.928,-0.005381662922445683
2483,00:00:09.932,0.0034003759501501905
2484,00:00:09.936,0.0019681481644511197
2485,00:00:09.94,0.001561889657750721
2486,00:00:09.944,0.00294371177369612
2487,00:00:09.948,0.006321192719042305
2488,00:00:09.952,-0.012268268765183159
2489,00:00:09.956,-0.01184135745279492
2490,00:00:09.96,0.02158008946571501
2491,00:00:09.964,-0.00046383048174903144
2492,00:00:09.968,-0.015133189432617673
2493,00:00:09.972,-0.00754850963130589
2494,00:00:09.976,0.011280943115707506
2495,00:00:09.98,0.027306610194500508
2496,00:00:09.984,-0.01442302239593116
2497,00:00:09.988,-0.01604603970190508
2498,00:00:09.992,0.0031968923140084276
2499,00:00:09.996,0.0004631616175174765
2500,00:00:10,-0.003140403539873656
2501,00:00:10.004,0.005631619278574356
2502,00:00:10.008,0.00688225936755775
2503,00:00:10.012,0.003282962250523269
2504,00:00:10.016,-0.011509808711707597
2505,00:00:10.02,-0.0062977485358715075
2506,00:00:10.024,0.003733445279067384
2507,00:00:10.028,0.005657076108036561
2508,00:00:10.032,0.015830190241103985
2509,00:00:10.036,-0.017833529913332296
2510,00:00:10.04,-0.0077809547074139205
2511,00:00:10.044,0.005714741069823502
2512,00:00:10.048,0.016226040068431737
2513,00:00:10.052,-0.01424026796303222
2514,00:00:10.056,-0.0016640400281176006
2515,00:00:10.06,-0.006753305904567244
2516,00:00:10.064,0.0050134740304201815
2517,00:00:10.068,0.006674635456875
2518,00:00:10.072,0.013904071412980522
2519,00:00:10.076,-0.003909556136932223
2520,00:00:10.08,-0.014523850521072742
2521,00:00:10.084,-0.010474058915860982
2522,00:00:10.088,-0.00374663982074708
2523,00:00:10.092,0.01737338514067237
2524,00:00:10.096,0.0029927713330835
2525,00:00:10.1,0.0016409558884333784
2526,00:00:10.104,0.01193627493921667
2527,00:00:10.108,-0.01380641851574178
2528,00:00:10.112,-0.012011162296403196
2529,00:00:10.116,-0.00043070153333247055
2530,00:00:10.12,0.0005621474701911117
2531,00:00:10.124,0.006819465041189684
2532,00:00:10.128,0.014178244033246305
2533,00:00:10.132,-0.012081707594916224
2534,00:00:10.136,0.0021433412539408857
2535,00:00:10.14,0.001549700216855856
2536,00:00:10.144,-0.005866050021722909
2537,00:00:10.148,-0.0012233403977006704
2538,00:00:10.152,-0.003226245695259419
2539,00:00:10.156,0.00745684700086713
2540,00:00:10.16,0.004425637423992148
2541,00:00:10.164,0.0012714047916233596
2542,00:00:10.168,-0.007590485271066431
2543,00:00:10.172,-0.009181756351608778
2544,00:00:10.176,0.0018115511720679903
2545,00:00:10.18,0.00828774133697152
2546,00:00:10.184,0.01368276641005651
2547,00:00:10.188,-0.00951940333470702
2548,00:00:10.192,-0.0093931887531653
2549,00:00:10.196,-0.0003967705415561795
2550,00:00:10.2,0.0030858190730214093
2551,00:00:10.204,-0.001120122120482846
2552,00:00:10.208,-0.007051418069750069
2553,00:00:10.212,0.031601251685060526
2554,00:00:10.216,-0.006594921927899081
2555,00:00:10.22,-0.01688393601216379
2556,00:00:10.224,-0.007162816124036911
2557,00:00:10.228,0.0008755694143474098
2558,00:00:10.232,0.0026436409680172805
2559,00:00:10.236,0.002497203968232505
2560,00:00:10.24,0.014329206198453941
2561,00:00:10.244,-0.00650672521442175
2562,00:00:10.248,-0.0028256157384021208
2563,00:00:10.252,-0.0016030918341129888
2564,00:00:10.256,-0.0071333696832880395
2565,00:00:10.26,0.00982010820007417
2566,00:00:10.264,0.007461996341589841
2567,00:00:10.268,-0.010247537866234769
2568,00:00:10.272,-0.0032778515014797393
2569,00:00:10.276,-0.0019771390361711452
2570,00:00:10.28,-0.00908932735910639
2571,00:00:10.284,0.002489634789526511
2572,00:00:10.288,0.04355856752954424
2573,00:00:10.292,-0.02392494375817478
2574,00:00:10.296,0.00053417379967868
2575,00:00:10.3,-0.01657293026801194
2576,00:00:10.304,-0.005417118722107263
2577,00:00:10.308,0.00431377929635346
2578,00:00:10.312,0.0037000526208430503
2579,00:00:10.316,0.02041145658586177
2580,00:00:10.32,-0.0045067539031151665
2581,00:00:10.324,-0.011285633954685181
2582,00:00:10.328,0.002742332828347567
2583,00:00:10.332,-0.004720317898318175
2584,00:00:10.336,-0.004274725855793807
2585,00:00:10.34,0.0014935186773072917
2586,00:00:10.344,0.008953747412306257
2587,00:00:10.348,0.006639589293627066
2588,00:00:10.352,0.0071442246844526415
2589,00:00:10.356,-0.01154320337809622
2590,00:00:10.36,-0.020332448650151533
2591,00:00:10.364,-0.00944581672229106
2592,00:00:10.368,0.01850552787072957
2593,00:00:10.372,0.01808131870348009
2594,00:00:10.376,-0.016289388644509017
2595,00:00:10.38,0.017555019789142493
2596,00:00:10.384,-0.0032835123129189006
2597,00:00:10.388,0.0018611124251037801
2598,00:00:10.392,-0.01785081205889585
2599,00:00:10.396,-0.005434273858554659
2600,00:00:10.4,-0.0012749450979754298
2601,00:00:10.404,0.011866935063153502
2602,00:00:10.408,0.00814872072078288
2603,00:00:10.412,-0.003370751903275969
2604,00:00:10.416,-0.006232438710867422
2605,00:00:10.42,0.004482285818085069
2606,00:00:10.424,0.006570968776941301
2607,00:00:10.428,-0.0096070182044059
2608,00:00:10.432,-0.012923013418912891
2609,00:00:10.436,0.00407691183499995
2610,00:00:10.44,0.023770363302901398
2611,00:00:10.444,0.0011991709470748884
2612,00:00:10.448,-0.015674089372623733
2613,00:00:10.452,-0.01210175105370582
2614,00:00:10.456,-0.004340010113082826
2615,00:00:10.46,0.0196588542312384
2616,00:00:10.464,0.015948190262861327
2617,00:00:10.468,-0.00741721526719634
2618,00:00:10.472,-0.018234266957733763
2619,00:00:10.476,-0.0075729092350229595
2620,00:00:10.48,0.008091927738860258
2621,00:00:10.484,0.01100528554525225
2622,00:00:10.488,-0.00418779230676591
2623,00:00:10.492,0.00961772410664704
2624,00:00:10.496,-0.008632039884105321
2625,00:00:10.5,-0.006909015821293019
2626,00:00:10.504,0.00359537836629897
2627,00:00:10.508,0.005841820267960426
2628,00:00:10.512,0.00730256119277328
2629,00:00:10.516,-0.014911478850990527
2630,00:00:10.52,-0.002532881393563002
2631,00:00:10.524,-0.00599251047242432
2632,00:00:10.528,0.004670410824473951
2633,00:00:10.532,0.01435815426521002
2634,00:00:10.536,0.008150907000526786
2635,00:00:10.54,-0.011532292177435012
2636,00:00:10.544,-0.01971240295097232
2637,00:00:10.548,0.028939508949406438
2638,00:00:10.552,0.00038194330409169
2639,00:00:10.556,-0.0207560368580744
2640,00:00:10.56,0.00277695246040821
2641,00:00:10.564,-0.01356573868542911
2642,00:00:10.568,0.01515598758123815
2643,00:00:10.572,0.013193663849961063
2644,00:00:10.576,0.002662164144567224
2645,00:00:10.58,-0.00727751973317936
2646,00:00:10.584,-0.015634432202205062
2647,00:00:10.588,0.010784691898152239
2648,00:00:10.592,0.005401985661592338
2649,00:00:10.596,-0.01384504893212576
2650,00:00:10.6,0.0033243978396058083
2651,00:00:10.604,0.0039791893941583095
2652,00:00:10.608,0.009165884228423229
2653,00:00:10.612,-0.0007354339759331239
2654,00:00:10.616,-0.013636556912388199
2655,00:00:10.62,-0.005400311492849143
2656,00:00:10.624,0.018498582532629357
2657,00:00:10.628,0.0019774159736698498
2658,00:00:10.632,-0.007540286285802731
2659,00:00:10.636,-0.010129652102477838
2660,00:00:10.64,-0.0015232953592203584
2661,00:00:10.644,0.00730034960724879
2662,00:00:10.648,0.008750868495553735
2663,00:00:10.652,0.004621548403520136
2664,00:00:10.656,-0.004889353775070048
2665,00:00:10.66,0.006040505217242739
2666,00:00:10.664,-0.023900693238829294
2667,00:00:10.668,-0.004319954459788235
2668,00:00:10.672,0.009404450654983505
2669,00:00:10.676,0.0056484036613255705
2670,00:00:10.68,0.00439523288514466
2671,00:00:10.684,0.01898197957780211
2672,00:00:10.688,-0.013774273727904074
2673,00:00:10.692,-0.014813513320405087
2674,00:00:10.696,-0.0073074122192338204
2675,00:00:10.7,0.011492427147459244
2676,00:00:10.704,-0.003913862048648303
2677,00:00:10.708,0.014792258501984137
2678,00:00:10.712,-0.00027967523783445315
2679,00:00:10.716,-0.00748338981065899
2680,00:00:10.72,-0.006875961436890061
2681,00:00:10.724,0.005834551615407692
2682,00:00:10.728,-0.00403654191177339
2683,00:00:10.732,-0.0026512362528592357
2684,00:00:10.736,0.019928964786231552
2685,00:00:10.74,0.002338933467399329
2686,00:00:10.744,-0.010623143985867509
2687,00:00:10.748,-0.018428993644192808
2688,00:00:10.752,-0.002372248622123155
2689,00:00:10.756,0.018387211021035903
2690,00:00:10.76,-4.8195011913800684e-05
2691,00:00:10.764,0.003970615354774045
2692,00:00:10.768,0.00631518394220621
2693,00:00:10.772,-0.01759378239512444
2694,00:00:10.776,-0.007193078636191779
2695,00:00:10.78,0.011709211394190781
2696,00:00:10.784,-0.00019804714247583996
2697,00:00:10.788,0.00377799035049975
2698,00:00:10.792,0.00575784430839122
2699,00:00:10.796,-0.01139120769221336
2700,00:00:10.8,0.00640776171348989
2701,00:00:10.804,-0.00755368918180466
2702,00:00:10.808,0.002494021749043892
2703,00:00:10.812,-0.001450429292162878
2704,00:00:10.816,-0.0018639134650584295
2705,00:00:10.82,0.0038752266355004308
2706,00:00:10.824,0.0036802958929911304
2707,00:00:10.828,0.009512856151559383
2708,00:00:10.832,-0.00684823549818247
2709,00:00:10.836,-0.00634563650237396
2710,00:00:10.84,-0.005881452285393609
2711,00:00:10.844,-0.006971228547627108
2712,00:00:10.848,0.0070197053719312005
2713,00:00:10.852,0.01307345461100339
2714,00:00:10.856,-0.001208189583849158
2715,00:00:10.86,0.00269070384092629
2716,00:00:10.864,-0.0016403348417952704
2717,00:00:10.868,-0.0068310514325276
2718,00:00:10.872,-0.00663135711147333
2719,00:00:10.876,-0.00679164403118191
2720,00:00:10.88,0.00977892195805908
2721,00:00:10.884,0.02409916731994604
2722,00:00:10.888,-0.006299375789240001
2723,00:00:10.892,-0.02175822772551332
2724,00:00:10.896,-0.005019984440878032
2725,00:00:10.9,0.00923412211705
2726,00:00:10.904,0.007814303931809267
2727,00:00:10.908,-0.006214751454535872
2728,00:00:10.912,0.0015214418526738908
2729,00:00:10.916,0.007006343919783828
2730,00:00:10.92,0.0015063675436977017
2731,00:00:10.924,-0.016112870303913958
2732,00:00:10.928,0.011017370154149851
2733,00:00:10.932,0.0047574839554727095
2734,00:00:10.936,-0.006745903927367181
2735,00:00:10.94,-0.013914137380197651
2736,00:00:10.944,0.01317967171780766
2737,00:00:10.948,0.0010521393269300504
2738,00:00:10.952,-0.0030566871523660683
2739,00:00:10.956,0.008096967998426404
2740,00:00:10.96,-0.007757640036288648
2741,00:00:10.964,-0.006348673254251482
2742,00:00:10.968,0.01632433905615476
2743,00:00:10.972,0.00893457001075149
2744,00:00:10.976,-0.01778611307963728
2745,00:00:10.98,-0.00399147416464985
2746,00:00:10.984,-0.007940781972138204
2747,00:00:10.988,-0.0011739162146113791
2748,00:00:10.992,0.017666915198788012
2749,00:00:10.996,0.00567819678690285
2750,00:00:11,-0.004174113098997621
2751,00:00:11.004,0.0032727498328313227
2752,00:00:11.008,-0.016704317647963762
2753,00:00:11.012,0.003484492975985681
2754,00:00:11.016,0.005725512339267882
2755,00:00:11.02,-0.0019633227493614
2756,00:00:11.024,-0.0075650055296137
2757,00:00:11.028,0.01912607139092868
2758,00:00:11.032,0.0010020268673542878
2759,00:00:11.036,-0.016000631207134606
2760,00:00:11.04,-0.00205372250638902
2761,00:00:11.044,-0.0013809695374220644
2762,00:00:11.048,0.0007569435983896295
2763,00:00:11.052,0.00666980957612396
2764,00:00:11.056,0.013533966382965452
2765,00:00:11.06,-0.006620919521083127
2766,00:00:11.064,-0.01053629536181689
2767,00:00:11.068,0.006550392950885
2768,00:00:11.072,-0.0011243836488574665
2769,00:00:11.076,-0.009285094914957881
2770,00:00:11.08,-0.00628439299180172
2771,00:00:11.084,0.010789034713525327
2772,00:00:11.088,0.024481960164848698
2773,00:00:11.092,-0.01493245759047568
2774,00:00:11.096,-0.006211172090843323
2775,00:00:11.1,-0.0006980672478675842
2776,00:00:11.104,-0.00697360490448773
2777,00:00:11.108,-0.0013621004763990688
2778,00:00:11.112,0.0020223422907292804
2779,00:00:11.116,0.007514087134040892
2780,00:00:11.12,0.01774696563370526
2781,00:00:11.124,-0.01308885775506499
2782,00:00:11.128,-0.0123686424922198
2783,00:00:11.132,0.0054401439847425095
2784,00:00:11.136,0.0068153128959238495
2785,00:00:11.14,-0.008164856990333647
2786,00:00:11.144,-0.0109372225124389
2787,00:00:11.148,0.01593239867361266
2788,00:00:11.152,0.0019025301444344205
2789,00:00:11.156,0.00235876149963587
2790,00:00:11.16,-0.005523809057194743
2791,00:00:11.164,0.00033758929930626956
2792,00:00:11.168,-0.00414598756469786
2793,00:00:11.172,0.0007834191201254706
2794,00:00:11.176,-0.00429816450923681
2795,00:00:11.18,0.000994789705146105
2796,00:00:11.184,0.02979496726766232
2797,00:00:11.188,-0.01276728441007431
2798,00:00:11.192,-0.021562200272455784
2799,00:00:11.196,-0.00785042135976255
2800,00:00:11.2,0.00556757336016743
2801,00:00:11.204,0.018976579041918767
2802,00:00:11.208,0.004556296051305262
2803,00:00:11.212,-0.005697197979316121
2804,00:00:11.216,-0.00387115974444896
2805,00:00:11.22,-0.0025978070916608
2806,00:00:11.224,0.0050539396470412595
2807,00:00:11.228,-0.01205103076063096
2808,00:00:11.232,-0.00022815749980510105
2809,00:00:11.236,0.011494086473248906
2810,00:00:11.24,0.0014152522198855808
2811,00:00:11.244,-0.00025604118127376015
2812,00:00:11.248,-0.01071382727241143
2813,00:00:11.252,0.007180143438745321
2814,00:00:11.256,-0.0033103943569585707
2815,00:00:11.26,0.0007064270321279799
2816,00:00:11.264,0.01042135583702477
2817,00:00:11.268,-0.00632328598294407
2818,00:00:11.272,-0.0062484804075211295
2819,00:00:11.276,0.00690784526523202
2820,00:00:11.28,-0.005570885463384917
2821,00:00:11.284,-0.005356972367735579
2822,00:00:11.288,0.0034391811350360504
2823,00:00:11.292,0.011642684112302957
2824,00:00:11.296,-0.008776931092143059
2825,00:00:11.3,0.009641571901738644
2826,00:00:11.304,-0.0010953565943054872
2827,00:00:11.308,-0.01179573300760239
2828,00:00:11.312,-0.0009905237820930783
2829,00:00:11.316,0.0009633286390453499
2830,00:00:11.32,0.005091294180601831
2831,00:00:11.324,0.005281421705149111
2832,00:00:11.328,0.0002497647656127802
2833,00:00:11.332,-0.0053588497103191895
2834,00:00:11.336,-0.0017477438086643798
2835,00:00:11.34,-0.008740712422877554
2836,00:00:11.344,0.012225369689986061
2837,00:00:11.348,-0.0010365406633354706
2838,00:00:11.352,0.00611534412018955
2839,00:00:11.356,-0.01013593166135253
2840,00:00:11.36,0.00499339762609451
2841,00:00:11.364,-0.009773331650649201
2842,00:00:11.368,0.005638935137540109
2843,00:00:11.372,0.00158041110262276
2844,00:00:11.376,-0.00299830455332995
2845,00:00:11.38,0.01532861753366882
2846,00:00:11.384,-0.006176043127197774
2847,00:00:11.388,-0.00814884947612882
2848,00:00:11.392,-0.001231691159773621
2849,00:00:11.396,0.0035587979800766304
2850,00:00:11.4,-0.00015594484284521017
2851,00:00:11.404,0.0015384613070637005
2852,00:00:11.408,-0.003993570280726999
2853,00:00:11.412,0.0008501115371473116
2854,00:00:11.416,0.004093614261364567
2855,00:00:11.42,0.003492300573270761
2856,00:00:11.424,-0.015801152447238558
2857,00:00:11.428,0.009959153365343814
2858,00:00:11.432,0.003953143939725127
2859,00:00:11.436,-0.00023476973001379433
2860,00:00:11.44,3.562180791050087e-05
2861,00:00:11.444,-0.0018645263044163533
2862,00:00:11.448,-0.0004375812131911501
2863,00:00:11.452,-0.0036308342423581
2864,00:00:11.456,-0.00809502298943698
2865,00:00:11.46,-0.0016883260104805188
2866,00:00:11.464,0.01281921146437526
2867,00:00:11.468,0.008982124854810529
2868,00:00:11.472,0.004912543197860947
2869,00:00:11.476,-0.002455075155012299
2870,00:00:11.48,-0.01704000592599189
2871,00:00:11.484,-0.006964143260120153
2872,00:00:11.488,0.004171987733570859
2873,00:00:11.492,5.972140934318803e-05
2874,00:00:11.496,0.01206682110205293
2875,00:00:11.5,0.005955417029326747
2876,00:00:11.504,-0.014679655607324111
2877,00:00:11.508,-0.0025437157601118036
2878,00:00:11.512,0.01659391564317046
2879,00:00:11.516,-0.002655209915246819
2880,00:00:11.52,-0.004921934567391879
2881,00:00:11.524,-0.00432771560736
2882,00:00:11.528,8.919625543058005e-05
2883,00:00:11.532,-0.009878504672087712
2884,00:00:11.536,0.0038477242924273105
2885,00:00:11.54,0.010109177739650475
2886,00:00:11.544,0.010031382436864082
2887,00:00:11.548,0.008316497085616
2888,00:00:11.552,-0.03140107216313478
2889,00:00:11.556,-0.012923615984618629
2890,00:00:11.56,0.02616869891062378
2891,00:00:11.564,0.016453527263365637
2892,00:00:11.568,-0.012167734326794742
2893,00:00:11.572,-0.01021738920826465
2894,00:00:11.576,0.0026059763040393595
2895,00:00:11.58,-0.010364404239226157
2896,00:00:11.584,0.0070175365253817255
2897,00:00:11.588,0.003635673318058251
2898,00:00:11.592,0.006827614502981299
2899,00:00:11.596,-0.00038534589111805006
2900,00:00:11.6,-0.00314060167875141
2901,00:00:11.604,-0.0008600169094279417
2902,00:00:11.608,-0.0034052545379381583
2903,00:00:11.612,-0.007797929923981428
2904,00:00:11.616,0.01079695369116962
2905,00:00:11.62,0.006942243577213962
2906,00:00:11.624,-0.007166665513068432
2907,00:00:11.628,-0.001385241339448842
2908,00:00:11.632,-0.004309940210077919
2909,00:00:11.636,0.0038074521580711055
2910,00:00:11.64,0.001066535827703777
2911,00:00:11.644,0.004436994902789591
2912,00:00:11.648,-0.0038594321813434354
2913,00:00:11.652,-0.011592944851145152
2914,00:00:11.656,0.01160191791132096
2915,00:00:11.66,0.012452071183361111
2916,00:00:11.664,-0.01480295916553589
2917,00:00:11.668,-0.0032121620606630997
2918,00:00:11.672,0.003989992488641291
2919,00:00:11.676,-0.007436051033437254
2920,00:00:11.68,0.014219299424439672
2921,00:00:11.684,0.00277588510653004
2922,00:00:11.688,-0.012316003907471902
2923,00:00:11.692,0.0025221076793968665
2924,00:00:11.696,0.01154302968643605
2925,00:00:11.7,-0.01591192232444887
2926,00:00:11.704,0.005787546455394482
2927,00:00:11.708,-0.004109129455173395
2928,00:00:11.712,-0.010213082015980035
2929,00:00:11.716,0.009877651231363409
2930,00:00:11.72,0.016384366317652128
2931,00:00:11.724,-0.0024597946321591687
2932,00:00:11.728,-0.00538378756027669
2933,00:00:11.732,-0.011584860621951566
2934,00:00:11.736,0.004936844168696549
2935,00:00:11.74,0.0005757162580266552
2936,00:00:11.744,0.002413186477497219
2937,00:00:11.748,-0.00525935960467904
2938,00:00:11.752,-0.0008869824523571874
2939,00:00:11.756,0.015909427369479093
2940,00:00:11.76,-0.005498740298207873
2941,00:00:11.764,0.005100356007460499
2942,00:00:11.768,-0.010451361886225639
2943,00:00:11.772,-0.02266922290436927
2944,00:00:11.776,0.01489248895086348
2945,00:00:11.78,0.011513869105328915
2946,00:00:11.784,0.00885603320784871
2947,00:00:11.788,-0.01748876634519545
2948,00:00:11.792,0.01718644052743912
2949,00:00:11.796,0.0001760424347594389
2950,00:00:11.8,-0.02538541983813049
2951,00:00:11.804,0.004942293977364901
2952,00:00:11.808,0.011161514375999111
2953,00:00:11.812,-0.001973645761609081
2954,00:00:11.816,-0.007011207053437831
2955,00:00:11.82,0.011886183259775867
2956,00:00:11.824,-0.005193095479626207
2957,00:00:11.828,-0.0086943528149277
2958,00:00:11.832,0.006130126464995551
2959,00:00:11.836,0.01879003061912951
2960,00:00:11.84,-0.01420821412466466
2961,00:00:11.844,-0.01210275269113481
2962,00:00:11.848,0.0028174423496238853
2963,00:00:11.852,-5.9908401453858014e-05
2964,00:00:11.856,0.022377687681000638
2965,00:00:11.86,-0.008374976227059969
2966,00:00:11.864,-0.0006662059313384815
2967,00:00:11.868,-0.014089811826124789
2968,00:00:11.872,-0.0039216403383761644
2969,00:00:11.876,0.00604422367177903
2970,00:00:11.88,-0.0017118277028203002
2971,00:00:11.884,0.015284943219739937
2972,00:00:11.888,0.0023440305376425394
2973,00:00:11.892,-0.010954941855743479
2974,00:00:11.896,-0.006269164274272049
2975,00:00:11.9,0.005080482631456103
2976,00:00:11.904,0.015148825012147432
2977,00:00:11.908,-0.01084999437443915
2978,00:00:11.912,-0.007961223978782078
2979,00:00:11.916,-0.003822340397164229
2980,00:00:11.92,0.0025762674631550895
2981,00:00:11.924,0.005440919892862439
2982,00:00:11.928,0.00860936858225617
2983,00:00:11.932,0.00805770337865397
2984,00:00:11.936,-0.01619110489264127
2985,00:00:11.94,-0.010849792277440429
2986,00:00:11.944,0.012766868632752452
2987,00:00:11.948,-0.0028832898824475766
2988,00:00:11.952,-0.00256472954060882
2989,00:00:11.956,0.009399060159921667
2990,00:00:11.96,-0.009021400241181251
2991,00:00:11.964,0.004098079283721745
2992,00:00:11.968,0.007792538497596978
2993,00:00:11.972,-0.012336646090261614
2994,00:00:11.976,6.0193226090634114e-05
2995,00:00:11.98,-0.0006586040835827511
2996,00:00:11.984,0.010694822238292562
2997,00:00:11.988,0.006109804890002085
2998,00:00:11.992,-0.01185708225239066
2999,00:00:11.996,-0.008404137450270318
3000,00:00:12,-0.0003076544671785045
3001,00:00:12.004,0.01306954410392794
3002,00:00:12.008,0.0015660382341593506
3003,00:00:12.012,-0.007542814244516199
3004,00:00:12.016,-0.005992543301545079
3005,00:00:12.02,0.00734881637617946
3006,00:00:12.024,0.00337600335478783
3007,00:00:12.028,0.012518460280261942
3008,00:00:12.032,-0.023854732397012413
3009,00:00:12.036,-0.001745675503116223
3010,00:00:12.04,0.006118484539911158
3011,00:00:12.044,0.0037380154244601683
3012,00:00:12.048,0.006466437014751139
3013,00:00:12.052,0.0030752926832064995
3014,00:00:12.056,-0.0076428507836681136
3015,00:00:12.06,-0.002221772869233969
3016,00:00:12.064,-0.007601868011988698
3017,00:00:12.068,-0.0012583890929818084
3018,00:00:12.072,-0.0017633332172408674
3019,00:00:12.076,0.017959598801098806
3020,00:00:12.08,0.01721886172890668
3021,00:00:12.084,-0.021854280494153493
3022,00:00:12.088,-0.01860376726835971
3023,00:00:12.092,0.01117505109868947
3024,00:00:12.096,0.01080287806689744
3025,00:00:12.1,-0.0039046942256391
3026,00:00:12.104,0.004056421574205151
3027,00:00:12.108,-0.0107306499266997
3028,00:00:12.112,-0.0048684700159356
3029,00:00:12.116,0.007251747418195018
3030,00:00:12.12,0.01281510200351477
3031,00:00:12.124,-0.001956721942406145
3032,00:00:12.128,-0.010916770726908
3033,00:00:12.132,-0.009685862227343016
3034,00:00:12.136,0.0053504808602156135
3035,00:00:12.14,0.014287786165368743
3036,00:00:12.144,0.004968392662703989
3037,00:00:12.148,-0.01482749986462298
3038,00:00:12.152,-0.00206336926203221
3039,00:00:12.156,0.0043307250016368995
3040,00:00:12.16,-0.012039231427479539
3041,00:00:12.164,0.02374672319274391
3042,00:00:12.168,0.008051636192249141
3043,00:00:12.172,-0.02477901719976213
3044,00:00:12.176,-0.012208403495605992
3045,00:00:12.18,0.0071967058465816055
3046,00:00:12.184,0.012627060525119287
3047,00:00:12.188,0.01047255133744326
3048,00:00:12.192,-0.013247835333459131
3049,00:00:12.196,0.0019470748738967798
3050,00:00:12.2,-0.004520364454947409
3051,00:00:12.204,0.00031910333200357497
3052,00:00:12.208,-0.0002075338270515082
3053,00:00:12.212,0.003496982535580167
3054,00:00:12.216,0.00839035853277891
3055,00:00:12.22,-0.012291905819438401
3056,00:00:12.224,-0.008807496167719359
3057,00:00:12.228,0.01070229476317764
3058,00:00:12.232,0.019118400523439008
3059,00:00:12.236,-0.006579828157555324
3060,00:00:12.24,-0.01217126369010657
3061,00:00:12.244,-0.01171788666397334
3062,00:00:12.248,-0.00510028703138232
3063,00:00:12.252,0.0107807070016861
3064,00:00:12.256,0.01975940039847044
3065,00:00:12.26,0.0015654155868105512
3066,00:00:12.264,-0.013700227253139071
3067,00:00:12.268,-0.002375240786932401
3068,00:00:12.272,-0.0038432176224887397
3069,00:00:12.276,0.0021827549207955495
3070,00:00:12.28,0.005267761298455289
3071,00:00:12.284,-0.006302925801719542
3072,00:00:12.288,0.00866190274246037
3073,00:00:12.292,0.00204921961994841
3074,00:00:12.296,-0.007002182886935765
3075,00:00:12.3,-0.008434287388809029
3076,00:00:12.304,0.014764575171284367
3077,00:00:12.308,0.0026651620282791572
3078,00:00:12.312,-0.0128806920547504
3079,00:00:12.316,-0.006175695336423817
3080,00:00:12.32,0.015365891478722915
3081,00:00:12.324,-0.004943635896779596
3082,00:00:12.328,-4.757242277264595e-05
3083,00:00:12.332,-0.00306557992007584
3084,00:00:12.336,0.006598629115615035
3085,00:00:12.34,0.0010944803943857594
3086,00:00:12.344,-0.0019248018506914399
3087,00:00:12.348,-0.004543403483694415
3088,00:00:12.352,-0.01200149965006858
3089,00:00:12.356,0.025725380517542407
