,Elapsed Time,EMG
0,00:00:00,9.235145404934885
1,00:00:00.004,-8.792361319065092
2,00:00:00.008,-7.297346889972689
3,00:00:00.012,-0.8007652796804905
4,00:00:00.016,3.7769324928522163
5,00:00:00.02,4.555746532976628
6,00:00:00.024,2.8013719767332117
7,00:00:00.028,0.3584570154780524
8,00:00:00.032,-1.3331064730882598
9,00:00:00.036,-1.8300647921860176
10,00:00:00.04,-1.3361476287245777
11,00:00:00.044,-0.4919368755072357
12,00:00:00.048,0.20514805577113335
13,00:00:00.052,0.5238712029531596
14,00:00:00.056,0.48836598452180646
15,00:00:00.06,0.2649541255086661
16,00:00:00.064,0.0116185495862737
17,00:00:00.068,-0.14690443221479663
18,00:00:00.072,-0.154405489098281
19,00:00:00.076,-0.1192584165837614
20,00:00:00.08,-0.036940560530638336
21,00:00:00.084,0.01967745367437597
22,00:00:00.088,0.07272750232368708
23,00:00:00.092,0.05594187998212873
24,00:00:00.096,0.009206502523738884
25,00:00:00.1,-0.011178616667166361
26,00:00:00.104,-0.00981182721443474
27,00:00:00.108,-0.020430613076314358
28,00:00:00.112,-0.01920713973231612
29,00:00:00.116,0.01698920433409512
30,00:00:00.12,0.0035878368653356994
31,00:00:00.124,-0.00099102547392255
32,00:00:00.128,-0.005270475405268419
33,00:00:00.132,-0.010476421797648069
34,00:00:00.136,0.01190872892038899
35,00:00:00.14,0.0064832940697669905
36,00:00:00.144,0.014980569249019058
37,00:00:00.148,0.014912234153598547
38,00:00:00.152,-0.02260113391093914
39,00:00:00.156,-0.027605258859694018
40,00:00:00.16,0.00515414704568684
41,00:00:00.164,0.012692098040133722
42,00:00:00.168,-0.0124966332223266
43,00:00:00.172,0.002285105583723642
44,00:00:00.176,0.0224185637198389
45,00:00:00.18,0.0032790903933346298
46,00:00:00.184,-0.008306215517222881
47,00:00:00.188,-0.0037377358457888446
48,00:00:00.192,0.005179730418603868
49,00:00:00.196,-0.02057336736470461
50,00:00:00.2,-0.01199752325192093
51,00:00:00.204,0.022012643981724984
52,00:00:00.208,0.023422823287546628
53,00:00:00.212,-0.0033931679790839596
54,00:00:00.216,-0.010529152350500219
55,00:00:00.22,-0.010268962010741218
56,00:00:00.224,-0.02606375329196453
57,00:00:00.228,0.01793036935850979
58,00:00:00.232,0.019962129823397796
59,00:00:00.236,0.01581046893261373
60,00:00:00.24,-0.015979269053787028
61,00:00:00.244,-0.029911245685070732
62,00:00:00.248,0.019418060313910242
63,00:00:00.252,0.00970469031017273
64,00:00:00.256,0.00017957804084290383
65,00:00:00.26,-0.00875281216576693
66,00:00:00.264,0.005458413419546578
67,00:00:00.268,-0.015351219335570895
68,00:00:00.272,0.005599491298198698
69,00:00:00.276,0.00780304602812975
70,00:00:00.28,0.007470941520296041
71,00:00:00.284,-0.017574735393282026
72,00:00:00.288,-0.00287620304152369
73,00:00:00.292,0.01261333050206304
74,00:00:00.296,0.0226268195547163
75,00:00:00.3,-0.010031071957200769
76,00:00:00.304,-0.024988297373056387
77,00:00:00.308,-0.00628872029483318
78,00:00:00.312,0.0036310572177171703
79,00:00:00.316,0.00494092982262373
80,00:00:00.32,0.010106396861374389
81,00:00:00.324,0.013195167644880676
82,00:00:00.328,0.009727159980684519
83,00:00:00.332,-0.01995416218414905
84,00:00:00.336,-0.01035592146217828
85,00:00:00.34,-0.0034977156901732074
86,00:00:00.344,-0.015364031060016747
87,00:00:00.348,-0.00144395185634498
88,00:00:00.352,0.04264841414988045
89,00:00:00.356,0.01618599821813404
90,00:00:00.36,-0.00298498070333157
91,00:00:00.364,-0.03557807556353511
92,00:00:00.368,-0.02089183777570725
93,00:00:00.372,0.0037350419443100704
94,00:00:00.376,0.012457145377993558
95,00:00:00.38,0.01527946162968877
96,00:00:00.384,0.01610426232218743
97,00:00:00.388,-0.01288360962644223
98,00:00:00.392,0.006158075120765756
99,00:00:00.396,-0.023644891800358888
100,00:00:00.4,-0.01385536871384832
101,00:00:00.404,0.03621286572888496
102,00:00:00.408,-0.006797493901103721
103,00:00:00.412,-0.013619635254144672
104,00:00:00.416,0.0064768975134939
105,00:00:00.42,-0.002872172975912691
106,00:00:00.424,-0.0068160521332174505
107,00:00:00.428,0.012719647958874711
108,00:00:00.432,0.008523246040567754
109,00:00:00.436,-0.0026197144761681626
110,00:00:00.44,-0.01021429779939354
111,00:00:00.444,0.009653831599280242
112,00:00:00.448,-0.006100306520238514
113,00:00:00.452,-0.01301387860439717
114,00:00:00.456,-0.002371975686401129
115,00:00:00.46,0.0026867848355323076
116,00:00:00.464,0.027478123025503003
117,00:00:00.468,-0.0006991849077167009
118,00:00:00.472,-0.01433816994540393
119,00:00:00.476,-0.00486052222549915
120,00:00:00.48,0.003983039554441351
121,00:00:00.484,-0.006470491149229922
122,00:00:00.488,0.004480105853872375
123,00:00:00.492,0.004093012132216245
124,00:00:00.496,-0.009606110863387581
125,00:00:00.5,0.02280905225779862
126,00:00:00.504,-0.009776918217539777
127,00:00:00.508,-0.01196971721947194
128,00:00:00.512,-0.012309423997066912
129,00:00:00.516,0.004859745909925546
130,00:00:00.52,0.01416894770227373
131,00:00:00.524,0.02239668648689981
132,00:00:00.528,0.0023708894150331564
133,00:00:00.532,-0.030098523595370387
134,00:00:00.536,-0.00469488999806345
135,00:00:00.54,0.0032083107507787636
136,00:00:00.544,-0.0024162823101505702
137,00:00:00.548,-0.0022654767381027298
138,00:00:00.552,0.007089780410751711
139,00:00:00.556,0.012230565771460531
140,00:00:00.56,0.004313412006013091
141,00:00:00.564,-0.0016175224445760276
142,00:00:00.568,-0.00884894863702357
143,00:00:00.572,-0.003003655700013009
144,00:00:00.576,-0.010370434843935069
145,00:00:00.58,0.006639488914515822
146,00:00:00.584,0.012833449989557266
147,00:00:00.588,-0.02064440076355825
148,00:00:00.592,-0.01162082655355334
149,00:00:00.596,0.03168875456321985
150,00:00:00.6,0.01657673658337446
151,00:00:00.604,-0.007948742306325585
152,00:00:00.608,-0.014260833151638511
153,00:00:00.612,-0.009925994541845248
154,00:00:00.616,0.012061251560226085
155,00:00:00.62,-0.019018289749510597
156,00:00:00.624,-0.0006348707247525497
157,00:00:00.628,0.0071073782746680055
158,00:00:00.632,0.01586534874513748
159,00:00:00.636,0.01726426719687874
160,00:00:00.64,-0.015196974854916358
161,00:00:00.644,-0.024463573237881033
162,00:00:00.648,-0.0003234939649701201
163,00:00:00.652,0.015699462965130757
164,00:00:00.656,-0.0030676410533487897
165,00:00:00.66,0.00928507698699832
166,00:00:00.664,0.0017076709773391503
167,00:00:00.668,-0.007691800128668541
168,00:00:00.672,0.009525756002403796
169,00:00:00.676,-0.007722955197095869
170,00:00:00.68,-0.014697946375235912
171,00:00:00.684,-0.00326541677350178
172,00:00:00.688,0.011008717352524401
173,00:00:00.692,0.009777982893865559
174,00:00:00.696,-0.00294186454266309
175,00:00:00.7,0.00369062385288998
176,00:00:00.704,0.008800290059298289
177,00:00:00.708,-0.01311807287856933
178,00:00:00.712,-0.01281902566552157
179,00:00:00.716,0.00845352606847883
180,00:00:00.72,-0.005785133849713014
181,00:00:00.724,0.00786883477121591
182,00:00:00.728,0.01639383542351423
183,00:00:00.732,-0.0259911641478538
184,00:00:00.736,0.014818897936493162
185,00:00:00.74,-0.0013181864051148317
186,00:00:00.744,-0.010973082971759144
187,00:00:00.748,-0.00918351742438973
188,00:00:00.752,0.027476752409711397
189,00:00:00.756,-0.007867184816859668
190,00:00:00.76,0.0022660770919173956
191,00:00:00.764,-0.0017516852822154695
192,00:00:00.768,-0.0009292912436649199
193,00:00:00.772,-1.9860570319000376e-05
194,00:00:00.776,-0.012452794704586273
195,00:00:00.78,-0.003134535712888469
196,00:00:00.784,0.008318322623381396
197,00:00:00.788,0.01307140477001667
198,00:00:00.792,0.014793599257245669
199,00:00:00.796,-0.02629006514325738
200,00:00:00.8,0.004837007494643359
201,00:00:00.804,-0.006545456242747619
202,00:00:00.808,0.01743855606764556
203,00:00:00.812,-0.02178091718815269
204,00:00:00.816,-0.00568851595744491
205,00:00:00.82,0.0014543915167450783
206,00:00:00.824,0.006572291313204921
207,00:00:00.828,0.019580076448619362
208,00:00:00.832,0.0029048825963400317
209,00:00:00.836,-0.004403252154588628
210,00:00:00.84,-0.01029387814924119
211,00:00:00.844,-0.00705416454002264
212,00:00:00.848,0.0006816046225139895
213,00:00:00.852,-0.0034649642184376695
214,00:00:00.856,0.00201351917348802
215,00:00:00.86,0.007816857147190602
216,00:00:00.864,0.013654219452291748
217,00:00:00.868,-0.0010022530332207701
218,00:00:00.872,-0.01304695731960236
219,00:00:00.876,-0.006921988911926748
220,00:00:00.88,-0.00726192770525813
221,00:00:00.884,0.006479059171397245
222,00:00:00.888,0.008418118988629434
223,00:00:00.892,0.006767404265701771
224,00:00:00.896,0.00023211672669276812
225,00:00:00.9,-0.016634036612231253
226,00:00:00.904,-0.0012530826497823
227,00:00:00.908,0.012829544371925298
228,00:00:00.912,0.04045154526829717
229,00:00:00.916,-0.04749917006120084
230,00:00:00.92,-0.026671088766306663
231,00:00:00.924,0.00884159444831317
232,00:00:00.928,0.02266578935086725
233,00:00:00.932,0.015530364849837507
234,00:00:00.936,-0.0015789003227837427
235,00:00:00.94,-0.006964342668652532
236,00:00:00.944,-0.018797037075273672
237,00:00:00.948,-0.008199574425816508
238,00:00:00.952,0.01465865666978061
239,00:00:00.956,0.01888341549783946
240,00:00:00.96,-0.004712558351457121
241,00:00:00.964,0.0034051184775307805
242,00:00:00.968,-0.01924351183697581
243,00:00:00.972,-0.00619652820751071
244,00:00:00.976,0.0052765414584428
245,00:00:00.98,0.00464005713001825
246,00:00:00.984,-0.00045222253538668416
247,00:00:00.988,0.00585111975669861
248,00:00:00.992,0.0012235896792844808
249,00:00:00.996,0.005295503302477304
250,00:00:01,-0.0033748482819646584
251,00:00:01.004,-0.012327739485044712
252,00:00:01.008,-0.004675142350606579
253,00:00:01.012,0.02016948442906144
254,00:00:01.016,-0.004942790648783551
255,00:00:01.02,-0.03062533366028213
256,00:00:01.024,0.03334434132557363
257,00:00:01.028,0.014395317761227528
258,00:00:01.032,-0.02410075548687022
259,00:00:01.036,0.0019846970681101006
260,00:00:01.04,-0.019401544472202662
261,00:00:01.044,0.0354870455339551
262,00:00:01.048,-0.0051679709940799495
263,00:00:01.052,-0.01873517711646858
264,00:00:01.056,-0.0026890106964856325
265,00:00:01.06,0.00575097789987921
266,00:00:01.064,0.008981566468719393
267,00:00:01.068,0.00609301845543086
268,00:00:01.072,-0.00958622666075826
269,00:00:01.076,0.010700092185288668
270,00:00:01.08,-0.010811766973347396
271,00:00:01.084,-0.002414087823126466
272,00:00:01.088,-0.006534245621878649
273,00:00:01.092,0.00610232097096742
274,00:00:01.096,-0.0008398928039241495
275,00:00:01.1,-0.009451248100958761
276,00:00:01.104,0.01065572863444686
277,00:00:01.108,0.02116735256277027
278,00:00:01.112,-0.006384486616298088
279,00:00:01.116,0.0011097169481217722
280,00:00:01.12,-0.01024879468604923
281,00:00:01.124,-0.02044135099276897
282,00:00:01.128,-0.0005290784465614706
283,00:00:01.132,0.005566051928326491
284,00:00:01.136,0.01641337980981915
285,00:00:01.14,0.006965350359678268
286,00:00:01.144,0.00506887212395668
287,00:00:01.148,-0.002790766768157471
288,00:00:01.152,-0.013839506544172767
289,00:00:01.156,-0.01600833563134078
290,00:00:01.16,0.00437739002518356
291,00:00:01.164,0.00515587418340146
292,00:00:01.168,-0.001976773841306529
293,00:00:01.172,0.02520028571598229
294,00:00:01.176,0.0005968386540189359
295,00:00:01.18,-0.01005256199277938
296,00:00:01.184,-0.016243312216829477
297,00:00:01.188,-0.0030789952725172
298,00:00:01.192,0.009438242996111509
299,00:00:01.196,0.007391070306766771
300,00:00:01.2,-0.019119828473776593
301,00:00:01.204,0.013134414330124796
302,00:00:01.208,0.04174997378140685
303,00:00:01.212,-0.0231044609099627
304,00:00:01.216,-0.03877466544508936
305,00:00:01.22,0.0002922757994383617
306,00:00:01.224,-0.0013809183146804588
307,00:00:01.228,0.02538264496251936
308,00:00:01.232,0.03288646554574367
309,00:00:01.236,-0.017867934773676125
310,00:00:01.24,-0.0252336752600968
311,00:00:01.244,-0.01922392554115505
312,00:00:01.248,0.013695090077817478
313,00:00:01.252,0.021158971474506003
314,00:00:01.256,0.004323949047829956
315,00:00:01.26,-0.0044114495394751395
316,00:00:01.264,-0.008475271286442881
317,00:00:01.268,-0.00033563614124431724
318,00:00:01.272,-0.0015536372084170589
319,00:00:01.276,-0.008614782593213022
320,00:00:01.28,0.015129324747249526
321,00:00:01.284,1.8825987353919636e-05
322,00:00:01.288,0.0009258815553039269
323,00:00:01.292,0.002379408455453819
324,00:00:01.296,-0.011263497173786158
325,00:00:01.3,-0.014277806214522563
326,00:00:01.304,0.00776864634826779
327,00:00:01.308,0.014401563152205171
328,00:00:01.312,0.013806687082251303
329,00:00:01.316,0.01179134775884446
330,00:00:01.32,-0.036697404691949535
331,00:00:01.324,-0.004950219823513176
332,00:00:01.328,0.00673485919833183
333,00:00:01.332,-0.02395955659449099
334,00:00:01.336,0.014204365201294419
335,00:00:01.34,0.04385773581452671
336,00:00:01.344,0.002527203527279201
337,00:00:01.348,-0.032269848161377006
338,00:00:01.352,-0.00924943573772904
339,00:00:01.356,-0.006901564833242439
340,00:00:01.36,0.01468038315942977
341,00:00:01.364,0.004506354802288114
342,00:00:01.368,0.0008441661775577857
343,00:00:01.372,0.007900548574980341
344,00:00:01.376,-0.010763639234937731
345,00:00:01.38,-0.0033197146258317012
346,00:00:01.384,0.00041275622788817016
347,00:00:01.388,0.0037247789005050414
348,00:00:01.392,-0.0005378444911912062
349,00:00:01.396,-0.005126083153299986
350,00:00:01.4,-0.00872536527458579
351,00:00:01.404,0.021793540014186888
352,00:00:01.408,-0.009652955224737499
353,00:00:01.412,0.033573274500668056
354,00:00:01.416,-0.007341015851125109
355,00:00:01.42,-0.0437033456400968
356,00:00:01.424,-0.01317269972059878
357,00:00:01.428,-0.004398487973958252
358,00:00:01.432,0.035993150639114915
359,00:00:01.436,0.03783748875139283
360,00:00:01.44,-0.011250315990764646
361,00:00:01.444,-0.024552137008868158
362,00:00:01.448,-0.01923630374949427
363,00:00:01.452,0.0024099628062686
364,00:00:01.456,0.016409240517532467
365,00:00:01.46,0.0007495197933167189
366,00:00:01.464,-0.0035104915732517804
367,00:00:01.468,0.014329473720863458
368,00:00:01.472,-0.005196149460971338
369,00:00:01.476,-0.014971675351262086
370,00:00:01.48,-0.0011203727917745796
371,00:00:01.484,0.01725128153339024
372,00:00:01.488,-0.015144878765568127
373,00:00:01.492,0.006799735245294901
374,00:00:01.496,0.009800633182749156
375,00:00:01.5,-0.01279704854823646
376,00:00:01.504,-0.005812705028802189
377,00:00:01.508,0.0018294805777259201
378,00:00:01.512,0.013528679264709362
379,00:00:01.516,-0.0013539817300625163
380,00:00:01.52,-0.01303885760717094
381,00:00:01.524,0.0006599456537514949
382,00:00:01.528,0.0246015165466815
383,00:00:01.532,-0.014815964503213772
384,00:00:01.536,-0.00907715898938476
385,00:00:01.54,-0.003280163975432519
386,00:00:01.544,0.011773200472816861
387,00:00:01.548,0.010475710525497561
388,00:00:01.552,-0.020278586365748197
389,00:00:01.556,-0.005521651823073629
390,00:00:01.56,0.02022991981357334
391,00:00:01.564,0.0011498607345856726
392,00:00:01.568,-0.00541717326268557
393,00:00:01.572,-0.01118897320702672
394,00:00:01.576,0.010203002151683899
395,00:00:01.58,-0.008549717254936721
396,00:00:01.584,0.01169975474476812
397,00:00:01.588,-0.004801204893738031
398,00:00:01.592,0.0020992156350985204
399,00:00:01.596,-0.003562137484550478
400,00:00:01.6,-0.0040055772988125595
401,00:00:01.604,0.021388226188719297
402,00:00:01.608,-0.01622381340712309
403,00:00:01.612,-0.010941189248114828
404,00:00:01.616,-0.00017798814224079273
405,00:00:01.62,0.012579280300997243
406,00:00:01.624,-0.0031628913711756503
407,00:00:01.628,0.002790988335618747
408,00:00:01.632,0.00895370659418405
409,00:00:01.636,-0.00546135660260917
410,00:00:01.64,-0.004319752333685747
411,00:00:01.644,0.0016209692694246747
412,00:00:01.648,-0.010782011435367162
413,00:00:01.652,-0.000746949197491631
414,00:00:01.656,0.01601368864066899
415,00:00:01.66,-0.0014567878570233045
416,00:00:01.664,-0.019187841331586228
417,00:00:01.668,0.01752252317965027
418,00:00:01.672,0.01401411904953421
419,00:00:01.676,0.006521577015519208
420,00:00:01.68,-0.033579292939975844
421,00:00:01.684,-0.016091109835542773
422,00:00:01.688,0.015536025166511522
423,00:00:01.692,0.005266824504360599
424,00:00:01.696,0.01136996390414428
425,00:00:01.7,0.01748581416904923
426,00:00:01.704,-0.01626048330217602
427,00:00:01.708,-0.015794642618857317
428,00:00:01.712,-0.0005998437991365789
429,00:00:01.716,-0.00377000751905143
430,00:00:01.72,0.00807451026048511
431,00:00:01.724,0.01886650128290057
432,00:00:01.728,-0.006081427010940391
433,00:00:01.732,-0.005102701223222534
434,00:00:01.736,-0.00838659331202507
435,00:00:01.74,-0.002569000353105367
436,00:00:01.744,0.0007648892933502798
437,00:00:01.748,0.01078716502524912
438,00:00:01.752,0.01355453731957823
439,00:00:01.756,-0.022302532684989242
440,00:00:01.76,-0.004187522892607383
441,00:00:01.764,0.004319897852838039
442,00:00:01.768,0.0035534512717276794
443,00:00:01.772,0.01558911358006299
444,00:00:01.776,-0.010120375081896778
445,00:00:01.78,-0.003639439702965324
446,00:00:01.784,-0.00614674086682499
447,00:00:01.788,-0.01378347881836817
448,00:00:01.792,0.0272391466423869
449,00:00:01.796,0.014579135051462796
450,00:00:01.8,-0.015749722253531283
451,00:00:01.804,-0.0193790411576629
452,00:00:01.808,0.005435233004391162
453,00:00:01.812,-0.0027057179249823067
454,00:00:01.816,-0.0016567785933148116
455,00:00:01.82,0.01669732597656547
456,00:00:01.824,0.015739355236291934
457,00:00:01.828,-0.005679859546944491
458,00:00:01.832,-0.02111295424401763
459,00:00:01.836,-0.010215522255748549
460,00:00:01.84,0.005216056015342519
461,00:00:01.844,0.011651873413939032
462,00:00:01.848,0.006972136907279488
463,00:00:01.852,0.0023994349176064194
464,00:00:01.856,-0.00987505342345685
465,00:00:01.86,-0.010347404051572081
466,00:00:01.864,0.016633501043543227
467,00:00:01.868,0.005647265003062791
468,00:00:01.872,-0.021711824869271402
469,00:00:01.876,-0.0010583567200228507
470,00:00:01.88,0.008912233170121912
471,00:00:01.884,0.008700543607119478
472,00:00:01.888,0.00759021379053591
473,00:00:01.892,-0.0182734876871109
474,00:00:01.896,-0.00010962481610476884
475,00:00:01.9,-0.011594232870265819
476,00:00:01.904,0.010973663476761425
477,00:00:01.908,0.00878894259221848
478,00:00:01.912,0.01779565308243041
479,00:00:01.916,-0.01736479206010695
480,00:00:01.92,-0.015170993516221644
481,00:00:01.924,0.0012180564808659308
482,00:00:01.928,0.01035496732220054
483,00:00:01.932,0.0010807604994624801
484,00:00:01.936,0.0006234358297660895
485,00:00:01.94,-0.013529540039598949
486,00:00:01.944,0.0017567029572092008
487,00:00:01.948,0.02678664168342946
488,00:00:01.952,-0.002625372755574065
489,00:00:01.956,-0.02042026445269584
490,00:00:01.96,0.0003404638373467592
491,00:00:01.964,-0.0025625838898122315
492,00:00:01.968,0.001325412245932969
493,00:00:01.972,0.00831426592776552
494,00:00:01.976,8.51953518576959e-05
495,00:00:01.98,-0.0033851848311314873
496,00:00:01.984,0.01169445656705647
497,00:00:01.988,-0.014429896138608431
498,00:00:01.992,-0.02677159570157524
499,00:00:01.996,0.04568313027266409
500,00:00:02,0.03664407972246406
501,00:00:02.004,-0.044730259804055095
502,00:00:02.008,-0.03473919350653891
503,00:00:02.012,-0.01386276830453425
504,00:00:02.016,0.024822580511681746
505,00:00:02.02,0.03225389914587143
506,00:00:02.024,0.00992698618210852
507,00:00:02.028,-0.007443840790074317
508,00:00:02.032,-0.015714781358838092
509,00:00:02.036,-0.01911162631586194
510,00:00:02.04,-0.0007302113808691497
511,00:00:02.044,0.02861543558537958
512,00:00:02.048,0.0076364227279555035
513,00:00:02.052,-0.026812688447535052
514,00:00:02.056,-0.000834452919662
515,00:00:02.06,6.215914618224014e-05
516,00:00:02.064,0.006664460219326428
517,00:00:02.068,0.0101874271640554
518,00:00:02.072,0.0004487657570280113
519,00:00:02.076,-0.00641011400148271
520,00:00:02.08,-0.01931818699813445
521,00:00:02.084,0.01898736460134385
522,00:00:02.088,0.029959141742438092
523,00:00:02.092,-0.027313556056469603
524,00:00:02.096,-0.01899888576008379
525,00:00:02.1,0.0011927557643502907
526,00:00:02.104,0.0017399529169779245
527,00:00:02.108,0.01293206866830588
528,00:00:02.112,0.012189952540211369
529,00:00:02.116,0.002356084645725792
530,00:00:02.12,-0.03264500014483929
531,00:00:02.124,0.0072022636886686095
532,00:00:02.128,0.012843092437833558
533,00:00:02.132,-0.000355627620592709
534,00:00:02.136,0.0021576060098595887
535,00:00:02.14,-0.0045068492181599504
536,00:00:02.144,0.01181003911187872
537,00:00:02.148,-0.015591416682582303
538,00:00:02.152,-0.001453338016290218
539,00:00:02.156,-0.00594244827516377
540,00:00:02.16,0.014113792814896442
541,00:00:02.164,-0.0007443207432515954
542,00:00:02.168,-0.00914389954414219
543,00:00:02.172,0.011072504334151745
544,00:00:02.176,0.0038685863837599724
545,00:00:02.18,-0.01329798880033196
546,00:00:02.184,0.01701860595494506
547,00:00:02.188,-0.009654745575971905
548,00:00:02.192,-0.016368495824281168
549,00:00:02.196,-0.0006800460396334499
550,00:00:02.2,0.01688319840468466
551,00:00:02.204,0.00976947718299925
552,00:00:02.208,-0.011535947211086752
553,00:00:02.212,-0.005490241368534047
554,00:00:02.216,-0.00533640105277299
555,00:00:02.22,0.03453531302511695
556,00:00:02.224,-0.015616351505741482
557,00:00:02.228,-0.00978902087081224
558,00:00:02.232,-0.01545979536604138
559,00:00:02.236,0.0007317182607948797
560,00:00:02.24,0.0139906289987266
561,00:00:02.244,0.016503329388797283
562,00:00:02.248,-0.014263480203226242
563,00:00:02.252,0.005207915091887119
564,00:00:02.256,-0.01011312706395984
565,00:00:02.26,0.00617768801748753
566,00:00:02.264,0.0227032073307782
567,00:00:02.268,-0.03159338189288975
568,00:00:02.272,-0.015257813502103089
569,00:00:02.276,0.010672145581338516
570,00:00:02.28,0.020177112892270088
571,00:00:02.284,0.0035179080441594106
572,00:00:02.288,-0.013369041756959639
573,00:00:02.292,-0.004951785493176429
574,00:00:02.296,0.008347973809577516
575,00:00:02.3,-0.001309878483880307
576,00:00:02.304,0.0026612217770889397
577,00:00:02.308,0.004668693058192728
578,00:00:02.312,-0.007841141719836742
579,00:00:02.316,-0.0057995156385004494
580,00:00:02.32,0.003788764355704189
581,00:00:02.324,-0.0069896681707177786
582,00:00:02.328,0.01256309915333986
583,00:00:02.332,0.013274908124003556
584,00:00:02.336,-0.008141525089740758
585,00:00:02.34,-0.03245210228487853
586,00:00:02.344,0.00914722308516501
587,00:00:02.348,0.006039462008629922
588,00:00:02.352,0.03762919735163455
589,00:00:02.356,-0.011872006580233591
590,00:00:02.36,-0.01745017338544126
591,00:00:02.364,-0.01014120667241515
592,00:00:02.368,-0.0070294498000294
593,00:00:02.372,0.01709780039891485
594,00:00:02.376,0.0008171541994670428
595,00:00:02.38,0.003382688155397771
596,00:00:02.384,0.005197245627641692
597,00:00:02.388,-0.007575150986667717
598,00:00:02.392,-0.005943728378042579
599,00:00:02.396,0.0012462408049032023
600,00:00:02.4,0.00688838877249509
601,00:00:02.404,-0.010520297102630131
602,00:00:02.408,0.0131882824935019
603,00:00:02.412,-0.002353688527364279
604,00:00:02.416,-0.009188925207126884
605,00:00:02.42,-0.0007074178065522587
606,00:00:02.424,0.001517797558335583
607,00:00:02.428,-0.006619445979595202
608,00:00:02.432,0.01543849322479217
609,00:00:02.436,0.030566016794182367
610,00:00:02.44,-0.006490566825959847
611,00:00:02.444,-0.04210949083790184
612,00:00:02.448,-0.019207034492865198
613,00:00:02.452,0.014579170732758908
614,00:00:02.456,0.0020089745521545393
615,00:00:02.46,0.02382618049159646
616,00:00:02.464,0.015450471139047246
617,00:00:02.468,-0.00843038325547242
618,00:00:02.472,-0.00658939871937037
619,00:00:02.476,-0.016004253178834908
620,00:00:02.48,-0.0022924314253032502
621,00:00:02.484,0.0041286703490186465
622,00:00:02.488,0.007251983508467669
623,00:00:02.492,-0.00489011852187104
624,00:00:02.496,0.007143952592741656
625,00:00:02.5,-0.00029015657491981983
626,00:00:02.504,0.00222464371472598
627,00:00:02.508,-0.0011296757147647412
628,00:00:02.512,0.00279981037601825
629,00:00:02.516,-0.019466324156383073
630,00:00:02.52,-0.0067683997913263756
631,00:00:02.524,0.02225210296455773
632,00:00:02.528,0.00715886871330441
633,00:00:02.532,-0.00829414499457925
634,00:00:02.536,0.0005820974183734529
635,00:00:02.54,0.002533376682549708
636,00:00:02.544,0.0008364613167941601
637,00:00:02.548,-0.011783800087869122
638,00:00:02.552,-0.00301509443670511
639,00:00:02.556,0.01584801427088682
640,00:00:02.56,-0.010753930953796946
641,00:00:02.564,-0.00843299878761172
642,00:00:02.568,0.01740525686182082
643,00:00:02.572,-0.0008321658206114078
644,00:00:02.576,0.006723571394104529
645,00:00:02.58,-0.0094055860536173
646,00:00:02.584,-0.02421389077790085
647,00:00:02.588,0.022912552580237392
648,00:00:02.592,0.031391588272526916
649,00:00:02.596,-0.02051438391208652
650,00:00:02.6,-0.026827442845387864
651,00:00:02.604,-0.003928325430024416
652,00:00:02.608,0.00872401730157435
653,00:00:02.612,0.0005885105965717227
654,00:00:02.616,0.0188091896707192
655,00:00:02.62,0.00327244540676475
656,00:00:02.624,0.004584933572914453
657,00:00:02.628,-0.017284080757235643
658,00:00:02.632,0.008129094232572244
659,00:00:02.636,-0.0002528118202462788
660,00:00:02.64,-0.019238514185417457
661,00:00:02.644,-0.00954814278520644
662,00:00:02.648,7.613765774294734e-05
663,00:00:02.652,0.02347970008850097
664,00:00:02.656,0.01810860494151715
665,00:00:02.66,0.028378361370414495
666,00:00:02.664,-0.04404340963810688
667,00:00:02.668,-0.025543306022882396
668,00:00:02.672,-0.0012031660880893395
669,00:00:02.676,0.0001551867462694606
670,00:00:02.68,0.01948411995545027
671,00:00:02.684,0.01713815052062273
672,00:00:02.688,-0.002575793769210583
673,00:00:02.692,-0.0008585243485867908
674,00:00:02.696,-0.004852663725614501
675,00:00:02.7,-0.012631123077881065
676,00:00:02.704,-0.00481384503655137
677,00:00:02.708,0.007643519755220041
678,00:00:02.712,0.009051584405824542
679,00:00:02.716,-0.0017913344781845808
680,00:00:02.72,-0.009574394891387781
681,00:00:02.724,0.018823851831257357
682,00:00:02.728,0.0037804170278832308
683,00:00:02.732,-0.03210544167086479
684,00:00:02.736,-0.006919327192008488
685,00:00:02.74,0.024679241236299308
686,00:00:02.744,0.00446588429622352
687,00:00:02.748,-0.0022040134645067203
688,00:00:02.752,-0.013276522746309638
689,00:00:02.756,0.02900276542641222
690,00:00:02.76,-0.007709489087574187
691,00:00:02.764,-0.023260756512172517
692,00:00:02.768,-0.011082585435360698
693,00:00:02.772,0.02066740114241834
694,00:00:02.776,0.006121973041445016
695,00:00:02.78,3.528155502861873e-06
696,00:00:02.784,-0.00609245093073695
697,00:00:02.788,0.01241591619327665
698,00:00:02.792,-0.00774107594043016
699,00:00:02.796,-0.00820342171937227
700,00:00:02.8,0.00797052448615427
701,00:00:02.804,-0.0011654975824058108
702,00:00:02.808,-0.010012052021920681
703,00:00:02.812,-0.004818013112526387
704,00:00:02.816,0.0045335857430473005
705,00:00:02.82,0.010479965683771296
706,00:00:02.824,0.01274158409796655
707,00:00:02.828,-0.0077023752091918115
708,00:00:02.832,-0.006732456968165935
709,00:00:02.836,0.0027575709391385295
710,00:00:02.84,-3.503030166030017e-05
711,00:00:02.844,-0.01147988089360299
712,00:00:02.848,0.00035115564242004915
713,00:00:02.852,-0.0013613209594041092
714,00:00:02.856,0.00834481720812619
715,00:00:02.86,0.01931140152737496
716,00:00:02.864,-0.020514758303761513
717,00:00:02.868,0.0017710840329527855
718,00:00:02.872,-0.01930524688214063
719,00:00:02.876,0.04446354089304803
720,00:00:02.88,0.004099616198800501
721,00:00:02.884,-0.04731750627979634
722,00:00:02.888,-0.015248873271048121
723,00:00:02.892,0.034583686152473085
724,00:00:02.896,0.02192343724891543
725,00:00:02.9,-0.02448840788565572
726,00:00:02.904,-0.0116538446454797
727,00:00:02.908,0.01307269511744379
728,00:00:02.912,0.01166386529803273
729,00:00:02.916,-0.012306025950238109
730,00:00:02.92,-0.00586583558470016
731,00:00:02.924,-0.0006276521598920202
732,00:00:02.928,0.01495954021811486
733,00:00:02.932,0.005996269930619744
734,00:00:02.936,-0.00876088102813811
735,00:00:02.94,-0.0109746577218175
736,00:00:02.944,-0.00777448927692604
737,00:00:02.948,0.00702218536753208
738,00:00:02.952,0.02126978128217164
739,00:00:02.956,-0.003063286887481803
740,00:00:02.96,-0.02024899423122403
741,00:00:02.964,-0.026345719612436355
742,00:00:02.968,0.05078251287341111
743,00:00:02.972,0.04369547078385952
744,00:00:02.976,-0.059336507692933
745,00:00:02.98,-0.038423574063926984
746,00:00:02.984,0.01241332944482565
747,00:00:02.988,0.01495336275547741
748,00:00:02.992,0.02080529008526353
749,00:00:02.996,0.0070153137203306
750,00:00:03,0.002723000594414771
751,00:00:03.004,-0.00963934068568051
752,00:00:03.008,-0.01578361541032794
753,00:00:03.012,-0.009219115599989891
754,00:00:03.016,0.006436433453927753
755,00:00:03.02,0.0087046774569899
756,00:00:03.024,0.004992639325791972
757,00:00:03.028,0.00252062955405563
758,00:00:03.032,-0.00429613286905805
759,00:00:03.036,-0.00860665435902774
760,00:00:03.04,-0.006326684844680132
761,00:00:03.044,0.00957757967989892
762,00:00:03.048,0.014723691390827298
763,00:00:03.052,0.012854726024670483
764,00:00:03.056,-0.03397494577802718
765,00:00:03.06,-0.0041308966465294404
766,00:00:03.064,0.01033758814446629
767,00:00:03.068,-0.009871287067653618
768,00:00:03.072,0.007648908474948244
769,00:00:03.076,0.02172348555177448
770,00:00:03.08,-0.011886803316883734
771,00:00:03.084,-0.0031039232853799902
772,00:00:03.088,0.00038829410914331935
773,00:00:03.092,-0.009800693020224571
774,00:00:03.096,-0.00297219771891832
775,00:00:03.1,0.01059930678457022
776,00:00:03.104,-0.009594788309186707
777,00:00:03.108,0.02621438819915057
778,00:00:03.112,0.0053255916573107295
779,00:00:03.116,-0.0275934250093996
780,00:00:03.12,-0.00511637656018138
781,00:00:03.124,-0.0004597567021846806
782,00:00:03.128,0.004872047196840869
783,00:00:03.132,0.010456915013492109
784,00:00:03.136,0.004457502160221339
785,00:00:03.14,-0.008331826014909886
786,00:00:03.144,-0.005281601159367711
787,00:00:03.148,-0.00581729237455875
788,00:00:03.152,0.02599360432941467
789,00:00:03.156,0.006953700503800064
790,00:00:03.16,-0.027108023175969713
791,00:00:03.164,-0.0140182243194431
792,00:00:03.168,0.0003967270604334805
793,00:00:03.172,0.014884048607200384
794,00:00:03.176,0.028586250147782228
795,00:00:03.18,-0.016519672441063428
796,00:00:03.184,-0.016773088631453003
797,00:00:03.188,-0.002207149111200117
798,00:00:03.192,0.013832971046213043
799,00:00:03.196,0.00692141219042241
800,00:00:03.2,-0.004590513301081961
801,00:00:03.204,-0.008961053681559852
802,00:00:03.208,-0.006306981027591974
803,00:00:03.212,-0.002993846544995909
804,00:00:03.216,0.009455422914470555
805,00:00:03.22,0.02320341044105585
806,00:00:03.224,-0.01914005260914569
807,00:00:03.228,-0.0035730451927520335
808,00:00:03.232,0.00955479033291344
809,00:00:03.236,-0.014712198346387623
810,00:00:03.24,-0.002342428662814198
811,00:00:03.244,0.013638810720294721
812,00:00:03.248,-0.003351251129060981
813,00:00:03.252,0.0075598694384097906
814,00:00:03.256,0.016031651059165576
815,00:00:03.26,-0.022866667481139313
816,00:00:03.264,-0.01811589545104652
817,00:00:03.268,-0.014581392519176012
818,00:00:03.272,0.016706770402379296
819,00:00:03.276,0.029156566387022957
820,00:00:03.28,0.005399861489422619
821,00:00:03.284,-0.0048133842647075705
822,00:00:03.288,-0.0095706949941814
823,00:00:03.292,-0.00412629067432136
824,00:00:03.296,-0.00775702693499625
825,00:00:03.3,-0.00476547644939274
826,00:00:03.304,0.0004811226390302229
827,00:00:03.308,0.002160681149689482
828,00:00:03.312,0.000832554535008971
829,00:00:03.316,0.05062435992294914
830,00:00:03.32,-0.010375345591455701
831,00:00:03.324,-0.04147283488418914
832,00:00:03.328,-0.02841846691444519
833,00:00:03.332,0.005463270004838698
834,00:00:03.336,0.03452367009595039
835,00:00:03.34,0.0272751293305191
836,00:00:03.344,-0.01838014152599495
837,00:00:03.348,-0.013848499205778353
838,00:00:03.352,0.011901237710844746
839,00:00:03.356,-0.005452601704746488
840,00:00:03.36,-0.01867034472525125
841,00:00:03.364,0.0016158884100150306
842,00:00:03.368,0.011105455690994859
843,00:00:03.372,0.0017302568303421112
844,00:00:03.376,0.0034194802865386083
845,00:00:03.38,0.008142695587594059
846,00:00:03.384,-0.00840906420489773
847,00:00:03.388,0.0013622099650092397
848,00:00:03.392,-0.002786208991892635
849,00:00:03.396,-0.009640640811994668
850,00:00:03.4,-0.00206418207380921
851,00:00:03.404,0.009092536958632994
852,00:00:03.408,0.00694743532221765
853,00:00:03.412,-0.002861025161109868
854,00:00:03.416,-0.005042679607868201
855,00:00:03.42,0.01163331605494023
856,00:00:03.424,-0.00324874091893434
857,00:00:03.428,0.00156284566037357
858,00:00:03.432,-0.026715954998508092
859,00:00:03.436,0.0068236565784900475
860,00:00:03.44,0.0336965397000313
861,00:00:03.444,-0.02069937903434039
862,00:00:03.448,-0.012574035208672289
863,00:00:03.452,0.004621728672646011
864,00:00:03.456,0.0140683790668845
865,00:00:03.46,-0.0034135967725888003
866,00:00:03.464,-0.006873551756143568
867,00:00:03.468,-0.0015451244544237787
868,00:00:03.472,0.007046895334497081
869,00:00:03.476,0.010276197339408098
870,00:00:03.48,-0.010915033228229724
871,00:00:03.484,-0.006506698991870472
872,00:00:03.488,-0.0006430274224840113
873,00:00:03.492,0.009076354210264951
874,00:00:03.496,-0.006711104128044102
875,00:00:03.5,0.0072540232213214
876,00:00:03.504,-0.0008823601529002302
877,00:00:03.508,0.001219582569319758
878,00:00:03.512,-0.007999152760021382
879,00:00:03.516,-0.007822564337402589
880,00:00:03.52,0.006006804003845902
881,00:00:03.524,0.00991344219073654
882,00:00:03.528,0.0021002668654546137
883,00:00:03.532,0.006304244510829501
884,00:00:03.536,-0.00474676466546953
885,00:00:03.54,-0.02307217428460716
886,00:00:03.544,0.00557754584588111
887,00:00:03.548,0.018238113181723706
888,00:00:03.552,-0.0048717798199504605
889,00:00:03.556,-0.0029552916239481393
890,00:00:03.56,-0.025060655083507292
891,00:00:03.564,0.008093027689028528
892,00:00:03.568,0.040305458940565586
893,00:00:03.572,0.006920974818058311
894,00:00:03.576,-0.02136389771476386
895,00:00:03.58,-0.02603774610906837
896,00:00:03.584,-0.01388007099740207
897,00:00:03.588,0.02057877287734296
898,00:00:03.592,0.01902111293748021
899,00:00:03.596,0.00400830712169409
900,00:00:03.6,-0.008892824349459264
901,00:00:03.604,-0.005122287431731818
902,00:00:03.608,0.008593535887484901
903,00:00:03.612,-0.009509726543910796
904,00:00:03.616,-0.00908307859208435
905,00:00:03.62,0.006307578383712097
906,00:00:03.624,0.0003193041775375548
907,00:00:03.628,0.012243055854924016
908,00:00:03.632,0.003636753768660129
909,00:00:03.636,-0.02605922892689706
910,00:00:03.64,-0.006948925234610216
911,00:00:03.644,0.04329785984009507
912,00:00:03.648,-0.00033453805372119037
913,00:00:03.652,-0.02639021258801221
914,00:00:03.656,-0.01449685217812658
915,00:00:03.66,0.01709815021604298
916,00:00:03.664,0.009982452029362321
917,00:00:03.668,-0.01891095784958455
918,00:00:03.672,0.0038317414000630405
919,00:00:03.676,0.02332866773940621
920,00:00:03.68,-0.010670365765690817
921,00:00:03.684,-0.01159227825701237
922,00:00:03.688,-0.0008747786050662425
923,00:00:03.692,0.00813774322159589
924,00:00:03.696,0.00438794679939746
925,00:00:03.7,0.0031454060226678835
926,00:00:03.704,-0.01591393537819385
927,00:00:03.708,-0.004892770945843946
928,00:00:03.712,0.00664055754896253
929,00:00:03.716,0.009748030206537804
930,00:00:03.72,0.0018530318047851307
931,00:00:03.724,-1.4800709323029276e-05
932,00:00:03.728,-0.00499350903555751
933,00:00:03.732,-0.014186721382429816
934,00:00:03.736,0.03177587478421628
935,00:00:03.74,-0.008172604371793565
936,00:00:03.744,-0.02551016863435506
937,00:00:03.748,-0.002168763021472841
938,00:00:03.752,0.02573560172459109
939,00:00:03.756,-0.01199164846912026
940,00:00:03.76,-0.0018000886193476548
941,00:00:03.764,0.005608425475656981
942,00:00:03.768,0.006183579331263889
943,00:00:03.772,-0.01409873622469608
944,00:00:03.776,0.0183269621338695
945,00:00:03.78,-0.007120608934201304
946,00:00:03.784,0.0020875656045973596
947,00:00:03.788,-0.00585274188779294
948,00:00:03.792,-0.007212095311842856
949,00:00:03.796,-0.0034984608646482195
950,00:00:03.8,0.007489932235330338
951,00:00:03.804,0.002382957158260982
952,00:00:03.808,-0.0003223555395379695
953,00:00:03.812,0.009575015108566731
954,00:00:03.816,-0.0058997745800297655
955,00:00:03.82,0.0029262702446430948
956,00:00:03.824,-0.01089365780353546
957,00:00:03.828,0.010010236874222752
958,00:00:03.832,-0.002031937448919053
959,00:00:03.836,-0.008674310985952605
960,00:00:03.84,-0.004759128205478191
961,00:00:03.844,-0.0008319358021253772
962,00:00:03.848,0.01714784093201158
963,00:00:03.852,0.00501538603566588
964,00:00:03.856,-0.015106071019545152
965,00:00:03.86,0.01693761930800971
966,00:00:03.864,0.028895023860968618
967,00:00:03.868,-0.050912030041217804
968,00:00:03.872,-0.019793523475527795
969,00:00:03.876,-0.00320149911567568
970,00:00:03.88,0.023621008032932832
971,00:00:03.884,0.0288922796025871
972,00:00:03.888,-0.007054172223433849
973,00:00:03.892,-0.0030923602171242202
974,00:00:03.896,-0.01328587671741843
975,00:00:03.9,0.002369198562519153
976,00:00:03.904,0.004998525051632894
977,00:00:03.908,-0.008264360803877942
978,00:00:03.912,-0.00800117873586714
979,00:00:03.916,0.02318847598508003
980,00:00:03.92,-0.005086578545160591
981,00:00:03.924,-0.00848099502036349
982,00:00:03.928,-0.0033373059704899792
983,00:00:03.932,0.007977976987604045
984,00:00:03.936,0.001992125064134602
985,00:00:03.94,-0.01003174349898472
986,00:00:03.944,0.003221505612600595
987,00:00:03.948,0.0027498321142047696
988,00:00:03.952,-0.008412143681198362
989,00:00:03.956,0.02306122728623454
990,00:00:03.96,0.004261620146280619
991,00:00:03.964,-0.009551757946610442
992,00:00:03.968,-0.02279347949661319
993,00:00:03.972,-0.0038906565168872493
994,00:00:03.976,0.005218453996349122
995,00:00:03.98,0.00958158203866333
996,00:00:03.984,0.00997284729965032
997,00:00:03.988,0.0032250017393380412
998,00:00:03.992,-0.00910348701290787
999,00:00:03.996,0.008939286475651897
1000,00:00:04,-0.01560649916063997
1001,00:00:04.004,0.0021417108364403196
1002,00:00:04.008,0.0018842866702471002
1003,00:00:04.012,-0.011397310707252478
1004,00:00:04.016,0.01635400846134868
1005,00:00:04.02,0.010016034706495702
1006,00:00:04.024,0.00198817998170853
1007,00:00:04.028,-0.018759998492896588
1008,00:00:04.032,-0.0135726667940617
1009,00:00:04.036,0.01113798562437301
1010,00:00:04.04,-0.00656725955195726
1011,00:00:04.044,0.011854686512378983
1012,00:00:04.048,0.015743931056931608
1013,00:00:04.052,0.0038108536973595715
1014,00:00:04.056,-0.02142935199663045
1015,00:00:04.06,-0.01109598623588684
1016,00:00:04.064,0.001041664101649078
1017,00:00:04.068,0.00530117074958979
1018,00:00:04.072,0.01968649784976146
1019,00:00:04.076,-0.00037420843727885896
1020,00:00:04.08,-0.012256357586011287
1021,00:00:04.084,-0.011786988121457398
1022,00:00:04.088,0.0017713891575112939
1023,00:00:04.092,0.030327483895234764
1024,00:00:04.096,-0.01724927849136293
1025,00:00:04.1,-0.01352385955397042
1026,00:00:04.104,0.00265408819541334
1027,00:00:04.108,-0.0037516371521633136
1028,00:00:04.112,0.020632291038054928
1029,00:00:04.116,0.007363131619058503
1030,00:00:04.12,-0.01582368183881044
1031,00:00:04.124,-0.0023517729714512795
1032,00:00:04.128,0.0045372267486527606
1033,00:00:04.132,-0.010104071319801736
1034,00:00:04.136,0.0002507434692233905
1035,00:00:04.14,0.0022251473856158507
1036,00:00:04.144,0.0018202096689492481
1037,00:00:04.148,0.01361164718400687
1038,00:00:04.152,-0.000747518613934513
1039,00:00:04.156,-0.008863516326528043
1040,00:00:04.16,-0.006368601927533738
1041,00:00:04.164,-0.009476895327679782
1042,00:00:04.168,0.012465579435229301
1043,00:00:04.172,0.018415147205814702
1044,00:00:04.176,-0.008420150872552764
1045,00:00:04.18,-0.015253699850291
1046,00:00:04.184,-0.0008944350993260698
1047,00:00:04.188,-0.003509093599859629
1048,00:00:04.192,0.014769713976420478
1049,00:00:04.196,0.01519240532070399
1050,00:00:04.2,-0.007013598340563487
1051,00:00:04.204,-0.013723038660828022
1052,00:00:04.208,-0.01562930108048022
1053,00:00:04.212,0.01068100845441223
1054,00:00:04.216,-0.0006647508125752198
1055,00:00:04.22,0.0162872071377933
1056,00:00:04.224,0.015941369580104982
1057,00:00:04.228,-0.02417929307557638
1058,00:00:04.232,0.006594264297746127
1059,00:00:04.236,-0.01258622715249658
1060,00:00:04.24,-0.00912608811631798
1061,00:00:04.244,-0.014154275995679253
1062,00:00:04.248,0.04975074436515568
1063,00:00:04.252,0.014554512163158485
1064,00:00:04.256,-0.03640170709695665
1065,00:00:04.26,-0.010761831654235719
1066,00:00:04.264,0.004169325809925793
1067,00:00:04.268,-0.0020372888538986397
1068,00:00:04.272,-0.003024582780199127
1069,00:00:04.276,0.01884232275187969
1070,00:00:04.28,0.010887378339248247
1071,00:00:04.284,-0.0020454724435694533
1072,00:00:04.288,-0.01117666764184833
1073,00:00:04.292,-0.01724091847427189
1074,00:00:04.296,0.01544717873912305
1075,00:00:04.3,-0.001125781156588344
1076,00:00:04.304,-0.0012590719561558139
1077,00:00:04.308,-0.0027550813974812596
1078,00:00:04.312,-0.0103910667821765
1079,00:00:04.316,0.012013276922516518
1080,00:00:04.32,0.004392123635625465
1081,00:00:04.324,0.014391588512808041
1082,00:00:04.328,0.001021578616928308
1083,00:00:04.332,-0.01425584917888045
1084,00:00:04.336,-0.020400943700224168
1085,00:00:04.34,0.004129057750105849
1086,00:00:04.344,0.00568231986835599
1087,00:00:04.348,-0.0017473809421062001
1088,00:00:04.352,0.02093313215300443
1089,00:00:04.356,0.0022570407527382507
1090,00:00:04.36,-0.0028340253120404638
1091,00:00:04.364,-0.00995941134169697
1092,00:00:04.368,-0.007868513581343
1093,00:00:04.372,-0.00859250512439758
1094,00:00:04.376,0.004002275178208941
1095,00:00:04.38,0.0046481559984386
1096,00:00:04.384,0.02137229871004822
1097,00:00:04.388,-0.00826192880049347
1098,00:00:04.392,0.009096390684135251
1099,00:00:04.396,-0.022692125407047566
1100,00:00:04.4,-0.01439298427430913
1101,00:00:04.404,0.03297151299193502
1102,00:00:04.408,-0.014164107851684062
1103,00:00:04.412,-0.00045202695764598975
1104,00:00:04.416,-0.0031912242993712508
1105,00:00:04.42,0.018311190535314378
1106,00:00:04.424,0.0013061799108982095
1107,00:00:04.428,-0.021032457239925847
1108,00:00:04.432,-0.005831492839206475
1109,00:00:04.436,0.0025692755589261356
1110,00:00:04.44,0.01805663667619234
1111,00:00:04.444,-0.0006748540326952908
1112,00:00:04.448,-0.0007239253318402879
1113,00:00:04.452,-0.0030562767060473527
1114,00:00:04.456,-0.009908670821459964
1115,00:00:04.46,-0.000614967662841079
1116,00:00:04.464,0.00639080535620451
1117,00:00:04.468,0.002721484983339908
1118,00:00:04.472,0.002930907183326779
1119,00:00:04.476,-0.0001546746188978425
1120,00:00:04.48,-0.0044270852813497255
1121,00:00:04.484,-0.0006213095039129205
1122,00:00:04.488,0.004298307350836691
1123,00:00:04.492,-0.008025070528674402
1124,00:00:04.496,-0.0014246723148971605
1125,00:00:04.5,-0.007526428409619258
1126,00:00:04.504,0.023953082039952334
1127,00:00:04.508,0.02135387086309492
1128,00:00:04.512,-0.03721336182206873
1129,00:00:04.516,-0.019020122941583402
1130,00:00:04.52,0.036904935725033325
1131,00:00:04.524,-0.01678811339661479
1132,00:00:04.528,-0.010628283023834218
1133,00:00:04.532,-0.00098592816357268
1134,00:00:04.536,0.032772569451481146
1135,00:00:04.54,0.000568313524126958
1136,00:00:04.544,-0.00874908966943622
1137,00:00:04.548,-0.013953706249594664
1138,00:00:04.552,-0.005960698705166579
1139,00:00:04.556,0.00034205825068055976
1140,00:00:04.56,0.018519388511776848
1141,00:00:04.564,-0.0008096896344795804
1142,00:00:04.568,-0.0035780617035925345
1143,00:00:04.572,-0.012150540249422189
1144,00:00:04.576,0.0014623169117840011
1145,00:00:04.58,0.014377976825926439
1146,00:00:04.584,-0.00303520588204264
1147,00:00:04.588,-0.007120706373825669
1148,00:00:04.592,-0.0020900352392345632
1149,00:00:04.596,0.0107927690260112
1150,00:00:04.6,2.7605157811195417e-05
1151,00:00:04.604,-0.00391285121440888
1152,00:00:04.608,0.011032905837055271
1153,00:00:04.612,-0.02971505827736107
1154,00:00:04.616,-0.0074497745372355
1155,00:00:04.62,0.03201028541661798
1156,00:00:04.624,0.017223488030140288
1157,00:00:04.628,-0.015212784288451091
1158,00:00:04.632,-0.026477745850570458
1159,00:00:04.636,0.0017250352830160492
1160,00:00:04.64,0.011143656331114499
1161,00:00:04.644,0.0113143466878682
1162,00:00:04.648,0.009564150939695539
1163,00:00:04.652,-0.00936159642878924
1164,00:00:04.656,-0.0044966096756980005
1165,00:00:04.66,-0.01296042557805777
1166,00:00:04.664,-0.00609278224874288
1167,00:00:04.668,0.0070285361725837
1168,00:00:04.672,0.00776705995667726
1169,00:00:04.676,0.010283249779604375
1170,00:00:04.68,0.00475748907774687
1171,00:00:04.684,0.00218474946450442
1172,00:00:04.688,-0.01802159077487887
1173,00:00:04.692,-0.028191935271024673
1174,00:00:04.696,0.032572716940194375
1175,00:00:04.7,0.0233013723045588
1176,00:00:04.704,-0.02571961283683775
1177,00:00:04.708,-0.0228101536631584
1178,00:00:04.712,-0.01032082003075629
1179,00:00:04.716,0.0578755252063274
1180,00:00:04.72,0.00685619816067629
1181,00:00:04.724,-0.024969584075734054
1182,00:00:04.728,-0.017132037501141874
1183,00:00:04.732,-0.003815762698650362
1184,00:00:04.736,0.01575200189836325
1185,00:00:04.74,0.0042679994367063
1186,00:00:04.744,-0.01269578991923481
1187,00:00:04.748,0.0017943049315363251
1188,00:00:04.752,0.0034142301883548507
1189,00:00:04.756,-0.0026551811024546606
1190,00:00:04.76,0.012106386478990268
1191,00:00:04.764,0.0051389525178819895
1192,00:00:04.768,-0.0039189736125990705
1193,00:00:04.772,-0.0035187389003113276
1194,00:00:04.776,-0.020396692678332322
1195,00:00:04.78,0.002472816151566803
1196,00:00:04.784,0.0113335729110986
1197,00:00:04.788,-0.005137721542268991
1198,00:00:04.792,0.014738184749148779
1199,00:00:04.796,0.0025272666389355427
1200,00:00:04.8,0.00573237019125367
1201,00:00:04.804,-0.028447181219235063
1202,00:00:04.808,0.0017843570094555616
1203,00:00:04.812,0.0186855255160481
1204,00:00:04.816,-0.0025545809185131482
1205,00:00:04.82,-0.02412653085775672
1206,00:00:04.824,0.0008063635323196702
1207,00:00:04.828,0.020870523454504984
1208,00:00:04.832,0.018573191948235018
1209,00:00:04.836,-0.006964766187593339
1210,00:00:04.84,-0.011492885183542991
1211,00:00:04.844,-0.023839557194150932
1212,00:00:04.848,0.005954958032816654
1213,00:00:04.852,0.02104495628736911
1214,00:00:04.856,-0.007832586648873992
1215,00:00:04.86,-0.0013387652579694878
1216,00:00:04.864,0.008683871477842319
1217,00:00:04.868,0.011353972862707444
1218,00:00:04.872,-0.01558609120547772
1219,00:00:04.876,-0.01680624089203777
1220,00:00:04.88,0.006172286082801291
1221,00:00:04.884,0.0070729138242313664
1222,00:00:04.888,0.00240150454919785
1223,00:00:04.892,-0.0010650600306689696
1224,00:00:04.896,0.008495539543218914
1225,00:00:04.9,-0.008749419357627628
1226,00:00:04.904,0.004721011035144319
1227,00:00:04.908,0.007663190830498941
1228,00:00:04.912,-0.02379602426663037
1229,00:00:04.916,-0.026874877512454983
1230,00:00:04.92,0.052272975444793646
1231,00:00:04.924,0.024853296810761163
1232,00:00:04.928,-0.0113662583753467
1233,00:00:04.932,-0.04745124129112811
1234,00:00:04.936,-0.01388308499008414
1235,00:00:04.94,0.023957283468916922
1236,00:00:04.944,-0.00042720418423418914
1237,00:00:04.948,0.0147356418892741
1238,00:00:04.952,0.020407810749020427
1239,00:00:04.956,-0.013734972657402934
1240,00:00:04.96,-0.006392513634637029
1241,00:00:04.964,-0.0007551671005784893
1242,00:00:04.968,-0.011510469019412996
1243,00:00:04.972,-0.0066982393618673095
1244,00:00:04.976,0.00773007574025541
1245,00:00:04.98,0.013036819174885748
1246,00:00:04.984,-0.0037125303642824297
1247,00:00:04.988,0.00437551178038121
1248,00:00:04.992,-0.0082293888553977
1249,00:00:04.996,0.00990249449387193
1250,00:00:05,-0.020844184036832268
1251,00:00:05.004,-0.0015256108017638298
1252,00:00:05.008,0.019187867874279618
1253,00:00:05.012,0.00789465103298426
1254,00:00:05.016,-0.0030870406189933437
1255,00:00:05.02,-0.0056494842283427715
1256,00:00:05.024,-0.01676675048656762
1257,00:00:05.028,-0.006636985577642921
1258,00:00:05.032,0.013271714124130082
1259,00:00:05.036,0.02495879214256997
1260,00:00:05.04,-0.028197875712066882
1261,00:00:05.044,0.0279243886470794
1262,00:00:05.048,0.006520515540614724
1263,00:00:05.052,-0.03436297085136184
1264,00:00:05.056,-0.01116889389231798
1265,00:00:05.06,-0.003831429377896715
1266,00:00:05.064,0.007810418959707021
1267,00:00:05.068,0.03129612631164487
1268,00:00:05.072,0.0066789772827178205
1269,00:00:05.076,-0.006207166705280541
1270,00:00:05.08,-0.01816335436888037
1271,00:00:05.084,-0.0163655299693346
1272,00:00:05.088,0.02325462782755492
1273,00:00:05.092,-0.010345985880121589
1274,00:00:05.096,-0.0038594739162363147
1275,00:00:05.1,0.012817721581086478
1276,00:00:05.104,-0.004778359667398039
1277,00:00:05.108,0.012690035859122917
1278,00:00:05.112,0.007968198304297396
1279,00:00:05.116,-0.008325375965796411
1280,00:00:05.12,-0.02532252526725639
1281,00:00:05.124,-0.007064009550958871
1282,00:00:05.128,0.01422651708708145
1283,00:00:05.132,0.008904392831027558
1284,00:00:05.136,-0.001852037064963946
1285,00:00:05.14,0.01885304320603609
1286,00:00:05.144,-0.01099850947503
1287,00:00:05.148,-0.0038281423039734407
1288,00:00:05.152,-0.00580187700688839
1289,00:00:05.156,-0.005543274513911454
1290,00:00:05.16,-0.006367562338709825
1291,00:00:05.164,0.009736952662933618
1292,00:00:05.168,0.00941750674974172
1293,00:00:05.172,0.011635561008006329
1294,00:00:05.176,-0.009963098349544458
1295,00:00:05.18,-0.01291852630674839
1296,00:00:05.184,-0.004399887926410878
1297,00:00:05.188,0.009604303180822171
1298,00:00:05.192,-0.0017767663812264882
1299,00:00:05.196,0.0059908035909757105
1300,00:00:05.2,-0.005422792462923098
1301,00:00:05.204,0.0063399872742593184
1302,00:00:05.208,0.009213812067173421
1303,00:00:05.212,-0.01444149576127535
1304,00:00:05.216,-0.01804343983530999
1305,00:00:05.22,0.008467130595818158
1306,00:00:05.224,0.03183595498558136
1307,00:00:05.228,0.01871970703359693
1308,00:00:05.232,-0.0590315973386168
1309,00:00:05.236,-0.019510838203132142
1310,00:00:05.24,0.025242244359105822
1311,00:00:05.244,0.024456699058646288
1312,00:00:05.248,0.01064389862585815
1313,00:00:05.252,-0.00299712840933352
1314,00:00:05.256,-0.024461559485644102
1315,00:00:05.26,-0.01872133219148965
1316,00:00:05.264,0.01956383860670029
1317,00:00:05.268,0.030900754150934538
1318,00:00:05.272,-0.01322357216849923
1319,00:00:05.276,-0.04131754138506954
1320,00:00:05.28,0.009065087147973827
1321,00:00:05.284,0.03250831612967884
1322,00:00:05.288,0.0047762539470568265
1323,00:00:05.292,-0.01264672796241937
1324,00:00:05.296,-0.010460221092216676
1325,00:00:05.3,0.0013223139103502096
1326,00:00:05.304,-0.00515638059005141
1327,00:00:05.308,0.01369559182785451
1328,00:00:05.312,0.002598931081593035
1329,00:00:05.316,-0.01580627099610862
1330,00:00:05.32,0.005367514677345751
1331,00:00:05.324,0.01542725833132858
1332,00:00:05.328,-0.0076006215531379
1333,00:00:05.332,-0.0024133810366038164
1334,00:00:05.336,-0.00864165450911969
1335,00:00:05.34,0.003674265055451543
1336,00:00:05.344,-0.006505967641714957
1337,00:00:05.348,0.0025231373729184296
1338,00:00:05.352,0.014936473453417441
1339,00:00:05.356,0.009995459346100733
1340,00:00:05.36,-0.014583119947928928
1341,00:00:05.364,-0.0182448192499578
1342,00:00:05.368,0.003643506672233371
1343,00:00:05.372,0.017960864584893012
1344,00:00:05.376,0.007346325117396193
1345,00:00:05.38,-0.01693013228941707
1346,00:00:05.384,-0.007651296851690859
1347,00:00:05.388,0.010588638717308651
1348,00:00:05.392,0.00703712191898376
1349,00:00:05.396,-0.0026171682984568187
1350,00:00:05.4,-0.0007262415601871861
1351,00:00:05.404,-0.021616480822558553
1352,00:00:05.408,0.01220589852891862
1353,00:00:05.412,0.002318419865332546
1354,00:00:05.416,0.015269140712916811
1355,00:00:05.42,-0.010414662538096309
1356,00:00:05.424,0.0026454138569533894
1357,00:00:05.428,-0.0031974940211512187
1358,00:00:05.432,0.007479403284378351
1359,00:00:05.436,-0.01686444098595532
1360,00:00:05.44,0.0007238065009005389
1361,00:00:05.444,0.015982982702553255
1362,00:00:05.448,-0.009759081061929471
1363,00:00:05.452,-0.00927658844739199
1364,00:00:05.456,0.01553399558179081
1365,00:00:05.46,-0.002350899085286082
1366,00:00:05.464,0.0021164461504668006
1367,00:00:05.468,-0.00909556131227874
1368,00:00:05.472,-0.0035807290114462306
1369,00:00:05.476,0.0030797687359154294
1370,00:00:05.48,0.02003855284419846
1371,00:00:05.484,-0.013972338638268422
1372,00:00:05.488,-0.0024487231858074695
1373,00:00:05.492,0.00277904281392693
1374,00:00:05.496,-0.00752016797196121
1375,00:00:05.5,0.018841053068172183
1376,00:00:05.504,-0.011483618873171522
1377,00:00:05.508,-0.014655479113571342
1378,00:00:05.512,0.006862412265036283
1379,00:00:05.516,0.0025977960231102757
1380,00:00:05.52,0.01593983791826758
1381,00:00:05.524,-0.004274048842489711
1382,00:00:05.528,-0.009998595342040062
1383,00:00:05.532,-0.0025550830177962823
1384,00:00:05.536,0.0015109563246369319
1385,00:00:05.54,0.0026162376161664707
1386,00:00:05.544,0.0018936542328447043
1387,00:00:05.548,-0.0035724698100238995
1388,00:00:05.552,-0.011033230228349561
1389,00:00:05.556,0.022480514366179653
1390,00:00:05.56,0.025961179286241573
1391,00:00:05.564,-0.029600435867905648
1392,00:00:05.568,-0.025056619837414505
1393,00:00:05.572,0.0018626020755618815
1394,00:00:05.576,0.010930438060313461
1395,00:00:05.58,0.0011760633205995007
1396,00:00:05.584,0.007792166492436077
1397,00:00:05.588,0.01587518211454157
1398,00:00:05.592,-0.01141290494706482
1399,00:00:05.596,-0.005159185107913803
1400,00:00:05.6,-0.015516663435846548
1401,00:00:05.604,0.01859198929741974
1402,00:00:05.608,-0.0022967457771301183
1403,00:00:05.612,0.001485902030253783
1404,00:00:05.616,-0.00934828910976648
1405,00:00:05.62,-0.003297395451227209
1406,00:00:05.624,0.020231364527717198
1407,00:00:05.628,-0.009813937125727541
1408,00:00:05.632,-0.0005918459501117494
1409,00:00:05.636,-0.010464509599842131
1410,00:00:05.64,0.006675743963569398
1411,00:00:05.644,0.0005646896606776781
1412,00:00:05.648,0.0015092993853613682
1413,00:00:05.652,0.01695606834255159
1414,00:00:05.656,-0.012075689621269696
1415,00:00:05.66,-0.007115712651284417
1416,00:00:05.664,-2.4394801585000698e-05
1417,00:00:05.668,-0.011080322437919682
1418,00:00:05.672,0.014886168763041501
1419,00:00:05.676,0.010302649810910218
1420,00:00:05.68,-0.0004492521984502803
1421,00:00:05.684,-0.00886470091063529
1422,00:00:05.688,-0.011229998432099762
1423,00:00:05.692,-0.0021574272541329204
1424,00:00:05.696,0.005235489516053347
1425,00:00:05.7,0.011229939176701011
1426,00:00:05.704,0.0006967384833842607
1427,00:00:05.708,-0.00449649826623499
1428,00:00:05.712,0.0038308338262140725
1429,00:00:05.716,0.0068919174373149785
1430,00:00:05.72,-0.013154433574527499
1431,00:00:05.724,-0.00491271226201206
1432,00:00:05.728,-0.005856821662746366
1433,00:00:05.732,0.010760350414784623
1434,00:00:05.736,-0.00041995779611169945
1435,00:00:05.74,0.00859827734529972
1436,00:00:05.744,0.0026673418324207904
1437,00:00:05.748,-0.02042105933651328
1438,00:00:05.752,0.005707029602490369
1439,00:00:05.756,0.00458911410532892
1440,00:00:05.76,0.017847962211817472
1441,00:00:05.764,-0.008329399162903432
1442,00:00:05.768,-0.01803390448912978
1443,00:00:05.772,0.010443092673085668
1444,00:00:05.776,7.152039324865016e-05
1445,00:00:05.78,-0.00719170679803938
1446,00:00:05.784,-0.004317370112403295
1447,00:00:05.788,-0.0010688500478863716
1448,00:00:05.792,0.014656206825748124
1449,00:00:05.796,0.008801420743111514
1450,00:00:05.8,-0.005081044160760942
1451,00:00:05.804,0.0015962743200361763
1452,00:00:05.808,-0.013552061827795111
1453,00:00:05.812,-0.004697860684245823
1454,00:00:05.816,0.00895186408888549
1455,00:00:05.82,0.0037208527501206828
1456,00:00:05.824,-0.0128326693084091
1457,00:00:05.828,0.0035444446839392237
1458,00:00:05.832,0.009794428129680455
1459,00:00:05.836,0.011307111475616648
1460,00:00:05.84,-0.0049451374798081815
1461,00:00:05.844,0.007378647307632495
1462,00:00:05.848,-0.02011483348906043
1463,00:00:05.852,-0.02278717560693619
1464,00:00:05.856,-0.0032053949544206296
1465,00:00:05.86,0.02492024330422283
1466,00:00:05.864,0.008556811138987538
1467,00:00:05.868,0.019865523092448732
1468,00:00:05.872,0.009565051994286481
1469,00:00:05.876,-0.036414937116205734
1470,00:00:05.88,-0.019670299254357797
1471,00:00:05.884,-0.0015683392994105733
1472,00:00:05.888,0.01571854275607617
1473,00:00:05.892,0.01826330390758812
1474,00:00:05.896,0.005671781706041652
1475,00:00:05.9,-0.011589486850425598
1476,00:00:05.904,-0.007435482453729493
1477,00:00:05.908,-0.0022314488887786783
1478,00:00:05.912,0.007611853208800311
1479,00:00:05.916,-0.005347573664039378
1480,00:00:05.92,-0.015361312427558012
1481,00:00:05.924,0.021996746305376267
1482,00:00:05.928,0.014193504641298187
1483,00:00:05.932,-0.01445140514988453
1484,00:00:05.936,-0.0032971769105642995
1485,00:00:05.94,-0.000989429478067901
1486,00:00:05.944,-0.013281978608574718
1487,00:00:05.948,0.02168164681643247
1488,00:00:05.952,0.00626174267381426
1489,00:00:05.956,-0.01868647022638471
1490,00:00:05.96,-0.01449025212787091
1491,00:00:05.964,0.013006437424337491
1492,00:00:05.968,0.01712687080726024
1493,00:00:05.972,-0.006052702541637698
1494,00:00:05.976,0.001354973341221927
1495,00:00:05.98,0.0027777743525803106
1496,00:00:05.984,-0.01832720648963008
1497,00:00:05.988,-0.0034361762227490596
1498,00:00:05.992,-0.002425539481919258
1499,00:00:05.996,0.026094337430549792
1500,00:00:06,0.0140521953580901
1501,00:00:06.004,-0.02072109468281268
1502,00:00:06.008,-0.014376989798620341
1503,00:00:06.012,0.0017424826510250599
1504,00:00:06.016,0.009909430460538712
1505,00:00:06.02,0.004417024349095299
1506,00:00:06.024,-0.02047713752835989
1507,00:00:06.028,0.001034984365105629
1508,00:00:06.032,0.02330371364951138
1509,00:00:06.036,0.0043158635962754505
1510,00:00:06.04,-0.007740017725154761
1511,00:00:06.044,-0.011933379340916869
1512,00:00:06.048,0.015028794994577781
1513,00:00:06.052,-0.011982618016190822
1514,00:00:06.056,0.0017304995562881197
1515,00:00:06.06,-0.0004951299342792494
1516,00:00:06.064,-0.0093287747586146
1517,00:00:06.068,0.00964415981434285
1518,00:00:06.072,-0.0010426694061607096
1519,00:00:06.076,-0.004298703657696024
1520,00:00:06.08,0.00396510772407054
1521,00:00:06.084,0.01187784224748607
1522,00:00:06.088,0.011725677177310039
1523,00:00:06.092,-0.02117424923926589
1524,00:00:06.096,-0.00845489883795381
1525,00:00:06.1,0.00438065361231561
1526,00:00:06.104,0.002282234869198872
1527,00:00:06.108,0.0010826025245478429
1528,00:00:06.112,0.00463093537837262
1529,00:00:06.116,-0.00582953193224966
1530,00:00:06.12,-0.005393370520323519
1531,00:00:06.124,-0.011360593605786569
1532,00:00:06.128,0.02300698589533568
1533,00:00:06.132,0.018931665224954458
1534,00:00:06.136,-0.018000532309088157
1535,00:00:06.14,-0.00034821400186047045
1536,00:00:06.144,-0.007671338331419978
1537,00:00:06.148,-0.0025889492244459706
1538,00:00:06.152,-0.00983416271628812
1539,00:00:06.156,0.00980422995053232
1540,00:00:06.16,0.030952489003539124
1541,00:00:06.164,-0.020129936689045287
1542,00:00:06.168,-0.020774982811417396
1543,00:00:06.172,0.007068196078762421
1544,00:00:06.176,0.0017785131931305
1545,00:00:06.18,0.012308798963204021
1546,00:00:06.184,-0.0009329522727057303
1547,00:00:06.188,0.0028647490980802087
1548,00:00:06.192,-0.00377466226927936
1549,00:00:06.196,-0.011207504314370422
1550,00:00:06.2,-0.0011862514074891858
1551,00:00:06.204,0.01488123135641217
1552,00:00:06.208,-0.012968727387487887
1553,00:00:06.212,0.0067721431842074015
1554,00:00:06.216,0.005966140422970061
1555,00:00:06.22,0.002171813568565996
1556,00:00:06.224,-0.00783621380105614
1557,00:00:06.228,-0.005896390881389371
1558,00:00:06.232,-0.0029591615311801464
1559,00:00:06.236,0.0025325624446850274
1560,00:00:06.24,0.0029045763076283437
1561,00:00:06.244,0.022579937438422334
1562,00:00:06.248,-0.010696012584958229
1563,00:00:06.252,-0.01796652050688863
1564,00:00:06.256,-0.0018935767002403302
1565,00:00:06.26,-0.0008126624161377552
1566,00:00:06.264,0.02238612249493599
1567,00:00:06.268,-0.01196101354435086
1568,00:00:06.272,-0.0038444354431703704
1569,00:00:06.276,0.0317775150761009
1570,00:00:06.28,-0.01901270681992174
1571,00:00:06.284,-0.0179504957050085
1572,00:00:06.288,-0.007518835249356928
1573,00:00:06.292,0.0006744136335328109
1574,00:00:06.296,0.020294208603445406
1575,00:00:06.3,0.007748208940029141
1576,00:00:06.304,0.0007693811785429794
1577,00:00:06.308,-0.005207469745073471
1578,00:00:06.312,-0.006618056911975141
1579,00:00:06.316,-0.008535207642125899
1580,00:00:06.32,-0.0115460595116019
1581,00:00:06.324,0.022864883881993602
1582,00:00:06.328,0.014551925938576491
1583,00:00:06.332,-0.007759622763842342
1584,00:00:06.336,-0.01705816877074538
1585,00:00:06.34,-0.0018962603062391281
1586,00:00:06.344,0.01124243508093061
1587,00:00:06.348,0.01212047284934673
1588,00:00:06.352,-0.01379814092069866
1589,00:00:06.356,-0.012480204255552959
1590,00:00:06.36,0.001624621683731689
1591,00:00:06.364,0.02014882024377583
1592,00:00:06.368,0.0033473356161266596
1593,00:00:06.372,-0.01903545437380675
1594,00:00:06.376,-0.006772312510292976
1595,00:00:06.38,0.0045464959694072596
1596,00:00:06.384,0.0168301872909069
1597,00:00:06.388,-0.0036762652307515947
1598,00:00:06.392,-0.01124532008543611
1599,00:00:06.396,0.025366882036905763
1600,00:00:06.4,0.00945836026221514
1601,00:00:06.404,-0.027357482525985695
1602,00:00:06.408,-0.02514520916156475
1603,00:00:06.412,-0.009515108540654179
1604,00:00:06.416,0.0270038931630552
1605,00:00:06.42,0.01110010687261824
1606,00:00:06.424,0.006232194835320108
1607,00:00:06.428,0.000173402717337011
1608,00:00:06.432,0.0002334462478757
1609,00:00:06.436,-0.00472965207882225
1610,00:00:06.44,-0.010803136741742448
1611,00:00:06.444,-0.002879361942177642
1612,00:00:06.448,0.0019644626881927607
1613,00:00:06.452,0.0035729405062738836
1614,00:00:06.456,0.007021871482720597
1615,00:00:06.46,0.00556764658540488
1616,00:00:06.464,-0.01559735438786444
1617,00:00:06.468,-0.008119328878819944
1618,00:00:06.472,-0.0031549241393804563
1619,00:00:06.476,0.02461530861910429
1620,00:00:06.48,0.01041795255150646
1621,00:00:06.484,-0.006713402224704649
1622,00:00:06.488,-0.002884990157326725
1623,00:00:06.492,-0.0259989304468036
1624,00:00:06.496,-0.0026727244257927305
1625,00:00:06.5,0.02027855825144802
1626,00:00:06.504,0.00781635777093468
1627,00:00:06.508,-0.01377812144346535
1628,00:00:06.512,0.00473631103523076
1629,00:00:06.516,0.005311240616720165
1630,00:00:06.52,-0.0055020092986524044
1631,00:00:06.524,-0.001001803608232878
1632,00:00:06.528,0.0053861397318542
1633,00:00:06.532,-0.0004294508835300751
1634,00:00:06.536,0.0015955364724504757
1635,00:00:06.54,-0.00612496456597001
1636,00:00:06.544,-0.004075574164744467
1637,00:00:06.548,-0.001989891403354704
1638,00:00:06.552,0.004655072174500681
1639,00:00:06.556,0.004590687109157443
1640,00:00:06.56,-0.00019040054758079263
1641,00:00:06.564,0.005438167601823798
1642,00:00:06.568,-0.0125159939052537
1643,00:00:06.572,-0.0011188609059899993
1644,00:00:06.576,0.0312673622393049
1645,00:00:06.58,-0.017052803130354764
1646,00:00:06.584,-0.029472589259967263
1647,00:00:06.588,-0.002275947394082321
1648,00:00:06.592,0.03216005302965645
1649,00:00:06.596,0.00358613254502416
1650,00:00:06.6,-0.008270334627013659
1651,00:00:06.604,-0.00431012688204646
1652,00:00:06.608,0.000822856440208851
1653,00:00:06.612,-0.00769830006174743
1654,00:00:06.616,0.011568642570637173
1655,00:00:06.62,0.0037989066913723902
1656,00:00:06.624,-0.00720243295654655
1657,00:00:06.628,-0.009608933221898043
1658,00:00:06.632,0.005410396493971349
1659,00:00:06.636,0.0018867117469198937
1660,00:00:06.64,0.0060119668487459395
1661,00:00:06.644,-0.0001918736379593602
1662,00:00:06.648,-0.0003230944275856122
1663,00:00:06.652,-0.00623177352827042
1664,00:00:06.656,-0.0048087346367538105
1665,00:00:06.66,0.0138545484514907
1666,00:00:06.664,-0.0028854562769993182
1667,00:00:06.668,-0.00946024712175131
1668,00:00:06.672,0.0015611997805535897
1669,00:00:06.676,0.01031229022191838
1670,00:00:06.68,-0.0074558893684297895
1671,00:00:06.684,-0.006888999545481061
1672,00:00:06.688,0.01371126831509173
1673,00:00:06.692,0.002445739679387775
1674,00:00:06.696,-0.005969790974631909
1675,00:00:06.7,-0.01755230542039496
1676,00:00:06.704,0.012513196095824259
1677,00:00:06.708,0.019754015302169112
1678,00:00:06.712,-0.010060579515993607
1679,00:00:06.716,-0.00752454088069496
1680,00:00:06.72,-0.007984572555869818
1681,00:00:06.724,0.0015604686923325
1682,00:00:06.728,0.011263831751421101
1683,00:00:06.732,-0.00996724562719466
1684,00:00:06.736,0.01092868717387318
1685,00:00:06.74,0.0057602093438617885
1686,00:00:06.744,-0.02383845928125085
1687,00:00:06.748,0.014773064292967281
1688,00:00:06.752,0.008733588620088998
1689,00:00:06.756,-0.010047634714283039
1690,00:00:06.76,-0.0032868019770831004
1691,00:00:06.764,-0.008248256053775539
1692,00:00:06.768,0.002979760814923795
1693,00:00:06.772,0.01797082286793733
1694,00:00:06.776,-0.00168283411767333
1695,00:00:06.78,-0.0019911944400519102
1696,00:00:06.784,-0.0018410782795399401
1697,00:00:06.788,-0.010014369385316961
1698,00:00:06.792,-0.0018526676576584595
1699,00:00:06.796,0.0030920975259505195
1700,00:00:06.8,-0.0040744961006566865
1701,00:00:06.804,0.012813079760235262
1702,00:00:06.808,0.0032014599437388855
1703,00:00:06.812,0.01050038821995259
1704,00:00:06.816,-0.011189500568434601
1705,00:00:06.82,-0.02691180890542451
1706,00:00:06.824,0.00648948014713823
1707,00:00:06.828,0.0298874140717089
1708,00:00:06.832,-0.013905815489124495
1709,00:00:06.836,-0.006408684770576621
1710,00:00:06.84,-0.0023494531051255737
1711,00:00:06.844,-0.005749467236455533
1712,00:00:06.848,0.024654984939843423
1713,00:00:06.852,0.00612775201443583
1714,00:00:06.856,-0.02044014155399055
1715,00:00:06.86,-0.00404642894864082
1716,00:00:06.864,-0.00023101060651238917
1717,00:00:06.868,0.00470982220758742
1718,00:00:06.872,0.0012954128906130695
1719,00:00:06.876,-0.003593102213926618
1720,00:00:06.88,0.004348508118710011
1721,00:00:06.884,-0.0027634430443867998
1722,00:00:06.888,0.0082577489083633
1723,00:00:06.892,-0.011483648559078567
1724,00:00:06.896,0.01665494265034795
1725,00:00:06.9,0.010196910443482919
1726,00:00:06.904,-0.017784409923478944
1727,00:00:06.908,-0.0136812129057944
1728,00:00:06.912,-0.008166139043169098
1729,00:00:06.916,0.0015155326109379487
1730,00:00:06.92,0.009781823275261553
1731,00:00:06.924,0.010582009912468491
1732,00:00:06.928,0.007997030508704492
1733,00:00:06.932,-0.001881933305412524
1734,00:00:06.936,-0.00536470924271271
1735,00:00:06.94,-0.0005833951290696894
1736,00:00:06.944,-0.00629461347125471
1737,00:00:06.948,0.0008371244184672802
1738,00:00:06.952,0.005254928255453699
1739,00:00:06.956,-0.008080651052296163
1740,00:00:06.96,-0.00398913881508633
1741,00:00:06.964,0.0024098090361803796
1742,00:00:06.968,0.007344562793150541
1743,00:00:06.972,0.01062479778192937
1744,00:00:06.976,-0.012186084291897721
1745,00:00:06.98,-0.0038129013264551737
1746,00:00:06.984,0.005373718566261229
1747,00:00:06.988,0.00709608523175123
1748,00:00:06.992,-0.005043467797804628
1749,00:00:06.996,-0.01039066518569596
1750,00:00:07,0.001152566634118551
1751,00:00:07.004,-0.008291698293760431
1752,00:00:07.008,0.00041174003854394046
1753,00:00:07.012,0.03914280422031878
1754,00:00:07.016,-0.004021798347821461
1755,00:00:07.02,-0.012491912813857201
1756,00:00:07.024,-0.02082088286988433
1757,00:00:07.028,-0.0030337743810378
1758,00:00:07.032,-0.00202070316299796
1759,00:00:07.036,0.00963579618837684
1760,00:00:07.04,0.03005492198280991
1761,00:00:07.044,0.0011200925800949404
1762,00:00:07.048,-0.018269675900228315
1763,00:00:07.052,-0.01931493892334401
1764,00:00:07.056,-0.013148603844456371
1765,00:00:07.06,0.01910738321021202
1766,00:00:07.064,0.019512664119247396
1767,00:00:07.068,0.005336467409506448
1768,00:00:07.072,-0.008325152797624481
1769,00:00:07.076,-0.014130416093394129
1770,00:00:07.08,-0.00992972262611147
1771,00:00:07.084,0.00884746201336384
1772,00:00:07.088,0.009845338296145202
1773,00:00:07.092,0.0083422027528286
1774,00:00:07.096,-0.0011178351705893816
1775,00:00:07.1,-0.02149487170390782
1776,00:00:07.104,0.0026994762010872403
1777,00:00:07.108,0.007857136661186809
1778,00:00:07.112,0.0069060921669006
1779,00:00:07.116,0.0025421002646908225
1780,00:00:07.12,-0.012098947074264248
1781,00:00:07.124,0.003964462317526339
1782,00:00:07.128,-0.0038041641619201982
1783,00:00:07.132,-0.004137768584769216
1784,00:00:07.136,-0.000925736734643569
1785,00:00:07.14,0.006377594545483588
1786,00:00:07.144,0.016183782077860105
1787,00:00:07.148,-0.001608433318324387
1788,00:00:07.152,-0.023838218767195975
1789,00:00:07.156,0.00747093191603199
1790,00:00:07.16,-0.002303120949363805
1791,00:00:07.164,-0.003705256967805332
1792,00:00:07.168,0.013939736469183136
1793,00:00:07.172,0.022213645919691726
1794,00:00:07.176,-0.01805581111693757
1795,00:00:07.18,-0.02498769294470549
1796,00:00:07.184,-0.008611819474026556
1797,00:00:07.188,0.015480431960895708
1798,00:00:07.192,0.028321617282927
1799,00:00:07.196,-0.0071580952499061806
1800,00:00:07.2,-0.0037597166956402353
1801,00:00:07.204,-0.005532913608476511
1802,00:00:07.208,-0.009587631560862063
1803,00:00:07.212,-0.005220646591624251
1804,00:00:07.216,0.0010545467957854202
1805,00:00:07.22,0.0008507109014317471
1806,00:00:07.224,0.02188736759126187
1807,00:00:07.228,0.01364302611909805
1808,00:00:07.232,-0.0035356474982108908
1809,00:00:07.236,-0.03611420537345113
1810,00:00:07.24,-0.00985282752662898
1811,00:00:07.244,0.025162951787933728
1812,00:00:07.248,-0.0037683229893445895
1813,00:00:07.252,-0.0134261017665267
1814,00:00:07.256,0.02948533231392502
1815,00:00:07.26,0.01659025019034746
1816,00:00:07.264,-0.026179624954238527
1817,00:00:07.268,-0.01367627561558037
1818,00:00:07.272,-0.0018356291111558776
1819,00:00:07.276,0.00291163322981447
1820,00:00:07.28,0.01454617618583143
1821,00:00:07.284,-0.0021867965115234186
1822,00:00:07.288,-0.00799266889225692
1823,00:00:07.292,0.0007293524686247097
1824,00:00:07.296,0.00428517803084105
1825,00:00:07.3,0.015999061753973337
1826,00:00:07.304,-0.00463352643419057
1827,00:00:07.308,-0.00456458353437484
1828,00:00:07.312,-0.026226116780890138
1829,00:00:07.316,-0.0012279674410820105
1830,00:00:07.32,0.01584101980552077
1831,00:00:07.324,0.0106394630856812
1832,00:00:07.328,0.020020081661641608
1833,00:00:07.332,-0.020000506658107042
1834,00:00:07.336,-0.023859917419031228
1835,00:00:07.34,0.008452955196844414
1836,00:00:07.344,0.01391347171738744
1837,00:00:07.348,0.009351159445941505
1838,00:00:07.352,-0.011245403788052468
1839,00:00:07.356,-0.01595403533428904
1840,00:00:07.36,0.0038949426671024447
1841,00:00:07.364,0.01280161680188029
1842,00:00:07.368,-0.00648361793719232
1843,00:00:07.372,0.00980515452101827
1844,00:00:07.376,0.0020900531671941194
1845,00:00:07.38,-0.00808182870969177
1846,00:00:07.384,-0.00565115408971909
1847,00:00:07.388,-0.0004981678212061611
1848,00:00:07.392,0.0007132241735234807
1849,00:00:07.396,0.009399915681569837
1850,00:00:07.4,-0.0003865243634209102
1851,00:00:07.404,-0.0008744905935600903
1852,00:00:07.408,0.004105765139684079
1853,00:00:07.412,-0.0060498258098959975
1854,00:00:07.416,-0.016436152975074936
1855,00:00:07.42,0.007787557289702819
1856,00:00:07.424,0.02019179216586053
1857,00:00:07.428,-0.0161826063413173
1858,00:00:07.432,-0.01641254452988505
1859,00:00:07.436,0.025489375228062258
1860,00:00:07.44,0.01314963365439326
1861,00:00:07.444,-0.012039200868457563
1862,00:00:07.448,-0.008092703763395551
1863,00:00:07.452,-0.00822888372931629
1864,00:00:07.456,-0.0006478055147454197
1865,00:00:07.46,0.01115793548524376
1866,00:00:07.464,0.00414556276518851
1867,00:00:07.468,-0.009406280005350697
1868,00:00:07.472,0.01097362395375967
1869,00:00:07.476,-0.008241682080552001
1870,00:00:07.48,-0.0014076449442654501
1871,00:00:07.484,0.00136302737519144
1872,00:00:07.488,-0.0025090365670621603
1873,00:00:07.492,0.004788648628164081
1874,00:00:07.496,0.00530310053727589
1875,00:00:07.5,0.00197630393086001
1876,00:00:07.504,-0.009944820762029849
1877,00:00:07.508,-0.0018100456800311908
1878,00:00:07.512,-0.00945279560983181
1879,00:00:07.516,0.004990109009668229
1880,00:00:07.52,0.02337346924468879
1881,00:00:07.524,0.002468568753101859
1882,00:00:07.528,-0.02453998755663633
1883,00:00:07.532,-0.020576687064021812
1884,00:00:07.536,0.03303858963772655
1885,00:00:07.54,0.015471279853954918
1886,00:00:07.544,-0.01919371169060471
1887,00:00:07.548,-0.01434145960956816
1888,00:00:07.552,0.009576975367963309
1889,00:00:07.556,0.012369886739179489
1890,00:00:07.56,-0.003069992242672016
1891,00:00:07.564,-0.01968933711759747
1892,00:00:07.568,0.0028012397233396686
1893,00:00:07.572,0.0026823661755770406
1894,00:00:07.576,0.016470495378598557
1895,00:00:07.58,0.004521325463429099
1896,00:00:07.584,-0.004813281702809041
1897,00:00:07.588,-0.013955976697616279
1898,00:00:07.592,-0.0038230393465710248
1899,00:00:07.596,0.001056667417287834
1900,00:00:07.6,0.0155260341707617
1901,00:00:07.604,0.001718589985102878
1902,00:00:07.608,-0.0071388378273695395
1903,00:00:07.612,0.00044795311987399014
1904,00:00:07.616,-0.01777069037780165
1905,00:00:07.62,0.000552933197468513
1906,00:00:07.624,0.01647095521911977
1907,00:00:07.628,0.01875715213827786
1908,00:00:07.632,0.0004798811860382609
1909,00:00:07.636,-0.031127845402807067
1910,00:00:07.64,-0.008547144367184956
1911,00:00:07.644,0.01697061897721138
1912,00:00:07.648,0.007403657189570369
1913,00:00:07.652,-0.006224642740562561
1914,00:00:07.656,-0.0036793707695323957
1915,00:00:07.66,0.003334308217745272
1916,00:00:07.664,0.00983704497048165
1917,00:00:07.668,-0.0005048289021942747
1918,00:00:07.672,-0.01605842102435416
1919,00:00:07.676,-0.00810012873262167
1920,00:00:07.68,0.032051360700279516
1921,00:00:07.684,0.005800875136628741
1922,00:00:07.688,-0.03891785826999697
1923,00:00:07.692,0.00839408161118626
1924,00:00:07.696,0.0020082848059246312
1925,00:00:07.7,0.0051818454521707705
1926,00:00:07.704,0.006153553258627658
1927,00:00:07.708,-0.006851817539427434
1928,00:00:07.712,-0.0049724846685421644
1929,00:00:07.716,0.021096864715218516
1930,00:00:07.72,0.0005343649536371192
1931,00:00:07.724,-0.02206771564669904
1932,00:00:07.728,0.004186708480119709
1933,00:00:07.732,-0.0029586252640001476
1934,00:00:07.736,0.00833133794367318
1935,00:00:07.74,-0.00243993569165468
1936,00:00:07.744,-0.00867828645277769
1937,00:00:07.748,0.004004545742645861
1938,00:00:07.752,0.006649796618148689
1939,00:00:07.756,0.01223162875976413
1940,00:00:07.76,-0.007825572392903272
1941,00:00:07.764,-0.01312435942236334
1942,00:00:07.768,0.002451362553983919
1943,00:00:07.772,0.0048536662943661196
1944,00:00:07.776,0.00034035323187708985
1945,00:00:07.78,0.00578293413855136
1946,00:00:07.784,-0.003988238284364341
1947,00:00:07.788,-0.002587001770734789
1948,00:00:07.792,-0.00800420029554516
1949,00:00:07.796,0.003168900962919002
1950,00:00:07.8,0.009355283575132479
1951,00:00:07.804,-0.0008983887091744613
1952,00:00:07.808,-0.0051583098247647285
1953,00:00:07.812,0.0021426088642329186
1954,00:00:07.816,-0.010879014211241185
1955,00:00:07.82,0.019670205831062045
1956,00:00:07.824,0.0024872603826224787
1957,00:00:07.828,-0.019169931067153888
1958,00:00:07.832,0.0020356399181764525
1959,00:00:07.836,0.01184750813990831
1960,00:00:07.84,-0.015565483830869201
1961,00:00:07.844,-0.005996375140966846
1962,00:00:07.848,0.02123569301329553
1963,00:00:07.852,0.01797040086239577
1964,00:00:07.856,-0.01117058773525059
1965,00:00:07.86,-0.01781634148210287
1966,00:00:07.864,-0.012959766365383981
1967,00:00:07.868,0.00761517230421305
1968,00:00:07.872,0.002089366316795341
1969,00:00:07.876,0.011521080508828158
1970,00:00:07.88,0.017037626006640494
1971,00:00:07.884,-0.01474846038036048
1972,00:00:07.888,-0.01133530540391803
1973,00:00:07.892,0.003303458506707098
1974,00:00:07.896,-0.002745561083429488
1975,00:00:07.9,0.0021224340016488003
1976,00:00:07.904,-0.0010487423278391292
1977,00:00:07.908,0.0038141347467899192
1978,00:00:07.912,0.007615067530423409
1979,00:00:07.916,-0.0029051130550214995
1980,00:00:07.92,-0.004399032157380132
1981,00:00:07.924,0.005947286670561885
1982,00:00:07.928,-0.007900727330707022
1983,00:00:07.932,-0.0011359503841958962
1984,00:00:07.936,-0.00952790526207533
1985,00:00:07.94,-0.0015561454929411403
1986,00:00:07.944,0.03734590113162995
1987,00:00:07.948,-0.002668266184628011
1988,00:00:07.952,-0.022317262657452392
1989,00:00:07.956,-0.013450132217258253
1990,00:00:07.96,-0.007983521325513719
1991,00:00:07.964,0.01414187578484416
1992,00:00:07.968,0.02778379572555428
1993,00:00:07.972,-0.0026705393102020004
1994,00:00:07.976,0.0032172665232792505
1995,00:00:07.98,-0.028811884432798238
1996,00:00:07.984,-0.004266803094651557
1997,00:00:07.988,0.00360281567554921
1998,00:00:07.992,0.0005744232621509621
1999,00:00:07.996,0.01367850298993289
2000,00:00:08,0.0033567162463441604
2001,00:00:08.004,-0.0038115004426799723
2002,00:00:08.008,0.00701605749782176
2003,00:00:08.012,0.0014590596547350296
2004,00:00:08.016,-0.032039651181548896
2005,00:00:08.02,0.00825092697050423
2006,00:00:08.024,0.00970412022434175
2007,00:00:08.028,0.006405334454029797
2008,00:00:08.032,0.0225288458168507
2009,00:00:08.036,-0.02764361212030057
2010,00:00:08.04,-0.015504764858633278
2011,00:00:08.044,0.00480104284361005
2012,00:00:08.048,0.0137948032934219
2013,00:00:08.052,0.0026201757136732305
2014,00:00:08.056,0.00028874957934021863
2015,00:00:08.06,-0.010679167637135828
2016,00:00:08.064,0.00896335230208934
2017,00:00:08.068,-0.00568125193240121
2018,00:00:08.072,-0.00125159486196935
2019,00:00:08.076,0.0038647352484986203
2020,00:00:08.08,-0.005782766384072596
2021,00:00:08.084,0.01609367004130035
2022,00:00:08.088,0.0011383846867829605
2023,00:00:08.092,-0.01781234936788676
2024,00:00:08.096,-0.0003202192019671306
2025,00:00:08.1,-0.00229039171244949
2026,00:00:08.104,0.006720509205479177
2027,00:00:08.108,0.003473419492365791
2028,00:00:08.112,-0.00493695109616965
2029,00:00:08.116,0.018110796023393078
2030,00:00:08.12,-0.0017950668698176698
2031,00:00:08.124,-0.01229254435747864
2032,00:00:08.128,-0.015356265066657215
2033,00:00:08.132,-0.00015015923418104128
2034,00:00:08.136,0.00406310241669417
2035,00:00:08.14,0.016884753480553637
2036,00:00:08.144,0.012401675834553266
2037,00:00:08.148,-0.00664722057990729
2038,00:00:08.152,-0.01755374867934733
2039,00:00:08.156,-0.007930964609840887
2040,00:00:08.16,0.00925038312561811
2041,00:00:08.164,0.0040898914448916895
2042,00:00:08.168,0.006128494673248495
2043,00:00:08.172,-0.0012273595202714187
2044,00:00:08.176,-0.00559215387329459
2045,00:00:08.18,-0.00493778771487996
2046,00:00:08.184,0.00879657082259655
2047,00:00:08.188,-0.00616162735968829
2048,00:00:08.192,-0.00081328989472239
2049,00:00:08.196,0.015139680384891108
2050,00:00:08.2,-0.006681971528450949
2051,00:00:08.204,0.00011925236321986069
2052,00:00:08.208,-0.008708457578904876
2053,00:00:08.212,-0.006597825442440801
2054,00:00:08.216,0.0034973557339981268
2055,00:00:08.22,3.151696364511389e-05
2056,00:00:08.224,0.010365312686189999
2057,00:00:08.228,0.008173246053047475
2058,00:00:08.232,0.001367036893498149
2059,00:00:08.236,-0.010374391102232029
2060,00:00:08.24,-0.012511137872934341
2061,00:00:08.244,-0.00445120106451213
2062,00:00:08.248,0.013930785935372121
2063,00:00:08.252,0.01793190371245153
2064,00:00:08.256,-0.009443242219276705
2065,00:00:08.26,-0.0159747148863971
2066,00:00:08.264,-0.00313387345522642
2067,00:00:08.268,0.002873634948628018
2068,00:00:08.272,0.01285717915743589
2069,00:00:08.276,-0.0021381236147135605
2070,00:00:08.28,0.007813706004526473
2071,00:00:08.284,-0.0035873874730896252
2072,00:00:08.288,-0.006423535640351483
2073,00:00:08.292,-0.014685893664136532
2074,00:00:08.296,0.02773115690797565
2075,00:00:08.3,-0.01618689115275633
2076,00:00:08.304,-0.011845771223306671
2077,00:00:08.308,0.010497763229068344
2078,00:00:08.312,0.018700888613238948
2079,00:00:08.316,-0.00477116706315429
2080,00:00:08.32,-0.005381616298109291
2081,00:00:08.324,-0.01181981741683558
2082,00:00:08.328,-0.0038893292658030904
2083,00:00:08.332,0.012295946711674331
2084,00:00:08.336,-0.0052502956241369195
2085,00:00:08.34,-0.00997854478191585
2086,00:00:08.344,0.02012070920318366
2087,00:00:08.348,0.018578063696622852
2088,00:00:08.352,-0.006119073164882132
2089,00:00:08.356,-0.017239181950571964
2090,00:00:08.36,-0.01008014194667339
2091,00:00:08.364,-0.010661873733624821
2092,00:00:08.368,-0.00142667011823505
2093,00:00:08.372,0.02147636492736637
2094,00:00:08.376,0.012619642970093993
2095,00:00:08.38,-0.0009624884696677336
2096,00:00:08.384,-0.004070843104273079
2097,00:00:08.388,-0.0078230258077383
2098,00:00:08.392,-0.0026387598481960634
2099,00:00:08.396,-0.00028267462039366104
2100,00:00:08.4,-0.00337977672461421
2101,00:00:08.404,0.0029418790072668344
2102,00:00:08.408,0.01860459230374543
2103,00:00:08.412,-0.02181050507351756
2104,00:00:08.416,-0.007694570464082014
2105,00:00:08.42,0.03650257037952537
2106,00:00:08.424,-0.0136030467692763
2107,00:00:08.428,-0.013135863468050993
2108,00:00:08.432,-0.013794842874631329
2109,00:00:08.436,0.007471047108992969
2110,00:00:08.44,0.015617794007994231
2111,00:00:08.444,-0.0032872338779270684
2112,00:00:08.448,-0.00500244367867709
2113,00:00:08.452,0.02157405472826216
2114,00:00:08.456,-0.0031175074400380497
2115,00:00:08.46,-0.026768343115691068
2116,00:00:08.464,-0.0004145302809775292
2117,00:00:08.468,0.01411136251408608
2118,00:00:08.472,-0.0033196671865880533
2119,00:00:08.476,0.0015471316874027291
2120,00:00:08.48,-0.0003786648157983901
2121,00:00:08.484,0.00022234395146370324
2122,00:00:08.488,0.006952102528885
2123,00:00:08.492,-0.003275107825174929
2124,00:00:08.496,-0.00683448486961424
2125,00:00:08.5,0.00159420748241245
2126,00:00:08.504,-0.0125341706443578
2127,00:00:08.508,0.014215512841474267
2128,00:00:08.512,0.01698754495009784
2129,00:00:08.516,-0.011780789995100398
2130,00:00:08.52,-0.02396381646394728
2131,00:00:08.524,0.0400762190110982
2132,00:00:08.528,-0.005621793447062378
2133,00:00:08.532,-0.03194988844916223
2134,00:00:08.536,-0.01227592490613457
2135,00:00:08.54,0.019871365628205278
2136,00:00:08.544,0.00584296055603772
2137,00:00:08.548,0.01979062100872393
2138,00:00:08.552,0.013729705446166949
2139,00:00:08.556,-0.027128933463245592
2140,00:00:08.56,-0.01632366009289401
2141,00:00:08.564,0.005982986651360991
2142,00:00:08.568,-0.005623855628073221
2143,00:00:08.572,0.0056248531909659505
2144,00:00:08.576,0.02248335885815329
2145,00:00:08.58,-0.006857186293927912
2146,00:00:08.584,-0.015025834902189682
2147,00:00:08.588,-0.003373961604665965
2148,00:00:08.592,-0.008320598746649921
2149,00:00:08.596,0.02605932508595287
2150,00:00:08.6,0.01407296373508871
2151,00:00:08.604,-0.01070432993583377
2152,00:00:08.608,-0.01390587782952934
2153,00:00:08.612,-0.005341469484847041
2154,00:00:08.616,0.002365793916396794
2155,00:00:08.62,-0.011393279302865274
2156,00:00:08.624,0.009396352805197242
2157,00:00:08.628,0.02410386572591958
2158,00:00:08.632,-0.004143059282796455
2159,00:00:08.636,-0.019119060132652542
2160,00:00:08.64,-0.001455570105463265
2161,00:00:08.644,0.0029823419172316807
2162,00:00:08.648,0.010982144158333536
2163,00:00:08.652,0.010078531224280603
2164,00:00:08.656,0.0008674508280819349
2165,00:00:08.66,-0.0272674830630422
2166,00:00:08.664,-0.017800043802708432
2167,00:00:08.668,0.013110918691381819
2168,00:00:08.672,0.01950879115611318
2169,00:00:08.676,0.005477344268001614
2170,00:00:08.68,-0.0017299206228926843
2171,00:00:08.684,-0.002169430023059249
2172,00:00:08.688,0.004610615840647367
2173,00:00:08.692,-0.015619972371496257
2174,00:00:08.696,-0.00874481303617358
2175,00:00:08.7,-0.0018572257831693112
2176,00:00:08.704,0.026458057574927852
2177,00:00:08.708,0.0030130059458315372
2178,00:00:08.712,-0.009647413680795584
2179,00:00:08.716,-0.014743521576747302
2180,00:00:08.72,0.003047634032554929
2181,00:00:08.724,0.00469408882781863
2182,00:00:08.728,0.0124187357723713
2183,00:00:08.732,-0.0017145801102742598
2184,00:00:08.736,-0.0023554604267701507
2185,00:00:08.74,-0.00917446892708541
2186,00:00:08.744,-0.02158310799859461
2187,00:00:08.748,0.01881238492205742
2188,00:00:08.752,0.02159963618032629
2189,00:00:08.756,-0.010234743938781321
2190,00:00:08.76,-0.00789679924491792
2191,00:00:08.764,-0.00988750602118671
2192,00:00:08.768,0.039484424982219914
2193,00:00:08.772,-0.00745390239171683
2194,00:00:08.776,-0.03864085720852018
2195,00:00:08.78,0.0020612002699635923
2196,00:00:08.784,0.00208536582067609
2197,00:00:08.788,0.016889903097762733
2198,00:00:08.792,0.008396500255912528
2199,00:00:08.796,0.00198247819207604
2200,00:00:08.8,-0.01091760164126754
2201,00:00:08.804,0.007391743652988222
2202,00:00:08.808,-0.02242723386734728
2203,00:00:08.812,-0.006083866581320761
2204,00:00:08.816,0.025686333887279065
2205,00:00:08.82,0.01623870048206302
2206,00:00:08.824,-0.01585247612092642
2207,00:00:08.828,3.4402270102847424e-05
2208,00:00:08.832,-0.011227969694118656
2209,00:00:08.836,-0.012695256387814878
2210,00:00:08.84,-0.0011352228466421392
2211,00:00:08.844,0.024721496040001508
2212,00:00:08.848,-0.0013917043106630401
2213,00:00:08.852,-0.006083382293582
2214,00:00:08.856,0.01789774722419675
2215,00:00:08.86,-0.0021454853704199195
2216,00:00:08.864,-0.017025879817083506
2217,00:00:08.868,-0.009891885798424479
2218,00:00:08.872,0.0008326920287800021
2219,00:00:08.876,-0.005569475615629929
2220,00:00:08.88,0.039681886613834705
2221,00:00:08.884,0.008389085414819423
2222,00:00:08.888,-0.031307886471040616
2223,00:00:08.892,-0.024966147262603006
2224,00:00:08.896,0.001633164589293288
2225,00:00:08.9,0.02787799644283951
2226,00:00:08.904,0.011700202041538432
2227,00:00:08.908,0.00209611194441095
2228,00:00:08.912,-0.022642936091870056
2229,00:00:08.916,-0.0011671734973788257
2230,00:00:08.92,0.00412373477593064
2231,00:00:08.924,0.0009070837404578898
2232,00:00:08.928,0.002558764885179701
2233,00:00:08.932,-0.0055037033744156395
2234,00:00:08.936,-0.00544083339627833
2235,00:00:08.94,0.01748054125346244
2236,00:00:08.944,-0.00033095350954682004
2237,00:00:08.948,-0.005269030691124504
2238,00:00:08.952,-0.00409270264208317
2239,00:00:08.956,0.019517953973263488
2240,00:00:08.96,-0.01468259992543608
2241,00:00:08.964,-0.02078917995095253
2242,00:00:08.968,0.0044198689283803105
2243,00:00:08.972,0.00214776163920761
2244,00:00:08.976,-0.0035434006713330702
2245,00:00:08.98,0.021966956555843353
2246,00:00:08.984,0.017333414478343946
2247,00:00:08.988,-0.008008066215552419
2248,00:00:08.992,-0.0036885540466755616
2249,00:00:08.996,-0.0008187597850337596
2250,00:00:09,-0.03456862736493347
2251,00:00:09.004,-0.004708829976152627
2252,00:00:09.008,0.01235194422770292
2253,00:00:09.012,0.004958471923600886
2254,00:00:09.016,0.01733583988971072
2255,00:00:09.02,0.02213246421888468
2256,00:00:09.024,-0.01132481801323593
2257,00:00:09.028,-0.0199129390530288
2258,00:00:09.032,-0.00904870755039152
2259,00:00:09.036,0.0022130711004137954
2260,00:00:09.04,0.002958043478429321
2261,00:00:09.044,0.009979996713809669
2262,00:00:09.048,-0.006991329835727811
2263,00:00:09.052,-0.009921149816363998
2264,00:00:09.056,0.01035223098006097
2265,00:00:09.06,0.02439050283282996
2266,00:00:09.064,-0.015387110499432317
2267,00:00:09.068,-0.013064255996141586
2268,00:00:09.072,0.017224140930920832
2269,00:00:09.076,-0.00780234497506171
2270,00:00:09.08,-0.01853723474778237
2271,00:00:09.084,-0.010479943885002285
2272,00:00:09.088,0.025059395935386412
2273,00:00:09.092,0.00941355829127132
2274,00:00:09.096,0.002657975332112988
2275,00:00:09.1,0.0007911878346931198
2276,00:00:09.104,-0.0137395098572597
2277,00:00:09.108,-0.005927440943196411
2278,00:00:09.112,-0.007325253973249339
2279,00:00:09.116,0.014118455350398993
2280,00:00:09.12,0.02505262428894638
2281,00:00:09.124,-0.01284902100451294
2282,00:00:09.128,-0.01893439819104972
2283,00:00:09.132,-0.0036042763094883325
2284,00:00:09.136,0.0037586879916489003
2285,00:00:09.14,-0.007088601181749253
2286,00:00:09.144,0.015594251628499475
2287,00:00:09.148,-0.0014042856637388411
2288,00:00:09.152,0.032937366224359735
2289,00:00:09.156,-0.02682620985433454
2290,00:00:09.16,-0.021204820368439
2291,00:00:09.164,0.00494357477873563
2292,00:00:09.168,-0.0031311265775002517
2293,00:00:09.172,0.02124092401936651
2294,00:00:09.176,0.00819404469802973
2295,00:00:09.18,-0.0005281220655888297
2296,00:00:09.184,-0.019899219274520912
2297,00:00:09.188,-0.011265088145592024
2298,00:00:09.192,-0.004523710871580981
2299,00:00:09.196,0.02711782790720466
2300,00:00:09.2,0.0203217794187367
2301,00:00:09.204,-0.03528369637206197
2302,00:00:09.208,-0.013161472510546491
2303,00:00:09.212,0.01506653311662376
2304,00:00:09.216,0.02481946395710111
2305,00:00:09.22,-0.0012431625509634666
2306,00:00:09.224,-0.009827491419855503
2307,00:00:09.228,-0.02323875576257708
2308,00:00:09.232,-0.006757823401130739
2309,00:00:09.236,0.019356615724973394
2310,00:00:09.24,0.008222476230002943
2311,00:00:09.244,0.001798224984668192
2312,00:00:09.248,-0.0016526381641597289
2313,00:00:09.252,-0.0048882790724746935
2314,00:00:09.256,0.009961180534446614
2315,00:00:09.26,-0.00741054583340883
2316,00:00:09.264,-0.00807233139857999
2317,00:00:09.268,-0.0027520870207808894
2318,00:00:09.272,4.436002927832262e-05
2319,00:00:09.276,0.00189511268399656
2320,00:00:09.28,0.01724032487254586
2321,00:00:09.284,0.005236571189016111
2322,00:00:09.288,-0.017473668325692387
2323,00:00:09.292,-0.009364067984279242
2324,00:00:09.296,-0.005929271224886179
2325,00:00:09.3,0.0114972629817203
2326,00:00:09.304,0.00868770875968039
2327,00:00:09.308,0.00982037105131894
2328,00:00:09.312,0.009740232140757138
2329,00:00:09.316,-0.030215573671739472
2330,00:00:09.32,-0.01309538481291384
2331,00:00:09.324,0.008168946020305157
2332,00:00:09.328,0.01592764700762928
2333,00:00:09.332,0.00923733960371465
2334,00:00:09.336,-0.01682793349027634
2335,00:00:09.34,-0.0006568995304405698
2336,00:00:09.344,0.01402035984210668
2337,00:00:09.348,-0.007287704851478333
2338,00:00:09.352,-0.00583618914242834
2339,00:00:09.356,-0.010309416742529722
2340,00:00:09.36,0.004916427760690569
2341,00:00:09.364,0.015072806039825101
2342,00:00:09.368,0.0020673880353569997
2343,00:00:09.372,0.00036032882053405117
2344,00:00:09.376,-0.0023023220128379762
2345,00:00:09.38,-0.022353143431246232
2346,00:00:09.384,0.004129174514673661
2347,00:00:09.388,0.010414966207463294
2348,00:00:09.392,0.01522410660982136
2349,00:00:09.396,-0.0025806415360421003
2350,00:00:09.4,-0.01326568424701687
2351,00:00:09.404,-0.007728310534730561
2352,00:00:09.408,-0.005800904920761235
2353,00:00:09.412,0.008917806204408409
2354,00:00:09.416,0.014272209256887429
2355,00:00:09.42,0.013440804556012159
2356,00:00:09.424,-0.013846339657902699
2357,00:00:09.428,-0.016139870625920587
2358,00:00:09.432,-0.0009973708074539796
2359,00:00:09.436,0.0005488889291882498
2360,00:00:09.44,0.01083811919670552
2361,00:00:09.444,0.012155841104686291
2362,00:00:09.448,-0.0214858609251678
2363,00:00:09.452,-0.0040218085050582695
2364,00:00:09.456,0.00205410807393491
2365,00:00:09.46,0.030566885749067275
2366,00:00:09.464,0.012845122691942379
2367,00:00:09.468,-0.04030364099889992
2368,00:00:09.472,-0.018220295023638745
2369,00:00:09.476,0.0014181813457980752
2370,00:00:09.48,0.0156909174984321
2371,00:00:09.484,0.01642857445403933
2372,00:00:09.488,0.018640707319718803
2373,00:00:09.492,-0.01734796818345785
2374,00:00:09.496,-0.011336557683534901
2375,00:00:09.5,-0.005833738134242589
2376,00:00:09.504,-0.009174437262117871
2377,00:00:09.508,0.0019720798591151808
2378,00:00:09.512,0.01578942249761893
2379,00:00:09.516,0.011921670287847531
2380,00:00:09.52,-0.001909312180941925
2381,00:00:09.524,-0.009622037061490112
2382,00:00:09.528,-0.006868579257570669
2383,00:00:09.532,0.0026641712756827396
2384,00:00:09.536,-0.00577576155774295
2385,00:00:09.54,0.008215831141569648
2386,00:00:09.544,0.00554663757793605
2387,00:00:09.548,0.0017387963598594295
2388,00:00:09.552,-0.02437438430206389
2389,00:00:09.556,0.02070370607543735
2390,00:00:09.56,0.004900682833977051
2391,00:00:09.564,-0.016257019247859758
2392,00:00:09.568,0.01237050193594769
2393,00:00:09.572,-0.00173200806602836
2394,00:00:09.576,-0.006484639219706882
2395,00:00:09.58,-0.0003489833325147581
2396,00:00:09.584,-5.880836397409743e-05
2397,00:00:09.588,0.008131200447678559
2398,00:00:09.592,-0.01586741334176624
2399,00:00:09.596,0.0023399988422170203
2400,00:00:09.6,0.034160201437771286
2401,00:00:09.604,0.00235906895250082
2402,00:00:09.608,-0.03548110928386453
2403,00:00:09.612,-0.00908844918012619
2404,00:00:09.616,0.004639636958017941
2405,00:00:09.62,-0.010132819472346458
2406,00:00:09.624,0.018078496330417713
2407,00:00:09.628,0.03146047878544774
2408,00:00:09.632,-0.0023018636275082896
2409,00:00:09.636,-0.022269591456279193
2410,00:00:09.64,-0.01291469298303127
2411,00:00:09.644,0.002390276058577001
2412,00:00:09.648,-0.0029696429846808297
2413,00:00:09.652,0.01140304468572139
2414,00:00:09.656,0.007488889736123387
2415,00:00:09.66,-0.008300080895423879
2416,00:00:09.664,-0.0007237320533022475
2417,00:00:09.668,0.018162528693210386
2418,00:00:09.672,-0.016686405055224833
2419,00:00:09.676,-0.017286433911067448
2420,00:00:09.68,-0.002824950614012779
2421,00:00:09.684,0.03551288763992489
2422,00:00:09.688,-0.0060332432040013356
2423,00:00:09.692,0.011558877304196311
2424,00:00:09.696,-0.03253809129819269
2425,00:00:09.7,-0.012229878688231109
2426,00:00:09.704,0.026033144327811845
2427,00:00:09.708,0.00735419208649545
2428,00:00:09.712,-0.015334112351411017
2429,00:00:09.716,-0.0022175519261509093
2430,00:00:09.72,0.0177227596286684
2431,00:00:09.724,0.0025116797769442105
2432,00:00:09.728,-0.01268204944790342
2433,00:00:09.732,-0.006065916880288568
2434,00:00:09.736,0.008487936633173373
2435,00:00:09.74,-0.0045284958905540415
2436,00:00:09.744,-0.0051517651299946045
2437,00:00:09.748,0.0010761747253127396
2438,00:00:09.752,0.013259245897643268
2439,00:00:09.756,-0.0010901224050030543
2440,00:00:09.76,-0.00022390088997781396
2441,00:00:09.764,-0.006900032050907608
2442,00:00:09.768,-0.005941656505456199
2443,00:00:09.772,0.008808999962639062
2444,00:00:09.776,-0.0033669472468318426
2445,00:00:09.78,0.008426742628216771
2446,00:00:09.784,-0.01452975207939743
2447,00:00:09.788,0.0048929441254585895
2448,00:00:09.792,0.00645611668005586
2449,00:00:09.796,0.014568202663213018
2450,00:00:09.8,-0.02197478571906685
2451,00:00:09.804,-0.017618613783270128
2452,00:00:09.808,0.033613586798310315
2453,00:00:09.812,-0.011218787345569577
2454,00:00:09.816,-0.002371288253925729
2455,00:00:09.82,0.0008345362948602997
2456,00:00:09.824,-0.002975864525069482
2457,00:00:09.828,-0.001783536863513287
2458,00:00:09.832,0.01732320565497503
2459,00:00:09.836,-0.00518426741473376
2460,00:00:09.84,-0.006164667080156512
2461,00:00:09.844,-0.001744817418511957
2462,00:00:09.848,-0.00686070905067026
2463,00:00:09.852,-0.002525998163037
2464,00:00:09.856,0.01313560828566552
2465,00:00:09.86,0.00358734698966146
2466,00:00:09.864,-0.0013114512548781923
2467,00:00:09.868,-0.0007588236621813853
2468,00:00:09.872,-0.002213340718299139
2469,00:00:09.876,-0.0004831617261515891
2470,00:00:09.88,-0.005637368361931291
2471,00:00:09.884,-0.003986441181041292
2472,00:00:09.888,0.004206207697279752
2473,00:00:09.892,0.0033077455591410416
2474,00:00:09.896,0.0091064985608682
2475,00:00:09.9,-0.008531769970431919
2476,00:00:09.904,0.007225403096526799
2477,00:00:09.908,0.0019156325142831113
2478,00:00:09.912,-0.021409978158772013
2479,00:00:09.916,0.0092113537248224
2480,00:00:09.92,0.023560247151181088
2481,00:00:09.924,-0.02307296311482783
2482,00:00:09.928,-0.01627967879176139
2483,00:00:09.932,0.00353618501685559
2484,00:00:09.936,0.0077684242278337505
2485,00:00:09.94,0.02045809826813634
2486,00:00:09.944,0.013827047310769539
2487,00:00:09.948,-0.012046619980537854
2488,00:00:09.952,-0.022703732829540964
2489,00:00:09.956,-0.005815121781779448
2490,00:00:09.96,-0.008327908464707429
2491,00:00:09.964,0.018988958676345636
2492,00:00:09.968,0.01946229441091414
2493,00:00:09.972,-0.00293325795792043
2494,00:00:09.976,-0.000990139822533822
2495,00:00:09.98,-0.02126220590434973
2496,00:00:09.984,-0.002996300812810662
2497,00:00:09.988,0.001497650344390426
2498,00:00:09.992,0.01283810404129326
2499,00:00:09.996,0.0011609743814915401
2500,00:00:10,0.009360394615214313
2501,00:00:10.004,-0.00010178523370993169
2502,00:00:10.008,-0.02238203678280118
2503,00:00:10.012,0.0071784434840083695
2504,00:00:10.016,-0.00765841919928789
2505,00:00:10.02,0.007562457118183381
2506,00:00:10.024,0.01117491314653303
2507,00:00:10.028,-0.004202647192869334
2508,00:00:10.032,-0.007734381244517849
2509,00:00:10.036,-0.00035482342354953983
2510,00:00:10.04,0.008758415748161497
2511,00:00:10.044,-0.0035103186964988795
2512,00:00:10.048,-0.005974564002826809
2513,00:00:10.052,-0.0009491337696090427
2514,00:00:10.056,0.005159737891517591
2515,00:00:10.06,0.01018056611064821
2516,00:00:10.064,-0.00313567626290023
2517,00:00:10.068,-0.010632457677274942
2518,00:00:10.072,-0.00041486474219708984
2519,00:00:10.076,0.0004083793610334405
2520,00:00:10.08,0.001997381274122741
2521,00:00:10.084,0.0023389817888528398
2522,00:00:10.088,-0.0026649882202036674
2523,00:00:10.092,0.006272664177231489
2524,00:00:10.096,0.0027180879842489993
2525,00:00:10.1,-0.006302598223555825
2526,00:00:10.104,0.0039488049224019085
2527,00:00:10.108,-0.01013920037075877
2528,00:00:10.112,-0.0021945659536868707
2529,00:00:10.116,0.007719631248619409
2530,00:00:10.12,0.0010225765872746836
2531,00:00:10.124,-5.056499503552914e-05
2532,00:00:10.128,0.016796866431832293
2533,00:00:10.132,-0.017611172515898908
2534,00:00:10.136,-0.01529058860614893
2535,00:00:10.14,0.016339822323061522
2536,00:00:10.144,-2.6270980015390133e-05
2537,00:00:10.148,-0.0065807034261524695
2538,00:00:10.152,0.00344269326888025
2539,00:00:10.156,0.002469585509970791
2540,00:00:10.16,0.0018755581550067234
2541,00:00:10.164,0.01115680905058981
2542,00:00:10.168,-0.012334337341599163
2543,00:00:10.172,-0.0031561329960823102
2544,00:00:10.176,-0.0022503810978378143
2545,00:00:10.18,0.002537915570428594
2546,00:00:10.184,0.004346522735431779
2547,00:00:10.188,-0.009570767404511574
2548,00:00:10.192,-0.0004186185542493998
2549,00:00:10.196,0.01360916730482131
2550,00:00:10.2,0.003980811103247108
2551,00:00:10.204,-0.0035234749084338594
2552,00:00:10.208,-0.00799734867177904
2553,00:00:10.212,-0.00649378221714869
2554,00:00:10.216,0.00644958746852353
2555,00:00:10.22,-0.003455593541730195
2556,00:00:10.224,-0.0022272780188359364
2557,00:00:10.228,0.016006759404263004
2558,00:00:10.232,0.002200555354647805
2559,00:00:10.236,-0.003427512026974001
2560,00:00:10.24,-0.01278669130988419
2561,00:00:10.244,-0.009886531275697049
2562,00:00:10.248,0.0003272311296314001
2563,00:00:10.252,0.02800770895555616
2564,00:00:10.256,0.00504914659541101
2565,00:00:10.26,-0.02100163046270613
2566,00:00:10.264,0.006916222628206009
2567,00:00:10.268,-0.0008600410073995599
2568,00:00:10.272,-0.02121839649043975
2569,00:00:10.276,-0.0004901286447420703
2570,00:00:10.28,0.017810080666095063
2571,00:00:10.284,0.025047482165973724
2572,00:00:10.288,-0.012297139270231128
2573,00:00:10.292,-0.009578693192452241
2574,00:00:10.296,-0.01085604284889996
2575,00:00:10.3,-0.007136709376936777
2576,00:00:10.304,0.0036518086126307047
2577,00:00:10.308,0.01131598290521651
2578,00:00:10.312,0.014375019003637138
2579,00:00:10.316,-0.002129270695149901
2580,00:00:10.32,-0.007933627028251065
2581,00:00:10.324,-0.008799388015177097
2582,00:00:10.328,0.003407378753763628
2583,00:00:10.332,-0.0014229781227186288
2584,00:00:10.336,0.0015754687683511295
2585,00:00:10.34,-0.00485767796635628
2586,00:00:10.344,0.006343600587570141
2587,00:00:10.348,-0.01400295027997342
2588,00:00:10.352,0.03450421290472154
2589,00:00:10.356,-0.0017171557992696706
2590,00:00:10.36,-0.022812522249296318
2591,00:00:10.364,-0.008497687289491298
2592,00:00:10.368,-0.0020357536850497135
2593,00:00:10.372,0.004236477660015221
2594,00:00:10.376,0.02746446122182526
2595,00:00:10.38,-0.005988772260025149
2596,00:00:10.384,-0.01567678604624234
2597,00:00:10.388,0.00192499696277082
2598,00:00:10.392,0.007907800958491858
2599,00:00:10.396,-0.00712779187597334
2600,00:00:10.4,-0.004836683569010343
2601,00:00:10.404,0.0008512016938766465
2602,00:00:10.408,0.008184918297047263
2603,00:00:10.412,0.0040492722764611305
2604,00:00:10.416,-0.003401663823751735
2605,00:00:10.42,-0.008133723371429372
2606,00:00:10.424,-0.00207808497361839
2607,00:00:10.428,0.00960480736102908
2608,00:00:10.432,0.005130930454470216
2609,00:00:10.436,-0.007734747836366299
2610,00:00:10.44,0.0074042961932718815
2611,00:00:10.444,-0.009353050496429198
2612,00:00:10.448,-0.002159451192710554
2613,00:00:10.452,0.0009328217638540055
2614,00:00:10.456,-0.002405170991551132
2615,00:00:10.46,-0.005027043167501689
2616,00:00:10.464,0.005525574961211529
2617,00:00:10.468,0.020648340461775678
2618,00:00:10.472,0.00982036883942782
2619,00:00:10.476,-0.021231549442745745
2620,00:00:10.48,-0.01708822022192183
2621,00:00:10.484,-0.007540838734712452
2622,00:00:10.488,0.014726897235959779
2623,00:00:10.492,0.012722590065095574
2624,00:00:10.496,-0.0005614047404378705
2625,00:00:10.5,0.006615654303459452
2626,00:00:10.504,-0.008535824250429841
2627,00:00:10.508,-0.01932926313020293
2628,00:00:10.512,0.0021352709736675007
2629,00:00:10.516,0.01581807667389517
2630,00:00:10.52,0.002014291007071729
2631,00:00:10.524,0.00411792879458516
2632,00:00:10.528,-0.008088585236691865
2633,00:00:10.532,-0.005977814253128603
2634,00:00:10.536,0.0014577455003745915
2635,00:00:10.54,0.0029732463881373397
2636,00:00:10.544,0.003944918280467399
2637,00:00:10.548,-0.0016949108103290226
2638,00:00:10.552,-0.004451551008969549
2639,00:00:10.556,0.0008498301613144516
2640,00:00:10.56,-0.002284944464918222
2641,00:00:10.564,0.007100681308656929
2642,00:00:10.568,-0.0007532967720180795
2643,00:00:10.572,0.0042370787850813905
2644,00:00:10.576,-0.0048344371316488815
2645,00:00:10.58,-0.004700600868090991
2646,00:00:10.584,-0.01184069621376693
2647,00:00:10.588,0.01742651918902993
2648,00:00:10.592,0.00672014398151078
2649,00:00:10.596,-0.00829404126852751
2650,00:00:10.6,0.010737219592556363
2651,00:00:10.604,-0.01581277232617138
2652,00:00:10.608,-0.005570686887949707
2653,00:00:10.612,0.00022102775983511968
2654,00:00:10.616,0.009381013456732042
2655,00:00:10.62,0.004077763296663759
2656,00:00:10.624,-0.00594267301494256
2657,00:00:10.628,-0.0019934335723519186
2658,00:00:10.632,0.012968659342732286
2659,00:00:10.636,0.0022160860826261407
2660,00:00:10.64,-0.009744378912728275
2661,00:00:10.644,-0.0032532984623685497
2662,00:00:10.648,0.005081910727312807
2663,00:00:10.652,-0.02057548984885216
2664,00:00:10.656,0.01365607371553778
2665,00:00:10.66,0.010075746329675901
2666,00:00:10.664,-0.008826051838696
2667,00:00:10.668,-0.0024843518622219497
2668,00:00:10.672,0.00687328819185495
2669,00:00:10.676,0.006270656420383608
2670,00:00:10.68,-0.0026717591099441095
2671,00:00:10.684,-0.0030138265574350957
2672,00:00:10.688,-0.0055544861825183095
2673,00:00:10.692,-0.004591615288518369
2674,00:00:10.696,0.00296997197438031
2675,00:00:10.7,0.01059125864412635
2676,00:00:10.704,-0.007394016225589439
2677,00:00:10.708,-0.01304222317412496
2678,00:00:10.712,0.02385942637920376
2679,00:00:10.716,0.003441072243731471
2680,00:00:10.72,-0.006686564040137479
2681,00:00:10.724,-0.010027363896369889
2682,00:00:10.728,-0.010749957131338299
2683,00:00:10.732,0.011520938482135559
2684,00:00:10.736,0.0011449721641838598
2685,00:00:10.74,-0.0010551725572440812
2686,00:00:10.744,0.01238714317150878
2687,00:00:10.748,0.008013931696041254
2688,00:00:10.752,-0.013602487277239594
2689,00:00:10.756,-0.012034269690047948
2690,00:00:10.76,-0.011565037770196799
2691,00:00:10.764,0.017913067713379822
2692,00:00:10.768,0.008852855011355132
2693,00:00:10.772,-0.007791699434164905
2694,00:00:10.776,-0.00012050487566739603
2695,00:00:10.78,0.00829292181879282
2696,00:00:10.784,-0.000432063359767189
2697,00:00:10.788,-0.008999753510579463
2698,00:00:10.792,-0.004907360416837038
2699,00:00:10.796,0.00509332399815321
2700,00:00:10.8,-0.002043887041509155
2701,00:00:10.804,0.0024598985910415693
2702,00:00:10.808,0.005131551995873447
2703,00:00:10.812,0.0037109279073774815
2704,00:00:10.816,0.004495650980970821
2705,00:00:10.82,-0.018844015488866724
2706,00:00:10.824,-0.0031365610193461197
2707,00:00:10.828,0.0043255024356767535
2708,00:00:10.832,-0.00069909123703838
2709,00:00:10.836,0.00723479816224426
2710,00:00:10.84,0.007450092249200689
2711,00:00:10.844,0.007046543061733248
2712,00:00:10.848,-0.001837638614233586
2713,00:00:10.852,-0.028472105695982436
2714,00:00:10.856,0.0014893804909661401
2715,00:00:10.86,0.005381683004088741
2716,00:00:10.864,0.015305879176594355
2717,00:00:10.868,-0.0027057630650233477
2718,00:00:10.872,-0.0027327591087669195
2719,00:00:10.876,-0.00802908604964614
2720,00:00:10.88,0.0010600704408716384
2721,00:00:10.884,0.015177376568317379
2722,00:00:10.888,0.004532393999397761
2723,00:00:10.892,-0.02093418710865083
2724,00:00:10.896,-5.3566327551375734e-05
2725,00:00:10.9,0.008857621811330313
2726,00:00:10.904,-0.004961349870427504
2727,00:00:10.908,-0.00300412951037288
2728,00:00:10.912,-0.00045718956971541914
2729,00:00:10.916,0.007851242553442711
2730,00:00:10.92,-0.005530546623049304
2731,00:00:10.924,0.02614331338554616
2732,00:00:10.928,-0.011014176066964872
2733,00:00:10.932,-0.02210266422480341
2734,00:00:10.936,-0.007956954337714707
2735,00:00:10.94,0.014424664666876199
2736,00:00:10.944,-0.0007021588971838396
2737,00:00:10.948,0.030952616827562493
2738,00:00:10.952,-0.01015213737264276
2739,00:00:10.956,-0.022130681900307512
2740,00:00:10.96,-0.0168537510326132
2741,00:00:10.964,0.01082377368584277
2742,00:00:10.968,0.01855125208385284
2743,00:00:10.972,0.0015650151472073022
2744,00:00:10.976,-0.0015913750976324094
2745,00:00:10.98,-0.0013553467579186002
2746,00:00:10.984,-0.005215185170527553
2747,00:00:10.988,-0.009637739276513449
2748,00:00:10.992,0.0056186718866229005
2749,00:00:10.996,0.00875157443806529
2750,00:00:11,-0.00135170225985347
2751,00:00:11.004,0.0013084930833429029
2752,00:00:11.008,-0.0011771116405725496
2753,00:00:11.012,-0.004955413169227537
2754,00:00:11.016,-0.01093240617774427
2755,00:00:11.02,0.008473180118016902
2756,00:00:11.024,0.019238800276070788
2757,00:00:11.028,-0.006932119664270436
2758,00:00:11.032,-0.02495788689702754
2759,00:00:11.036,0.01294536259956657
2760,00:00:11.04,0.012632449623197319
2761,00:00:11.044,-0.01450578065123409
2762,00:00:11.048,0.010254326509311799
2763,00:00:11.052,0.010233773675281554
2764,00:00:11.056,-0.015088376589119431
2765,00:00:11.06,0.0016937538748606831
2766,00:00:11.064,-0.009826889494434
2767,00:00:11.068,-0.0031897439621388956
2768,00:00:11.072,0.0044983781408518605
2769,00:00:11.076,0.0009499540319666297
2770,00:00:11.08,0.01321686152368786
2771,00:00:11.084,0.006429900648072331
2772,00:00:11.088,0.007661302515771227
2773,00:00:11.092,-0.01914529432542624
2774,00:00:11.096,-0.012672959361225374
2775,00:00:11.1,-0.0021561197936534903
2776,00:00:11.104,0.0008596195839345507
2777,00:00:11.108,0.008716086595086379
2778,00:00:11.112,0.007949383289087564
2779,00:00:11.116,0.0074141739169135724
2780,00:00:11.12,-0.011429304024204608
2781,00:00:11.124,0.009520725630864032
2782,00:00:11.128,-0.00451181642711163
2783,00:00:11.132,-0.007635249348822979
2784,00:00:11.136,-0.012906252173706891
2785,00:00:11.14,0.003599268966354429
2786,00:00:11.144,0.01123281090985983
2787,00:00:11.148,0.011438758148869969
2788,00:00:11.152,-0.007272078189998869
2789,00:00:11.156,-0.008966765715740621
2790,00:00:11.16,0.008724472252652118
2791,00:00:11.164,0.01473511615768075
2792,00:00:11.168,-0.03345923312008376
2793,00:00:11.172,0.007816350553184753
2794,00:00:11.176,0.0008334548037964851
2795,00:00:11.18,0.00900974648538982
2796,00:00:11.184,0.004608656046912079
2797,00:00:11.188,-0.0013034678995609197
2798,00:00:11.192,-0.014597239438444369
2799,00:00:11.196,0.00813186448067426
2800,00:00:11.2,-0.005827438551932561
2801,00:00:11.204,0.01165484846569597
2802,00:00:11.208,0.00760323926806447
2803,00:00:11.212,-0.007370167877525101
2804,00:00:11.216,-0.02128975256346164
2805,00:00:11.22,0.00759128737263381
2806,00:00:11.224,0.006477604416431857
2807,00:00:11.228,0.0002059610560536402
2808,00:00:11.232,0.015916727832518532
2809,00:00:11.236,-0.007298258598893882
2810,00:00:11.24,-0.007592703215777874
2811,00:00:11.244,-0.004214722313918169
2812,00:00:11.248,0.0016958998166956003
2813,00:00:11.252,0.0021051333751529403
2814,00:00:11.256,-0.0011092941276729007
2815,00:00:11.26,-0.010494880611076948
2816,00:00:11.264,0.0068786042975261825
2817,00:00:11.268,0.00944067980162799
2818,00:00:11.272,0.015210023993859071
2819,00:00:11.276,-0.014755763288121674
2820,00:00:11.28,0.02089404920116062
2821,00:00:11.284,-0.03560968200326903
2822,00:00:11.288,-0.01288130762986836
2823,00:00:11.292,0.01182362996041771
2824,00:00:11.296,0.004875609651207929
2825,00:00:11.3,0.009805978275835542
2826,00:00:11.304,0.009599510813131918
2827,00:00:11.308,-0.00859367242082953
2828,00:00:11.312,-0.013722452684305591
2829,00:00:11.316,0.014696283731609631
2830,00:00:11.32,0.0037981291534379146
2831,00:00:11.324,-0.006059133913367989
2832,00:00:11.328,0.00012644403614104054
2833,00:00:11.332,-0.012454135809093722
2834,00:00:11.336,-0.0019240021938458102
2835,00:00:11.34,0.009514639503322542
2836,00:00:11.344,0.00289317569695413
2837,00:00:11.348,-0.0052356686792336396
2838,00:00:11.352,0.00825090275611728
2839,00:00:11.356,0.00887291032995563
2840,00:00:11.36,-0.009801862586755309
2841,00:00:11.364,-0.00021389266476035031
2842,00:00:11.368,-0.003514310345053679
2843,00:00:11.372,-0.005263612838461989
2844,00:00:11.376,-0.0011102138669229992
2845,00:00:11.38,-0.0015286206471500988
2846,00:00:11.384,0.0035609819751698554
2847,00:00:11.388,0.005782570689916609
2848,00:00:11.392,0.012539683608338237
2849,00:00:11.396,0.01387195428833363
2850,00:00:11.4,-0.03421594738028947
2851,00:00:11.404,-0.018086107447743298
2852,00:00:11.408,0.01441589090973139
2853,00:00:11.412,0.0238626776263118
2854,00:00:11.416,-0.00807430595159531
2855,00:00:11.42,-0.009464107570238411
2856,00:00:11.424,-0.0043485081987455505
2857,00:00:11.428,0.01566972117871045
2858,00:00:11.432,-0.0015233268641168252
2859,00:00:11.436,-0.0030001513659954015
2860,00:00:11.44,-0.002961301070172341
2861,00:00:11.444,0.00035596988163888
2862,00:00:11.448,-0.004266717824066293
2863,00:00:11.452,-0.0009386216988787033
2864,00:00:11.456,0.004528403282165529
2865,00:00:11.46,-0.000683746358845389
2866,00:00:11.464,0.00876851798966526
2867,00:00:11.468,-0.004097634126082996
2868,00:00:11.472,-0.00906835962086915
2869,00:00:11.476,0.004225377459079029
2870,00:00:11.48,0.016844860278070015
2871,00:00:11.484,-0.01304565952159468
2872,00:00:11.488,-0.017958797863684556
2873,00:00:11.492,0.008167411782778801
2874,00:00:11.496,0.010395613498985788
2875,00:00:11.5,0.002221000424469825
2876,00:00:11.504,-0.007917450042441489
2877,00:00:11.508,0.005431801313534389
2878,00:00:11.512,0.0011682603508234102
2879,00:00:11.516,0.00873503135517239
2880,00:00:11.52,-0.01217873609857634
2881,00:00:11.524,-0.022154069738462522
2882,00:00:11.528,0.019019397594092866
2883,00:00:11.532,0.008885303977876909
2884,00:00:11.536,-0.009725989308208253
2885,00:00:11.54,0.0022691062185913402
2886,00:00:11.544,2.3805594537403528e-05
2887,00:00:11.548,0.009923108853399752
2888,00:00:11.552,0.008808307582512503
2889,00:00:11.556,-0.01504397834651172
2890,00:00:11.56,-0.01021700410638004
2891,00:00:11.564,-0.00839318428188562
2892,00:00:11.568,0.00945187947945666
2893,00:00:11.572,0.012200199649669261
2894,00:00:11.576,0.00858805072493851
2895,00:00:11.58,-0.015059704513987499
2896,00:00:11.584,-0.007227579131722449
2897,00:00:11.588,-0.0006371042109094569
2898,00:00:11.592,0.019850215408951
2899,00:00:11.596,-0.007504742301534888
2900,00:00:11.6,-0.0037363453302532382
2901,00:00:11.604,0.013480995985446519
2902,00:00:11.608,-0.017581329870154122
2903,00:00:11.612,-0.015034912154078518
2904,00:00:11.616,0.027154139243066304
2905,00:00:11.62,0.009660129377152783
2906,00:00:11.624,-0.03137002291623498
2907,00:00:11.628,-0.000701955286785988
2908,00:00:11.632,0.010503057128516952
2909,00:00:11.636,0.007368946215137839
2910,00:00:11.64,0.011786401504650691
2911,00:00:11.644,0.006426952546462419
2912,00:00:11.648,-0.022842399775981893
2913,00:00:11.652,-0.01716304593719543
2914,00:00:11.656,0.00831499375635758
2915,00:00:11.66,0.0008630099473521202
2916,00:00:11.664,0.01754779892507942
2917,00:00:11.668,0.0016057698521763
2918,00:00:11.672,-0.0024645653320476404
2919,00:00:11.676,-0.00476832792628557
2920,00:00:11.68,-0.004206726705888287
2921,00:00:11.684,-0.001974623330170289
2922,00:00:11.688,0.0002966858883155539
2923,00:00:11.692,-0.0004948321147821913
2924,00:00:11.696,-0.008778462768532343
2925,00:00:11.7,0.01663425390142951
2926,00:00:11.704,0.02075440809130669
2927,00:00:11.708,-0.013608986977487766
2928,00:00:11.712,-0.01041489478666335
2929,00:00:11.716,-0.02581169083714485
2930,00:00:11.72,-0.00348032696638256
2931,00:00:11.724,0.04028087202459573
2932,00:00:11.728,0.016126214992254934
2933,00:00:11.732,-0.019722322933375867
2934,00:00:11.736,-0.02151824289467184
2935,00:00:11.74,0.00786313407547818
2936,00:00:11.744,0.00704705261159688
2937,00:00:11.748,0.002319491934031249
2938,00:00:11.752,-0.003393515449715781
2939,00:00:11.756,-0.004669015179388221
2940,00:00:11.76,-0.002426956663839516
2941,00:00:11.764,0.006894645841384783
2942,00:00:11.768,0.00708340748678892
2943,00:00:11.772,0.0005270288675092152
2944,00:00:11.776,-0.01040388608817011
2945,00:00:11.78,-0.003117033513262869
2946,00:00:11.784,0.003953314109821801
2947,00:00:11.788,0.009780599968507891
2948,00:00:11.792,-0.00699754513334483
2949,00:00:11.796,-0.008086023386567831
2950,00:00:11.8,0.0034567673283163454
2951,00:00:11.804,-0.0055473280372098106
2952,00:00:11.808,0.028759368753526384
2953,00:00:11.812,-0.00805839337408542
2954,00:00:11.816,-0.01822495201486161
2955,00:00:11.82,-0.0034086697851307647
2956,00:00:11.824,-0.00011434755288064003
2957,00:00:11.828,0.007375471992418171
2958,00:00:11.832,0.019202839583158535
2959,00:00:11.836,-0.011253691307501864
2960,00:00:11.84,-0.006966441171243789
2961,00:00:11.844,-0.006474411289673304
2962,00:00:11.848,0.0027650175616145186
2963,00:00:11.852,0.01154361851513388
2964,00:00:11.856,0.0040259291417896696
2965,00:00:11.86,-0.018301285686902705
2966,00:00:11.864,0.003204750100849198
2967,00:00:11.868,0.008689137379406022
2968,00:00:11.872,0.0011980866547674001
2969,00:00:11.876,-0.002404583414318043
2970,00:00:11.88,0.001320349634625016
2971,00:00:11.884,-0.007603895966894922
2972,00:00:11.888,-0.0034405510523356523
2973,00:00:11.892,3.7505596992477196e-06
2974,00:00:11.896,0.008524104416665075
2975,00:00:11.9,0.007459966698661439
2976,00:00:11.904,-0.00826574664097279
2977,00:00:11.908,-0.005320048046996843
2978,00:00:11.912,-0.0013382092583924471
2979,00:00:11.916,0.0348956845700741
2980,00:00:11.92,-0.0038574179634451905
2981,00:00:11.924,-0.049684831406921176
2982,00:00:11.928,-0.0007646711892448346
2983,00:00:11.932,0.007601103745400911
2984,00:00:11.936,0.026353907946031534
2985,00:00:11.94,0.006488014361821121
2986,00:00:11.944,-0.004290774581022549
2987,00:00:11.948,-0.01564976037479937
2988,00:00:11.952,0.004437117429915817
2989,00:00:11.956,0.008791495114564899
2990,00:00:11.96,-0.0059953121817670745
2991,00:00:11.964,-0.010485588543815542
2992,00:00:11.968,-0.0020662322640418894
2993,00:00:11.972,0.009231105417711652
2994,00:00:11.976,0.00699651101604104
2995,00:00:11.98,0.0033212860580533795
2996,00:00:11.984,-0.004815238236915325
2997,00:00:11.988,0.0007328640203923004
2998,00:00:11.992,-0.01493790675885975
2999,00:00:11.996,0.003286323684733361
3000,00:00:12,0.0022391282545868325
3001,00:00:12.004,0.0012798551470041297
3002,00:00:12.008,0.00926337961573154
3003,00:00:12.012,-0.0028207197610754476
3004,00:00:12.016,0.006928371789399537
3005,00:00:12.02,-0.010897329964791421
3006,00:00:12.024,-0.00944854598492383
3007,00:00:12.028,0.0023571024066768626
3008,00:00:12.032,0.016943194437772032
3009,00:00:12.036,0.001573545712744817
3010,00:00:12.04,-0.018666669726371737
3011,00:00:12.044,0.00710006174631417
3012,00:00:12.048,0.0105598121881485
3013,00:00:12.052,-0.010410443414002709
3014,00:00:12.056,-0.009926617785822635
3015,00:00:12.06,0.01654654974117875
3016,00:00:12.064,-0.009253997355699541
3017,00:00:12.068,-0.00808423140551895
3018,00:00:12.072,0.00643488857895136
3019,00:00:12.076,0.012423717300407582
3020,00:00:12.08,-0.006040318694431342
3021,00:00:12.084,0.016511826775968068
3022,00:00:12.088,-0.01467955787666142
3023,00:00:12.092,-0.0024937543203122914
3024,00:00:12.096,-0.014175404328852888
3025,00:00:12.1,-0.002815771207679059
3026,00:00:12.104,0.01409470825456083
3027,00:00:12.108,0.012915653642266989
3028,00:00:12.112,0.00638772360980511
3029,00:00:12.116,-0.011758919688873
3030,00:00:12.12,-0.01722310693003238
3031,00:00:12.124,0.008356971578905355
3032,00:00:12.128,-0.0027177372394362473
3033,00:00:12.132,0.0003261034144088574
3034,00:00:12.136,0.012404478678945455
3035,00:00:12.14,-0.0012518378498498383
3036,00:00:12.144,-0.006115601281635463
3037,00:00:12.148,0.0035928295692428877
3038,00:00:12.152,-0.008899117470718872
3039,00:00:12.156,0.00997344218194484
3040,00:00:12.16,-0.003155083628371359
3041,00:00:12.164,-0.00943435297813267
3042,00:00:12.168,0.028673649765551
3043,00:00:12.172,-0.0023990347981453003
3044,00:00:12.176,-0.01694830367341639
3045,00:00:12.18,-0.029454159550368803
3046,00:00:12.184,0.0025925619993358894
3047,00:00:12.188,0.01755279907956718
3048,00:00:12.192,0.020744672510772857
3049,00:00:12.196,0.007768740018946117
3050,00:00:12.2,-0.0026738323504105193
3051,00:00:12.204,-0.012092661228962241
3052,00:00:12.208,-0.01234746235422789
3053,00:00:12.212,-0.006135495554190177
3054,00:00:12.216,0.00936689088121056
3055,00:00:12.22,0.0016607828438281909
3056,00:00:12.224,0.012036317726597181
3057,00:00:12.228,-0.003479194652754813
3058,00:00:12.232,-0.00847126031294465
3059,00:00:12.236,-0.0038213323568925283
3060,00:00:12.24,0.00761899654753506
3061,00:00:12.244,0.001944219751749192
3062,00:00:12.248,0.0005301886703819002
3063,00:00:12.252,-0.0147122167982161
3064,00:00:12.256,0.006769074941985286
3065,00:00:12.26,-0.00039428513264284286
3066,00:00:12.264,0.01250796020030975
3067,00:00:12.268,0.002444443001877518
3068,00:00:12.272,-0.00677497975993902
3069,00:00:12.276,-0.010617106279823933
3070,00:00:12.28,-0.0007012742571532718
3071,00:00:12.284,0.01249504787847399
3072,00:00:12.288,-0.00543808448128402
3073,00:00:12.292,-0.006318043451756239
3074,00:00:12.296,0.01939758798107505
3075,00:00:12.3,-0.016803326550871158
3076,00:00:12.304,0.0024304088437929715
3077,00:00:12.308,0.00419303914532066
3078,00:00:12.312,0.0029412840958684705
3079,00:00:12.316,-0.012113904696889222
3080,00:00:12.32,0.003866185725200925
3081,00:00:12.324,0.0029190095083322393
3082,00:00:12.328,0.00559912470635027
3083,00:00:12.332,-0.014196106116287441
3084,00:00:12.336,0.010126166976988312
3085,00:00:12.34,0.00936957926023754
3086,00:00:12.344,-0.009226749301888049
3087,00:00:12.348,-0.007682294672122227
3088,00:00:12.352,-0.0072754241991788
3089,00:00:12.356,0.007399265654385101
3090,00:00:12.36,0.009229983348632252
3091,00:00:12.364,0.01512827607803047
3092,00:00:12.368,-0.004172810411546374
3093,00:00:12.372,-0.01355680078268052
3094,00:00:12.376,0.0009161988273263004
3095,00:00:12.38,-0.01992721809074281
3096,00:00:12.384,-0.00274544209241868
