,Elapsed Time,EMG
0,00:00:00,5.534029744565486
1,00:00:00.004,-5.266209363238886
2,00:00:00.008,-4.377686308231202
3,00:00:00.012,-0.4844391816441207
4,00:00:00.016,2.264810957072773
5,00:00:00.02,2.7560506099835087
6,00:00:00.024,1.654989542439583
7,00:00:00.028,0.21216144785285018
8,00:00:00.032,-0.7885458108503375
9,00:00:00.036,-1.1113618952222173
10,00:00:00.04,-0.7930712592788042
11,00:00:00.044,-0.28690919539076315
12,00:00:00.048,0.12383232428692317
13,00:00:00.052,0.3245032841805374
14,00:00:00.056,0.27298984955996247
15,00:00:00.06,0.14394026529043896
16,00:00:00.064,0.00889795180410144
17,00:00:00.068,-0.0760132438590517
18,00:00:00.072,-0.07673411804717037
19,00:00:00.076,-0.07691666390746837
20,00:00:00.08,-0.02705668797716495
21,00:00:00.084,0.02790774405002589
22,00:00:00.088,0.02578373078722505
23,00:00:00.092,0.01528274640440937
24,00:00:00.096,0.011291753500699952
25,00:00:00.1,0.00733018200844527
26,00:00:00.104,-0.005522390594705979
27,00:00:00.108,-0.01176264474634081
28,00:00:00.112,-0.007599181961268182
29,00:00:00.116,0.019493983127176782
30,00:00:00.12,-0.027201228775084033
31,00:00:00.124,-0.00883683678694069
32,00:00:00.128,0.01296278525842354
33,00:00:00.132,0.03143283165991307
34,00:00:00.136,-0.0064116134308278595
35,00:00:00.14,-0.014052657003048832
36,00:00:00.144,-0.002392336027696732
37,00:00:00.148,0.001446833193767822
38,00:00:00.152,-0.00900855986401438
39,00:00:00.156,-0.006608782394323495
40,00:00:00.16,0.00865308474749326
41,00:00:00.164,0.001899920345749702
42,00:00:00.168,0.02756131510250269
43,00:00:00.172,-0.00790275179315359
44,00:00:00.176,0.00189786998089403
45,00:00:00.18,-0.026667300146073047
46,00:00:00.184,-0.013963081946712919
47,00:00:00.188,0.00435713736806065
48,00:00:00.192,0.013526667069527274
49,00:00:00.196,0.010193558642640758
50,00:00:00.2,0.015745540964417118
51,00:00:00.204,-0.003496348508633668
52,00:00:00.208,-0.00298202806152403
53,00:00:00.212,-0.00944899977184829
54,00:00:00.216,-0.0248994359280914
55,00:00:00.22,-0.012640125787584113
56,00:00:00.224,0.02334575611166654
57,00:00:00.228,0.02380275190807878
58,00:00:00.232,0.0012239709030836838
59,00:00:00.236,0.01803854340687394
60,00:00:00.24,-0.030709607293829322
61,00:00:00.244,-0.02357714343816041
62,00:00:00.248,0.001460320898331707
63,00:00:00.252,0.001329586259089412
64,00:00:00.256,0.02299412083812062
65,00:00:00.26,0.030217480263672762
66,00:00:00.264,-0.023196262860437886
67,00:00:00.268,-0.03138251532800497
68,00:00:00.272,0.003205802990123659
69,00:00:00.276,-0.003429284784942886
70,00:00:00.28,0.05482917506014928
71,00:00:00.284,-0.005505504086613711
72,00:00:00.288,-0.02818363229744133
73,00:00:00.292,-0.02292116149328651
74,00:00:00.296,0.0038078478537499696
75,00:00:00.3,-0.006599450018256909
76,00:00:00.304,0.029594466788694263
77,00:00:00.308,0.01442443998530506
78,00:00:00.312,0.0005118895205668533
79,00:00:00.316,-0.005644818535074588
80,00:00:00.32,-0.01549527212046089
81,00:00:00.324,-0.02491856925189496
82,00:00:00.328,0.016603139345534132
83,00:00:00.332,0.014553368091583278
84,00:00:00.336,-0.0016189985908567697
85,00:00:00.34,-0.0013935979804955432
86,00:00:00.344,0.0010249150218442108
87,00:00:00.348,-0.0026685877237468698
88,00:00:00.352,0.004223468247801059
89,00:00:00.356,-0.01450917799957097
90,00:00:00.36,-0.00235818326473238
91,00:00:00.364,0.013093638932332351
92,00:00:00.368,0.008876603795215508
93,00:00:00.372,0.004511453385930515
94,00:00:00.376,-0.01315828762017191
95,00:00:00.38,-0.0072076922515407205
96,00:00:00.384,0.0056042710784822624
97,00:00:00.388,0.0076378027442842705
98,00:00:00.392,-0.0172655443311669
99,00:00:00.396,-0.019190371502190832
100,00:00:00.4,0.05792573947110211
101,00:00:00.404,-0.01619915070477873
102,00:00:00.408,-0.013533581746742098
103,00:00:00.412,-0.0019308344926685008
104,00:00:00.416,-0.011786401970312006
105,00:00:00.42,0.008320915861986565
106,00:00:00.424,0.01203876081854103
107,00:00:00.428,0.002442672965116793
108,00:00:00.432,0.0012723014829134631
109,00:00:00.436,-0.0018719190265983204
110,00:00:00.44,-0.01623066607862707
111,00:00:00.444,-0.010443274164572362
112,00:00:00.448,0.0006419157580239733
113,00:00:00.452,0.026778164086863364
114,00:00:00.456,0.031029777921503396
115,00:00:00.46,-0.03162390086799859
116,00:00:00.464,-0.01595368376001718
117,00:00:00.468,-0.0035009448183700425
118,00:00:00.472,0.009988361176510792
119,00:00:00.476,-0.004244024807121612
120,00:00:00.48,0.0034083527862094317
121,00:00:00.484,0.014771418122109033
122,00:00:00.488,-0.01594398519955574
123,00:00:00.492,0.001482159597799182
124,00:00:00.496,-0.002156771544832732
125,00:00:00.5,0.0012655158061534192
126,00:00:00.504,0.011899584322236516
127,00:00:00.508,-0.01305095676798377
128,00:00:00.512,0.01904915692284703
129,00:00:00.516,-0.00460252817720175
130,00:00:00.52,-0.012699419632554053
131,00:00:00.524,-0.007140514440834529
132,00:00:00.528,-0.0014981538988649897
133,00:00:00.532,0.00490357726812359
134,00:00:00.536,0.010964766144752542
135,00:00:00.54,0.01112110610119998
136,00:00:00.544,-0.018289657833520285
137,00:00:00.548,-0.00227063428610563
138,00:00:00.552,0.0030797461513429893
139,00:00:00.556,-0.00113287731073797
140,00:00:00.56,-0.0032094932103063894
141,00:00:00.564,0.00859982322435826
142,00:00:00.568,0.011856182711198919
143,00:00:00.572,0.006085056811571121
144,00:00:00.576,-0.01259937544818967
145,00:00:00.58,-0.02887154649943115
146,00:00:00.584,-0.00367410376202315
147,00:00:00.588,0.020459189137909558
148,00:00:00.592,0.015289573755580899
149,00:00:00.596,-0.00335951684974134
150,00:00:00.6,0.00013218168169263841
151,00:00:00.604,-0.013333555543795231
152,00:00:00.608,-0.011440003116149462
153,00:00:00.612,0.028654857393121354
154,00:00:00.616,-0.0012601320922840456
155,00:00:00.62,-0.006506641744636
156,00:00:00.624,-0.007837942335754671
157,00:00:00.628,0.005699826986528935
158,00:00:00.632,-0.0037231736350804598
159,00:00:00.636,-0.010945631889626389
160,00:00:00.64,0.00861020898446441
161,00:00:00.644,0.0029962009284645406
162,00:00:00.648,0.017493472900241662
163,00:00:00.652,-0.005097895947983494
164,00:00:00.656,-0.010314485640265048
165,00:00:00.66,-0.004673196468502291
166,00:00:00.664,-0.0010193914931733111
167,00:00:00.668,-0.00710760185029357
168,00:00:00.672,0.005777846556156881
169,00:00:00.676,0.010213290341198434
170,00:00:00.68,0.011079599615186432
171,00:00:00.684,-0.005189002957195043
172,00:00:00.688,-0.02172914054244757
173,00:00:00.692,0.011811216361820689
174,00:00:00.696,-0.0056537734344601605
175,00:00:00.7,0.006392709212377669
176,00:00:00.704,0.010701351333409543
177,00:00:00.708,-0.01036291342461482
178,00:00:00.712,-0.00820539379492402
179,00:00:00.716,-0.0026449316646903797
180,00:00:00.72,0.00017719250172377045
181,00:00:00.724,0.01470918487757444
182,00:00:00.728,0.02258752239868044
183,00:00:00.732,-0.02185166766867036
184,00:00:00.736,-0.010527325677685412
185,00:00:00.74,-0.013324502855539311
186,00:00:00.744,0.00523574987892058
187,00:00:00.748,0.02783042722148825
188,00:00:00.752,-0.007341959048062559
189,00:00:00.756,-0.006475398055044901
190,00:00:00.76,-0.0014892430044710601
191,00:00:00.764,-0.004685195614001712
192,00:00:00.768,0.0035763785708695693
193,00:00:00.772,-0.0071911760605871695
194,00:00:00.776,0.010501187760382894
195,00:00:00.78,-0.0033451616181991973
196,00:00:00.784,0.00922484486363829
197,00:00:00.788,0.013462888309732081
198,00:00:00.792,-0.016246647981461186
199,00:00:00.796,-0.015128668281249709
200,00:00:00.8,-0.0042021550470963094
201,00:00:00.804,0.008922821172745897
202,00:00:00.808,-0.0023629936622455634
203,00:00:00.812,0.00649086933117361
204,00:00:00.816,0.012728229165077199
205,00:00:00.82,-0.011739793902961534
206,00:00:00.824,0.013945530634373461
207,00:00:00.828,-0.0009051251690834804
208,00:00:00.832,-0.02387002133764331
209,00:00:00.836,-0.009861381520750001
210,00:00:00.84,0.01083999755792319
211,00:00:00.844,0.028036816511303173
212,00:00:00.848,0.0038318850565701714
213,00:00:00.852,-0.0194779341109097
214,00:00:00.856,-0.02229474484920507
215,00:00:00.86,0.006118287186836819
216,00:00:00.864,0.01086477376520634
217,00:00:00.868,0.03554716275539248
218,00:00:00.872,-0.03080729441717266
219,00:00:00.876,-0.015015615441370771
220,00:00:00.88,0.00669820932671429
221,00:00:00.884,0.014666168368421504
222,00:00:00.888,-0.006592893390916281
223,00:00:00.892,-0.00423765601590276
224,00:00:00.896,-0.006702123209834111
225,00:00:00.9,0.0015169222024269398
226,00:00:00.904,0.01715513691306114
227,00:00:00.908,0.017281760966398028
228,00:00:00.912,-0.0190361329587176
229,00:00:00.916,-0.030614566057920428
230,00:00:00.92,0.00644627372093964
231,00:00:00.924,0.019207202363759272
232,00:00:00.928,0.008099689992377535
233,00:00:00.932,-0.005557455559028313
234,00:00:00.936,-0.00797056406736374
235,00:00:00.94,-0.0002071375347441019
236,00:00:00.944,0.006765043770428747
237,00:00:00.948,-0.0016445945948362298
238,00:00:00.952,-0.014941043176804714
239,00:00:00.956,0.02963884943164894
240,00:00:00.96,0.00509723077993838
241,00:00:00.964,-0.04316649958491331
242,00:00:00.968,0.010379219544120159
243,00:00:00.972,0.017818401334807242
244,00:00:00.976,-0.0025331224314868502
245,00:00:00.98,-0.01797385793179269
246,00:00:00.984,0.013635472627356676
247,00:00:00.988,0.019342437240993618
248,00:00:00.992,-0.01582881249487399
249,00:00:00.996,-0.01349693513475358
250,00:00:01,-0.0017612453084439
251,00:00:01.004,0.014621734051615935
252,00:00:01.008,0.006036712031345811
253,00:00:01.012,-0.014165314831188927
254,00:00:01.016,0.02135678194463254
255,00:00:01.02,-0.020775532597326705
256,00:00:01.024,0.0058678948844317355
257,00:00:01.028,-0.00586853118147701
258,00:00:01.032,-0.025290122139267665
259,00:00:01.036,0.03690795006696134
260,00:00:01.04,0.031709608156234095
261,00:00:01.044,-0.02203796431422233
262,00:00:01.048,-0.03189646615646781
263,00:00:01.052,-0.01309966947883367
264,00:00:01.056,0.018797348893713213
265,00:00:01.06,0.00943938345881179
266,00:00:01.064,0.00357469949813093
267,00:00:01.068,0.03127920906990764
268,00:00:01.072,-0.02063235128298406
269,00:00:01.076,-0.0173633852973581
270,00:00:01.08,-0.01923047425225377
271,00:00:01.084,0.0013864995562471452
272,00:00:01.088,0.02116224821656942
273,00:00:01.092,0.00935271976049989
274,00:00:01.096,-0.0016706685419194335
275,00:00:01.1,-0.00634805904701353
276,00:00:01.104,0.004983863604138612
277,00:00:01.108,0.006907235772814601
278,00:00:01.112,-0.01845946244429797
279,00:00:01.116,-0.014661730267107494
280,00:00:01.12,0.0004104597028344888
281,00:00:01.124,0.03947671735659242
282,00:00:01.128,-0.00781287532299757
283,00:00:01.132,-0.015883165178820522
284,00:00:01.136,0.012688761111348899
285,00:00:01.14,-0.00173360481858254
286,00:00:01.144,-0.0237894491292536
287,00:00:01.148,0.010073821875266734
288,00:00:01.152,0.013679988158401076
289,00:00:01.156,-0.006841556663857775
290,00:00:01.16,-0.00743724592030048
291,00:00:01.164,0.012970847194083071
292,00:00:01.168,0.0019760353025049006
293,00:00:01.172,-0.016457000165246434
294,00:00:01.176,0.0090666408650577
295,00:00:01.18,0.00928062992170458
296,00:00:01.184,-0.00044633436482399095
297,00:00:01.188,-0.012897590524517031
298,00:00:01.192,-0.011226553586311642
299,00:00:01.196,-0.0008131276263156888
300,00:00:01.2,0.0069027018034830715
301,00:00:01.204,0.01477866689674555
302,00:00:01.208,0.030856027267873287
303,00:00:01.212,-0.01870340062305331
304,00:00:01.216,-0.03051739861257373
305,00:00:01.22,-0.010018664412200451
306,00:00:01.224,0.012835333822295111
307,00:00:01.228,0.01295001059770589
308,00:00:01.232,0.0011421306990086998
309,00:00:01.236,0.0023052137112245007
310,00:00:01.24,0.00690931011922657
311,00:00:01.244,-0.019965252256952188
312,00:00:01.248,-0.01460485754068942
313,00:00:01.252,0.00780620757723228
314,00:00:01.256,0.02843356132507329
315,00:00:01.26,0.001854937057942159
316,00:00:01.264,0.0072051230818033305
317,00:00:01.268,-0.03386278916150333
318,00:00:01.272,-0.014350916724652048
319,00:00:01.276,-0.00522640766575932
320,00:00:01.28,0.03394834883511066
321,00:00:01.284,0.02672873903065918
322,00:00:01.288,-0.0037468413356691608
323,00:00:01.292,-0.03172863833606239
324,00:00:01.296,-0.02711815410293638
325,00:00:01.3,0.00266466406174004
326,00:00:01.304,0.02484440430998805
327,00:00:01.308,0.016488455003127463
328,00:00:01.312,0.006127357017248879
329,00:00:01.316,0.013726099161431202
330,00:00:01.32,-0.01920626685023312
331,00:00:01.324,-0.02671121899038554
332,00:00:01.328,-0.030166104552336016
333,00:00:01.332,0.018311966370674764
334,00:00:01.336,0.04356211656704548
335,00:00:01.34,0.0001316231209784694
336,00:00:01.344,-0.01391921681351959
337,00:00:01.348,-0.0012326249852776076
338,00:00:01.352,-0.00120401015738025
339,00:00:01.356,-0.0214832434430718
340,00:00:01.36,0.00889851583633571
341,00:00:01.364,0.007196736056357629
342,00:00:01.368,0.016990053234621917
343,00:00:01.372,0.006429620087146759
344,00:00:01.376,0.005019635544158539
345,00:00:01.38,-0.032805140130221844
346,00:00:01.384,-0.023830732003261773
347,00:00:01.388,0.01468619541265071
348,00:00:01.392,0.01235692843329162
349,00:00:01.396,0.012997649610042558
350,00:00:01.4,-0.00018739770166572092
351,00:00:01.404,-0.004133403715968599
352,00:00:01.408,0.0004210157203488052
353,00:00:01.412,-0.0016860370524228122
354,00:00:01.416,-0.00951433461159472
355,00:00:01.42,0.007323492318391799
356,00:00:01.424,-0.01036549161653966
357,00:00:01.428,0.009951196610927611
358,00:00:01.432,0.01116978563368323
359,00:00:01.436,-0.01282569789327681
360,00:00:01.44,-0.0003292583860457004
361,00:00:01.444,-0.002835435559973122
362,00:00:01.448,-0.012556295376271015
363,00:00:01.452,0.01206998445559294
364,00:00:01.456,0.014538201270625
365,00:00:01.46,0.004325818445067849
366,00:00:01.464,0.009788434486836178
367,00:00:01.468,-0.019646364031359533
368,00:00:01.472,-0.04019518173299732
369,00:00:01.476,0.010756737479823647
370,00:00:01.48,0.03373675479087976
371,00:00:01.484,0.026658660499379042
372,00:00:01.488,-0.012500992466812022
373,00:00:01.492,-0.04349864111281923
374,00:00:01.496,-0.00607054721331224
375,00:00:01.5,0.019100331206573146
376,00:00:01.504,0.0075378317269496585
377,00:00:01.508,-0.004229708923958244
378,00:00:01.512,0.020182193551590913
379,00:00:01.516,-0.00145620061084628
380,00:00:01.52,-0.002940631937235591
381,00:00:01.524,-0.007751038530841471
382,00:00:01.528,-0.01010661106556656
383,00:00:01.532,-0.01061147404834629
384,00:00:01.536,0.009882242535240952
385,00:00:01.54,-0.00861595710739494
386,00:00:01.544,0.013224207359598948
387,00:00:01.548,0.0271773762069642
388,00:00:01.552,0.00458905752748251
389,00:00:01.556,-0.033324559917673524
390,00:00:01.56,-0.023978149518370608
391,00:00:01.564,0.018499244470149293
392,00:00:01.568,0.032544034998863935
393,00:00:01.572,-0.02329746959730984
394,00:00:01.576,-0.013225692015112148
395,00:00:01.58,0.0035570096224546398
396,00:00:01.584,0.01950965740252291
397,00:00:01.588,0.005373951513320211
398,00:00:01.592,-0.0058694577310234
399,00:00:01.596,-0.0216543485876173
400,00:00:01.6,-0.00492548709735274
401,00:00:01.604,0.022417403466533883
402,00:00:01.608,0.009760134387761348
403,00:00:01.612,-0.01607054099440573
404,00:00:01.616,-0.01402400899678468
405,00:00:01.62,0.03254170506261291
406,00:00:01.624,-0.01063050841912629
407,00:00:01.628,-0.017914796920194962
408,00:00:01.632,-0.006415078649297362
409,00:00:01.636,0.011403313837945479
410,00:00:01.64,0.028783610323444012
411,00:00:01.644,-0.00414245649881195
412,00:00:01.648,-0.012291660881601309
413,00:00:01.652,-0.02558972721453753
414,00:00:01.656,0.00470486574340611
415,00:00:01.66,0.01240795291960239
416,00:00:01.664,-0.0058043788885697774
417,00:00:01.668,0.013824097433825951
418,00:00:01.672,0.027338775806128972
419,00:00:01.676,-0.0026210195865132846
420,00:00:01.68,-0.037912860512733466
421,00:00:01.684,-0.038732114713639035
422,00:00:01.688,0.01805039588361978
423,00:00:01.692,0.04993027728050946
424,00:00:01.696,-0.012327256379649041
425,00:00:01.7,0.0037248819135129937
426,00:00:01.704,-0.00355176557786762
427,00:00:01.708,-0.0241287080571055
428,00:00:01.712,0.00939716480206699
429,00:00:01.716,-0.0018539227312430696
430,00:00:01.72,0.020680920977611112
431,00:00:01.724,-0.00804195017553866
432,00:00:01.728,0.0029466927517205494
433,00:00:01.732,-0.01254547300050036
434,00:00:01.736,-0.01730730407871302
435,00:00:01.74,0.030458278371952523
436,00:00:01.744,-0.01142305112443862
437,00:00:01.748,-0.008355275880603539
438,00:00:01.752,0.017580042622284953
439,00:00:01.756,0.00523840030655265
440,00:00:01.76,0.01068237365689124
441,00:00:01.764,-0.022729450836777743
442,00:00:01.768,-0.02916149911470709
443,00:00:01.772,0.012630610523046927
444,00:00:01.776,0.014723458327353
445,00:00:01.78,0.02651230688206853
446,00:00:01.784,0.001473105512559418
447,00:00:01.788,-0.02972813392989341
448,00:00:01.792,-0.01781747071072459
449,00:00:01.796,-0.0006891488083056114
450,00:00:01.8,0.014177193399518728
451,00:00:01.804,0.00990437623113392
452,00:00:01.808,0.02712042280472812
453,00:00:01.812,0.004903773136902543
454,00:00:01.816,-0.03609820699784901
455,00:00:01.82,-0.03192250011488799
456,00:00:01.824,0.0138156246393919
457,00:00:01.828,0.0166882495395839
458,00:00:01.832,0.01757562137208874
459,00:00:01.836,0.0015970909735187905
460,00:00:01.84,-0.0033302917145192593
461,00:00:01.844,-0.02311826404184099
462,00:00:01.848,-0.01737703679827969
463,00:00:01.852,0.02492559468373657
464,00:00:01.856,0.03842698433436454
465,00:00:01.86,-0.01718604145571589
466,00:00:01.864,-0.04059569258242842
467,00:00:01.868,0.014721403364092108
468,00:00:01.872,-0.004917641170322899
469,00:00:01.876,0.02049519197316839
470,00:00:01.88,0.005630375264445315
471,00:00:01.884,-0.00709144258871674
472,00:00:01.888,-0.014439544727792946
473,00:00:01.892,0.0017958760145120375
474,00:00:01.896,-0.0009261888917535602
475,00:00:01.9,-0.0010386318899691096
476,00:00:01.904,0.01326378807425498
477,00:00:01.908,0.005287666397634854
478,00:00:01.912,-0.005985412601148713
479,00:00:01.916,0.009273449075408231
480,00:00:01.92,0.005425092298537489
481,00:00:01.924,-0.030028505483642227
482,00:00:01.928,-0.017790860671084385
483,00:00:01.932,0.023962821345776313
484,00:00:01.936,0.0036721117794513806
485,00:00:01.94,0.0011643846519291297
486,00:00:01.944,0.00010782267418099796
487,00:00:01.948,0.01647610170766713
488,00:00:01.952,0.0028417948051355757
489,00:00:01.956,-0.02459329417615661
490,00:00:01.96,-0.013672476285137248
491,00:00:01.964,0.01111555611714721
492,00:00:01.968,0.009651814820244912
493,00:00:01.972,-0.0019338350975885987
494,00:00:01.976,0.007441845955327149
495,00:00:01.98,0.006211792207977855
496,00:00:01.984,-0.01414505019783973
497,00:00:01.988,-0.015655974013498
498,00:00:01.992,0.020696519932243942
499,00:00:01.996,-0.0029294271953403915
500,00:00:02,0.00776698795380076
501,00:00:02.004,-0.014409665949642679
502,00:00:02.008,-0.005247871158644521
503,00:00:02.012,0.0056465163361281165
504,00:00:02.016,0.01723740901798014
505,00:00:02.02,-0.00636023986589862
506,00:00:02.024,-0.010605875140754513
507,00:00:02.028,0.01726334053091702
508,00:00:02.032,-0.01462385116610675
509,00:00:02.036,-0.01731723942793909
510,00:00:02.04,0.0063655714038759505
511,00:00:02.044,0.010460514342412349
512,00:00:02.048,0.00845812470652163
513,00:00:02.052,0.011547919100848954
514,00:00:02.056,-0.01986511144787073
515,00:00:02.06,0.013856660050805658
516,00:00:02.064,0.008543795673176624
517,00:00:02.068,-0.025083828135393605
518,00:00:02.072,-0.012143974250648129
519,00:00:02.076,-0.000801404792582618
520,00:00:02.08,0.01657959970179948
521,00:00:02.084,-0.01020110957324508
522,00:00:02.088,0.007661942625418311
523,00:00:02.092,0.00812119734473526
524,00:00:02.096,-0.001413867576047779
525,00:00:02.1,0.020621336647309328
526,00:00:02.104,0.01697762613184749
527,00:00:02.108,-0.036515573039650875
528,00:00:02.112,-0.037851829547434976
529,00:00:02.116,-0.00801621779100969
530,00:00:02.12,0.0349423903971911
531,00:00:02.124,0.02416754234582186
532,00:00:02.128,-0.003684895753394788
533,00:00:02.132,-0.009133190382272009
534,00:00:02.136,-0.0038405198138207197
535,00:00:02.14,-0.0012626902316696946
536,00:00:02.144,-0.0063255783170461585
537,00:00:02.148,0.012475369498133618
538,00:00:02.152,0.022192130098119343
539,00:00:02.156,-0.023817423789296334
540,00:00:02.16,-0.01886883721454069
541,00:00:02.164,-0.00812391564249997
542,00:00:02.168,0.009008066495880481
543,00:00:02.172,0.005180911626666819
544,00:00:02.176,0.012983390362933282
545,00:00:02.18,0.008564778894651681
546,00:00:02.184,0.01102945185266435
547,00:00:02.188,-0.008614674501586707
548,00:00:02.192,-0.028816821519285503
549,00:00:02.196,0.016234719660133096
550,00:00:02.2,-0.01112184161320329
551,00:00:02.204,-0.0035193302901461694
552,00:00:02.208,0.015241926012095015
553,00:00:02.212,-0.004273335449397529
554,00:00:02.216,0.011703744472470148
555,00:00:02.22,-0.015963837038725618
556,00:00:02.224,0.0047424486838281215
557,00:00:02.228,0.015624091029167201
558,00:00:02.232,-0.011519967461936181
559,00:00:02.236,-0.015424161800183363
560,00:00:02.24,-0.00500437890877947
561,00:00:02.244,0.00293442065594718
562,00:00:02.248,0.03581302426755434
563,00:00:02.252,-0.00658221548656002
564,00:00:02.256,-0.0059113875031471304
565,00:00:02.26,-0.009714727842947465
566,00:00:02.264,-0.01057504524942487
567,00:00:02.268,0.0007751415250823001
568,00:00:02.272,0.003863087855279451
569,00:00:02.276,-0.0005096124950796405
570,00:00:02.28,0.01874952483922243
571,00:00:02.284,0.013204674411099366
572,00:00:02.288,-0.02707367390394213
573,00:00:02.292,-0.01314577634911983
574,00:00:02.296,-0.0024134005652740615
575,00:00:02.3,0.01087623817147692
576,00:00:02.304,0.03453356004320085
577,00:00:02.308,-0.013799804903101188
578,00:00:02.312,-0.012466548854717947
579,00:00:02.316,-0.00982014229521155
580,00:00:02.32,-0.00834818356088363
581,00:00:02.324,0.00965530191024302
582,00:00:02.328,0.006277789594605569
583,00:00:02.332,0.0272016065428033
584,00:00:02.336,-0.01776523760054263
585,00:00:02.34,-0.020575780421495517
586,00:00:02.344,-0.00350106286350637
587,00:00:02.348,0.00909090030472725
588,00:00:02.352,0.00508264702511951
589,00:00:02.356,0.001940959424246096
590,00:00:02.36,0.004264592425897719
591,00:00:02.364,0.010016290470957787
592,00:00:02.368,-0.003093990962952391
593,00:00:02.372,-0.005098132882267261
594,00:00:02.376,-0.011999401496723289
595,00:00:02.38,-0.01270232113165547
596,00:00:02.384,0.01740875211544335
597,00:00:02.388,-0.01401171286124733
598,00:00:02.392,-0.0006226892583072212
599,00:00:02.396,0.02944611711427566
600,00:00:02.4,0.006692816736176621
601,00:00:02.404,-0.010105129505973302
602,00:00:02.408,-0.014055775944143555
603,00:00:02.412,-0.010896835010498759
604,00:00:02.416,0.009309191606007508
605,00:00:02.42,0.0128651459235698
606,00:00:02.424,-0.001619439572095857
607,00:00:02.428,-0.012065969174727801
608,00:00:02.432,-0.01289284578524529
609,00:00:02.436,0.032291903859004364
610,00:00:02.44,-0.008593753562308851
611,00:00:02.444,-0.00462177419103682
612,00:00:02.448,-0.001963408838491885
613,00:00:02.452,-0.012713176198303748
614,00:00:02.456,0.01868132047820836
615,00:00:02.46,0.01716264197602867
616,00:00:02.464,-0.015167214907705808
617,00:00:02.468,-0.021477905567735427
618,00:00:02.472,0.007362974545685574
619,00:00:02.476,0.001072736566129605
620,00:00:02.48,0.007040901749860504
621,00:00:02.484,-0.001797470264136819
622,00:00:02.488,0.003977829357609161
623,00:00:02.492,0.0002203049662057306
624,00:00:02.496,0.007397639798000464
625,00:00:02.5,-0.01511584228137508
626,00:00:02.504,-0.00342391128651797
627,00:00:02.508,0.02243426046334209
628,00:00:02.512,-0.01451130793429907
629,00:00:02.516,-0.00945913488976658
630,00:00:02.52,0.004597203340381381
631,00:00:02.524,0.00630286103114485
632,00:00:02.528,0.011408018879592412
633,00:00:02.532,-0.01661024894565345
634,00:00:02.536,-0.0008905110880732519
635,00:00:02.54,0.005727828480303291
636,00:00:02.544,0.00717736512888223
637,00:00:02.548,-0.015114675392396752
638,00:00:02.552,0.0019345495384186597
639,00:00:02.556,-0.002777490415610372
640,00:00:02.56,0.025719069642946093
641,00:00:02.564,-0.00512262387201186
642,00:00:02.568,-0.014622974791564044
643,00:00:02.572,-0.01248416310409088
644,00:00:02.576,-0.00395918273716234
645,00:00:02.58,0.016570814419537797
646,00:00:02.584,0.010559414280578449
647,00:00:02.588,0.010413863696157932
648,00:00:02.592,0.0029158635734347245
649,00:00:02.596,-0.029960792278870968
650,00:00:02.6,-0.00808968360070139
651,00:00:02.604,-0.004070703289471568
652,00:00:02.608,0.00764392863493413
653,00:00:02.612,0.0186949351336807
654,00:00:02.616,0.0034142881631851205
655,00:00:02.62,0.018518514669267443
656,00:00:02.624,-0.021159004943911007
657,00:00:02.628,-0.008738684875424927
658,00:00:02.632,-0.01263283391017463
659,00:00:02.636,-0.005942852701991791
660,00:00:02.64,0.019497078843414818
661,00:00:02.644,0.00270964344963431
662,00:00:02.648,-0.004284528433345258
663,00:00:02.652,0.01680132572073493
664,00:00:02.656,-0.00588325923308729
665,00:00:02.66,-0.00726505680358968
666,00:00:02.664,-0.004866243427386509
667,00:00:02.668,-0.00340301857795567
668,00:00:02.672,0.00538521155249325
669,00:00:02.676,-0.0021584444912150502
670,00:00:02.68,0.008547740057110788
671,00:00:02.684,-0.0008388822316192017
672,00:00:02.688,0.00089835014659911
673,00:00:02.692,-0.00417292350903155
674,00:00:02.696,-0.00575697096064689
675,00:00:02.7,-0.003293551737442571
676,00:00:02.704,-0.00782986474223435
677,00:00:02.708,0.017209069104865183
678,00:00:02.712,0.027095182798802863
679,00:00:02.716,-0.01302318484522402
680,00:00:02.72,-0.03509890218265356
681,00:00:02.724,0.010463573074957818
682,00:00:02.728,0.016274355817586152
683,00:00:02.732,-0.0013043349608779006
684,00:00:02.736,-0.01153358432929961
685,00:00:02.74,-0.00571561325341463
686,00:00:02.744,0.022977214655838886
687,00:00:02.748,-0.005229513932135872
688,00:00:02.752,-0.010317433159798352
689,00:00:02.756,0.01553151523694396
690,00:00:02.76,-0.010270535654854036
691,00:00:02.764,-0.015512387966737151
692,00:00:02.768,0.019333737494889678
693,00:00:02.772,0.00827362667769194
694,00:00:02.776,-0.01906712912023072
695,00:00:02.78,-0.02051884797401725
696,00:00:02.784,0.01777239609509705
697,00:00:02.788,0.01874803006649018
698,00:00:02.792,0.012884229538030919
699,00:00:02.796,-0.01228789088781927
700,00:00:02.8,-0.01788949914043768
701,00:00:02.804,-0.0001733751269057419
702,00:00:02.808,0.0129792215302587
703,00:00:02.812,-0.004155509173870109
704,00:00:02.816,-0.00943922391161323
705,00:00:02.82,0.006799710274208306
706,00:00:02.824,-0.013086849125102188
707,00:00:02.828,0.0202558897435665
708,00:00:02.832,0.01196094374608947
709,00:00:02.836,-0.003183536231517811
710,00:00:02.84,-0.02135722967796032
711,00:00:02.844,-0.0083596636541188
712,00:00:02.848,-0.0026122014969587014
713,00:00:02.852,0.012436365708708819
714,00:00:02.856,0.026557107514236136
715,00:00:02.86,-0.01511592045426367
716,00:00:02.864,0.007002670317888272
717,00:00:02.868,-0.01755340443924072
718,00:00:02.872,0.00017109513282779001
719,00:00:02.876,-0.005517435183719499
720,00:00:02.88,0.004863089881837369
721,00:00:02.884,0.012189879780635219
722,00:00:02.888,0.0012944269983563511
723,00:00:02.892,-0.02149537345394495
724,00:00:02.896,0.006073781172744931
725,00:00:02.9,0.01407497678883375
726,00:00:02.904,0.00688255671411752
727,00:00:02.908,-0.016696681326720874
728,00:00:02.912,-0.007603649748489259
729,00:00:02.916,0.00417775800451631
730,00:00:02.92,0.0189704403746873
731,00:00:02.924,-0.009950387524440848
732,00:00:02.928,-0.009536114986985922
733,00:00:02.932,0.004782735777553168
734,00:00:02.936,-0.00160522991791371
735,00:00:02.94,0.014964395784772927
736,00:00:02.944,-0.011211309349164318
737,00:00:02.948,-0.01297237351536751
738,00:00:02.952,0.003920626331819216
739,00:00:02.956,0.02325640490744265
740,00:00:02.96,-0.0035447012851364057
741,00:00:02.964,-0.012105917543522094
742,00:00:02.968,-0.004740209056762975
743,00:00:02.972,-0.005703930743038652
744,00:00:02.976,0.021253640530630988
745,00:00:02.98,-0.01657428406178952
746,00:00:02.984,0.00609707692638039
747,00:00:02.988,0.00435024010948837
748,00:00:02.992,-0.005630897532682871
749,00:00:02.996,0.004012837423942981
750,00:00:03,0.010812818887643526
751,00:00:03.004,-0.01305412559304386
752,00:00:03.008,-0.007485356392862744
753,00:00:03.012,0.01871768524870273
754,00:00:03.016,-0.015556334285065528
755,00:00:03.02,-0.018582851625978898
756,00:00:03.024,0.01244489848613739
757,00:00:03.028,0.03055058373138312
758,00:00:03.032,-0.008120930287987022
759,00:00:03.036,-0.01089939521625638
760,00:00:03.04,0.01074443547986452
761,00:00:03.044,-0.0243399245664477
762,00:00:03.048,-0.0023774044821038808
763,00:00:03.052,0.0041340209718327995
764,00:00:03.056,0.02767567191040138
765,00:00:03.06,-0.01185175054706633
766,00:00:03.064,-0.011504423571750489
767,00:00:03.068,0.011069844244048
768,00:00:03.072,0.01226444286294282
769,00:00:03.076,-0.013085633749142312
770,00:00:03.08,-0.014307264005765302
771,00:00:03.084,-0.005370608065277338
772,00:00:03.088,0.005571853311266745
773,00:00:03.092,0.015984975965693593
774,00:00:03.096,0.003556957351975139
775,00:00:03.1,-0.01708800159394741
776,00:00:03.104,0.01381082972511647
777,00:00:03.108,0.0272281877696514
778,00:00:03.112,-0.01048636529594663
779,00:00:03.116,-0.05234506260603667
780,00:00:03.12,7.681595161562055e-05
781,00:00:03.124,0.012123063206672712
782,00:00:03.128,0.02040357980877158
783,00:00:03.132,0.009813208132982261
784,00:00:03.136,0.00445243925787509
785,00:00:03.14,0.0012631714344024702
786,00:00:03.144,-0.015151935600442768
787,00:00:03.148,-0.0228689654613845
788,00:00:03.152,0.0022217993973754433
789,00:00:03.156,0.007663900614716112
790,00:00:03.16,0.02269338211044672
791,00:00:03.164,-0.002320245257578785
792,00:00:03.168,-0.01178423198871311
793,00:00:03.172,0.02594257402233783
794,00:00:03.176,-0.017141819465905428
795,00:00:03.18,-0.02745962841436263
796,00:00:03.184,-0.00905368331586942
797,00:00:03.188,0.01935221161693335
798,00:00:03.192,0.016329852398484942
799,00:00:03.196,0.01094554155133665
800,00:00:03.2,-0.00170005625113844
801,00:00:03.204,-0.023791812360286723
802,00:00:03.208,0.010628732910845427
803,00:00:03.212,0.01092525676358491
804,00:00:03.216,-0.021815750747919062
805,00:00:03.22,-0.0139201689307811
806,00:00:03.224,0.0084357924060896
807,00:00:03.228,0.0223338630748913
808,00:00:03.232,0.0014348684344440699
809,00:00:03.236,0.0034509850083850376
810,00:00:03.24,-0.00411902100313455
811,00:00:03.244,-0.008308478049002622
812,00:00:03.248,-0.021451907930895728
813,00:00:03.252,0.015426080557517699
814,00:00:03.256,0.011179755092598501
815,00:00:03.26,-0.0066712861880660005
816,00:00:03.264,-0.011058238800615081
817,00:00:03.268,0.004654730291804297
818,00:00:03.272,0.01283069397322835
819,00:00:03.276,0.012011164915747946
820,00:00:03.28,-0.002232694285339679
821,00:00:03.284,-0.02764802298042931
822,00:00:03.288,-0.001222087303176531
823,00:00:03.292,0.00980156986042861
824,00:00:03.296,-0.003162167966365769
825,00:00:03.3,0.00721566053107381
826,00:00:03.304,0.026358846924267723
827,00:00:03.308,-0.027410435955971438
828,00:00:03.312,-0.005222431151196359
829,00:00:03.316,-0.0131916975369677
830,00:00:03.32,0.019952217015088494
831,00:00:03.324,0.002416090108454229
832,00:00:03.328,-0.0061443629238056435
833,00:00:03.332,0.004464065190404661
834,00:00:03.336,0.0072692106477916
835,00:00:03.34,-0.0026089424500241893
836,00:00:03.344,-0.00820317794568837
837,00:00:03.348,-0.00482256500981748
838,00:00:03.352,-0.0019201382528990498
839,00:00:03.356,0.011328662163577972
840,00:00:03.36,-0.0133151486515999
841,00:00:03.364,0.027796853042673285
842,00:00:03.368,-0.01943690818734467
843,00:00:03.372,-0.005358728929422792
844,00:00:03.376,0.0005816086195409289
845,00:00:03.38,0.008798709837719772
846,00:00:03.384,0.013242836626886856
847,00:00:03.388,-0.019054762087762356
848,00:00:03.392,-0.002643992833327502
849,00:00:03.396,0.01189681398682297
850,00:00:03.4,-0.0060960114933550046
851,00:00:03.404,-0.0007455651648342609
852,00:00:03.408,0.0006750228931196676
853,00:00:03.412,0.00887422030791644
854,00:00:03.416,-0.00983111234381795
855,00:00:03.42,-0.01509827235713602
856,00:00:03.424,0.01894359337165957
857,00:00:03.428,0.01208376861177385
858,00:00:03.432,-0.014429296366870422
859,00:00:03.436,-0.005941313458606601
860,00:00:03.44,-0.00977086741477251
861,00:00:03.444,0.011259253195021302
862,00:00:03.448,0.007173880410846288
863,00:00:03.452,0.02030752907739949
864,00:00:03.456,-0.0009584043291397347
865,00:00:03.46,-0.026931683998554924
866,00:00:03.464,-0.013547430746257336
867,00:00:03.468,-0.0002541217118050563
868,00:00:03.472,0.02839405968552451
869,00:00:03.476,-0.00862100126687433
870,00:00:03.48,-0.016475391166750362
871,00:00:03.484,0.023062060819938775
872,00:00:03.488,0.00690236722584818
873,00:00:03.492,-0.01518302876502272
874,00:00:03.496,0.007537348894402383
875,00:00:03.5,-0.006127284374088049
876,00:00:03.504,-0.01016108109615743
877,00:00:03.508,0.0066711935214698315
878,00:00:03.512,-0.0003921217285097114
879,00:00:03.516,-0.0015517021529376498
880,00:00:03.52,0.01655621369718576
881,00:00:03.524,-0.005929310107603638
882,00:00:03.528,-0.020967468386515968
883,00:00:03.532,0.00603879487607628
884,00:00:03.536,0.01925859926268459
885,00:00:03.54,0.012702041771262908
886,00:00:03.544,-0.02895054826512929
887,00:00:03.548,-0.010301254818841716
888,00:00:03.552,-0.003969110373873269
889,00:00:03.556,0.021805976051837213
890,00:00:03.56,0.03735072095878425
891,00:00:03.564,-0.029751201742328662
892,00:00:03.568,-0.031194295734167092
893,00:00:03.572,0.01932615379337218
894,00:00:03.576,0.00657050547306426
895,00:00:03.58,-0.007337391751207183
896,00:00:03.584,-0.005826316115417286
897,00:00:03.588,0.006251231388887391
898,00:00:03.592,0.00032330001704399154
899,00:00:03.596,8.672644617035421e-05
900,00:00:03.6,0.02599842858035122
901,00:00:03.604,0.004782178904861221
902,00:00:03.608,-0.0380624618846923
903,00:00:03.612,-0.02077675377950069
904,00:00:03.616,0.011255935649387531
905,00:00:03.62,0.02053271862678232
906,00:00:03.624,0.01838674396276478
907,00:00:03.628,-0.007292579626664523
908,00:00:03.632,-0.011385516612790513
909,00:00:03.636,-0.0023594642989337496
910,00:00:03.64,-0.006521078525111119
911,00:00:03.644,0.01002483093179762
912,00:00:03.648,0.00313743634615094
913,00:00:03.652,-0.014752758565009573
914,00:00:03.656,-0.0023860740475356544
915,00:00:03.66,0.010963897744659334
916,00:00:03.664,0.01904830290004611
917,00:00:03.668,-0.012235708607477087
918,00:00:03.672,0.004792395571712411
919,00:00:03.676,-0.01853648573160173
920,00:00:03.68,0.007546344742877361
921,00:00:03.684,-0.01146585899618914
922,00:00:03.688,-0.002701395424082869
923,00:00:03.692,0.005247570967185277
924,00:00:03.696,0.03482035640627147
925,00:00:03.7,-0.00744364457204939
926,00:00:03.704,-0.01471990835852918
927,00:00:03.708,-0.014798113843426098
928,00:00:03.712,-0.01153505872935055
929,00:00:03.716,0.01592291519045829
930,00:00:03.72,0.01308452058583498
931,00:00:03.724,0.015308161731809338
932,00:00:03.728,-0.0057491878396831375
933,00:00:03.732,-0.01729939226061103
934,00:00:03.736,-0.014592476887628441
935,00:00:03.74,-0.0003920072922483
936,00:00:03.744,0.017446110781747806
937,00:00:03.748,-0.0017421433003619313
938,00:00:03.752,0.007429830846376641
939,00:00:03.756,0.007220678962767133
940,00:00:03.76,-0.0046295722713693525
941,00:00:03.764,-0.01673933421261608
942,00:00:03.768,0.005894434638321391
943,00:00:03.772,0.0030429513426497613
944,00:00:03.776,-0.008807899197563501
945,00:00:03.78,-0.00022399425506588327
946,00:00:03.784,0.00283772009424866
947,00:00:03.788,0.0030845294240861992
948,00:00:03.792,0.02283423149492592
949,00:00:03.796,-0.010627953306538967
950,00:00:03.8,-0.018194845411926508
951,00:00:03.804,-0.00438713259063659
952,00:00:03.808,0.01735342328902333
953,00:00:03.812,-0.0003467561909928948
954,00:00:03.816,0.003655700478702827
955,00:00:03.82,-0.01508135558106005
956,00:00:03.824,-0.0007421997142955591
957,00:00:03.828,-0.006125923711806541
958,00:00:03.832,0.01182527840137481
959,00:00:03.836,0.005773978482466196
960,00:00:03.84,0.014413244789466262
961,00:00:03.844,-0.01049099420197308
962,00:00:03.848,-0.00978691945783794
963,00:00:03.852,-0.006814375054091209
964,00:00:03.856,-0.010191204492002719
965,00:00:03.86,0.02276283083483573
966,00:00:03.864,0.009459694709221367
967,00:00:03.868,-0.01094173220917582
968,00:00:03.872,-0.0020011649467051003
969,00:00:03.876,0.01215424947440622
970,00:00:03.88,-0.0019822877948172165
971,00:00:03.884,-0.022419450106099238
972,00:00:03.888,-0.01589321449864653
973,00:00:03.892,-0.000642600120045249
974,00:00:03.896,0.03765989222301862
975,00:00:03.9,0.025251210667192932
976,00:00:03.904,-0.01812274567782876
977,00:00:03.908,-0.018790376114338873
978,00:00:03.912,-0.011071222310420134
979,00:00:03.916,0.0006518911104649305
980,00:00:03.92,0.01356178335845469
981,00:00:03.924,0.02869412908330562
982,00:00:03.928,-0.034809577453415876
983,00:00:03.932,-0.00983776198700071
984,00:00:03.936,-0.0017991891363635646
985,00:00:03.94,0.0041765280475374285
986,00:00:03.944,0.02536143362522127
987,00:00:03.948,0.01300895039457828
988,00:00:03.952,-0.006179154850542497
989,00:00:03.956,-0.025626339949667423
990,00:00:03.96,-0.0155910551548004
991,00:00:03.964,-0.0016651572659611199
992,00:00:03.968,0.03720378177240492
993,00:00:03.972,0.01440427859779446
994,00:00:03.976,-0.03203825093805792
995,00:00:03.98,-0.0067815313814208
996,00:00:03.984,-0.00455825636163356
997,00:00:03.988,0.011476502004370562
998,00:00:03.992,0.00798283924814313
999,00:00:03.996,0.004995865165255959
1000,00:00:04,0.00718651525676251
1001,00:00:04.004,-0.02295811125077303
1002,00:00:04.008,0.004867874318733809
1003,00:00:04.012,-0.0009014280221890606
1004,00:00:04.016,0.0014149657217785716
1005,00:00:04.02,-0.0052156338933855295
1006,00:00:04.024,0.0019701793789863413
1007,00:00:04.028,0.01486761309206481
1008,00:00:04.032,-0.004426287487149249
1009,00:00:04.036,-0.01969094038940964
1010,00:00:04.04,-5.116825923323805e-05
1011,00:00:04.044,0.0328163783997297
1012,00:00:04.048,-0.0014792544534429916
1013,00:00:04.052,-0.011099237528469532
1014,00:00:04.056,-0.0130095852073282
1015,00:00:04.06,-0.009609285334590779
1016,00:00:04.064,-0.0042124423198401685
1017,00:00:04.068,0.01695807371288538
1018,00:00:04.072,0.011780313085182525
1019,00:00:04.076,0.00747321047310834
1020,00:00:04.08,0.0012073076795786598
1021,00:00:04.084,-0.02091291220858693
1022,00:00:04.088,-0.02208338971104238
1023,00:00:04.092,0.02645464707165958
1024,00:00:04.096,0.024370081664528722
1025,00:00:04.1,-0.013329338456969708
1026,00:00:04.104,-0.01744439126923685
1027,00:00:04.108,-0.008053334662690759
1028,00:00:04.112,-0.012536520831872618
1029,00:00:04.116,0.02085017866920681
1030,00:00:04.12,0.016127666691318158
1031,00:00:04.124,0.00871924310922622
1032,00:00:04.128,-0.004257319436874245
1033,00:00:04.132,-0.02528518391773109
1034,00:00:04.136,-0.01642081444151697
1035,00:00:04.14,0.035439465660601896
1036,00:00:04.144,0.01096181408502161
1037,00:00:04.148,-0.0004420096520334495
1038,00:00:04.152,-0.022339862596709302
1039,00:00:04.156,-0.01612714806105941
1040,00:00:04.16,0.0021696047624573094
1041,00:00:04.164,0.0063466597348451614
1042,00:00:04.168,0.015933962538838387
1043,00:00:04.172,0.0019375021802261498
1044,00:00:04.176,0.006287150725256653
1045,00:00:04.18,-0.0018918374553322799
1046,00:00:04.184,-0.02018859214149414
1047,00:00:04.188,-0.012447867076843987
1048,00:00:04.192,0.01767988759092989
1049,00:00:04.196,0.02283665514551097
1050,00:00:04.2,0.01336200329387794
1051,00:00:04.204,-0.024126327596604845
1052,00:00:04.208,-0.03773218748392539
1053,00:00:04.212,0.0015780627727508805
1054,00:00:04.216,0.016801917679913493
1055,00:00:04.22,0.003088528290391022
1056,00:00:04.224,0.01479681488126517
1057,00:00:04.228,0.016802208541776054
1058,00:00:04.232,-0.01131292222999036
1059,00:00:04.236,-0.01181178248953073
1060,00:00:04.24,0.009914829162880782
1061,00:00:04.244,-0.008439769968390468
1062,00:00:04.248,-0.02877083583734925
1063,00:00:04.252,0.0032873962918529252
1064,00:00:04.256,0.03728393558412789
1065,00:00:04.26,-0.005052828666521237
1066,00:00:04.264,-0.010385057423263818
1067,00:00:04.268,0.004318405583035201
1068,00:00:04.272,-0.003723838599398741
1069,00:00:04.276,-0.00020821532234549956
1070,00:00:04.28,-0.0012762695550918557
1071,00:00:04.284,0.010893093509366729
1072,00:00:04.288,-0.008221065509133037
1073,00:00:04.292,-0.0046614400926046065
1074,00:00:04.296,-0.00024623714853077953
1075,00:00:04.3,0.010592981707304702
1076,00:00:04.304,-0.011549313552677631
1077,00:00:04.308,0.0008449749439023416
1078,00:00:04.312,0.006413643131963951
1079,00:00:04.316,0.00530143454670907
1080,00:00:04.32,-0.004998500226065522
1081,00:00:04.324,-0.0047170853940769995
1082,00:00:04.328,-0.005455906692077414
1083,00:00:04.332,0.02611536666518074
1084,00:00:04.336,-0.014217512682080269
1085,00:00:04.34,-0.02274792524985966
1086,00:00:04.344,0.01319570338819181
1087,00:00:04.348,0.0003932958934456214
1088,00:00:04.352,0.004166631144471399
1089,00:00:04.356,0.008676170546095796
1090,00:00:04.36,0.002440953627228723
1091,00:00:04.364,-0.00154392083641141
1092,00:00:04.368,-0.01179725490510464
1093,00:00:04.372,-0.003948211320675941
1094,00:00:04.376,-0.0044951734598726
1095,00:00:04.38,0.018097449094057104
1096,00:00:04.384,0.010601623915135909
1097,00:00:04.388,-0.014612610219046439
1098,00:00:04.392,-0.01394842396257447
1099,00:00:04.396,-0.004049653187394172
1100,00:00:04.4,0.01494409795850515
1101,00:00:04.404,1.948326826094887e-05
1102,00:00:04.408,-0.0018306495621801394
1103,00:00:04.412,0.031273924978449955
1104,00:00:04.416,-0.005096107255667471
1105,00:00:04.42,-0.02795804990455513
1106,00:00:04.424,-0.021096382057294232
1107,00:00:04.428,-0.008129677516990343
1108,00:00:04.432,0.02590714697726067
1109,00:00:04.436,0.01785203686449676
1110,00:00:04.44,0.02886099321767685
1111,00:00:04.444,-0.018844562000595044
1112,00:00:04.448,-0.03968459810130297
1113,00:00:04.452,-0.0035172790521755797
1114,00:00:04.456,0.012052313890308142
1115,00:00:04.46,0.0192028615492745
1116,00:00:04.464,-0.0032226780895143687
1117,00:00:04.468,0.0011369767598807803
1118,00:00:04.472,0.0009446908952668396
1119,00:00:04.476,0.0030939532443881295
1120,00:00:04.48,-0.018997658975422348
1121,00:00:04.484,-0.00665962358471009
1122,00:00:04.488,0.009114051994401963
1123,00:00:04.492,0.0011323778890073785
1124,00:00:04.496,0.032643014332279556
1125,00:00:04.5,-0.01854598522186279
1126,00:00:04.504,-0.021621210966259272
1127,00:00:04.508,0.011109480209597703
1128,00:00:04.512,-0.012277394416742029
1129,00:00:04.516,0.00011222934699617776
1130,00:00:04.52,0.026078700670041186
1131,00:00:04.524,0.011006850167177609
1132,00:00:04.528,-0.02170471427962186
1133,00:00:04.532,-0.01320514874532819
1134,00:00:04.536,-0.0005778080085292441
1135,00:00:04.54,0.015084348618984209
1136,00:00:04.544,-0.00042060203850272093
1137,00:00:04.548,0.0037797659169882
1138,00:00:04.552,-0.008665123179525835
1139,00:00:04.556,0.00618595257401465
1140,00:00:04.56,0.0005067006277386041
1141,00:00:04.564,0.007276422576978841
1142,00:00:04.568,-0.02986580156721179
1143,00:00:04.572,0.01011030189692974
1144,00:00:04.576,0.014917982509359742
1145,00:00:04.58,-0.01446523272898045
1146,00:00:04.584,0.00040437522693537203
1147,00:00:04.588,0.01497769693378359
1148,00:00:04.592,0.00834975973702967
1149,00:00:04.596,-0.012412471987772736
1150,00:00:04.6,-0.00838041282258932
1151,00:00:04.604,-0.0021990494569763593
1152,00:00:04.608,0.0063462255056947504
1153,00:00:04.612,-0.01278229293529875
1154,00:00:04.616,0.01755740046792199
1155,00:00:04.62,0.006640013016294686
1156,00:00:04.624,-0.008814855944365268
1157,00:00:04.628,-0.01071343326475472
1158,00:00:04.632,0.01793097308836874
1159,00:00:04.636,-0.007355950947385281
1160,00:00:04.64,0.002807061362545939
1161,00:00:04.644,0.0015262403758243006
1162,00:00:04.648,-0.016387755516916493
1163,00:00:04.652,-0.008305252849822871
1164,00:00:04.656,0.009843292471487072
1165,00:00:04.66,0.01620869681937621
1166,00:00:04.664,0.006580606073839585
1167,00:00:04.668,-0.0013504976523108754
1168,00:00:04.672,-0.01595493732020259
1169,00:00:04.676,-0.008498111070366573
1170,00:00:04.68,0.0038275255355983916
1171,00:00:04.684,0.021564938360825188
1172,00:00:04.688,-0.011015655705705282
1173,00:00:04.692,-0.01872874447144569
1174,00:00:04.696,0.01074855076149106
1175,00:00:04.7,0.022219258418772408
1176,00:00:04.704,5.903869168832725e-05
1177,00:00:04.708,-0.021622747561195907
1178,00:00:04.712,-0.009748785436386243
1179,00:00:04.716,-0.00793390907347199
1180,00:00:04.72,0.020065377000719288
1181,00:00:04.724,0.021872919052839328
1182,00:00:04.728,-0.00745472847484048
1183,00:00:04.732,0.008932177908718579
1184,00:00:04.736,-0.02407785269315352
1185,00:00:04.74,-0.01428761449642479
1186,00:00:04.744,-0.003935033546440536
1187,00:00:04.748,0.004465889418497691
1188,00:00:04.752,0.012538341514300555
1189,00:00:04.756,0.030791202560067156
1190,00:00:04.76,0.0024764651898294696
1191,00:00:04.764,-0.02373356930911541
1192,00:00:04.768,-0.01620517252013087
1193,00:00:04.772,-0.00405404774937778
1194,00:00:04.776,-0.00565715285483748
1195,00:00:04.78,0.01953676017001268
1196,00:00:04.784,0.032793887541629346
1197,00:00:04.788,-0.02874629339203241
1198,00:00:04.792,-0.00984170055016875
1199,00:00:04.796,-0.00432615843601524
1200,00:00:04.8,0.005287627689540402
1201,00:00:04.804,0.0003533395356498662
1202,00:00:04.808,0.009653903864091259
1203,00:00:04.812,0.0009975766297429796
1204,00:00:04.816,0.00044943694956601013
1205,00:00:04.82,0.01696927567536479
1206,00:00:04.824,-0.018453175202012027
1207,00:00:04.828,-0.02524148998782035
1208,00:00:04.832,-0.0003479269798845096
1209,00:00:04.836,0.01664901478216052
1210,00:00:04.84,0.015348761196946694
1211,00:00:04.844,-0.006550906568008937
1212,00:00:04.848,0.021203416923526702
1213,00:00:04.852,-0.03224618625245053
1214,00:00:04.856,-0.006387130604707636
1215,00:00:04.86,0.01601729370304384
1216,00:00:04.864,-0.00628289929591119
1217,00:00:04.868,0.008772871631663298
1218,00:00:04.872,-0.0027514639659784613
1219,00:00:04.876,-0.01221275795251135
1220,00:00:04.88,0.010576218366622928
1221,00:00:04.884,0.007637004368007192
1222,00:00:04.888,-0.00887740449979901
1223,00:00:04.892,-0.005760474770795547
1224,00:00:04.896,0.009133363142609593
1225,00:00:04.9,0.0026845932006836003
1226,00:00:04.904,-0.01050927425967529
1227,00:00:04.908,-0.00403627823106944
1228,00:00:04.912,0.016137344209710174
1229,00:00:04.916,0.0007765314076095793
1230,00:00:04.92,-0.0008442464168183529
1231,00:00:04.924,-0.01698669022880494
1232,00:00:04.928,0.0005303416401147907
1233,00:00:04.932,0.01292734686285253
1234,00:00:04.936,0.00817208224907516
1235,00:00:04.94,-0.01272109075216571
1236,00:00:04.944,-0.00823042704723775
1237,00:00:04.948,0.005034901434555653
1238,00:00:04.952,-8.790707215662781e-05
1239,00:00:04.956,0.014842949807643889
1240,00:00:04.96,-0.005926173180341729
1241,00:00:04.964,-0.013223319081589581
1242,00:00:04.968,0.0141354755032808
1243,00:00:04.972,0.00935411290265617
1244,00:00:04.976,-0.012288130586966872
1245,00:00:04.98,-0.012991560855880371
1246,00:00:04.984,-0.0047494211466982995
1247,00:00:04.988,0.0012767188018187802
1248,00:00:04.992,0.01734609343111515
1249,00:00:04.996,0.02079591117217209
1250,00:00:05,-0.006407204084098339
1251,00:00:05.004,-0.01933991909027103
1252,00:00:05.008,-0.0242065908387303
1253,00:00:05.012,0.00111723388545215
1254,00:00:05.016,0.02843170892447236
1255,00:00:05.02,0.02733347611501822
1256,00:00:05.024,-0.008919891435652968
1257,00:00:05.028,-0.025757078779861303
1258,00:00:05.032,-0.01661346445325758
1259,00:00:05.036,0.0069810696877539696
1260,00:00:05.04,0.009313399204984307
1261,00:00:05.044,-0.003387444012332713
1262,00:00:05.048,0.012618751818081331
1263,00:00:05.052,-0.0030605594947701355
1264,00:00:05.056,0.01228002016432583
1265,00:00:05.06,0.02035290608182547
1266,00:00:05.064,-0.03480144450441003
1267,00:00:05.068,-0.034412226639688
1268,00:00:05.072,0.003763299988349898
1269,00:00:05.076,0.026648084167391096
1270,00:00:05.08,0.03153912787092847
1271,00:00:05.084,-0.022666647098958468
1272,00:00:05.088,0.0009433902159798873
1273,00:00:05.092,0.0004988030996173612
1274,00:00:05.096,-0.01430104533210397
1275,00:00:05.1,0.0025709477158670745
1276,00:00:05.104,-0.013795324950479
1277,00:00:05.108,0.022176156984642106
1278,00:00:05.112,0.01868228754028674
1279,00:00:05.116,-0.009556022996548556
1280,00:00:05.12,-0.00990583060774949
1281,00:00:05.124,-0.0075995500665157895
1282,00:00:05.128,-0.019714254885911952
1283,00:00:05.132,0.01278894580900672
1284,00:00:05.136,0.012197303120046878
1285,00:00:05.14,0.013991027139127298
1286,00:00:05.144,-0.0061124562892018765
1287,00:00:05.148,-0.0013686795573448845
1288,00:00:05.152,-0.0008867911528795975
1289,00:00:05.156,-0.012148002162575751
1290,00:00:05.16,0.01592317353060935
1291,00:00:05.164,-0.01817496470175681
1292,00:00:05.168,0.005010527442209379
1293,00:00:05.172,-0.0065526623511687
1294,00:00:05.176,-0.00575587595812976
1295,00:00:05.18,0.01697092328686267
1296,00:00:05.184,0.01259225117973983
1297,00:00:05.188,0.005426790798082951
1298,00:00:05.192,-0.00011512811761346838
1299,00:00:05.196,-0.006764437071979049
1300,00:00:05.2,-0.03388979751616718
1301,00:00:05.204,-0.012098572624381625
1302,00:00:05.208,0.0136754623381421
1303,00:00:05.212,0.018442399799823792
1304,00:00:05.216,0.030419855378568224
1305,00:00:05.22,-0.0008772909059189238
1306,00:00:05.224,-0.01820947695523501
1307,00:00:05.228,-0.02261433657258749
1308,00:00:05.232,-0.0008710351539775794
1309,00:00:05.236,0.0029006572440266596
1310,00:00:05.24,0.008855665510054681
1311,00:00:05.244,-0.005663948366418481
1312,00:00:05.248,0.02636654814705253
1313,00:00:05.252,0.008714552037417878
1314,00:00:05.256,-0.01970226736739277
1315,00:00:05.26,-0.02465339080663393
1316,00:00:05.264,-0.021244779229164068
1317,00:00:05.268,0.022689222474582493
1318,00:00:05.272,0.04607585212215781
1319,00:00:05.276,0.0018524309780332694
1320,00:00:05.28,-0.029380156251136262
1321,00:00:05.284,-0.02845430723391476
1322,00:00:05.288,0.005738865584135019
1323,00:00:05.292,0.02639960311353208
1324,00:00:05.296,0.0022784843458793984
1325,00:00:05.3,-0.000429714840720407
1326,00:00:05.304,-0.0038583164568990677
1327,00:00:05.308,-0.0005023352277930754
1328,00:00:05.312,-0.0173926274292171
1329,00:00:05.316,0.0017757255118340265
1330,00:00:05.32,0.012952320277690891
1331,00:00:05.324,0.007642642129212621
1332,00:00:05.328,-0.010747916763648339
1333,00:00:05.332,0.009096756984945388
1334,00:00:05.336,0.017794091487303383
1335,00:00:05.34,-0.03123653866350646
1336,00:00:05.344,-0.019723977427929647
1337,00:00:05.348,0.0028683191630989296
1338,00:00:05.352,0.027873613405972712
1339,00:00:05.356,0.00520550250075758
1340,00:00:05.36,0.01398597680963575
1341,00:00:05.364,-0.015552946084426368
1342,00:00:05.368,-0.019851133460179016
1343,00:00:05.372,-0.005911607295274728
1344,00:00:05.376,0.018744419794529732
1345,00:00:05.38,-0.005716010462492701
1346,00:00:05.384,-0.00672771938843653
1347,00:00:05.388,0.04540394945070144
1348,00:00:05.392,-0.019863928027916717
1349,00:00:05.396,-0.02503587352111934
1350,00:00:05.4,-0.009423177863936849
1351,00:00:05.404,0.00736294733360409
1352,00:00:05.408,0.005085425189463421
1353,00:00:05.412,0.0010827779769897409
1354,00:00:05.416,0.03514187131077052
1355,00:00:05.42,-0.003804189153015621
1356,00:00:05.424,-0.03289890429005025
1357,00:00:05.428,0.006410195957869331
1358,00:00:05.432,-0.01276034978218376
1359,00:00:05.436,0.011543152650119686
1360,00:00:05.44,-0.012006227800156918
1361,00:00:05.444,0.013894699979573487
1362,00:00:05.448,0.023922813590615943
1363,00:00:05.452,-0.01241121382918208
1364,00:00:05.456,-0.017591187730431623
1365,00:00:05.46,-0.010816861875355249
1366,00:00:05.464,0.001532349153421821
1367,00:00:05.468,0.02753770584240557
1368,00:00:05.472,0.010074677877128152
1369,00:00:05.476,-0.00877627357840539
1370,00:00:05.48,-0.02971830905880777
1371,00:00:05.484,0.007288764230906961
1372,00:00:05.488,0.00957698037382212
1373,00:00:05.492,-0.00344935525208712
1374,00:00:05.496,0.00151820294559002
1375,00:00:05.5,0.018072256236337132
1376,00:00:05.504,-0.005025361897423872
1377,00:00:05.508,-0.02117923501646146
1378,00:00:05.512,0.0026463192771188824
1379,00:00:05.516,0.004904028901364649
1380,00:00:05.52,0.01624683733098209
1381,00:00:05.524,-0.01240834733471275
1382,00:00:05.528,-0.0165634915465489
1383,00:00:05.532,0.00306713278405368
1384,00:00:05.536,0.02701670292299238
1385,00:00:05.54,-0.0031497236341237996
1386,00:00:05.544,-0.014265875797718791
1387,00:00:05.548,0.0035413750447332954
1388,00:00:05.552,-0.0015541467000730336
1389,00:00:05.556,-0.01630183611996472
1390,00:00:05.56,0.01563485973747447
1391,00:00:05.564,0.008474001893773671
1392,00:00:05.568,-0.0011549375485628804
1393,00:00:05.572,0.002634254633449025
1394,00:00:05.576,-0.0024357298389077295
1395,00:00:05.58,-0.0014817018527537576
1396,00:00:05.584,-0.0233209291473031
1397,00:00:05.588,-0.00785437226295471
1398,00:00:05.592,0.032252035103738266
1399,00:00:05.596,0.014735922508407336
1400,00:00:05.6,-0.013608987210318451
1401,00:00:05.604,-0.0059138614451512694
1402,00:00:05.608,-0.0025996598415076798
1403,00:00:05.612,0.0033571815292816635
1404,00:00:05.616,0.0005265302606858382
1405,00:00:05.62,-0.006360005121678119
1406,00:00:05.624,0.0035020204959437277
1407,00:00:05.628,-0.00812795013189316
1408,00:00:05.632,0.00299182010348888
1409,00:00:05.636,0.003918181988410649
1410,00:00:05.64,-0.00015352806076410035
1411,00:00:05.644,0.02286541694775223
1412,00:00:05.648,-0.008329890202730878
1413,00:00:05.652,-0.0224481420591474
1414,00:00:05.656,-0.008578194538131361
1415,00:00:05.66,0.01632034359499815
1416,00:00:05.664,0.0057771273422986295
1417,00:00:05.668,-0.001222872357175219
1418,00:00:05.672,0.004905675770714871
1419,00:00:05.676,-0.00193402590230108
1420,00:00:05.68,0.0060433850740082545
1421,00:00:05.684,-0.01949909259565176
1422,00:00:05.688,-0.007564547471702099
1423,00:00:05.692,0.0004918691702187096
1424,00:00:05.696,0.04455431236419834
1425,00:00:05.7,-0.010553896427154548
1426,00:00:05.704,-0.05455414671450847
1427,00:00:05.708,0.01721396297216416
1428,00:00:05.712,0.03443055227398868
1429,00:00:05.716,-0.0003968826495110902
1430,00:00:05.72,-0.01451313286088406
1431,00:00:05.724,0.0019027814269065905
1432,00:00:05.728,0.01332867192104456
1433,00:00:05.732,-0.018642223207280068
1434,00:00:05.736,-0.01574390660971401
1435,00:00:05.74,-0.0043426714837550996
1436,00:00:05.744,0.01206296600867063
1437,00:00:05.748,0.020768369111465252
1438,00:00:05.752,0.00862081290688365
1439,00:00:05.756,-0.0064300999511033305
1440,00:00:05.76,-0.02269065426662563
1441,00:00:05.764,0.015041081234812756
1442,00:00:05.768,1.0075280442830431e-05
1443,00:00:05.772,-0.01552824664395306
1444,00:00:05.776,-0.0025394150216015952
1445,00:00:05.78,0.019349461712408842
1446,00:00:05.784,0.0010244520963169626
1447,00:00:05.788,0.014261689619161142
1448,00:00:05.792,-0.02154824137687678
1449,00:00:05.796,-0.02648550667800001
1450,00:00:05.8,0.013064719620160776
1451,00:00:05.804,0.015288540860638015
1452,00:00:05.808,-0.00025237817317248085
1453,00:00:05.812,0.014095725491642931
1454,00:00:05.816,-0.0019351654918864343
1455,00:00:05.82,-0.009302385558839847
1456,00:00:05.824,-0.008580068126320811
1457,00:00:05.828,-0.007964212913066131
1458,00:00:05.832,-0.0013076035538688198
1459,00:00:05.836,0.006501442287117241
1460,00:00:05.84,0.02100305759813641
1461,00:00:05.844,-6.279133958742543e-05
1462,00:00:05.848,-0.01487056072801352
1463,00:00:05.852,-0.004388714733067907
1464,00:00:05.856,0.0010532768210396188
1465,00:00:05.86,0.00899244621541584
1466,00:00:05.864,-0.0182080494705588
1467,00:00:05.868,0.003588657535146922
1468,00:00:05.872,0.02287430968135592
1469,00:00:05.876,0.018587905913591378
1470,00:00:05.88,-0.027909566182643203
1471,00:00:05.884,-0.02000925922766328
1472,00:00:05.888,-0.007112529128789902
1473,00:00:05.892,0.01460450864396989
1474,00:00:05.896,0.014428423251956691
1475,00:00:05.9,0.005953781655989591
1476,00:00:05.904,0.006288487231358889
1477,00:00:05.908,-0.017778959067072723
1478,00:00:05.912,-0.01618092833086848
1479,00:00:05.916,0.0037364677991717997
1480,00:00:05.92,0.022716524079442003
1481,00:00:05.924,-0.0038812987040728695
1482,00:00:05.928,0.00300781405530869
1483,00:00:05.932,-0.006772029577405194
1484,00:00:05.936,-0.00468195322901011
1485,00:00:05.94,-0.02331425622105595
1486,00:00:05.944,0.02159652952104807
1487,00:00:05.948,0.00760262785479426
1488,00:00:05.952,0.01421758043579757
1489,00:00:05.956,-0.00227520335465679
1490,00:00:05.96,-0.02566571813076736
1491,00:00:05.964,-0.0050473293522372885
1492,00:00:05.968,0.006294299964793031
1493,00:00:05.972,0.004482805961743001
1494,00:00:05.976,0.01362649328075349
1495,00:00:05.98,0.0044878220069222135
1496,00:00:05.984,0.005456460174173119
1497,00:00:05.988,-0.02853260538540774
1498,00:00:05.992,-0.012808295665308842
1499,00:00:05.996,0.02168977330438799
1500,00:00:06,0.015914876144506703
1501,00:00:06.004,-0.02191561181098219
1502,00:00:06.008,-0.01610625209286808
1503,00:00:06.012,0.010740868514403703
1504,00:00:06.016,0.02827091212384403
1505,00:00:06.02,0.007653506851056594
1506,00:00:06.024,-0.01548769208602611
1507,00:00:06.028,-0.01473620231263334
1508,00:00:06.032,-0.001470656279707323
1509,00:00:06.036,0.002699311822652829
1510,00:00:06.04,-0.0033286534599028584
1511,00:00:06.044,0.00768184149637818
1512,00:00:06.048,-0.011116440087789673
1513,00:00:06.052,0.012015412794426089
1514,00:00:06.056,0.02662595617584887
1515,00:00:06.06,-0.01051131961867215
1516,00:00:06.064,-0.024417221662588442
1517,00:00:06.068,-0.001026599966280626
1518,00:00:06.072,0.006228446145541964
1519,00:00:06.076,-0.01137489941902462
1520,00:00:06.08,-0.007450366800185293
1521,00:00:06.084,0.02730364282615478
1522,00:00:06.088,0.00596000414225273
1523,00:00:06.092,0.0032565312576480223
1524,00:00:06.096,-0.011022774502635009
1525,00:00:06.1,-0.00467526726424692
1526,00:00:06.104,0.008336458064150065
1527,00:00:06.108,-0.018654543207958302
1528,00:00:06.112,-0.00595375336706638
1529,00:00:06.116,0.002315313555300229
1530,00:00:06.12,0.05190890515223137
1531,00:00:06.124,-0.02468318084720525
1532,00:00:06.128,-0.03355405898764731
1533,00:00:06.132,0.01703988614463012
1534,00:00:06.136,-0.0020970022305846197
1535,00:00:06.14,-0.004712771798949696
1536,00:00:06.144,0.018187062814831748
1537,00:00:06.148,-0.00361755641642959
1538,00:00:06.152,-0.0007268050685524993
1539,00:00:06.156,0.00757016753777862
1540,00:00:06.16,-0.01951679366175084
1541,00:00:06.164,0.016563470562687126
1542,00:00:06.168,-0.00506222667172552
1543,00:00:06.172,-0.01147621194832025
1544,00:00:06.176,0.007572969829197986
1545,00:00:06.18,-0.00478108075913042
1546,00:00:06.184,0.0011582991573959563
1547,00:00:06.188,0.00200873194262386
1548,00:00:06.192,-0.0006810062332078823
1549,00:00:06.196,0.029653735575266155
1550,00:00:06.2,-0.01753940409980717
1551,00:00:06.204,-0.02491585421375932
1552,00:00:06.208,-0.00582064059562982
1553,00:00:06.212,0.03294457728043196
1554,00:00:06.216,-0.0012550801329780366
1555,00:00:06.22,0.0081311829853803
1556,00:00:06.224,-0.02091387426480656
1557,00:00:06.228,-0.015393024776130918
1558,00:00:06.232,0.0031364141032099698
1559,00:00:06.236,0.01734069571830332
1560,00:00:06.24,0.014226488769054411
1561,00:00:06.244,-0.00246691855136305
1562,00:00:06.248,-0.01810031803324822
1563,00:00:06.252,-0.015382007113657892
1564,00:00:06.256,0.01878271065652375
1565,00:00:06.26,-0.0010030746925622294
1566,00:00:06.264,0.011821382446214591
1567,00:00:06.268,-0.0008072117634583252
1568,00:00:06.272,-0.010077869053930051
1569,00:00:06.276,-0.005623576871585099
1570,00:00:06.28,0.025611526914872278
1571,00:00:06.284,-0.02383872734208122
1572,00:00:06.288,-0.00566502707079053
1573,00:00:06.292,-0.007116003893315787
1574,00:00:06.296,0.01327228010632098
1575,00:00:06.3,0.01616600493434817
1576,00:00:06.304,-0.012758445227518681
1577,00:00:06.308,0.0052318715024739885
1578,00:00:06.312,0.00982822943478823
1579,00:00:06.316,-0.01407004101201889
1580,00:00:06.32,0.002442552708089351
1581,00:00:06.324,-0.00774878216907382
1582,00:00:06.328,-0.005689239129424101
1583,00:00:06.332,0.008457472693407906
1584,00:00:06.336,0.008963330274127684
1585,00:00:06.34,-0.0027233152650296697
1586,00:00:06.344,-0.008492990978993479
1587,00:00:06.348,-0.00025431494577787133
1588,00:00:06.352,-0.0006444763857871298
1589,00:00:06.356,0.009467843481161252
1590,00:00:06.36,0.01319712918484584
1591,00:00:06.364,-0.011633382877334949
1592,00:00:06.368,-0.013658022362506017
1593,00:00:06.372,-0.012002057803329079
1594,00:00:06.376,0.01048776425886899
1595,00:00:06.38,0.03235783334821462
1596,00:00:06.384,0.006160536780953411
1597,00:00:06.388,-0.028887376189231796
1598,00:00:06.392,-0.02167276116961143
1599,00:00:06.396,0.01144511112943292
1600,00:00:06.4,0.004658567835576832
1601,00:00:06.404,0.0022945581004023604
1602,00:00:06.408,0.0017017351929098344
1603,00:00:06.412,0.00970081286504865
1604,00:00:06.416,0.0116914352402091
1605,00:00:06.42,-0.01157080382108688
1606,00:00:06.424,-0.02126223826780907
1607,00:00:06.428,0.00846149597782642
1608,00:00:06.432,-0.0018429631600156398
1609,00:00:06.436,0.0070434456574730575
1610,00:00:06.44,0.0044089627917855995
1611,00:00:06.444,-0.00027010519988836246
1612,00:00:06.448,-0.011223009183595449
1613,00:00:06.452,0.0070157226873561705
1614,00:00:06.456,0.0010369521914981297
1615,00:00:06.46,-0.005012672860175342
1616,00:00:06.464,-0.0031347629847004992
1617,00:00:06.468,0.017229014214535703
1618,00:00:06.472,-0.010736212076153604
1619,00:00:06.476,0.0005292098358040689
1620,00:00:06.48,-0.008840087335556739
1621,00:00:06.484,0.00968796596862376
1622,00:00:06.488,0.023423697217367572
1623,00:00:06.492,-0.012136958190239966
1624,00:00:06.496,-0.026045916136354166
1625,00:00:06.5,-0.0077193893957883085
1626,00:00:06.504,0.00297150854021311
1627,00:00:06.508,0.022280919831246165
1628,00:00:06.512,0.0001929893624037539
1629,00:00:06.516,0.004215758890495655
1630,00:00:06.52,0.002488709906174333
1631,00:00:06.524,-0.003373849089257417
1632,00:00:06.528,-0.010297260969309718
1633,00:00:06.532,0.0010436408920213597
1634,00:00:06.536,0.009832468873355541
1635,00:00:06.54,-0.01222768262960016
1636,00:00:06.544,-0.00984718790277838
1637,00:00:06.548,0.001602609612746165
1638,00:00:06.552,0.012632794529054097
1639,00:00:06.556,0.008527485188096848
1640,00:00:06.56,0.009206069400534042
1641,00:00:06.564,-0.022463023895397758
1642,00:00:06.568,0.00846495712175965
1643,00:00:06.572,-0.009936134796589608
1644,00:00:06.576,-0.0028374975081533202
1645,00:00:06.58,0.00546294286323246
1646,00:00:06.584,-0.0028516725578811007
1647,00:00:06.588,0.008094662334769959
1648,00:00:06.592,0.009875066461972889
1649,00:00:06.596,-0.0017827838892117097
1650,00:00:06.6,-0.00890316441655159
1651,00:00:06.604,-0.0020656154956668693
1652,00:00:06.608,0.003243908053264019
1653,00:00:06.612,-0.00873688826686702
1654,00:00:06.616,-0.005633008026052264
1655,00:00:06.62,0.00113567593507468
1656,00:00:06.624,0.019968315958976753
1657,00:00:06.628,0.008569177472963919
1658,00:00:06.632,-0.017593944376130807
1659,00:00:06.636,-0.007286552863661196
1660,00:00:06.64,0.00702350214123726
1661,00:00:06.644,-0.0036936647375114284
1662,00:00:06.648,-0.0031285800505429498
1663,00:00:06.652,0.01100090052932501
1664,00:00:06.656,-0.00042792723979801026
1665,00:00:06.66,-0.0106447278521955
1666,00:00:06.664,0.037821780671947636
1667,00:00:06.668,-0.025099414633587048
1668,00:00:06.672,-0.0172535285819322
1669,00:00:06.676,-0.0037864766782149603
1670,00:00:06.68,0.005629258288536224
1671,00:00:06.684,0.00623429892584681
1672,00:00:06.688,0.0120905863586813
1673,00:00:06.692,-0.008797923102974912
1674,00:00:06.696,0.005362409166991671
1675,00:00:06.7,-0.00983971683308483
1676,00:00:06.704,0.0030076197581365705
1677,00:00:06.708,0.02133460575714711
1678,00:00:06.712,-0.01798574626445767
1679,00:00:06.716,0.002241376321762811
1680,00:00:06.72,-0.016562399454414827
1681,00:00:06.724,-0.0030420974362641495
1682,00:00:06.728,0.02216775331180547
1683,00:00:06.732,0.00869605829939246
1684,00:00:06.736,-0.01906304201111198
1685,00:00:06.74,-0.0041069127037189936
1686,00:00:06.744,0.0056731784716248495
1687,00:00:06.748,0.00312417349778116
1688,00:00:06.752,0.009778043895494184
1689,00:00:06.756,-0.0035786174703389406
1690,00:00:06.76,-0.01949049625545736
1691,00:00:06.764,0.00919441215228289
1692,00:00:06.768,0.004976313473889603
1693,00:00:06.772,-0.0007617923256475478
1694,00:00:06.776,0.003186404239386309
1695,00:00:06.78,0.00230989349074662
1696,00:00:06.784,-0.00861578132025897
1697,00:00:06.788,-0.011006249667843805
1698,00:00:06.792,0.0113172821002081
1699,00:00:06.796,0.009422777220606839
1700,00:00:06.8,0.00758660421706736
1701,00:00:06.804,-0.01641933049540966
1702,00:00:06.808,-0.01266276434762403
1703,00:00:06.812,0.008997811150038608
1704,00:00:06.816,0.00714921928010881
1705,00:00:06.82,-0.01382492063567043
1706,00:00:06.824,0.006661280931439248
1707,00:00:06.828,0.04559225589036939
1708,00:00:06.832,-0.02612216840498149
1709,00:00:06.836,-0.02250659931451087
1710,00:00:06.84,-0.00471052544889973
1711,00:00:06.844,-0.000866673071868709
1712,00:00:06.848,-0.005194009980186778
1713,00:00:06.852,0.01306840241886675
1714,00:00:06.856,0.03212611284106972
1715,00:00:06.86,-0.012030826415866582
1716,00:00:06.864,-0.014782269368879528
1717,00:00:06.868,-0.013766741671133781
1718,00:00:06.872,0.008215836482122551
1719,00:00:06.876,0.02182375903066714
1720,00:00:06.88,-0.012465724517824132
1721,00:00:06.884,-0.015972601948305958
1722,00:00:06.888,0.00831069122068584
1723,00:00:06.892,0.01720800017938018
1724,00:00:06.896,-0.01582319964654744
1725,00:00:06.9,-0.00152943225111813
1726,00:00:06.904,0.00309167383238673
1727,00:00:06.908,0.009033648995682599
1728,00:00:06.912,-0.01743949810042981
1729,00:00:06.916,0.00630547804757952
1730,00:00:06.92,0.01018150523304936
1731,00:00:06.924,-0.00559251406230033
1732,00:00:06.928,-0.00429570628330111
1733,00:00:06.932,0.016940138302743428
1734,00:00:06.936,-0.0046202486846596
1735,00:00:06.94,-0.014227987499907604
1736,00:00:06.944,-0.0005873864283785207
1737,00:00:06.948,-0.01405653229448942
1738,00:00:06.952,0.017810419667512185
1739,00:00:06.956,0.003588233608752489
1740,00:00:06.96,0.023823716677725273
1741,00:00:06.964,-0.0167498944792897
1742,00:00:06.968,-0.02583179576322435
1743,00:00:06.972,-0.0038958753066253796
1744,00:00:06.976,0.021277650026604554
1745,00:00:06.98,0.026526866946369423
1746,00:00:06.984,-0.02186214970424778
1747,00:00:06.988,-0.0017495476640760899
1748,00:00:06.992,-0.013865282700862736
1749,00:00:06.996,-0.010489922016859051
1750,00:00:07,0.02008974249474707
1751,00:00:07.004,0.014565288787707728
1752,00:00:07.008,0.000982978031970571
1753,00:00:07.012,-0.020166954956948778
1754,00:00:07.016,-0.0032325916690751928
1755,00:00:07.02,0.006539159279782363
1756,00:00:07.024,0.0055154308211058205
1757,00:00:07.028,-0.00477122004303961
1758,00:00:07.032,0.01051994506269693
1759,00:00:07.036,-0.0035730586387216997
1760,00:00:07.04,-0.006244630319997671
1761,00:00:07.044,-0.005654277512803681
1762,00:00:07.048,0.0040412192174699175
1763,00:00:07.052,-0.0064813650678843295
1764,00:00:07.056,0.0026638482231646802
1765,00:00:07.06,0.02130047045648098
1766,00:00:07.064,0.00406119180843237
1767,00:00:07.068,-0.013443747069686691
1768,00:00:07.072,-0.008323486516019305
1769,00:00:07.076,-0.01890164939686652
1770,00:00:07.08,-0.007456532679498199
1771,00:00:07.084,0.033478537341579837
1772,00:00:07.088,0.0042680618353187995
1773,00:00:07.092,0.014313595369458192
1774,00:00:07.096,-0.00533440569415688
1775,00:00:07.1,-0.0092976032756269
1776,00:00:07.104,-0.0214164033532143
1777,00:00:07.108,0.00040874234400688995
1778,00:00:07.112,-0.0015789477038197258
1779,00:00:07.116,-0.0008378407219424792
1780,00:00:07.12,0.03131693927571171
1781,00:00:07.124,-0.00202162959612907
1782,00:00:07.128,-0.004145991289988181
1783,00:00:07.132,-0.005064624769147481
1784,00:00:07.136,-0.02505020494572823
1785,00:00:07.14,-0.0034469447564333703
1786,00:00:07.144,0.025280690984800448
1787,00:00:07.148,0.014290645485743879
1788,00:00:07.152,0.004070671799127019
1789,00:00:07.156,-0.024732582271099042
1790,00:00:07.16,0.01611814904026687
1791,00:00:07.164,-0.009386829333379861
1792,00:00:07.168,-0.018983186222612844
1793,00:00:07.172,0.0004990934394299516
1794,00:00:07.176,0.01406354224309327
1795,00:00:07.18,-0.002334913006052361
1796,00:00:07.184,0.01994831324554979
1797,00:00:07.188,-0.008248584927059719
1798,00:00:07.192,0.004957692173775282
1799,00:00:07.196,-0.00647967873374
1800,00:00:07.2,-0.016954321181401603
1801,00:00:07.204,-0.007450790493749081
1802,00:00:07.208,0.02062017156276854
1803,00:00:07.212,-0.0041944123804569106
1804,00:00:07.216,0.0017275055870414092
1805,00:00:07.22,0.0076211994746699895
1806,00:00:07.224,0.004356595571152859
1807,00:00:07.228,-0.007360154781054012
1808,00:00:07.232,0.001317252055741853
1809,00:00:07.236,0.0020530517213046577
1810,00:00:07.24,-0.01908365590497852
1811,00:00:07.244,-0.01596292748581622
1812,00:00:07.248,0.01633723784470931
1813,00:00:07.252,0.028981227893382353
1814,00:00:07.256,-0.009762694811797703
1815,00:00:07.26,-0.0024440889246761808
1816,00:00:07.264,0.010665527544915681
1817,00:00:07.268,-0.0079398702364415
1818,00:00:07.272,-0.024079723283648522
1819,00:00:07.276,0.0051024300046264605
1820,00:00:07.28,-0.0109372748993337
1821,00:00:07.284,0.02720700763165953
1822,00:00:07.288,0.02076459780801085
1823,00:00:07.292,-0.02303237526211889
1824,00:00:07.296,0.0016539178323000704
1825,00:00:07.3,-0.007951966836117251
1826,00:00:07.304,-0.013105543359415628
1827,00:00:07.308,0.006657960650045433
1828,00:00:07.312,0.020957111311872764
1829,00:00:07.316,-0.009677975969680078
1830,00:00:07.32,0.006634215824306011
1831,00:00:07.324,-0.00911084981635214
1832,00:00:07.328,-0.0059252460487187195
1833,00:00:07.332,-0.003422193607548251
1834,00:00:07.336,0.02081009885296224
1835,00:00:07.34,0.01643290487118067
1836,00:00:07.344,-0.02109454432502391
1837,00:00:07.348,-0.02975741983391341
1838,00:00:07.352,-0.0036827255971730102
1839,00:00:07.356,0.01198776252567767
1840,00:00:07.36,0.02743905363604432
1841,00:00:07.364,0.012330517172813409
1842,00:00:07.368,-0.01333865878405053
1843,00:00:07.372,-0.009384355507791
1844,00:00:07.376,0.011378780414815989
1845,00:00:07.38,-0.021286902250722058
1846,00:00:07.384,-0.007874113507568828
1847,00:00:07.388,0.00830621086061001
1848,00:00:07.392,0.007135401014238599
1849,00:00:07.396,-0.004040088912006471
1850,00:00:07.4,0.015179323265328958
1851,00:00:07.404,0.005659445887431504
1852,00:00:07.408,-0.014237664057873191
1853,00:00:07.412,-0.014724254957400259
1854,00:00:07.416,-0.007736351457424459
1855,00:00:07.42,0.02429582132026557
1856,00:00:07.424,0.006627180962823348
1857,00:00:07.428,0.01868333673337473
1858,00:00:07.432,-0.014103861263720301
1859,00:00:07.436,-0.02602664381265636
1860,00:00:07.44,-0.02604531834367659
1861,00:00:07.444,0.014301218790933492
1862,00:00:07.448,0.01931754196994011
1863,00:00:07.452,0.03156674373894933
1864,00:00:07.456,0.01048941980116069
1865,00:00:07.46,-0.027572639286518038
1866,00:00:07.464,-0.03081000642850995
1867,00:00:07.468,2.5561545044199344e-05
1868,00:00:07.472,0.002705898776184769
1869,00:00:07.476,0.020307733677327633
1870,00:00:07.48,0.009554958873195568
1871,00:00:07.484,-0.01779210672248157
1872,00:00:07.488,0.0009296383941546122
1873,00:00:07.492,0.024945103330537743
1874,00:00:07.496,0.00306907016783947
1875,00:00:07.5,-0.02620770549401643
1876,00:00:07.504,-0.02541021193610503
1877,00:00:07.508,0.014017421519383781
1878,00:00:07.512,0.0027087873313575987
1879,00:00:07.516,0.0255740606226027
1880,00:00:07.52,0.0015129824168980226
1881,00:00:07.524,-0.01051663770340384
1882,00:00:07.528,-0.00259956275112928
1883,00:00:07.532,-0.00474557036068291
1884,00:00:07.536,-0.01336083537898955
1885,00:00:07.54,0.011859592050313908
1886,00:00:07.544,0.0019387334468774528
1887,00:00:07.548,-0.00486710888799281
1888,00:00:07.552,0.02240765234455467
1889,00:00:07.556,-0.015757361485157117
1890,00:00:07.56,0.017874969227705147
1891,00:00:07.564,-0.009599868208169968
1892,00:00:07.568,-0.02635043440386646
1893,00:00:07.572,0.0005236342549324001
1894,00:00:07.576,0.0065268748439848406
1895,00:00:07.58,0.009657917835284024
1896,00:00:07.584,0.02409636322408917
1897,00:00:07.588,-0.011133948224596683
1898,00:00:07.592,-0.023125746753066778
1899,00:00:07.596,0.007324121193960311
1900,00:00:07.6,0.008346652102773078
1901,00:00:07.604,-0.0005659260787069802
1902,00:00:07.608,-0.020210765767842538
1903,00:00:07.612,-0.0015785279683768975
1904,00:00:07.616,0.036600116640329375
1905,00:00:07.62,0.02062401804141703
1906,00:00:07.624,-0.03204029519110918
1907,00:00:07.628,-0.031179565237835008
1908,00:00:07.632,0.0002334807068109894
1909,00:00:07.636,0.0031338031694758644
1910,00:00:07.64,0.025252015795558726
1911,00:00:07.644,0.0108029212569818
1912,00:00:07.648,0.005026256083510809
1913,00:00:07.652,-0.00893740088213233
1914,00:00:07.656,-0.01620984077453613
1915,00:00:07.66,-0.005930052138864991
1916,00:00:07.664,-0.004477337177377186
1917,00:00:07.668,0.01722932548727838
1918,00:00:07.672,-0.010861126851523259
1919,00:00:07.676,0.007646200712770208
1920,00:00:07.68,0.041433685109950574
1921,00:00:07.684,-0.02923560107592492
1922,00:00:07.688,-0.020844578277319618
1923,00:00:07.692,-0.01971309911459685
1924,00:00:07.696,-0.0012591700069606304
1925,00:00:07.7,0.023343940032646022
1926,00:00:07.704,0.03330568270757797
1927,00:00:07.708,-0.00014586793258783946
1928,00:00:07.712,-0.0016940877540037001
1929,00:00:07.716,-0.01965556852519508
1930,00:00:07.72,-0.02918739477172495
1931,00:00:07.724,-0.0020587001927196954
1932,00:00:07.728,0.0094743095105514
1933,00:00:07.732,0.036162167089059935
1934,00:00:07.736,0.004887084243819121
1935,00:00:07.74,-0.01984719606116414
1936,00:00:07.744,-0.00807825644733384
1937,00:00:07.748,-0.00584054645150899
1938,00:00:07.752,-0.0028792056255042588
1939,00:00:07.756,0.001152027281932531
1940,00:00:07.76,0.024914359906688333
1941,00:00:07.764,0.01421646619564858
1942,00:00:07.768,-0.01963700703345239
1943,00:00:07.772,-0.018004819750785807
1944,00:00:07.776,-0.0032499319495400453
1945,00:00:07.78,-0.007339179435803115
1946,00:00:07.784,0.016814302769489583
1947,00:00:07.788,0.03325708257034422
1948,00:00:07.792,-0.013826374313794071
1949,00:00:07.796,-0.0194056278560311
1950,00:00:07.8,-0.0029322970658540795
1951,00:00:07.804,-0.002069359878078109
1952,00:00:07.808,-0.0059739371063187744
1953,00:00:07.812,0.008441574638709412
1954,00:00:07.816,0.02083402895368637
1955,00:00:07.82,-0.002182362135499708
1956,00:00:07.824,-0.00016221986152231086
1957,00:00:07.828,-0.02056288043968384
1958,00:00:07.832,-0.0068333162926137525
1959,00:00:07.836,0.019883977598510738
1960,00:00:07.84,0.0040354058146476884
1961,00:00:07.844,-0.004009707365185071
1962,00:00:07.848,-0.01787000172771514
1963,00:00:07.852,0.010759145894553509
1964,00:00:07.856,0.00561579596251249
1965,00:00:07.86,0.0052182622603140815
1966,00:00:07.864,-0.0034129688283428498
1967,00:00:07.868,-0.01362477883230895
1968,00:00:07.872,0.002478313865140068
1969,00:00:07.876,-0.0022480182815343003
1970,00:00:07.88,0.024210875853896106
1971,00:00:07.884,-0.00895789917558431
1972,00:00:07.888,-0.01105557032860819
1973,00:00:07.892,0.008940376399550587
1974,00:00:07.896,-0.01096153003163636
1975,00:00:07.9,0.00342817883938551
1976,00:00:07.904,0.00037390983197838025
1977,00:00:07.908,-0.00492317252792418
1978,00:00:07.912,0.005807182984426617
1979,00:00:07.916,0.012500851647928352
1980,00:00:07.92,0.011009772308170738
1981,00:00:07.924,-0.02641616971231996
1982,00:00:07.928,-0.01140164025127891
1983,00:00:07.932,0.013584209082182452
1984,00:00:07.936,0.01010012021288276
1985,00:00:07.94,0.000606134533882103
1986,00:00:07.944,-0.00938200997188692
1987,00:00:07.948,0.0003099872265011055
1988,00:00:07.952,-0.0036988976644352018
1989,00:00:07.956,-0.007265290943905715
1990,00:00:07.96,-0.0003642932279035497
1991,00:00:07.964,0.011775688850320872
1992,00:00:07.968,0.017518852080684155
1993,00:00:07.972,-0.00796468555927273
1994,00:00:07.976,-0.004030793672427538
1995,00:00:07.98,-0.0104915127158165
1996,00:00:07.984,-0.0018478890415280994
1997,00:00:07.988,0.005129734054207821
1998,00:00:07.992,0.01868761563673615
1999,00:00:07.996,-0.018975524464622126
2000,00:00:08,-0.02128797583281994
2001,00:00:08.004,0.01359223993495107
2002,00:00:08.008,0.03106013895012434
2003,00:00:08.012,-0.006705112522467971
2004,00:00:08.016,-0.013911133399233212
2005,00:00:08.02,-0.01854261592961847
2006,00:00:08.024,0.011514835641719363
2007,00:00:08.028,0.016600065631791987
2008,00:00:08.032,0.014649434015154804
2009,00:00:08.036,-0.018175483332015577
2010,00:00:08.04,-0.03613317618146537
2011,00:00:08.044,0.0019492036662995798
2012,00:00:08.048,0.029482674552127677
2013,00:00:08.052,0.032999247836414794
2014,00:00:08.056,-0.013634579256177
2015,00:00:08.06,-0.020227636443451033
2016,00:00:08.064,-0.02344550238922237
2017,00:00:08.068,-0.009178045147564259
2018,00:00:08.072,0.02695607021451
2019,00:00:08.076,0.014923961876775145
2020,00:00:08.08,0.016268734936602396
2021,00:00:08.084,-0.013377463677898068
2022,00:00:08.088,-0.01810164458584044
2023,00:00:08.092,0.00455055455677211
2024,00:00:08.096,-0.009388476493768394
2025,00:00:08.1,0.0015012455842224855
2026,00:00:08.104,0.003477300400845715
2027,00:00:08.108,-0.007738788262940951
2028,00:00:08.112,0.02166997781023384
2029,00:00:08.116,0.01757358204486086
2030,00:00:08.12,-0.00419951125513764
2031,00:00:08.124,-0.03752498445101086
2032,00:00:08.128,-0.01049169595353306
2033,00:00:08.132,0.019188297330401838
2034,00:00:08.136,0.009062812954653058
2035,00:00:08.14,-0.003438078740146008
2036,00:00:08.144,-0.00111171638127416
2037,00:00:08.148,0.004467789549380541
2038,00:00:08.152,0.017694753711111882
2039,00:00:08.156,-0.00768824794795364
2040,00:00:08.16,-0.01978698652237653
2041,00:00:08.164,-0.008963137108366931
2042,00:00:08.168,0.0055861336877569626
2043,00:00:08.172,0.00517792929895222
2044,00:00:08.176,0.020819792058318846
2045,00:00:08.18,-0.0007782117463648215
2046,00:00:08.184,0.0007401929469779086
2047,00:00:08.188,-0.025033469544723633
2048,00:00:08.192,-0.018628139776410563
2049,00:00:08.196,0.016933249244175344
2050,00:00:08.2,0.011946329846978193
2051,00:00:08.204,0.0069137676618993196
2052,00:00:08.208,-0.00044135469943285856
2053,00:00:08.212,0.016313339583575732
2054,00:00:08.216,-0.01382894907146692
2055,00:00:08.22,-0.005658289883285771
2056,00:00:08.224,-0.01688950567040593
2057,00:00:08.228,-0.01846147683681916
2058,00:00:08.232,0.01144198607653385
2059,00:00:08.236,0.032515176106244235
2060,00:00:08.24,0.006324121146462856
2061,00:00:08.244,0.0059675999218598
2062,00:00:08.248,-0.02115634782239795
2063,00:00:08.252,-0.01837271380645686
2064,00:00:08.256,-0.011438833738793668
2065,00:00:08.26,0.024204661982366826
2066,00:00:08.264,0.01754332776181398
2067,00:00:08.268,-0.011023446975741527
2068,00:00:08.272,0.009144926385488404
2069,00:00:08.276,-0.004395715426653639
2070,00:00:08.28,-0.018100442364811918
2071,00:00:08.284,-0.014146618079394099
2072,00:00:08.288,0.01009458024054765
2073,00:00:08.292,0.014467027969658399
2074,00:00:08.296,0.021038753155153245
2075,00:00:08.3,-0.01322806684765964
2076,00:00:08.304,-0.00603614305146039
2077,00:00:08.308,-0.014960206637624686
2078,00:00:08.312,0.002640563339809883
2079,00:00:08.316,0.01337513292673976
2080,00:00:08.32,-0.0008310970733873491
2081,00:00:08.324,-0.0160731518335524
2082,00:00:08.328,0.014012326952070019
2083,00:00:08.332,0.0019242728594690596
2084,00:00:08.336,0.0009553882991895097
2085,00:00:08.34,0.01149324490688743
2086,00:00:08.344,-0.007617359631694855
2087,00:00:08.348,-0.023822633549571016
2088,00:00:08.352,0.005235049349721541
2089,00:00:08.356,0.005610471125692131
2090,00:00:08.36,0.004971697926521312
2091,00:00:08.364,0.0029322493355721296
2092,00:00:08.368,-0.0036014541983604396
2093,00:00:08.372,0.002828167605912311
2094,00:00:08.376,-0.00254029489587994
2095,00:00:08.38,0.0009140104521065994
2096,00:00:08.384,0.0009349274332635061
2097,00:00:08.388,0.00617476602201348
2098,00:00:08.392,-0.00878171063959599
2099,00:00:08.396,0.012765759602189092
2100,00:00:08.4,-0.019393340538954362
2101,00:00:08.404,-0.00657209719065577
2102,00:00:08.408,0.014718932099640331
2103,00:00:08.412,-0.005737249739468111
2104,00:00:08.416,0.0021415642549982104
2105,00:00:08.42,0.010729414643719801
2106,00:00:08.424,-0.007075495435856281
2107,00:00:08.428,0.0034646967251319143
2108,00:00:08.432,0.00540815689601004
2109,00:00:08.436,-0.01055531552992766
2110,00:00:08.44,-0.007181700537330471
2111,00:00:08.444,-0.001873903383966527
2112,00:00:08.448,0.002493386738933624
2113,00:00:08.452,0.01263257209211588
2114,00:00:08.456,0.0041574477800168045
2115,00:00:08.46,0.01028086710721254
2116,00:00:08.464,-0.01855755085125562
2117,00:00:08.468,-0.00554014419321903
2118,00:00:08.472,-0.002885143272578718
2119,00:00:08.476,-0.007428558310493819
2120,00:00:08.48,0.002736494177952401
2121,00:00:08.484,0.019835093058645732
2122,00:00:08.488,0.0031724476721138213
2123,00:00:08.492,-0.01445954688824715
2124,00:00:08.496,0.025364755070768286
2125,00:00:08.5,-0.002496640488971024
2126,00:00:08.504,-0.03657689411193131
2127,00:00:08.508,-0.004983825401723151
2128,00:00:08.512,0.004121497273445139
2129,00:00:08.516,0.012164706306066357
2130,00:00:08.52,0.034850377589464174
2131,00:00:08.524,-0.01148552459198978
2132,00:00:08.528,-0.02061654930002988
2133,00:00:08.532,-0.00994094833731651
2134,00:00:08.536,0.001956641266588126
2135,00:00:08.54,0.009774059057235721
2136,00:00:08.544,0.00720246630953625
2137,00:00:08.548,0.02034956030547616
2138,00:00:08.552,-0.02438911981880667
2139,00:00:08.556,-0.020816239528357983
2140,00:00:08.56,0.0068746372126042895
2141,00:00:08.564,0.02235523844137787
2142,00:00:08.568,-0.006930273375473926
2143,00:00:08.572,-0.0036580282612703784
2144,00:00:08.576,-0.0072035517077893
2145,00:00:08.58,0.01475200802087787
2146,00:00:08.584,0.004171695327386279
2147,00:00:08.588,-0.013400515308603611
2148,00:00:08.592,-0.01641444780398159
2149,00:00:08.596,0.011061172466725111
2150,00:00:08.6,0.019021535292267768
2151,00:00:08.604,-0.00701788393780589
2152,00:00:08.608,0.0029227805789560097
2153,00:00:08.612,-0.013328045955859121
2154,00:00:08.616,0.0070628592511638505
2155,00:00:08.62,0.0007103520911186989
2156,00:00:08.624,-0.0016086635619103574
2157,00:00:08.628,0.0006020362488925596
2158,00:00:08.632,0.0058975673746317694
2159,00:00:08.636,-0.011138296744320549
2160,00:00:08.64,-0.014312781240732875
2161,00:00:08.644,0.012337583437329174
2162,00:00:08.648,0.015156536290305646
2163,00:00:08.652,0.013121654512360695
2164,00:00:08.656,-0.016483764840813767
2165,00:00:08.66,-0.02278871927410368
2166,00:00:08.664,0.0023292469559237318
2167,00:00:08.668,0.011359931901097301
2168,00:00:08.672,0.03238036119728352
2169,00:00:08.676,-0.00996907753869891
2170,00:00:08.68,-0.02373361028730869
2171,00:00:08.684,-0.020945557924278588
2172,00:00:08.688,0.00534961558878422
2173,00:00:08.692,0.017747503006830822
2174,00:00:08.696,0.01738922786898914
2175,00:00:08.7,-0.0005021104589104704
2176,00:00:08.704,-0.0032675971742719395
2177,00:00:08.708,-0.02148466592188927
2178,00:00:08.712,-0.00123374589020386
2179,00:00:08.716,0.0200219112448394
2180,00:00:08.72,0.01860177787602875
2181,00:00:08.724,-0.01351473876275122
2182,00:00:08.728,-0.03158514769165777
2183,00:00:08.732,-0.015434652916155731
2184,00:00:08.736,0.011457063083071258
2185,00:00:08.74,0.022734720259904858
2186,00:00:08.744,0.02585381874814632
2187,00:00:08.748,-0.0007503200322389598
2188,00:00:08.752,-0.024571143803768833
2189,00:00:08.756,0.001498336030635987
2190,00:00:08.76,-0.005486280118930154
2191,00:00:08.764,-0.016518089832970855
2192,00:00:08.768,0.01388936350122094
2193,00:00:08.772,0.00456497957929966
2194,00:00:08.776,0.017234832397662138
2195,00:00:08.78,-0.01610732183326033
2196,00:00:08.784,0.0013550141156883884
2197,00:00:08.788,-0.006568555094418118
2198,00:00:08.792,0.00031354860402643507
2199,00:00:08.796,0.0013909237459302
2200,00:00:08.8,0.011484203394502382
2201,00:00:08.804,0.009618005715310572
2202,00:00:08.808,-0.02116074063815173
2203,00:00:08.812,-0.01281749969348311
2204,00:00:08.816,0.01250417274422944
2205,00:00:08.82,0.008563477313145999
2206,00:00:08.824,-0.00027640620828605825
2207,00:00:08.828,-0.00486669735983015
2208,00:00:08.832,0.00597291253507138
2209,00:00:08.836,-0.007130758487619459
2210,00:00:08.84,0.005909322993829888
2211,00:00:08.844,-0.01926646684296432
2212,00:00:08.848,-0.002744671131949874
2213,00:00:08.852,0.018818968179402838
2214,00:00:08.856,0.029826560523361013
2215,00:00:08.86,-0.012614269217010598
2216,00:00:08.864,-0.026247186586260848
2217,00:00:08.868,0.009009595494717321
2218,00:00:08.872,-0.017577106598764627
2219,00:00:08.876,0.0032536805374547718
2220,00:00:08.88,0.0018008667393587495
2221,00:00:08.884,0.007666240766411647
2222,00:00:08.888,0.029701735242269878
2223,00:00:08.892,-0.008344120840774849
2224,00:00:08.896,-0.018292116350494277
2225,00:00:08.9,0.006356275407597419
2226,00:00:08.904,-0.013548320624977359
2227,00:00:08.908,-0.00700577266979962
2228,00:00:08.912,0.0055299554951489
2229,00:00:08.916,-0.0038133211346576042
2230,00:00:08.92,0.011518753608470381
2231,00:00:08.924,0.02964032493764531
2232,00:00:08.928,-0.0015759072266519104
2233,00:00:08.932,-0.02131919297244165
2234,00:00:08.936,-0.023244228214025497
2235,00:00:08.94,-0.0010294066742062274
2236,00:00:08.944,0.007622542601893656
2237,00:00:08.948,0.01043315650895238
2238,00:00:08.952,-0.0007913971203379259
2239,00:00:08.956,0.01639970380347221
2240,00:00:08.96,0.013149314094334832
2241,00:00:08.964,-0.03224795870482921
2242,00:00:08.968,-0.0026107007870450564
2243,00:00:08.972,0.01028060889802877
2244,00:00:08.976,-0.01770274387672547
2245,00:00:08.98,0.0030528819188475574
2246,00:00:08.984,-0.0004970284353475966
2247,00:00:08.988,0.0321243214420974
2248,00:00:08.992,0.009165128125459873
2249,00:00:08.996,-0.02665275614708662
2250,00:00:09,-0.021365411659644444
2251,00:00:09.004,0.004113312752451749
2252,00:00:09.008,0.011184686853084706
2253,00:00:09.012,0.00835465593263507
2254,00:00:09.016,0.0025456721195951087
2255,00:00:09.02,-0.00196324079297483
2256,00:00:09.024,-0.01194898586254567
2257,00:00:09.028,0.002864893991500141
2258,00:00:09.032,0.017701453354675285
2259,00:00:09.036,0.00528596481308341
2260,00:00:09.04,-0.0345657237339765
2261,00:00:09.044,0.0014339431072585293
2262,00:00:09.048,0.012358890729956324
2263,00:00:09.052,-0.015445692464709277
2264,00:00:09.056,0.019773044507019208
2265,00:00:09.06,-0.0004477067850530195
2266,00:00:09.064,0.00915007060393694
2267,00:00:09.068,0.01839064178057014
2268,00:00:09.072,-0.02365080150775609
2269,00:00:09.076,-0.02735653426498172
2270,00:00:09.08,0.00901052961125972
2271,00:00:09.084,0.01470249169506133
2272,00:00:09.088,-0.006845228053862231
2273,00:00:09.092,-0.007614464033395031
2274,00:00:09.096,0.013554658275097569
2275,00:00:09.1,0.009588133048964638
2276,00:00:09.104,-0.008305190596729512
2277,00:00:09.108,-0.002305412839632483
2278,00:00:09.112,0.001760778250172726
2279,00:00:09.116,0.0021677399054169707
2280,00:00:09.12,0.0025629772571846877
2281,00:00:09.124,-0.01366748032160102
2282,00:00:09.128,-0.00011588924826355738
2283,00:00:09.132,0.0017457511276006707
2284,00:00:09.136,-0.01139360829256471
2285,00:00:09.14,0.020822316640987982
2286,00:00:09.144,0.027654084842652093
2287,00:00:09.148,-0.028212495642946995
2288,00:00:09.152,-0.018278403731528715
2289,00:00:09.156,0.006430608831578861
2290,00:00:09.16,0.006590774049982422
2291,00:00:09.164,-0.00893000885844231
2292,00:00:09.168,0.0019168591243214858
2293,00:00:09.172,0.0226079674903303
2294,00:00:09.176,0.016242511977907305
2295,00:00:09.18,-0.022298457100987438
2296,00:00:09.184,-0.02701760968193412
2297,00:00:09.188,-0.012845119403209544
2298,00:00:09.192,0.01009007892207589
2299,00:00:09.196,0.05103240348398685
2300,00:00:09.2,0.01510874181985856
2301,00:00:09.204,-0.0389252851018682
2302,00:00:09.208,-0.03574782330542804
2303,00:00:09.212,0.0014922954142093706
2304,00:00:09.216,0.02607151051051917
2305,00:00:09.22,0.01120520582480821
2306,00:00:09.224,0.00987040100153536
2307,00:00:09.228,-0.013428700098302219
2308,00:00:09.232,-0.00713967997580767
2309,00:00:09.236,-0.00440240884199735
2310,00:00:09.24,0.0006281136011239137
2311,00:00:09.244,0.011804188543464971
2312,00:00:09.248,-0.004391031921841208
2313,00:00:09.252,-0.00890638219425455
2314,00:00:09.256,0.00107269117143005
2315,00:00:09.26,0.007383500516880303
2316,00:00:09.264,0.004682381637394429
2317,00:00:09.268,0.010459338242071679
2318,00:00:09.272,-0.010624114889651539
2319,00:00:09.276,-0.0009707851568237173
2320,00:00:09.28,-0.032975823851302224
2321,00:00:09.284,0.020036319037899406
2322,00:00:09.288,0.01938490895554424
2323,00:00:09.292,-0.004186405800282941
2324,00:00:09.296,-0.02218298654770476
2325,00:00:09.3,0.0142398972529918
2326,00:00:09.304,0.02060563489794731
2327,00:00:09.308,-0.02573331003077331
2328,00:00:09.312,-0.003947912016883491
2329,00:00:09.316,0.02241921634413304
2330,00:00:09.32,-0.00701755890622734
2331,00:00:09.324,-0.003472048789262769
2332,00:00:09.328,-0.015565552283078429
2333,00:00:09.332,0.005507192065124399
2334,00:00:09.336,0.00494424544740469
2335,00:00:09.34,0.00902059103827924
2336,00:00:09.344,0.007427102886140339
2337,00:00:09.348,-0.00240853033028543
2338,00:00:09.352,-0.016357304062694318
2339,00:00:09.356,-0.009916338603943628
2340,00:00:09.36,-0.00965470797382292
2341,00:00:09.364,0.029597043700050563
2342,00:00:09.368,0.05204554460942744
2343,00:00:09.372,-0.03718121815472844
2344,00:00:09.376,-0.05002765730023383
2345,00:00:09.38,0.006980151083553213
2346,00:00:09.384,0.010295246727764601
2347,00:00:09.388,0.003046115867618935
2348,00:00:09.392,0.0055545759387314285
2349,00:00:09.396,0.025358617305755622
2350,00:00:09.4,0.00952936476096511
2351,00:00:09.404,-0.02116444823332129
2352,00:00:09.408,-0.02311201486736533
2353,00:00:09.412,0.008209441322833261
2354,00:00:09.416,-0.00617412850260735
2355,00:00:09.42,0.0046790370251983395
2356,00:00:09.424,0.015892281720880384
2357,00:00:09.428,-0.0006580437620868919
2358,00:00:09.432,-0.011613572016358367
2359,00:00:09.436,-0.006607029499718916
2360,00:00:09.44,0.007324098842218522
2361,00:00:09.444,0.024398448877036523
2362,00:00:09.448,-0.00866767880506811
2363,00:00:09.452,-0.008347922004759282
2364,00:00:09.456,-0.014146652887575328
2365,00:00:09.46,-0.0090671339421533
2366,00:00:09.464,0.004167428560322149
2367,00:00:09.468,0.006963490654015917
2368,00:00:09.472,0.005508382222615189
2369,00:00:09.476,0.03820107551291581
2370,00:00:09.48,0.00450463965535168
2371,00:00:09.484,-0.04113165708258744
2372,00:00:09.488,-0.03224905929528175
2373,00:00:09.492,-0.010490868706256151
2374,00:00:09.496,0.040418443968519596
2375,00:00:09.5,0.02002476807683701
2376,00:00:09.504,0.0041302205063402896
2377,00:00:09.508,-0.02032391377724708
2378,00:00:09.512,0.008850405691191561
2379,00:00:09.516,-0.004041422856971609
2380,00:00:09.52,-0.02441885741427545
2381,00:00:09.524,0.00854074629023672
2382,00:00:09.528,0.006247029639780501
2383,00:00:09.532,0.015856085243285592
2384,00:00:09.536,-0.0023405300453305192
2385,00:00:09.54,-0.0032494275365024805
2386,00:00:09.544,-0.01151933229994024
2387,00:00:09.548,-0.0007728611235506815
2388,00:00:09.552,-0.005434840888483446
2389,00:00:09.556,0.012842143070884
2390,00:00:09.56,-0.0022120687644928694
2391,00:00:09.564,0.0029539266542997246
2392,00:00:09.568,0.0063583771698176896
2393,00:00:09.572,1.0533723980190104e-05
2394,00:00:09.576,-0.004935073084197939
2395,00:00:09.58,0.0027608131058513875
2396,00:00:09.584,-0.02344849106157195
2397,00:00:09.588,-0.011312225484289222
2398,00:00:09.592,0.02074943564366549
2399,00:00:09.596,0.038399813463911414
2400,00:00:09.6,-0.008912830962799469
2401,00:00:09.604,-0.023513499181717627
2402,00:00:09.608,0.010094303172081709
2403,00:00:09.612,-0.01862284261733297
2404,00:00:09.616,-0.009613559665012858
2405,00:00:09.62,0.0006920205196365762
2406,00:00:09.624,0.02813252573832874
2407,00:00:09.628,-0.0068396309579839
2408,00:00:09.632,0.006559552159160379
2409,00:00:09.636,0.01889366039540618
2410,00:00:09.64,-0.017723982338793576
2411,00:00:09.644,-0.025630869844462768
2412,00:00:09.648,-0.00801475858315826
2413,00:00:09.652,0.004054395132698119
2414,00:00:09.656,0.02195199974812571
2415,00:00:09.66,0.01176948240026832
2416,00:00:09.664,0.01073896046727896
2417,00:00:09.668,-0.007946353231091047
2418,00:00:09.672,-0.02973787672817703
2419,00:00:09.676,0.004164719488471731
2420,00:00:09.68,-0.00037592963781207507
2421,00:00:09.684,-0.00575293891597539
2422,00:00:09.688,0.0126888791564852
2423,00:00:09.692,0.006684042091364964
2424,00:00:09.696,0.004551556194201141
2425,00:00:09.7,0.00977442879229785
2426,00:00:09.704,-0.01801459782291203
2427,00:00:09.708,-0.004479316528886561
2428,00:00:09.712,0.010294372914358967
2429,00:00:09.716,-0.02548538357950746
2430,00:00:09.72,0.0065828543738462
2431,00:00:09.724,0.01717297383584079
2432,00:00:09.728,-0.00031930825207382007
2433,00:00:09.732,-0.0071701466261870905
2434,00:00:09.736,0.01715281343786046
2435,00:00:09.74,0.00016326317563652602
2436,00:00:09.744,-0.013991964064189231
2437,00:00:09.748,-0.020823887898586697
2438,00:00:09.752,-0.004485840079723856
2439,00:00:09.756,0.034801236586645204
2440,00:00:09.76,0.01112738647498191
2441,00:00:09.764,-0.017161577474325878
2442,00:00:09.768,-0.004993791459128229
2443,00:00:09.772,-0.007709927158430218
2444,00:00:09.776,-0.0028066313825547713
2445,00:00:09.78,0.0026518909726291904
2446,00:00:09.784,0.015605264576152
2447,00:00:09.788,0.005142959998920569
2448,00:00:09.792,-0.00538331596180794
2449,00:00:09.796,-0.00448684662114829
2450,00:00:09.8,-0.00560989463701844
2451,00:00:09.804,0.00848941958975047
2452,00:00:09.808,-0.010368161369115132
2453,00:00:09.812,-0.00538409710861743
2454,00:00:09.816,0.00506945070810612
2455,00:00:09.82,0.00691867293789983
2456,00:00:09.824,0.012366788811050331
2457,00:00:09.828,0.004810197977349141
2458,00:00:09.832,-0.03516303142532706
2459,00:00:09.836,-0.00569696183083579
2460,00:00:09.84,0.032394790090620504
2461,00:00:09.844,0.009263715939596299
2462,00:00:09.848,-0.015606392582412802
2463,00:00:09.852,-0.00217487616464495
2464,00:00:09.856,-0.01632022042758762
2465,00:00:09.86,0.0007358577859122362
2466,00:00:09.864,0.013237007660791281
2467,00:00:09.868,-0.0054058965761214495
2468,00:00:09.872,0.01086305984063074
2469,00:00:09.876,0.02378658810630438
2470,00:00:09.88,-0.010468427964951846
2471,00:00:09.884,-0.029056590050458894
2472,00:00:09.888,-0.014754531905055048
2473,00:00:09.892,0.00989397277589887
2474,00:00:09.896,0.03438802342861891
2475,00:00:09.9,-0.00739516725298017
2476,00:00:09.904,-0.01482898776885122
2477,00:00:09.908,0.000545290589798241
2478,00:00:09.912,0.007735374500043689
2479,00:00:09.916,-0.00201553851366043
2480,00:00:09.92,-0.003541493350894597
2481,00:00:09.924,0.002438475668895994
2482,00:00:09.928,-0.011835805140435692
2483,00:00:09.932,0.0019713276997208613
2484,00:00:09.936,0.01575670251622796
2485,00:00:09.94,0.008684380474733184
2486,00:00:09.944,-0.01435777597362171
2487,00:00:09.948,-0.002199376060161736
2488,00:00:09.952,-0.010705130582209675
2489,00:00:09.956,0.0071088185068219865
2490,00:00:09.96,-0.0029160527046769805
2491,00:00:09.964,0.010211385320872068
2492,00:00:09.968,0.014577559537428916
2493,00:00:09.972,-0.0066947754239663395
2494,00:00:09.976,-0.013506480725482155
2495,00:00:09.98,-0.01565374387428163
2496,00:00:09.984,0.010562509356532194
2497,00:00:09.988,0.01379545603413136
2498,00:00:09.992,-0.0058164682704955305
2499,00:00:09.996,0.0020640458678826707
2500,00:00:10,-0.006792790904000862
2501,00:00:10.004,0.02158367831725632
2502,00:00:10.008,-0.013548627030104399
2503,00:00:10.012,-0.01289457886014134
2504,00:00:10.016,0.01217133179306986
2505,00:00:10.02,-0.008353776298463341
2506,00:00:10.024,-9.102129843085831e-05
2507,00:00:10.028,-0.0026401961222290906
2508,00:00:10.032,-0.000924903077248023
2509,00:00:10.036,0.022678942885249867
2510,00:00:10.04,0.017044179272488736
2511,00:00:10.044,-0.02383880177512765
2512,00:00:10.048,-0.0249922657967545
2513,00:00:10.052,-0.0010899580083787407
2514,00:00:10.056,0.01459779194556177
2515,00:00:10.06,-0.003188346337992691
2516,00:00:10.064,0.02299145481083538
2517,00:00:10.068,0.014714538352563953
2518,00:00:10.072,-0.03530310583300885
2519,00:00:10.076,-0.012505715829320259
2520,00:00:10.08,0.016753124305978462
2521,00:00:10.084,-0.0033470175112597653
2522,00:00:10.088,0.009046584018506077
2523,00:00:10.092,0.00623806565999982
2524,00:00:10.096,-0.014936092076823119
2525,00:00:10.1,-0.0013525701651815373
2526,00:00:10.104,0.00559455645270646
2527,00:00:10.108,0.0035187559260521127
2528,00:00:10.112,-0.012566582262479664
2529,00:00:10.116,0.00762165320338681
2530,00:00:10.12,0.0013338096323423153
2531,00:00:10.124,0.013687027792911982
2532,00:00:10.128,-0.016620610374957347
2533,00:00:10.132,0.02174127561738716
2534,00:00:10.136,-0.01810903630394024
2535,00:00:10.14,-0.01514031970873475
2536,00:00:10.144,0.0028574466705322318
2537,00:00:10.148,0.012554704037029308
2538,00:00:10.152,0.0026892872992902985
2539,00:00:10.156,0.0032213558442890627
2540,00:00:10.16,-0.009665248799137756
2541,00:00:10.164,0.003780618993914688
2542,00:00:10.168,-0.0034247908333782094
2543,00:00:10.172,0.0008684969507157859
2544,00:00:10.176,-0.010515990506974047
2545,00:00:10.18,0.002742904529441149
2546,00:00:10.184,0.028193060308694805
2547,00:00:10.188,0.01737104682251811
2548,00:00:10.192,-0.029418139718472958
2549,00:00:10.196,-0.02696414897218351
2550,00:00:10.2,-0.011929795960895741
2551,00:00:10.204,0.022753467026632244
2552,00:00:10.208,0.02644683048129086
2553,00:00:10.212,-0.0018202674109489107
2554,00:00:10.216,-0.010230294778011741
2555,00:00:10.22,-0.012360955821350219
2556,00:00:10.224,-0.01346067758277059
2557,00:00:10.228,0.02271680999547241
2558,00:00:10.232,0.01940873102284969
2559,00:00:10.236,-0.010987222660332913
2560,00:00:10.24,-0.003417583415284753
2561,00:00:10.244,-0.0223125880584121
2562,00:00:10.248,-0.0048959781415760595
2563,00:00:10.252,0.02776308264583348
2564,00:00:10.256,0.005287491017952569
2565,00:00:10.26,-0.00590719305910173
2566,00:00:10.264,-0.018153056036680982
2567,00:00:10.268,-0.0071415449492633586
2568,00:00:10.272,0.015562830601083991
2569,00:00:10.276,0.01707574748434126
2570,00:00:10.28,-0.005186068388866254
2571,00:00:10.284,-0.004046238704177086
2572,00:00:10.288,-0.006107264314778156
2573,00:00:10.292,-0.0030609997920691898
2574,00:00:10.296,0.008722441911231723
2575,00:00:10.3,-0.005650403909385201
2576,00:00:10.304,-0.00016904901713132988
2577,00:00:10.308,-0.0034693832276388985
2578,00:00:10.312,-0.004061874933540821
2579,00:00:10.316,-0.003394465893507009
2580,00:00:10.32,0.03104805294424292
2581,00:00:10.324,0.01108317717444154
2582,00:00:10.328,-0.03245067619718614
2583,00:00:10.332,-0.00817413534969091
2584,00:00:10.336,-0.006363452877849339
2585,00:00:10.34,0.01253403117880229
2586,00:00:10.344,-0.0062434789724648
2587,00:00:10.348,0.01211774442344904
2588,00:00:10.352,0.024132571415975683
2589,00:00:10.356,-0.006406027590855961
2590,00:00:10.36,-0.022356188303092505
2591,00:00:10.364,-0.027088057599030414
2592,00:00:10.368,0.02524107834324246
2593,00:00:10.372,0.0185203137807548
2594,00:00:10.376,-0.00396906211972239
2595,00:00:10.38,-0.01684827404096717
2596,00:00:10.384,0.01095065474510197
2597,00:00:10.388,0.00017491681501269167
2598,00:00:10.392,-0.02001589816063643
2599,00:00:10.396,0.010979798680637034
2600,00:00:10.4,0.02276257378980518
2601,00:00:10.404,0.0003411334473639796
2602,00:00:10.408,-0.02792248735204342
2603,00:00:10.412,-0.010323358641471748
2604,00:00:10.416,0.01301998901180924
2605,00:00:10.42,0.00718466192483899
2606,00:00:10.424,0.03823094209656123
2607,00:00:10.428,-0.025087010581046388
2608,00:00:10.432,-0.02240834647091106
2609,00:00:10.436,-0.01224450767040253
2610,00:00:10.44,0.006056882441043878
2611,00:00:10.444,0.01242581917904317
2612,00:00:10.448,0.0076676578864862625
2613,00:00:10.452,0.013702669180929702
2614,00:00:10.456,0.002113382783136329
2615,00:00:10.46,-0.02484821900725369
2616,00:00:10.464,-0.03054907266050578
2617,00:00:10.468,0.0390838072635233
2618,00:00:10.472,0.019041728868614872
2619,00:00:10.476,-0.01001842133700847
2620,00:00:10.48,-0.014761672180611644
2621,00:00:10.484,-0.01448820170480753
2622,00:00:10.488,-0.004532846651272844
2623,00:00:10.492,0.025850234087556583
2624,00:00:10.496,0.0020889809820801067
2625,00:00:10.5,0.0006967617664486309
2626,00:00:10.504,-0.00443064514547586
2627,00:00:10.508,0.0024019884876906924
2628,00:00:10.512,-0.007407184573821761
2629,00:00:10.516,-0.00032167369499798946
2630,00:00:10.52,-0.005311423272360116
2631,00:00:10.524,-0.0018689544631342874
2632,00:00:10.528,0.010829400038346652
2633,00:00:10.532,0.01320847240276635
2634,00:00:10.536,0.004272020887583529
2635,00:00:10.54,-0.01931160781532525
2636,00:00:10.544,-0.02813823695760222
2637,00:00:10.548,0.014821180608123541
2638,00:00:10.552,0.01876857853494585
2639,00:00:10.556,0.006204966222867373
2640,00:00:10.56,0.003823370963800707
2641,00:00:10.564,-0.01784796174615624
2642,00:00:10.568,-0.00800547213293613
2643,00:00:10.572,-3.3783027902250726e-05
2644,00:00:10.576,0.02719187980983405
2645,00:00:10.58,-0.016652377351419983
2646,00:00:10.584,-0.0063606719486415395
2647,00:00:10.588,0.00986048812046647
2648,00:00:10.592,0.004924136912450191
2649,00:00:10.596,-0.00047947699204090033
2650,00:00:10.6,-0.005650104139931493
2651,00:00:10.604,-0.022666607401333708
2652,00:00:10.608,0.0023923596017994013
2653,00:00:10.612,0.0194562231190503
2654,00:00:10.616,0.01015344582265243
2655,00:00:10.62,-0.008103514352114868
2656,00:00:10.624,0.00866955087985845
2657,00:00:10.628,-0.005525324260815981
2658,00:00:10.632,-0.02458412991836668
2659,00:00:10.636,0.02371499285800379
2660,00:00:10.64,0.0136634501395747
2661,00:00:10.644,-0.02174314437434074
2662,00:00:10.648,-0.01677418194594795
2663,00:00:10.652,0.0028751866775564867
2664,00:00:10.656,0.00966892822179943
2665,00:00:10.66,0.03123380895704032
2666,00:00:10.664,-0.013719598995521628
2667,00:00:10.668,-0.009941652417182919
2668,00:00:10.672,-0.0009914174443110902
2669,00:00:10.676,-0.004795415326952932
2670,00:00:10.68,-0.00981750711798669
2671,00:00:10.684,0.005861633690074091
2672,00:00:10.688,0.014012432671734139
2673,00:00:10.692,0.012932757032103784
2674,00:00:10.696,0.00033531064400449916
2675,00:00:10.7,-0.015016275807283774
2676,00:00:10.704,-0.02933023590594532
2677,00:00:10.708,-0.000651300884783261
2678,00:00:10.712,0.03258928051218392
2679,00:00:10.716,0.01584678009385241
2680,00:00:10.72,-0.00967892538756136
2681,00:00:10.724,-0.019276153063401563
2682,00:00:10.728,-0.003171995500451885
2683,00:00:10.732,-0.00556421000510459
2684,00:00:10.736,0.034606811124831424
2685,00:00:10.74,-0.00391407503047958
2686,00:00:10.744,-0.015494256556848975
2687,00:00:10.748,-0.0029463545652106404
2688,00:00:10.752,-0.00587557652033866
2689,00:00:10.756,0.00876827375032007
2690,00:00:10.76,-0.015073990682139998
2691,00:00:10.764,0.00896154320798814
2692,00:00:10.768,0.03092061076313253
2693,00:00:10.772,-0.009708101861178861
2694,00:00:10.776,-0.01594384643249212
2695,00:00:10.78,-0.004220269620418545
2696,00:00:10.784,-0.009629305917769681
2697,00:00:10.788,0.012139735743403442
2698,00:00:10.792,0.008187002240447327
2699,00:00:10.796,0.00611481571104377
2700,00:00:10.8,-0.012544336670543992
2701,00:00:10.804,-0.003089747740887088
2702,00:00:10.808,0.010102462460054085
2703,00:00:10.812,-0.0029179258272052627
2704,00:00:10.816,-0.0025157534983009104
2705,00:00:10.82,-0.003922310424968605
2706,00:00:10.824,-0.002862804103642702
2707,00:00:10.828,-0.00022428948432203985
2708,00:00:10.832,0.01037866063416004
2709,00:00:10.836,0.0012671920703723992
2710,00:00:10.84,-0.001787617802619948
2711,00:00:10.844,7.879151962696942e-05
2712,00:00:10.848,-0.0031487029045820267
2713,00:00:10.852,0.00636998703703285
2714,00:00:10.856,-0.01199217000976207
2715,00:00:10.86,-0.003482639091089358
2716,00:00:10.864,0.0099730429938063
2717,00:00:10.868,0.01454526977613568
2718,00:00:10.872,-0.014628930017352111
2719,00:00:10.876,-0.006977593526244161
2720,00:00:10.88,-0.00011554913362488844
2721,00:00:10.884,-0.0028228301671333546
2722,00:00:10.888,0.009579364676028502
2723,00:00:10.892,0.006967755500227241
2724,00:00:10.896,0.01934546208940447
2725,00:00:10.9,-0.029688159062061483
2726,00:00:10.904,-0.021676316857337972
2727,00:00:10.908,0.007890470616985109
2728,00:00:10.912,0.0178546258248389
2729,00:00:10.916,0.023520170478150214
2730,00:00:10.92,-0.0005869817396160259
2731,00:00:10.924,-0.02743877470493321
2732,00:00:10.928,-0.01623876346275214
2733,00:00:10.932,0.0033376131905242796
2734,00:00:10.936,0.011201609391719061
2735,00:00:10.94,0.00978123256936669
2736,00:00:10.944,0.0020788976689800585
2737,00:00:10.948,0.00702323799487203
2738,00:00:10.952,-0.004022126420750286
2739,00:00:10.956,-0.01668403064832091
2740,00:00:10.96,0.011666401755064747
2741,00:00:10.964,-0.007567928143544123
2742,00:00:10.968,-0.005922357318922881
2743,00:00:10.972,-0.007625400379765775
2744,00:00:10.976,0.012739551972117623
2745,00:00:10.98,0.021972189424559422
2746,00:00:10.984,-0.0064759391825646405
2747,00:00:10.988,-0.01370037498418239
2748,00:00:10.992,-0.008925238973461097
2749,00:00:10.996,-0.005161168402992184
2750,00:00:11,0.01675710128620269
2751,00:00:11.004,0.0033632800914347
2752,00:00:11.008,0.008451572619378539
2753,00:00:11.012,0.03113611461594698
2754,00:00:11.016,-0.0364689290290698
2755,00:00:11.02,-0.04077187459915872
2756,00:00:11.024,-0.003478620783425871
2757,00:00:11.028,0.01665067439898847
2758,00:00:11.032,0.02794519905000928
2759,00:00:11.036,0.01676821103319524
2760,00:00:11.04,0.002592412856756711
2761,00:00:11.044,-0.024582316400483292
2762,00:00:11.048,-0.010400429833680391
2763,00:00:11.052,-0.01357250963337719
2764,00:00:11.056,0.02367244195193051
2765,00:00:11.06,0.012541412375867311
2766,00:00:11.064,-0.006402139028068642
2767,00:00:11.068,-0.02213053996001687
2768,00:00:11.072,-0.004011442375485784
2769,00:00:11.076,0.01550304470583802
2770,00:00:11.08,0.024747574236244036
2771,00:00:11.084,0.00530873518437147
2772,00:00:11.088,-0.02412269252818075
2773,00:00:11.092,-0.01903473515994845
2774,00:00:11.096,-0.01857619779184457
2775,00:00:11.1,0.021024275611466685
2776,00:00:11.104,0.00951629038900137
2777,00:00:11.108,0.010258258786052469
2778,00:00:11.112,0.03276126331184058
2779,00:00:11.116,-0.013533033896237624
2780,00:00:11.12,-0.03146814554929735
2781,00:00:11.124,-0.027706016320735202
2782,00:00:11.128,0.015362822450697372
2783,00:00:11.132,0.024369516642764183
2784,00:00:11.136,0.010316163185052572
2785,00:00:11.14,-0.022613478329731148
2786,00:00:11.144,0.00569348013959825
2787,00:00:11.148,0.002128403342794624
2788,00:00:11.152,-0.00026913103647529905
2789,00:00:11.156,-0.0011903448030352315
2790,00:00:11.16,-0.0010269868653267605
2791,00:00:11.164,-0.01285684434697033
2792,00:00:11.168,0.0037205789703875806
2793,00:00:11.172,0.02650240110233431
2794,00:00:11.176,0.02713149995543059
2795,00:00:11.18,-0.048829205334186596
2796,00:00:11.184,-0.023880523629486568
2797,00:00:11.188,0.01308794785290961
2798,00:00:11.192,0.012407234040438196
2799,00:00:11.196,-0.0005665929056704001
2800,00:00:11.2,-0.0002480344264768117
2801,00:00:11.204,0.0022926172241568487
2802,00:00:11.208,0.01760635478422046
2803,00:00:11.212,0.01511655724607407
2804,00:00:11.216,-0.010014854575274505
2805,00:00:11.22,-0.034881816478446154
2806,00:00:11.224,-0.01858778228051965
2807,00:00:11.228,0.00804001034703105
2808,00:00:11.232,0.030957003124058288
2809,00:00:11.236,0.005441153421998018
2810,00:00:11.24,-0.0059953592717647605
2811,00:00:11.244,-0.00744213641155511
2812,00:00:11.248,0.008433347567915923
2813,00:00:11.252,0.006892125122249121
2814,00:00:11.256,-0.02305441805947339
2815,00:00:11.26,0.0016304801793012302
2816,00:00:11.264,0.010643513815011788
2817,00:00:11.268,-0.00845025491435077
2818,00:00:11.272,0.002687301719561221
2819,00:00:11.276,0.01049940381199118
2820,00:00:11.28,-0.008062108812737273
2821,00:00:11.284,-0.0014999504201114108
2822,00:00:11.288,0.0030312348389998547
2823,00:00:11.292,-0.0049462707247585015
2824,00:00:11.296,-0.0033721204963512667
2825,00:00:11.3,0.008923371206037702
2826,00:00:11.304,-0.004689362540375447
2827,00:00:11.308,0.011412060586735603
2828,00:00:11.312,0.02075723768211902
2829,00:00:11.316,-0.012404649751260877
2830,00:00:11.32,-0.0395627969410271
2831,00:00:11.324,-0.006090945156756784
2832,00:00:11.328,0.0022831523092463704
2833,00:00:11.332,0.02601277036592369
2834,00:00:11.336,0.020462291198782623
2835,00:00:11.34,0.0069722959306091
2836,00:00:11.344,-0.02411015366669748
2837,00:00:11.348,-0.008127859618980427
2838,00:00:11.352,0.005608225590549411
2839,00:00:11.356,-0.007855689385905862
2840,00:00:11.36,-0.0046960669569671085
2841,00:00:11.364,0.016534820199012718
2842,00:00:11.368,-0.005881708348169919
2843,00:00:11.372,0.01505601347889751
2844,00:00:11.376,-0.015347122214734497
2845,00:00:11.38,0.010857536923140279
2846,00:00:11.384,-0.017893846787046655
2847,00:00:11.388,-0.006292535923421379
2848,00:00:11.392,0.013977085938677192
2849,00:00:11.396,0.01648638676851988
2850,00:00:11.4,-0.006994103314355019
2851,00:00:11.404,-0.01424422173295169
2852,00:00:11.408,-0.005237056640908118
2853,00:00:11.412,0.009939617943018671
2854,00:00:11.416,-0.0009762599947862301
2855,00:00:11.42,0.01691141386982052
2856,00:00:11.424,-0.00076106772758067
2857,00:00:11.428,-0.028551549097755893
2858,00:00:11.432,0.010247872734908018
2859,00:00:11.436,0.00640595331788063
2860,00:00:11.44,-0.017613222124055
2861,00:00:11.444,0.009567963665176605
2862,00:00:11.448,0.0141859797295183
2863,00:00:11.452,0.01134198100771755
2864,00:00:11.456,-0.0138467993820086
2865,00:00:11.46,-0.01035253144800662
2866,00:00:11.464,-0.0011515163350850292
2867,00:00:11.468,0.012683694832958278
2868,00:00:11.472,-0.00723573506547836
2869,00:00:11.476,-0.010734917363151908
2870,00:00:11.48,0.001413186080753798
2871,00:00:11.484,0.007031335262581699
2872,00:00:11.488,0.01265666284598405
2873,00:00:11.492,0.0030402685515582596
2874,00:00:11.496,-0.02214658260345459
2875,00:00:11.5,-0.0004716850817203513
2876,00:00:11.504,0.01977745370186315
2877,00:00:11.508,0.0008184838225133665
2878,00:00:11.512,-0.00521690357709303
2879,00:00:11.516,-0.02364210691303014
2880,00:00:11.52,-0.0034198125358670894
2881,00:00:11.524,0.03442465839907527
2882,00:00:11.528,0.002956236363388596
2883,00:00:11.532,-0.00501539604738355
2884,00:00:11.536,-0.004938950762152671
2885,00:00:11.54,-0.02385742357000711
2886,00:00:11.544,-0.010873986873775717
2887,00:00:11.548,0.020537822681944855
2888,00:00:11.552,0.02955002803355459
2889,00:00:11.556,0.0028067233506590193
2890,00:00:11.56,-0.014567794743925359
2891,00:00:11.564,-0.020820632227696433
2892,00:00:11.568,-0.0029827372636646006
2893,00:00:11.572,0.012166181812062839
2894,00:00:11.576,-0.0005641306051984507
2895,00:00:11.58,0.00798150151968002
2896,00:00:11.584,-0.010063689202070241
2897,00:00:11.588,-0.00829715502914041
2898,00:00:11.592,0.01823753910139203
2899,00:00:11.596,0.006349984061671421
2900,00:00:11.6,-0.007067176920827475
2901,00:00:11.604,-0.002506204356905074
2902,00:00:11.608,-0.00823254045099015
2903,00:00:11.612,0.008371723350137472
2904,00:00:11.616,0.016750369803048698
2905,00:00:11.62,-0.02665881859138609
2906,00:00:11.624,-0.01347476596129124
2907,00:00:11.628,0.0231230542995036
2908,00:00:11.632,-0.00277634488884359
2909,00:00:11.636,-0.007564569008536588
2910,00:00:11.64,0.0032576375815551685
2911,00:00:11.644,0.01746384194120762
2912,00:00:11.648,0.0034619453363120617
2913,00:00:11.652,-0.009073529392480852
2914,00:00:11.656,-0.01172689371742308
2915,00:00:11.66,-0.0027491401087900175
2916,00:00:11.664,0.0021843971917405725
2917,00:00:11.668,-0.0005187283968553003
2918,00:00:11.672,0.012989437149371955
2919,00:00:11.676,-0.00357842585071921
2920,00:00:11.68,-0.01118950825184585
2921,00:00:11.684,0.016735503450036052
2922,00:00:11.688,-0.00774260284379126
2923,00:00:11.692,0.009382151067256912
2924,00:00:11.696,-0.01422686501609858
2925,00:00:11.7,-0.021471537183970178
2926,00:00:11.704,0.01133896922692657
2927,00:00:11.708,0.02757196337915959
2928,00:00:11.712,0.016515974770300056
2929,00:00:11.716,-0.02808453887701028
2930,00:00:11.72,-0.01804811222245913
2931,00:00:11.724,0.00951764360070229
2932,00:00:11.728,0.0016022082418203397
2933,00:00:11.732,0.0064658205956220904
2934,00:00:11.736,0.00558674382045865
2935,00:00:11.74,-0.006691795540973579
2936,00:00:11.744,-0.00046686874702572996
2937,00:00:11.748,-0.01002097025047987
2938,00:00:11.752,0.020028530620038475
2939,00:00:11.756,0.010179989971220499
2940,00:00:11.76,-0.025890736083965752
2941,00:00:11.764,-0.01120174222160131
2942,00:00:11.768,0.003082316368818285
2943,00:00:11.772,0.01157389469153714
2944,00:00:11.776,0.00852399982977659
2945,00:00:11.78,0.00625800667330623
2946,00:00:11.784,-0.006685194384772332
2947,00:00:11.788,-0.01799858664162456
2948,00:00:11.792,0.008279467816464608
2949,00:00:11.796,0.00876608060207218
2950,00:00:11.8,-0.002191994863096624
2951,00:00:11.804,0.002743400633335109
2952,00:00:11.808,-0.013635480718221472
2953,00:00:11.812,0.00566256395541131
2954,00:00:11.816,0.010087072965689
2955,00:00:11.82,-0.009100239258259531
2956,00:00:11.824,-0.004007825598819174
2957,00:00:11.828,0.009470620600040952
2958,00:00:11.832,-0.0003495559794828209
2959,00:00:11.836,-0.003490200702799486
2960,00:00:11.84,-0.00894645671360195
2961,00:00:11.844,-0.009266720502637327
2962,00:00:11.848,0.019720069598406532
2963,00:00:11.852,0.02393619483336809
2964,00:00:11.856,-0.016195520292967572
2965,00:00:11.86,-0.014942985493689769
2966,00:00:11.864,-0.003330593346618121
2967,00:00:11.868,0.0027996671851724404
2968,00:00:11.872,0.004385491774883116
2969,00:00:11.876,0.003188545349985359
2970,00:00:11.88,0.005234971045865673
2971,00:00:11.884,-0.008692846036865348
2972,00:00:11.888,0.0014544223381136607
2973,00:00:11.892,-0.0043193669989705094
2974,00:00:11.896,-0.00448702042922378
2975,00:00:11.9,0.01972885732538994
2976,00:00:11.904,-0.004713260772405197
2977,00:00:11.908,-0.005341616517398505
2978,00:00:11.912,0.009615018614567811
2979,00:00:11.916,-0.01619210453645792
2980,00:00:11.92,0.007837919984012849
2981,00:00:11.924,-0.0102450733538717
2982,00:00:11.928,-0.007841589995223327
2983,00:00:11.932,0.004844105802476399
2984,00:00:11.936,0.029847373371012537
2985,00:00:11.94,-0.0003120277542620893
2986,00:00:11.944,-0.007197435974376281
2987,00:00:11.948,-0.016361959278583523
2988,00:00:11.952,-0.0036762864328920893
2989,00:00:11.956,-0.0058193193981424
2990,00:00:11.96,0.00582975940778847
2991,00:00:11.964,0.015710330451838672
2992,00:00:11.968,0.013223063200712202
2993,00:00:11.972,-0.01312751637306065
2994,00:00:11.976,-0.01896186452358963
2995,00:00:11.98,0.00814464897848666
2996,00:00:11.984,0.012609296711161753
2997,00:00:11.988,-0.01473444211296742
2998,00:00:11.992,-0.00094458879902958
2999,00:00:11.996,0.004935399862006309
3000,00:00:12,0.00903906067833305
3001,00:00:12.004,-0.001827904721721999
3002,00:00:12.008,0.00642733520362526
3003,00:00:12.012,-0.01648486382327974
3004,00:00:12.016,-0.008785964571870912
3005,00:00:12.02,0.01970994588918989
3006,00:00:12.024,-0.004932092444505542
3007,00:00:12.028,0.00493793515488504
3008,00:00:12.032,-0.01196544687263668
3009,00:00:12.036,0.001456532481824981
3010,00:00:12.04,0.010852423962205598
3011,00:00:12.044,-0.00499550439417365
3012,00:00:12.048,-0.0025959805352613304
3013,00:00:12.052,-0.00857516936957836
3014,00:00:12.056,0.00886330734647345
3015,00:00:12.06,0.01389377296436578
3016,00:00:12.064,-0.004610993259120729
3017,00:00:12.068,-0.01451561925932761
3018,00:00:12.072,0.0029931189201306482
3019,00:00:12.076,0.010822141543030728
3020,00:00:12.08,-0.010701324506953819
3021,00:00:12.084,-0.01268988498486579
3022,00:00:12.088,0.010092311538755939
3023,00:00:12.092,0.036322660278528957
3024,00:00:12.096,-0.012902256101369858
3025,00:00:12.1,-0.03186533506959676
3026,00:00:12.104,-0.0123424812918529
3027,00:00:12.108,0.012301267590373748
3028,00:00:12.112,0.012241645497852009
3029,00:00:12.116,0.01564024470280856
3030,00:00:12.12,-1.661590067669619e-05
3031,00:00:12.124,-0.0001237025717273398
3032,00:00:12.128,-0.002051903051324192
3033,00:00:12.132,-0.012275134329684077
3034,00:00:12.136,-0.01315664057619874
3035,00:00:12.14,-0.0017794726882129912
3036,00:00:12.144,0.0029491702734958415
3037,00:00:12.148,0.03177728923037651
3038,00:00:12.152,-0.006424111081287298
3039,00:00:12.156,-0.017249708180315793
3040,00:00:12.16,-0.0031784635502845127
3041,00:00:12.164,-0.004709220724180342
3042,00:00:12.168,0.0188450343266595
3043,00:00:12.172,0.005544347222894428
3044,00:00:12.176,-0.010011403152020653
3045,00:00:12.18,-0.00705046573420984
3046,00:00:12.184,0.014156433055177331
3047,00:00:12.188,-0.010171371046453711
3048,00:00:12.192,-0.00543920265045017
3049,00:00:12.196,0.0009148019598797005
3050,00:00:12.2,0.012448005378246288
3051,00:00:12.204,-0.01023961475584655
3052,00:00:12.208,0.0011220611631869801
3053,00:00:12.212,0.001716037600999698
3054,00:00:12.216,0.006327939830953251
3055,00:00:12.22,0.02033097529783841
3056,00:00:12.224,-0.01863262278493493
3057,00:00:12.228,-0.027295625535771268
3058,00:00:12.232,-0.01067198417149479
3059,00:00:12.236,0.02568660653196278
3060,00:00:12.24,0.013928375323303054
3061,00:00:12.244,0.005526625842321666
3062,00:00:12.248,-0.011510864482261239
3063,00:00:12.252,0.01112206917605363
3064,00:00:12.256,-0.0012698466889560882
3065,00:00:12.26,-0.028668369101978897
3066,00:00:12.264,-0.006727428602971486
3067,00:00:12.268,0.02410774282179773
3068,00:00:12.272,0.010447676759213211
3069,00:00:12.276,-0.007882826495915651
3070,00:00:12.28,-0.0011103289434686702
3071,00:00:12.284,-0.01804401865229007
3072,00:00:12.288,0.003207272384315731
3073,00:00:12.292,0.02959332987666126
3074,00:00:12.296,0.0012997463345527597
3075,00:00:12.3,-0.02619883231818675
3076,00:00:12.304,0.00818885929766116
3077,00:00:12.308,-0.008429763278400098
3078,00:00:12.312,-0.00527683645486836
3079,00:00:12.316,0.00834660360123961
3080,00:00:12.32,0.017066066153347492
3081,00:00:12.324,-0.006266961572691842
3082,00:00:12.328,0.00447192322462798
3083,00:00:12.332,-0.010634625563398
3084,00:00:12.336,-0.00603433459764346
3085,00:00:12.34,-0.019586448441259594
3086,00:00:12.344,0.024356744717806616
3087,00:00:12.348,0.018295967587619085
3088,00:00:12.352,-0.0115342530189082
3089,00:00:12.356,-0.01285352965351195
3090,00:00:12.36,0.014325821772217699
3091,00:00:12.364,-0.0020070774480700597
3092,00:00:12.368,-0.0058221803046762995
3093,00:00:12.372,-0.007782540284097199
3094,00:00:12.376,0.02453712094575167
3095,00:00:12.38,-0.02065114676952362
3096,00:00:12.384,-0.013936887728050375
3097,00:00:12.388,0.0068767913617193725
3098,00:00:12.392,0.01829001842997965
3099,00:00:12.396,-0.002067835099296644
3100,00:00:12.4,0.00043055741116403905
3101,00:00:12.404,0.0014895237982273089
3102,00:00:12.408,-0.0038440418429672284
3103,00:00:12.412,0.006597921135835381
3104,00:00:12.416,-0.00528132484760136
