Elapsed Time,EMG1,EMG2,EMG3,BioRadio Event,Unnamed: 5
00:00:00,0.5189450383186339,-1.79347395896912,4.5127458572387695,0,
00:00:00.004,-0.49798217415809604,1.70667850971222,-4.2881236076355,0,
00:00:00.008,-0.40448430180549605,1.4228767156600999,-3.5736515522003196,0,
00:00:00.012,-0.040875069797039,0.142783239483833,-0.39178302884101895,0,
00:00:00.016,0.20949625968933103,-0.72548121213913,1.82993292808533,0,
00:00:00.02,0.249352589249611,-0.8770754933357242,2.2385010719299303,0,
00:00:00.024,0.152433216571808,-0.5526684522628779,1.376948595047,0,
00:00:00.028,0.024365896359086005,-0.0740846171975136,0.174871012568474,0,
00:00:00.032,-0.0674730613827705,0.26296052336692805,-0.654858589172363,0,
00:00:00.036,-0.0966533198952675,0.35815900564193703,-0.8912506699562069,0,
00:00:00.04,-0.0767967030405998,0.259991675615311,-0.65571266412735,0,
00:00:00.044,-0.0352974236011505,0.0904956161975861,-0.243307799100876,0,
00:00:00.048,0.00447525456547737,-0.0374881438910961,0.102325290441513,0,
00:00:00.052,0.0309675056487322,-0.10172926634550099,0.25372502207756004,0,
00:00:00.056,0.0335341915488243,-0.0923861935734749,0.235541865229607,0,
00:00:00.06,0.0135780284181237,-0.0514317750930786,0.133505374193192,0,
00:00:00.064,0.00422174436971545,0.00259706727229059,0.0101739820092916,0,
00:00:00.068,-0.0108055891469121,0.0203974563628435,-0.0720854848623276,0,
00:00:00.072,-0.009171015582978729,0.0276040267199278,-0.0846510902047157,0,
00:00:00.076,-0.00152054661884904,0.0215534884482622,-0.0523281916975975,0,
00:00:00.08,-0.00561318174004555,0.0130787212401628,-0.01317348331213,0,
00:00:00.084,-0.0061472556553781,-0.00644865678623319,0.0147264627739787,0,
00:00:00.088,0.00814307946711779,-0.00746196368709207,0.0225558094680309,0,
00:00:00.092,0.0072041810490191,-0.00431598862633109,0.021890714764595,0,
00:00:00.096,-0.00431151129305363,-0.0205474346876144,0.0103277890011668,0,
00:00:00.1,0.00168695044703782,0.00031030672835186097,-0.00345323607325554,0,
00:00:00.104,0.0035062946844846,0.0174031779170036,-0.0036340388469398,0,
00:00:00.108,-0.000246875511948019,0.00296202301979065,-0.008340216241776941,0,
00:00:00.112,-0.00922742206603289,-0.008506576530635359,-0.00822551641613245,0,
00:00:00.116,-0.0013949275016784698,-0.00307681877166033,-0.00387691054493189,0,
00:00:00.12,0.00310379569418728,0.00939069502055645,0.00738834962248802,0,
00:00:00.124,0.0121184615418315,0.0095536457374692,0.010709629394114002,0,
00:00:00.128,0.000548476644326001,0.000986719387583435,-0.00192363350652158,0,
00:00:00.132,-0.0165081154555082,-0.0161248855292797,-0.00907063018530607,0,
00:00:00.136,-0.00291847763583064,-0.0120026394724846,-0.00347901228815317,0,
00:00:00.14,0.00665335869416595,-0.0016008851816877699,0.0108159463852644,0,
00:00:00.144,0.0101666441187263,0.0185350384563208,0.00303698726929724,0,
00:00:00.148,0.00223416788503528,0.0128897577524185,-0.00692427810281515,0,
00:00:00.152,-0.00648237997666001,-0.009482113644480709,-0.00462884828448296,0,
00:00:00.156,-0.0165420044213533,-0.0159952454268932,7.177564111771059e-05,0,
00:00:00.16,-0.00285403220914304,0.000647315988317132,0.00493040680885315,0,
00:00:00.164,0.021330151706934,0.0154419168829918,0.00310566322878003,0,
00:00:00.168,0.0119502115994692,0.00256597949191928,0.0020981221459806,0,
00:00:00.172,-0.00448276195675135,0.00433754827827215,-0.00587700679898262,0,
00:00:00.176,-0.00789947155863047,-0.00667741661891341,-0.0037430678494274603,0,
00:00:00.18,-0.0159138552844524,-0.0341471806168556,0.000238045045989566,0,
00:00:00.184,-0.00859937630593777,0.00352927623316646,0.0066584115847945205,0,
00:00:00.188,0.0206348858773708,0.0394159369170666,0.000666891748551279,0,
00:00:00.192,0.00933113601058722,0.0110363615676761,-0.00191504426766187,0,
00:00:00.196,-0.00691789481788874,-0.0219731088727713,-0.00619991729035974,0,
00:00:00.2,-0.005775481928139929,-0.0162783339619637,0.0050027002580463895,0,
00:00:00.204,0.007570430170744659,0.00434293644502759,0.00139818177558482,0,
00:00:00.208,0.000820843619294465,0.0160797759890556,-0.0047214231453836,0,
00:00:00.212,-0.0054908138699829604,-0.00358643219806254,0.00493891164660454,0,
00:00:00.216,-0.0060752471908927,-0.0127382818609476,-0.00150987331289798,0,
00:00:00.22,-0.000610441842582077,-0.0033264537341892698,-0.0015371186891570698,0,
00:00:00.224,0.0117618963122368,0.0117237297818065,0.00411835964769125,0,
00:00:00.228,-0.00164674979168922,0.0123436488211155,-0.00301935384050012,0,
00:00:00.232,-0.00395592860877514,0.000690924644004554,-0.00231916783377528,0,
00:00:00.236,-0.00409010192379355,-0.0117079243063927,8.364936365978791e-05,0,
00:00:00.24,0.00022209057351574302,-0.0171406138688326,0.0036137655843049296,0,
00:00:00.244,0.0030338088981807197,0.00404994701966643,0.0037555561866611203,0,
00:00:00.248,0.00520183611661196,0.0160830393433571,-0.00481941923499107,0,
00:00:00.252,0.00785592943429947,0.00531236920505762,-0.00151778431609273,0,
00:00:00.256,-0.011901892721653,-0.00501063419505954,-0.00422473018988967,0,
00:00:00.26,-0.00196560565382242,-0.00176994909998029,0.00233075651340187,0,
00:00:00.264,-0.00155314861331135,-0.0110402768477798,0.00785084720700979,0,
00:00:00.268,-0.0016051091952249401,-0.00321723846718669,0.000380027631763369,0,
00:00:00.272,0.00375351030379534,0.0067912340164184605,-0.007149579934775829,0,
00:00:00.276,0.00761274620890617,0.015582867898046998,-0.00328185153193772,0,
00:00:00.28,-0.0006737522780895231,0.0017421271186322,0.00986056961119175,0,
00:00:00.284,-0.00810133945196867,-0.0152427991852164,0.0019166300771758,0,
00:00:00.288,-0.007815805263817309,-0.00860305316746235,-0.00548253208398819,0,
00:00:00.292,0.00568457413464785,0.00145954533945769,-0.00868873298168182,0,
00:00:00.296,0.0156376399099827,0.008754505775868891,-0.0012717661447823,0,
00:00:00.3,-0.00424411287531257,0.00636876560747623,0.008855569176375871,0,
00:00:00.304,-0.00503263296559453,0.00749980704858899,0.00817821640521288,0,
00:00:00.308,-0.0034597867634147397,-0.00631589209660888,-0.0014845659025013401,0,
00:00:00.312,0.000953642302192748,-0.0104654226452112,-0.00685552088543773,0,
00:00:00.316,-0.00958370417356491,-0.0130784148350358,-0.003999926149845121,0,
00:00:00.32,0.007704708259552721,0.00523794023320079,0.000118694406410214,0,
00:00:00.324,0.00972581189125776,0.0274601243436337,0.00659315474331379,0,
00:00:00.328,0.006410752423107621,0.00868611875921488,-0.00139486638363451,0,
00:00:00.332,-0.0078695472329855,-0.0165836159139872,-0.00192615215200931,0,
00:00:00.336,-0.017180310562253002,-0.0250200405716896,-0.00246069650165737,0,
00:00:00.34,-0.00450803665444255,-0.0133755020797253,0.004850610159337521,0,
00:00:00.344,0.0154065908864141,0.0190942231565714,0.00484150089323521,0,
00:00:00.348,0.0150006478652358,0.0255965832620859,-0.00276396959088743,0,
00:00:00.352,-0.00514068128541112,-0.000285327027086169,-0.00838359072804451,0,
00:00:00.356,-0.0109793096780777,-0.00196558330208063,-0.00270547391846776,0,
00:00:00.36,-0.00331357400864363,-0.00882090907543898,0.00709872599691153,0,
00:00:00.364,0.00328489765524864,-0.0180423520505428,0.0050250836648047,0,
00:00:00.368,0.0028421578463167,0.00269734230823815,-0.00171811098698527,0,
00:00:00.372,-0.00137512513902038,0.0134303458034992,-0.000636570621281862,0,
00:00:00.376,-0.00504487659782171,0.00128409266471863,-0.00344561459496617,0,
00:00:00.38,0.00229316647164524,0.00313864718191326,-0.0016642386326566302,0,
00:00:00.384,0.0104629024863243,0.0059142992831766605,0.00266522937454283,0,
00:00:00.388,0.00098772079218179,-0.008960147388279441,-0.00031488889362663,0,
00:00:00.392,-0.0106370449066162,-0.016581179574132,0.0019008754752576399,0,
00:00:00.396,-0.0032687324564904,0.0012826088350266199,-0.0036006679292768205,0,
00:00:00.4,0.00606323312968016,0.0170735754072666,0.00305652339011431,0,
00:00:00.404,0.00168416777160019,0.0104383351281285,0.00404251227155328,0,
00:00:00.408,-0.00472266972064972,-0.0193317290395498,-0.00456797424703836,0,
00:00:00.412,0.000701896497048438,-0.00619421945884824,-0.0035578734241426,0,
00:00:00.416,0.0065036965534091,0.018456906080246003,-0.00441728159785271,0,
00:00:00.42,0.00603663921356201,0.00157831306569278,0.00792847573757172,0,
00:00:00.424,-0.00259347818791866,-0.00400072708725929,0.00558778876438737,0,
00:00:00.428,-0.0197374578565359,-0.00829958263784647,0.00215881038457155,0,
00:00:00.432,-0.00272566289640963,-0.00875204615294933,-0.00946308579295874,0,
00:00:00.436,0.009262764826416971,-0.0018281961092725398,-0.005501662380993371,0,
00:00:00.44,0.00889202207326889,0.00640741782262921,0.0050369552336633205,0,
00:00:00.444,0.0036965003237128297,0.0107370130717754,0.00445886608213186,0,
00:00:00.448,-0.00327461096458137,0.00991457514464855,-0.0011263081105426,0,
00:00:00.452,-0.00155077199451625,-0.00666683260351419,-0.0017022619722411,0,
00:00:00.456,-0.00165141944307834,-0.00152591429650784,-0.00066274096025154,0,
00:00:00.46,0.0026518255472183197,-0.0031851148232817698,0.00653657130897045,0,
00:00:00.464,-0.00683909561485052,-0.00608436157926917,-0.00525551754981279,0,
00:00:00.468,-0.005450734868645671,-0.0110644809901714,-0.0044167204760015,0,
00:00:00.472,-0.00042831469909288,-0.00337066547945142,-0.000393245718441904,0,
00:00:00.476,0.0159160327166319,0.0278147403150797,0.000280482781818137,0,
00:00:00.48,0.00926908943802118,0.0304181613028049,0.006838165223598479,0,
00:00:00.484,-0.0057929786853492295,-0.0212374478578568,0.0013099004281684802,0,
00:00:00.488,-0.0185040254145861,-0.0461825020611286,0.000738902017474175,0,
00:00:00.492,-0.007546994369477029,-0.0125138768926263,-0.0038885925896465796,0,
00:00:00.496,0.008716444484889509,0.0242719370871782,-0.00297446898184717,0,
00:00:00.5,0.0138876419514418,0.0290490202605724,0.00147472484968603,0,
00:00:00.504,-0.0014537931419909,0.0110901463776827,-0.0008680760511197151,0,
00:00:00.508,-0.00206009577959776,-0.00391855789348483,0.0019935390446335103,0,
00:00:00.512,-0.000126974322483875,-0.0109952380880713,-0.00522675039246678,0,
00:00:00.516,-0.0056594191119074795,-0.0291352886706591,0.0034304878208786197,0,
00:00:00.52,-0.00032465188996866297,-0.00659206323325634,0.0037972233258187797,0,
00:00:00.524,0.00162722764071077,0.0258433539420366,0.0074867601506412,0,
00:00:00.528,0.00782282836735249,0.0146688921377063,-0.006967436522245411,0,
00:00:00.532,-0.0113909067586064,-0.0043411161750555,-0.006859680172055961,0,
00:00:00.536,-0.00113683240488172,-0.0106687936931849,-0.00208822940476239,0,
00:00:00.54,0.00379974814131856,-0.0120113808661699,0.0019190787570551,0,
00:00:00.544,0.00823748949915171,0.0104751056060195,0.00332729145884514,0,
00:00:00.548,0.00218265084549785,0.0171214751899242,0.00462622847408056,0,
00:00:00.552,-0.00342642609030008,-0.0108966864645481,-0.0052541708573699,0,
00:00:00.556,-0.00716944132000208,-0.0150160798802972,0.0038253613747656298,0,
00:00:00.56,-0.00567625090479851,0.0034034377895295603,0.0040882746689021605,0,
00:00:00.564,0.00068476510932669,0.007241175509989259,-0.00546713313087821,0,
00:00:00.568,0.00669864378869534,-0.00382569478824735,-0.00466468604281545,0,
00:00:00.572,0.00273568904958665,0.0021491062361747,-0.000942288315854967,0,
00:00:00.576,0.0049284459091723,0.0187417287379503,-0.00023065714049152997,0,
00:00:00.58,0.00398062821477652,0.00557601032778621,0.00456043519079685,0,
00:00:00.584,-0.00796793214976788,-0.0188352800905705,0.00549179874360561,0,
00:00:00.588,-0.0139296213164926,-0.0240917280316353,0.0027936352416873,0,
00:00:00.592,-0.0051651825197041,-0.00238495715893805,-0.0111725088208914,0,
00:00:00.596,0.0145437838509679,0.0136358374729753,-0.0015009269118309,0,
00:00:00.6,0.00869690347462893,0.0138782933354378,0.00235932436771691,0,
00:00:00.604,-0.00080012297257781,0.0108476048335433,0.004714868031442171,0,
00:00:00.608,0.00893345288932323,0.00764261651784182,0.00145780097227544,0,
00:00:00.612,-0.0127014741301537,-0.0160183105617762,-0.0036539516877383,0,
00:00:00.616,-0.0151814864948392,-0.0215457752346992,-0.00471548968926072,0,
00:00:00.62,-0.000609035778325051,-0.010080493055284,0.0017419552896171802,0,
00:00:00.624,0.00729587487876415,0.00964567624032497,0.005050612147897479,0,
00:00:00.628,0.0120878238230944,0.0318784117698669,-0.00022265275765676097,0,
00:00:00.632,0.0024668744299560803,0.000968490377999842,-0.00154697173275054,0,
00:00:00.636,-0.00519392499700189,-0.0146423019468784,-0.0052636512555182,0,
00:00:00.64,-0.00253383303061128,-0.00395261542871594,0.00575833255425096,0,
00:00:00.644,0.00263847433961928,-0.0074021001346409295,0.00785408541560173,0,
00:00:00.648,-0.006772039458155629,0.00336677022278309,-0.00673525175079703,0,
00:00:00.652,-0.00757527025416493,-0.00346859823912382,-0.00853286776691675,0,
00:00:00.656,0.0118082854896784,0.0125595554709435,0.00031329711782746,0,
00:00:00.66,0.0117361079901457,0.0191181153059006,0.00175018759910017,0,
00:00:00.664,-0.008970934897661209,-0.0141130052506924,0.00967317540198565,0,
00:00:00.668,-0.0172999445348978,-0.024775717407465,-0.000722255965229124,0,
00:00:00.672,0.007395319174975159,-0.00107349781319499,-0.00551254069432616,0,
00:00:00.676,0.0052342079579830204,0.007038970012217759,0.00152815377805382,0,
00:00:00.68,0.00550406193360686,0.0113233206793666,-0.00101039092987776,0,
00:00:00.684,0.0117744468152523,0.0022739956621080602,-0.000799217377789319,0,
00:00:00.688,-0.0202609915286303,-0.000169257997185923,6.96148272254504e-05,0,
00:00:00.692,-0.0118282297626138,0.00132222298998386,0.000622787105385214,0,
00:00:00.696,0.0111966393887997,-0.00084318540757522,0.00065520778298378,0,
00:00:00.7,0.0190136078745127,0.00786037649959326,0.000354794901795685,0,
00:00:00.704,-0.0007160109817050401,2.89511135633802e-05,0.00207391451112926,0,
00:00:00.708,-0.0178642962127924,-0.0256305802613497,-0.00012616824824363001,0,
00:00:00.712,-0.00734131084755063,-0.0110053112730384,-0.00596260139718652,0,
00:00:00.716,0.00234566093422472,0.0153472861275077,-2.64940081251552e-05,0,
00:00:00.72,0.0106698460876942,0.00466338498517871,0.00225263042375445,0,
00:00:00.724,0.00376520259305835,0.00511101866140962,0.00209008925594389,0,
00:00:00.728,-0.000833780155517161,0.0236410684883595,0.0029726754873991,0,
00:00:00.732,0.00147280923556536,0.0053524654358625395,-0.0022215859498828697,0,
00:00:00.736,-0.00428532809019089,-0.0271170530468225,-0.00453541567549109,0,
00:00:00.74,-0.00433571171015501,-0.0247462578117847,0.00515519874170423,0,
00:00:00.744,-0.0121810967102647,-0.005898737348616121,-0.0039743548259139104,0,
00:00:00.748,0.00647194078192115,0.0157236345112324,0.00194160919636488,0,
00:00:00.752,0.0162576828151941,0.0189776364713907,-0.000678286771290004,0,
00:00:00.756,0.0020432814490050103,0.0106331072747707,-0.00252662203274667,0,
00:00:00.76,-0.0087109012529254,-0.00216816528700292,0.0022678375244140603,0,
00:00:00.764,0.00271645910106599,-0.00917102117091417,0.00436097243800759,0,
00:00:00.768,0.00238389777950943,-0.00689601805061102,-0.00128304911777377,0,
00:00:00.772,-0.0113563509657979,-0.0169375874102116,-0.00232567451894283,0,
00:00:00.776,-0.009849937632679941,-0.00812635291367769,-0.00343878963030875,0,
00:00:00.78,0.00639851298183203,0.031119154766202004,0.0018885697936639198,0,
00:00:00.784,0.0137454615905881,0.0227753687649965,0.00439974293112755,0,
00:00:00.788,0.008084091357886791,-0.00856255367398262,0.0010738902492448698,0,
00:00:00.792,-0.00868062302470207,-0.0195374265313149,-0.00604889774695039,0,
00:00:00.796,-0.0061518307775259,-0.0167547482997179,-0.0007956608897075059,0,
00:00:00.8,-0.00662868702784181,-0.00595957459881902,0.00146871933247894,0,
00:00:00.804,0.00442605838179588,0.0107190944254398,0.0016754238167777699,0,
00:00:00.808,0.00930145010352135,0.0182447545230389,0.000900829734746367,0,
00:00:00.812,-0.00177840073592961,0.0130976783111691,1.34414667627425e-05,0,
00:00:00.816,-0.00605924939736724,-0.00590502051636577,-0.000514085229951888,0,
00:00:00.82,0.0037860369775444295,-0.0109003242105246,0.00148219836410135,0,
00:00:00.824,-0.000307414564304054,-0.0119098406285048,-0.00235248217359185,0,
00:00:00.828,-0.005882254336029289,-0.000286133988993242,-0.00172537565231323,0,
00:00:00.832,0.0005803645472042259,0.0135979875922203,-4.98362278449349e-05,0,
00:00:00.836,0.0009046866325661539,0.0018156535224989102,-0.00103594525717199,0,
00:00:00.84,0.00452533783391118,-0.00960209034383297,0.00315687595866621,0,
00:00:00.844,-0.00154677976388484,-0.00403251172974706,0.00648694345727563,0,
00:00:00.848,-0.000492778315674514,-0.0013240355765447,-0.005785149056464429,0,
00:00:00.852,0.0052611082792282104,0.00941740814596415,-0.00250933063216507,0,
00:00:00.856,0.00572669832035899,0.021914154291153,-0.00227983086369932,0,
00:00:00.86,-0.0022927422542125,-0.00202189758419991,0.0028740379493683603,0,
00:00:00.864,-0.00691084237769246,-0.0162021163851023,0.004732956644147629,0,
00:00:00.868,-0.0144485039636493,-0.0239369105547667,-0.0012033574748784301,0,
00:00:00.872,-0.004885522648692129,-0.007052869070321321,-0.00240573193877935,0,
00:00:00.876,0.0114981597289443,0.0213802196085453,-0.0035383228678256295,0,
00:00:00.88,0.0221557952463627,0.0256588608026505,0.00392128527164459,0,
00:00:00.884,-0.00262272334657609,-0.0037151800934225295,0.000370612309779972,0,
00:00:00.888,-0.0095535134896636,-0.0164530146867037,0.0014641558518633199,0,
00:00:00.892,-0.0030689388513565103,-0.00544698862358928,-0.00452821934595704,0,
00:00:00.896,-0.0102667286992073,-0.0037465803325176204,0.00025606053532101203,0,
00:00:00.9,-0.00590143911540508,-0.0037992307916283603,0.00165821507107466,0,
00:00:00.904,0.0139805097132921,0.00532579561695457,0.00126498960889876,0,
00:00:00.908,0.0173473544418812,0.0260713919997215,0.00033375257044099304,0,
00:00:00.912,-0.0038593611679971205,0.0016763984458521,-0.00245822709985077,0,
00:00:00.916,-0.007381790783256291,-0.0150072323158383,0.00134864274878055,0,
00:00:00.92,-0.00665930565446615,-0.00582718988880515,0.00323308748193085,0,
00:00:00.924,-0.009500802494585509,-0.00302393827587366,9.558541933074591e-05,0,
00:00:00.928,0.00206647184677422,-0.0115763545036316,-0.006455705035477879,0,
00:00:00.932,0.00711402576416731,-0.00619630515575409,-0.0027446551248431197,0,
00:00:00.936,0.00628521060571074,0.0153330825269222,0.0038411621935665603,0,
00:00:00.94,0.0067916056141257295,0.0341608710587025,0.0057837157510221,0,
00:00:00.944,0.00140272488351911,0.00312258838675916,0.0013995205517858302,0,
00:00:00.948,-0.00980588793754578,-0.0271013174206018,-0.004418697208166121,0,
00:00:00.952,-0.0036530077923089296,-0.0116462232545018,-0.00553347077220678,0,
00:00:00.956,-0.00582547392696142,-0.009208813309669491,-0.000787223398219794,0,
00:00:00.96,-0.00475892564281821,-0.006575102452188729,0.00493726786226034,0,
00:00:00.964,0.0118687823414803,0.0270094256848097,0.00781561993062496,0,
00:00:00.968,0.00616624299436808,0.00156652042642236,-0.0033501160796731697,0,
00:00:00.972,-0.00595798436552286,-0.0027257821056991803,-0.00691138068214059,0,
00:00:00.976,-0.0032690349034965,0.00107571692205966,-0.00459771137684584,0,
00:00:00.98,0.00546310190111399,0.00281710806302726,0.00796404294669628,0,
00:00:00.984,0.00551037257537246,-0.00270129158161581,0.0052844500169158,0,
00:00:00.988,-0.0026234963443130302,0.000857695064041764,-0.00237919809296727,0,
00:00:00.992,-0.00459052389487624,-0.00158423429820687,-0.00361798610538244,0,
00:00:00.996,-0.00305491732433438,-0.00938516575843096,-0.004094597417861221,0,
00:00:01,-0.00473281461745501,-0.00282522500492632,-0.000129677588120103,0,
00:00:01.004,0.007215943653136491,0.00806999858468771,0.00683395750820637,0,
00:00:01.008,0.00510588753968477,0.0125235076993704,0.00528278527781367,0,
00:00:01.012,-0.00613221758976579,-0.0109426407143474,-0.00755508011206985,0,
00:00:01.016,0.0050619086250662795,-0.0035058930516243,-0.00531084928661585,0,
00:00:01.02,-0.00227726995944977,0.011329879052937001,0.00419390387833118,0,
00:00:01.024,-0.00492767943069339,-0.00545525411143899,0.00138628063723445,0,
00:00:01.028,-0.00113145622890443,-0.012586141936481,-0.0018178452737629398,0,
00:00:01.032,0.000158117749379016,-0.00225581205449998,0.0018554778071120399,0,
00:00:01.036,0.0113067263737321,0.0148756271228194,0.00145391840487719,0,
00:00:01.04,0.0101783275604248,0.01511743478477,3.16852419928182e-05,0,
00:00:01.044,-0.0163088627159595,0.00138529459945858,-0.000921726983506233,0,
00:00:01.048,-0.0101148001849651,-0.0213722325861454,-0.0010531451553106301,0,
00:00:01.052,-0.000812860729638487,-0.0177785195410252,-0.00477785477414727,0,
00:00:01.056,-0.00128832214977592,0.0020388790871948,0.0059578251093626,0,
00:00:01.06,0.0159250404685736,0.0075610657222569,0.00369487539865077,0,
00:00:01.064,0.000401237426558509,0.01516701746732,-0.0007768391515128309,0,
00:00:01.068,-0.00450025778263807,0.00862388778477907,-0.007257210090756421,0,
00:00:01.072,0.00474851857870817,-0.006697446573525671,-0.00302525446750224,0,
00:00:01.076,0.0100049367174506,0.0124059645459056,0.00192337634507567,0,
00:00:01.08,-0.0105077289044857,-0.00316910911351442,0.0080872280523181,0,
00:00:01.084,-0.0128093222156167,-0.0253377687186003,0.0012330454774200901,0,
00:00:01.088,0.000317408615956083,-0.0105667309835553,-8.698325109435251e-05,0,
00:00:01.092,0.000172620188095607,0.00222661718726158,-0.00675358204171062,0,
00:00:01.096,0.0056605939753353604,0.0170693527907133,-0.00339504750445485,0,
00:00:01.1,0.0111365178599954,0.0176293682307005,0.00525382533669472,0,
00:00:01.104,-0.00412658555433154,-0.00879879202693701,0.00136314134579152,0,
00:00:01.108,-0.007951372303068641,-0.0104452380910516,-0.000348154018865898,0,
00:00:01.112,-0.000718999188393354,-0.00609894562512636,-0.00281746545806527,0,
00:00:01.116,-0.0039780200459063105,0.00791776645928621,0.00147203193046153,0,
00:00:01.12,0.00825540535151958,0.00175550347194076,0.00152522150892764,0,
00:00:01.124,0.0039636609144508795,0.002222751500085,0.000330216134898365,0,
00:00:01.128,0.00857859198004007,0.00209076376631856,0.00146584445610642,0,
00:00:01.132,-0.00350248091854155,-0.0015559432795271301,-0.00490912282839417,0,
00:00:01.136,-0.0147328041493893,-0.00760570168495178,-0.00231916224583983,0,
00:00:01.14,-0.00715858722105622,-0.0009916636627167461,0.00539444433525205,0,
00:00:01.144,0.00652515748515725,0.00425666850060225,0.000908335612621158,0,
00:00:01.148,0.00302967801690102,-0.007655027322471141,-0.0009398295660503211,0,
00:00:01.152,0.00298157543875277,0.00369035499170423,-0.00114766345359385,0,
00:00:01.156,0.0024240594357252104,0.0126647166907787,-0.00269530969671905,0,
00:00:01.16,0.00306109245866537,0.0022164792753756,0.00196506083011627,0,
00:00:01.164,0.0037396824918687296,-0.000359509460395202,0.00613940367475152,0,
00:00:01.168,-0.0047765844501555,-0.00162260385695845,-0.00337999034672976,0,
00:00:01.172,-0.0104445470497012,-0.017125491052866,-0.00803543906658888,0,
00:00:01.176,0.00030477810651063903,-0.0077550862915813906,0.00261353864334524,0,
00:00:01.18,0.00110062817111611,0.0040548564866185206,0.00424535712227225,0,
00:00:01.184,0.0024530577939003697,0.0114789316430688,0.00426775962114334,0,
00:00:01.188,0.00253574596717954,0.0101566351950169,-0.0022012705449014898,0,
00:00:01.192,-0.00265431520529091,-0.006521952804178,-0.0093917865306139,0,
00:00:01.196,0.00619751261547208,0.005442667286843061,0.006278435233980421,0,
00:00:01.2,0.00471422309055924,0.0026110368780791803,0.0029646696057170603,0,
00:00:01.204,-0.0083202114328742,-0.0173436030745506,0.00198109750635922,0,
00:00:01.208,-0.0101480642333627,-0.008233004249632359,-0.0014803399099037099,0,
00:00:01.212,0.0057124262675643,0.0122534809634089,-0.00726393098011613,0,
00:00:01.216,0.00873056706041098,0.0138945681974292,-0.0026901108212769,0,
00:00:01.22,0.0046695051714777894,-0.0065678576938808,0.00437326496466994,0,
00:00:01.224,-0.00693624839186668,-0.0117664029821754,0.00634834449738264,0,
00:00:01.228,-0.00427479576319456,0.0117829255759716,-0.0024263709783554103,0,
00:00:01.232,-0.00800788681954145,-0.00267692166380584,-0.00250750337727368,0,
00:00:01.236,0.00410988042131066,-0.0064657432958483705,0.0016480424674227801,0,
00:00:01.24,0.00205404893495142,-0.00584835885092616,0.00318390177562833,0,
00:00:01.244,0.0075414413586258906,0.012888889759778999,-0.000231697209528647,0,
00:00:01.248,0.0117833930999041,0.00755704566836357,-0.00471898866817355,0,
00:00:01.252,-0.009444497525691991,-0.007831776514649391,-0.00488963909447193,0,
00:00:01.256,-0.0167362801730633,-0.0087272310629487,0.00222646538168192,0,
00:00:01.26,0.0037936426233500203,0.0069906939752399895,0.0036771933082491203,0,
00:00:01.264,0.006820544134825471,0.00251258094795048,0.00230300240218639,0,
00:00:01.268,0.00343573349528015,-0.00314694410189986,-0.0017449768492952,0,
00:00:01.272,-0.00242787855677307,-0.000303253473248333,0.000995302107185125,0,
00:00:01.276,-0.00853980239480734,-0.0103860218077898,0.00034305127337575,0,
00:00:01.28,0.00745088513940573,0.00140005827415735,-0.0007232495117932559,0,
00:00:01.284,0.00580517388880253,0.0180222541093826,0.0030467764008790302,0,
00:00:01.288,-0.006118044257164001,0.0117211239412427,-0.006820032838732,0,
00:00:01.292,-0.00173919973894954,-0.0191752202808857,0.00056509644491598,0,
00:00:01.296,0.0029635017272085,-0.0116609940305352,-0.00248428201302886,0,
00:00:01.3,0.00164644315373152,0.00784932170063257,0.00266341376118362,0,
00:00:01.304,0.00566235976293683,0.00647819647565484,0.00306834001094103,0,
00:00:01.308,-0.00756788440048695,-0.00571010541170836,0.0014373008161783199,0,
00:00:01.312,-0.0063508441671729105,0.00273117027245462,-0.0023717514704912897,0,
00:00:01.316,-0.0031600832007825396,-0.00476285768672824,0.000771927763707936,0,
00:00:01.32,0.0089356554672122,0.0048020468093454794,0.00251847179606557,0,
00:00:01.324,0.00354509940370917,-0.00548759987577796,-0.0024594785645604103,0,
00:00:01.328,-0.0066805318929255,0.00073795288335532,-0.000457048270618543,0,
00:00:01.332,-0.000351265363860875,0.00562419276684523,-0.00491637783125043,0,
00:00:01.336,0.0007270730566233401,-0.0051435371860861796,0.00096975255291909,0,
00:00:01.34,0.00682125147432089,0.00323904026299715,0.00270448392257094,0,
00:00:01.344,0.00493523851037025,0.0183357689529657,0.00204296852461994,0,
00:00:01.348,0.00438852002844214,0.003994591534137729,0.000609892245847732,0,
00:00:01.352,-0.0135407708585262,-0.0286037363111973,-0.00260079163126647,0,
00:00:01.356,-0.0120984604582191,-0.0167405549436808,0.0010189728345722,0,
00:00:01.36,-0.0032866904512047802,0.00872284732758999,0.00293398438952863,0,
00:00:01.364,0.0126807279884815,0.00711161270737648,-5.78249782847706e-05,0,
00:00:01.368,0.009814797900617121,0.00162453588563949,-0.0043824603781104105,0,
00:00:01.372,-7.75445296312682e-05,0.0200169384479523,-0.00463324086740613,0,
00:00:01.376,-0.0120324548333883,-0.00116504938341677,0.00022503163199871803,0,
00:00:01.38,0.00226308428682387,-0.0036304942332208204,0.00764877256006002,0,
00:00:01.384,0.01091334130615,-0.0022974603343755,0.00390198081731796,0,
00:00:01.388,0.00047913400339894,-0.00987005978822708,-0.00323264067992568,0,
00:00:01.392,-0.007460291031748059,-0.00829468294978142,-0.0037017040885984898,0,
00:00:01.396,-0.00792305450886488,0.0019439704483375,-0.00373441050760448,0,
00:00:01.4,0.0026758690364658802,0.0118388487026095,0.00442815478891134,0,
00:00:01.404,0.00171880272682756,0.00510096736252308,0.00309900939464569,0,
00:00:01.408,-0.000397189345676452,-0.0149698778986931,-0.00216644629836082,0,
00:00:01.412,0.00953665375709534,-0.00199098652228713,-0.00411315402016044,0,
00:00:01.416,-0.00572626804932952,0.00516743445768952,0.00155801232904196,0,
00:00:01.42,-0.0049218828789889795,0.00809452682733536,0.0024364390410482896,0,
00:00:01.424,0.0017514209030196099,0.00124955817591399,0.00333980773575604,0,
00:00:01.428,0.000689060834702104,-0.0018160734325647397,-0.00211281888186932,0,
00:00:01.432,0.005467587616294621,0.00378313660621643,-0.00462633091956377,0,
00:00:01.436,0.0015702759847044901,-0.0014486921718344099,0.00293451361358166,0,
00:00:01.44,-0.0106966197490692,-0.00944495294243097,-1.58683997142361e-05,0,
00:00:01.444,0.0063694496639072895,-0.00932803470641375,0.0016000404721126,0,
00:00:01.448,0.00419578142464161,0.00288373837247491,-0.00416687922552228,0,
00:00:01.452,-0.00756122218444943,0.00758481305092573,-0.00150228186976165,0,
00:00:01.456,-0.0064449505880475,0.0103978952392936,0.00792703777551651,0,
00:00:01.46,0.00316856126300991,0.00251095136627555,-0.0010726809268817301,0,
00:00:01.464,0.0118919769302011,-0.00637656636536121,-0.000817688181996346,0,
00:00:01.468,-5.39250540896319e-05,-0.0105494055896997,-0.00367794628255069,0,
00:00:01.472,-0.004154588561505079,-0.0009664944373071189,-0.00375946727581322,0,
00:00:01.476,-0.00575073948130012,0.0059027182869613205,0.00272613437846303,0,
00:00:01.48,0.0004912783042527741,0.0106081273406744,0.0035108949523419103,0,
00:00:01.484,0.00212700688280165,-0.00719099678099155,0.00386506132781506,0,
00:00:01.488,0.0036511512007564298,-0.00668852962553501,0.0020031621679663697,0,
00:00:01.492,-0.0035999538376927397,0.0008391351439058781,-0.008930382318794729,0,
00:00:01.496,-0.0041960827074945,-0.00336459139361978,-0.0048900246620178205,0,
00:00:01.5,0.006839170586317779,0.0101096034049988,0.00541376881301403,0,
00:00:01.504,0.00806117430329323,0.00768484082072973,0.004541528876870871,0,
00:00:01.508,-0.00927185639739037,-0.00769700203090906,-0.00124256953131407,0,
00:00:01.512,-0.00717779714614153,-0.0028851015958935,-0.00395414512604475,0,
00:00:01.516,0.005704828538000579,0.00256918906234205,0.00118104112334549,0,
00:00:01.52,-0.00416826643049717,-0.0109883956611156,0.00190431880764663,0,
00:00:01.524,-0.000607019755989313,-0.007726543582975859,0.00502265384420753,0,
00:00:01.528,0.0097667220979929,0.008877186104655271,-0.0042288699187338396,0,
00:00:01.532,0.00258101057261229,0.0214027687907219,-0.00619965372607112,0,
00:00:01.536,0.00190310378093272,0.00836239382624626,0.000844276219140738,0,
00:00:01.54,-0.00558823300525546,-0.0184780862182379,0.00295028113760054,0,
00:00:01.544,-0.0142186218872666,-0.0148411504924297,0.004345928784459829,0,
00:00:01.548,0.0051497491076588605,-0.00302202138118446,-0.0012819764669984599,0,
00:00:01.552,0.00512817641720176,0.00350898411124945,-0.000129900829051621,0,
00:00:01.556,0.00308512011542916,0.0118777193129063,-0.0052719288505613795,0,
00:00:01.56,0.0027762304525822397,0.00707830721512437,0.00031959218904376003,0,
00:00:01.564,-0.00496406573802233,0.00199380679987371,0.00420424621552229,0,
00:00:01.568,-0.00108826928772032,-0.00842420384287834,0.0018396943341940602,0,
00:00:01.572,0.000376402807887644,-0.00449929758906364,-0.00303062726743519,0,
00:00:01.576,0.000601500913035125,0.00277563743293285,-0.00219719833694398,0,
00:00:01.58,-0.00173475581686944,-0.0032605365850031398,-0.000108911488496233,0,
00:00:01.584,0.00407963572070003,0.000328338268445805,0.00536169856786728,0,
00:00:01.588,-0.000481852097436786,-0.00508844340220094,-0.00259131239727139,0,
00:00:01.592,-0.0016342673916369698,0.0005859165685251361,-0.0025243400596082198,0,
00:00:01.596,0.000960347708314657,0.0112582668662071,-0.00034021376632154,0,
00:00:01.6,-0.00631598802283406,-0.0007244131411425769,0.00329460250213742,0,
00:00:01.604,0.000684580707456917,0.00797021575272083,-0.00048601074377074805,0,
00:00:01.608,0.009850045666098591,0.0035585486330092,0.00130583625286818,0,
00:00:01.612,-0.000682868470903486,-0.0260456632822752,-0.00418627541512251,0,
00:00:01.616,-0.00364266056567431,-0.00998290535062552,0.000660353514831513,0,
00:00:01.62,-0.000662766513414681,0.0168017465621233,0.00392128434032202,0,
00:00:01.624,-0.0027073118835687603,0.00289430399425328,-0.00285869301296771,0,
00:00:01.628,-0.002933653537184,0.00381462718360126,0.00667206011712551,0,
00:00:01.632,0.00101388024631888,0.0169440917670727,-0.0050718104466795895,0,
00:00:01.636,0.0054489532485604295,-0.005477858241647479,-0.0067486707121133796,0,
00:00:01.64,0.00320379110053182,-0.0190668124705553,0.00318994629196823,0,
00:00:01.644,-0.00021778824157081498,-0.00998456124216318,0.00373800727538764,0,
00:00:01.648,-0.004292622674256561,-0.00430732639506459,-0.000755073328036815,0,
00:00:01.652,0.0037762850988656295,0.0161268059164286,-0.0008951253257691859,0,
00:00:01.656,-0.00778444902971387,0.0107562951743603,-1.3954815585748301e-05,0,
00:00:01.66,0.0007543632527813321,0.0110333673655987,0.000537021143827587,0,
00:00:01.664,0.00279625412076712,-0.00685822358354926,0.00260055996477604,0,
00:00:01.668,0.00812922883778811,-0.0114706447347999,0.000293288205284625,0,
00:00:01.672,-0.007640722673386341,-0.0140273813158274,-0.0037668799050152297,0,
00:00:01.676,-0.00570137146860361,0.00425584148615599,-6.48252171231434e-05,0,
00:00:01.68,0.00215899548493326,0.00364749925211072,-0.00161108502652496,0,
00:00:01.684,0.0037227503489702897,0.000546948751434684,0.0021363974083215,0,
00:00:01.688,0.0022701905108988302,0.009958432056009771,-0.000514357059728354,0,
00:00:01.692,-0.0018419964471831898,0.0092302979901433,-1.3094049791107e-05,0,
00:00:01.696,0.0071288705803453905,-0.00571369240060449,0.000728485523723066,0,
00:00:01.7,-0.0097795408219099,-0.0106053780764341,0.0029083467088639697,0,
00:00:01.704,-0.00791726820170879,-0.00736556435003877,0.000521654495969415,0,
00:00:01.708,0.00553881609812379,0.0029107341542840004,-0.00164049677550793,0,
00:00:01.712,0.0131853967905045,0.0140582164749503,-0.00836882181465626,0,
00:00:01.716,0.0035974571947008397,0.00869034323841333,0.00251022027805448,0,
00:00:01.72,-0.005311978980898861,-0.0193740501999855,0.00467275781556964,0,
00:00:01.724,-0.0162224695086479,-0.0201656743884087,0.0089951865375042,0,
00:00:01.728,-0.00368594843894243,0.00555139826610684,-0.00372065370902419,0,
00:00:01.732,0.0114706754684448,0.0301331467926502,-0.0104840705171227,0,
00:00:01.736,0.00168533739633858,0.0216666199266911,-0.0019726490136236,0,
00:00:01.74,0.000259881984675303,-0.0227999575436115,0.00286984676495194,0,
00:00:01.744,0.0027372355107218,-0.0284739639610052,0.0101016778498888,0,
00:00:01.748,0.000784941308666021,-0.00127263285685331,-0.0034383647143840803,0,
00:00:01.752,0.00277522439137101,0.0208402909338474,-0.00446099415421486,0,
00:00:01.756,-0.0061081168241798895,0.00914997234940529,-0.00150643242523074,0,
00:00:01.76,-0.00699057662859559,-0.0127353230491281,0.00110991601832211,0,
00:00:01.764,0.00107424473389983,-0.0140107208862901,0.00408615823835135,0,
00:00:01.768,0.00162782368715852,0.001247065840289,0.00158301286865026,0,
00:00:01.772,0.00291785108856857,0.0234170686453581,-0.00321638188324869,0,
00:00:01.776,0.0026640857104212,0.0114756673574448,-0.00437719188630581,0,
00:00:01.78,0.00536682084202766,-0.00227136816829443,0.0059613324701786,0,
00:00:01.784,-0.00222351541742682,-0.0097059216350317,0.000941695994697511,0,
00:00:01.788,0.00179155042860657,-0.0118785230442882,-0.0037487673107534604,0,
00:00:01.792,-0.00499279098585248,-0.0201229136437178,-0.00209680153056979,0,
00:00:01.796,-0.0159733351320028,-0.0038036098703742,0.0025611766614019897,0,
00:00:01.8,-0.00314745516516268,0.0191788729280233,-0.000176368150277995,0,
00:00:01.804,0.0188297592103481,0.0258832015097141,0.00207772850990295,0,
00:00:01.808,0.00554185919463634,0.00283888936974108,0.00270935683511198,0,
00:00:01.812,0.00329736107960343,-0.0118185039609671,-0.0070552728138864,0,
00:00:01.816,-0.00698702316731215,-0.0117110256105661,-0.0032626590691506897,0,
00:00:01.82,0.00430502090603113,-0.0013329325011,0.0060816197656095,0,
00:00:01.824,-0.009675266221165659,-0.007388509809970859,0.004286460578441621,0,
00:00:01.828,-0.0128910187631845,-0.00368027808144689,0.000107091953395866,0,
00:00:01.832,0.006081244442611929,0.0169474668800831,-0.00456302333623171,0,
00:00:01.836,0.007304282858967779,0.0109784854575992,-0.000763708085287362,0,
00:00:01.84,0.00532820355147123,-0.0023288801312446603,-0.00194403599016368,0,
00:00:01.844,0.00806860998272896,-0.00916970614343882,0.00214315904304385,0,
00:00:01.848,-0.000826007802970707,0.004319150000810621,0.00174650037661195,0,
00:00:01.852,-0.0112696951255202,-0.00451704440638423,-0.0017902429681271302,0,
00:00:01.856,-0.009724535979330541,-0.00954525731503963,-0.00079935893882066,0,
00:00:01.86,0.0032794501166790698,-0.0107976412400603,0.0006683802930638191,0,
00:00:01.864,-0.00483877025544643,-0.00241324095986784,0.0012106166686862698,0,
00:00:01.868,0.0069842976517975296,0.0205245669931173,0.00293487799353898,0,
00:00:01.872,0.0166861861944199,0.0268408358097076,0.000258760643191636,0,
00:00:01.876,0.00049219373613596,0.0042577236890792795,-0.0040161502547562105,0,
00:00:01.88,-0.00286440644413233,-0.0160334277898073,-0.00241473317146301,0,
00:00:01.884,-0.00294082798063755,-0.016158614307642,0.0022665592841804,0,
00:00:01.888,-0.0170909520238638,-0.00584787409752607,0.00176219909917563,0,
00:00:01.892,-0.0132166659459472,-0.014005926437676,-0.00192537112161517,0,
00:00:01.896,0.00870842486619949,0.00268570613116026,-0.0050980937667191,0,
00:00:01.9,0.0250436067581177,0.0163947902619839,0.0066382447257638,0,
00:00:01.904,0.00848742853850126,0.0122204273939133,0.00671834917739034,0,
00:00:01.908,-0.009806253015995029,0.00293384562246501,-0.0021998102311044897,0,
00:00:01.912,-0.0151949357241392,-0.0144023494794965,-0.00686293095350266,0,
00:00:01.916,-0.00349372928030789,-0.0067445426248014,-0.0035480584483593702,0,
00:00:01.92,0.00581150222569704,0.0133969187736511,0.000690546992700547,0,
00:00:01.924,0.00566534185782075,0.0074510793201625295,0.00702067697420716,0,
00:00:01.928,0.00432012183591723,0.00381405069492757,-0.00121782696805894,0,
00:00:01.932,-0.000729380291886628,-0.009070657193660741,-0.00196297140792012,0,
00:00:01.936,-0.00785905122756958,-0.0236148275434971,-0.000527197204064578,0,
00:00:01.94,0.0024096018169075303,-0.000602265761699528,0.0006581002962775531,0,
00:00:01.944,-0.00663842912763357,0.00559937255457044,0.00509505067020655,0,
00:00:01.948,0.000820073706563562,0.00775089533999562,-0.00545987812802196,0,
00:00:01.952,0.00852353312075138,0.0144297713413835,0.000774166779592633,0,
00:00:01.956,0.004210353363305329,0.015591305680573,-0.00106460228562355,0,
00:00:01.96,-0.00348246470093727,-0.010069914162158999,-0.00024640274932608,0,
00:00:01.964,-0.00625108601525426,-0.0266185402870178,0.00485651940107346,0,
00:00:01.968,-6.72155802021734e-05,-0.0111490609124303,-0.000911939423531294,0,
00:00:01.972,0.00186889490578324,0.00795266777276993,-0.00463794823735952,0,
00:00:01.976,-0.00255627487786114,0.0131714288145304,-0.00398837123066187,0,
00:00:01.98,0.00247109029442072,0.0154179763048887,0.0052466387860477,0,
00:00:01.984,0.0050136893987655605,0.00255907862447202,0.00420518359169364,0,
00:00:01.988,0.0117756891995668,-0.00559284491464496,-0.00148346123751253,0,
00:00:01.992,-0.0139794871211052,-0.0141435312107205,-0.00200182967819273,0,
00:00:01.996,-0.0114380326122046,-0.00624396279454231,0.00123110273852944,0,
00:00:02,0.000492275576107204,0.0043946458026766794,-0.0017330750124529,0,
00:00:02.004,0.0012829189654439699,-0.006434224080294371,0.00111470185220242,0,
00:00:02.008,0.00914297252893448,0.00268821511417627,-0.00160095107275993,0,
00:00:02.012,0.00787800271064043,0.00293572503142059,-0.00062322203302756,0,
00:00:02.016,-0.00599049124866724,0.00582822412252426,0.000696623930707574,0,
00:00:02.02,0.00096220662817359,0.0157094988971949,0.00117536948528141,0,
00:00:02.024,0.0034338326659053603,0.0109332846477628,0.00499932980164886,0,
00:00:02.028,-0.00876603368669748,-0.0210462100803852,-0.00375172379426658,0,
00:00:02.032,-0.00405696406960487,-0.0205867439508438,-0.00361010292544961,0,
00:00:02.036,-0.00828706473112106,-0.005224292632192371,-0.0008797027985565359,0,
00:00:02.04,0.0018678308697417398,0.00100473605562001,0.0012532428372651302,0,
00:00:02.044,0.0191448200494051,0.0191014111042023,0.00393248116597533,0,
00:00:02.048,0.00906830374151468,0.0109905498102307,0.00138257653452456,0,
00:00:02.052,-0.0120566971600056,-0.000814735773019493,-0.00331429787911475,0,
00:00:02.056,-0.0059072347357869105,0.00535694696009159,-0.0022719381377100897,0,
00:00:02.06,0.00222522369585931,0.00402741134166718,-6.14290620433167e-05,0,
00:00:02.064,-0.00141710555180907,-0.0244591441005468,0.0054348544217646105,0,
00:00:02.068,-0.00380826042965055,-0.0179325863718987,-0.00255003804340959,0,
00:00:02.072,-0.00474762404337525,-0.005844955332577229,-0.004603317473083729,0,
00:00:02.076,3.87311265512835e-05,0.00761439790949225,0.00160352815873921,0,
00:00:02.08,0.0122576532885432,0.0300825349986553,0.00697628641501069,0,
00:00:02.084,0.0114450259134173,0.0183997359126806,-0.00230809370987117,0,
00:00:02.088,-0.000552342215087265,-0.00683661969378591,-0.0053369808010757,0,
00:00:02.092,-0.012624922208488001,-0.00667533837258816,0.004793482366949321,0,
00:00:02.096,-0.0112752420827746,-0.0114045403897762,-0.0017580873100087,0,
00:00:02.1,0.0023685481864959,-0.0105354767292738,0.00030447932658717004,0,
00:00:02.104,0.00335811055265367,-0.006974680349230771,-0.00206379615701735,0,
00:00:02.108,0.0036597563885152297,-0.0112302852794528,0.00150805769953877,0,
00:00:02.112,0.0004981256206519901,0.005933763924986121,-0.0030189889948815103,0,
00:00:02.116,0.00489861937239766,0.024616964161396,0.00183818791992962,0,
00:00:02.12,-0.0009164717630483211,0.0191732719540596,0.0024742730893194697,0,
00:00:02.124,-0.00684010935947299,-0.0020188931375742,0.00534932035952806,0,
00:00:02.128,0.0059744408354163205,-0.0126654924824834,-0.00214264495298266,0,
00:00:02.132,-0.00143546645995229,-0.0146167678758502,-0.00632002903148532,0,
00:00:02.136,-0.00672065699473023,-0.0127939842641354,-0.0051399152725935,0,
00:00:02.14,0.0027557336725294603,0.00352436094544828,0.0049580093473196,0,
00:00:02.144,0.005734056700021029,0.0189383383840322,0.0045807859860360605,0,
00:00:02.148,-0.000475125620141625,0.00968584325164557,0.00121377827599645,0,
00:00:02.152,-0.0022656319197267303,-0.0064460486173629795,-0.007621696218848229,0,
00:00:02.156,-0.00171793077606708,-0.0125377178192139,0.00376557209528983,0,
00:00:02.16,-0.00254879449494183,-0.00249783997423947,0.0034153985325247,0,
00:00:02.164,0.00453608622774482,0.00750458100810647,0.000164696655701846,0,
00:00:02.168,0.00256129261106253,0.0027085212059319,-0.00407888367772102,0,
00:00:02.172,-0.0048760212957859,0.00180175586137921,-0.00440623005852103,0,
00:00:02.176,-0.0025174070615321398,-0.0054759057238698,0.00231741345487535,0,
00:00:02.18,0.00315490528009832,-0.00510109961032867,0.0054975808598101104,0,
00:00:02.184,0.00279498961754143,0.00691682379692793,0.0020067577715963104,0,
00:00:02.188,0.00481428159400821,0.0065870163962245,-0.0015455010579899,0,
00:00:02.192,-0.00494088372215629,-0.0066682896576821795,-0.00494122551754117,0,
00:00:02.196,-0.00891316588968039,-0.0072527686133980794,-0.00435307854786515,0,
00:00:02.2,0.000468545506009832,-0.00248340098187327,0.00286190188489854,0,
00:00:02.204,0.0128760151565075,0.0104892598465085,0.0060654832050204294,0,
00:00:02.208,0.0005067862221039831,0.0212632697075605,0.00232235714793205,0,
00:00:02.212,-0.0128333428874612,-0.00996393524110317,-0.0036017328966409,0,
00:00:02.216,-0.000601895502768457,-0.0199015326797962,-0.00521025666967034,0,
00:00:02.22,0.0065738954581320294,-0.0175376646220684,0.0032066949643194697,0,
00:00:02.224,0.0106937820091844,0.0025888285599649,0.0026619047857821,0,
00:00:02.228,-0.00351411988958716,0.0254196468740702,-0.0019800674635916896,0,
00:00:02.232,-0.0112921250984073,0.0195936486124992,-0.0036877018865197897,0,
00:00:02.236,-0.007081108633428809,-0.0044228145852685,0.00398085080087185,0,
00:00:02.24,0.006286574061959979,-0.019371185451746004,0.000591826683375984,0,
00:00:02.244,0.0113192638382316,-0.00501992413774133,-0.00044112885370850596,0,
00:00:02.248,0.00340265338309109,0.00482363253831863,0.0016067523974925301,0,
00:00:02.252,-0.0121779283508658,-0.0037511819973588,-0.00218474376015365,0,
00:00:02.256,-0.00450132181867957,0.000737040827516466,-0.0037060414906591203,0,
00:00:02.26,0.004001593682914971,-0.007903945632278921,0.00397500908002257,0,
00:00:02.264,0.00651075225323439,0.007942792028188709,0.00266821379773319,0,
00:00:02.268,0.00197231839410961,0.0111401993781328,-0.0044676261022687,0,
00:00:02.272,-0.0125306993722916,-0.006393930409103629,0.00198715948499739,0,
00:00:02.276,0.00225206976756454,0.0068528801202774,-0.000667277025058866,0,
00:00:02.28,0.0138474134728312,0.0189538225531578,0.00150512903928757,0,
00:00:02.284,0.0016982262022793302,-0.0176304783672094,0.00022787376656197,0,
00:00:02.288,-0.0165373906493187,-0.0336824394762516,-0.00308912480250001,0,
00:00:02.292,-0.00155530183110386,0.00646537682041526,-0.00340612209402025,0,
00:00:02.296,0.0101715428754687,0.0257763620465994,0.0049198637716472106,0,
00:00:02.3,-0.00399373145774007,-0.00597414514049888,0.00144943047780544,0,
00:00:02.304,-0.00312023679725826,-0.0107780275866389,0.00202826270833611,0,
00:00:02.308,-0.00125135446432978,0.0040909689851105204,-0.0025199579540640103,0,
00:00:02.312,0.00702240830287337,0.0139347398653626,-0.004259693901985879,0,
00:00:02.316,0.00647077243775129,0.0112869031727314,0.00146337924525142,0,
00:00:02.32,-0.0043988679535687,-0.0145308142527938,0.0065284431912004896,0,
00:00:02.324,0.00548879662528634,-0.0152791477739811,-0.0027024256996810397,0,
00:00:02.328,-0.0118049876764417,0.00038552438491024104,-0.00547480350360274,0,
00:00:02.332,-0.00537191331386566,0.00777174485847354,0.000753925938624889,0,
00:00:02.336,0.00108189880847931,0.009319521486759191,0.004502037074416879,0,
00:00:02.34,0.00422638561576605,-0.00951644964516163,0.0018297521164640802,0,
00:00:02.344,0.00194019032642245,-0.00779427168890834,-0.00323290470987558,0,
00:00:02.348,0.0018956380663439601,0.00575431250035763,-0.00449320115149021,0,
00:00:02.352,0.00347402901388705,0.0153934508562088,0.00174086727201939,0,
00:00:02.356,0.00458637392148376,0.007785121444612741,0.0028436603024601897,0,
00:00:02.36,-0.0040790936909616,-0.0214061364531517,0.0036802461836487103,0,
00:00:02.364,-0.0122583340853453,-0.0199148878455162,0.000103416947240476,0,
00:00:02.368,6.44662286504172e-05,0.0151510080322623,-0.00457063131034374,0,
00:00:02.372,0.00853479467332363,0.0188033394515514,-0.00497203366830945,0,
00:00:02.376,-0.00206927605904639,-0.0104547934606671,0.0019812949467450398,0,
00:00:02.38,-0.00168709084391594,-0.00420607021078467,0.00339869223535061,0,
00:00:02.384,0.000797470915131271,-0.00155217142309994,0.0041758497245609795,0,
00:00:02.388,0.00407362310215831,0.00636561308056116,-0.00172824808396399,0,
00:00:02.392,0.00582805555313826,0.00983219500631094,-0.00468122074380517,0,
00:00:02.396,-0.005097350571304561,-0.0046991789713501896,0.000565443478990346,0,
00:00:02.4,-0.00563838332891464,-0.0142463501542807,0.00372636783868074,0,
00:00:02.404,-0.000213502338738181,0.00293384189717472,-0.000995110021904111,0,
00:00:02.408,-0.0010357965948060198,-0.0017840635264292398,-0.00161535758525133,0,
00:00:02.412,-0.00339318974874914,-0.0029798594769090397,-0.000710689637344331,0,
00:00:02.416,0.007987216114997859,0.00550501840189099,0.00025006485520862,0,
00:00:02.42,0.0031461485195905,0.0170582421123981,0.000688285974320024,0,
00:00:02.424,0.00166992051526904,0.00194852135609835,0.00268173520453274,0,
00:00:02.428,-0.00605643913149834,-0.0102718714624643,0.000363262632163242,0,
00:00:02.432,-0.00161702546756715,-0.0120074609294534,-0.00576524250209332,0,
00:00:02.436,-0.00164421799127012,-0.00847485847771168,-0.00216776365414262,0,
00:00:02.44,0.00503040943294764,0.00684050610288978,0.0061090043745935,0,
00:00:02.444,0.0066375145688653,0.0111995227634907,0.00364429922774434,0,
00:00:02.448,-0.0133484965190291,-0.000934958748985082,-0.000571926939301193,0,
00:00:02.452,-0.0022028882522136,0.004683775827288629,-0.00696972850710154,0,
00:00:02.456,0.0100732753053308,0.00464794971048832,-0.000797482614871114,0,
00:00:02.46,-0.0032333757262677,-0.0179182253777981,0.00197268463671207,0,
00:00:02.464,-0.00438413489609957,-0.0144911026582122,0.0042831068858504295,0,
00:00:02.468,0.0113738980144262,0.0229442492127419,-0.00286909146234393,0,
00:00:02.472,0.0109102549031377,0.0299954917281866,0.00241338298656046,0,
00:00:02.476,-0.0140590006485581,-0.0126282889395952,-0.00536269694566727,0,
00:00:02.48,-0.0186582412570715,-0.0384187176823616,0.00459482939913869,0,
00:00:02.484,0.000940455531235784,-0.0100803906098008,0.000797296001110226,0,
00:00:02.488,0.0155507931485772,0.0175977014005184,-0.0009643989033065741,0,
00:00:02.492,0.0049197138287127,0.0179124008864164,-0.0012183561921119699,0,
00:00:02.496,-0.00291625154204667,0.0076795215718448205,0.00137510744389147,0,
00:00:02.5,-0.000915190496016294,-0.0021635720040649197,-0.00202619866468012,0,
00:00:02.504,-0.0009292592294514179,-0.00272622122429311,-0.0012820664560422301,0,
00:00:02.508,0.0051555912941694294,0.0020505059510469398,0.000266238232143223,0,
00:00:02.512,-0.000514563114847988,-0.0204678904265165,0.00114019890315831,0,
00:00:02.516,-0.0215350016951561,-0.0205659810453653,-0.00096688506891951,0,
00:00:02.52,-0.00164412800222635,0.009988282807171341,0.004599694628268479,0,
00:00:02.524,0.0186072885990143,0.0212953723967075,0.00168096541892737,0,
00:00:02.528,0.0119064403697848,0.0263590980321169,-0.00385926244780421,0,
00:00:02.532,-2.9112725314917e-05,0.000386347353924066,-0.00312340701930225,0,
00:00:02.536,-0.00721315946429968,-0.019954651594161998,-0.00273203337565064,0,
00:00:02.54,-0.0120074860751629,-0.023766353726387,0.0052184909582138105,0,
00:00:02.544,-0.00252270791679621,-0.00264470116235316,0.00340676284395158,0,
00:00:02.548,0.00508034275844693,0.00816048681735992,-0.00435930630192161,0,
00:00:02.552,0.00245597283355892,0.0076945498585701,-0.00038229604251682796,0,
00:00:02.556,-0.000567254144698381,0.00386763899587095,-0.00115467223804444,0,
00:00:02.56,0.000697699375450611,0.00671142851933837,0.00485828192904592,0,
00:00:02.564,0.0037265932187438,0.00534290075302124,0.00197435263544321,0,
00:00:02.568,0.00350549584254622,-0.0035552310291677705,-0.0036810014862567204,0,
00:00:02.572,-0.0032139017712324897,-0.0165325589478016,-0.00722311763092875,0,
00:00:02.576,-0.0019126306287944302,-0.00326270493678749,0.0074193486943841,0,
00:00:02.58,-0.00612528482452035,0.0036745716352015703,0.00045168527867645,0,
00:00:02.584,0.00045404105912894005,0.00729593634605408,0.0007754591642878951,0,
00:00:02.588,0.00698664830997586,-0.0025775653775781397,-0.00079023971920833,0,
00:00:02.592,-0.00559610268101096,0.00119358324445784,-0.00574630172923207,0,
00:00:02.596,-0.00033551669912412795,0.00618967646732926,-0.0014648513169959198,0,
00:00:02.6,0.00879905745387077,-0.0028758468106389,0.0068624340929091,0,
00:00:02.604,0.00296437321230769,0.000588634691666812,0.00198394153267145,0,
00:00:02.608,-0.0138109540566802,0.00496098957955837,-0.000661599158775061,0,
00:00:02.612,0.000164025346748531,-0.0105935521423817,-0.0035984355490654703,0,
00:00:02.616,0.0020242258906364398,-0.0154671352356672,0.000723511504475027,0,
00:00:02.62,0.0051024002023041205,0.00823865551501513,0.00110333622433245,0,
00:00:02.624,0.00659473752602935,0.013587505556643,0.00442641507834196,0,
00:00:02.628,-0.00470556411892176,0.00610316032543778,-0.00437979307025671,0,
00:00:02.632,-0.00560449715703726,0.00218672724440694,-0.00597713375464082,0,
00:00:02.636,-0.000401264376705512,-0.0117453569546342,0.00121700658928603,0,
00:00:02.64,-0.00335300620645285,-0.0147215686738491,0.0032643706072121898,0,
00:00:02.644,-0.00366745004430413,-0.00346428412012756,0.00242102099582553,0,
00:00:02.648,0.0115418517962098,0.0146913267672062,0.00276202382519841,0,
00:00:02.652,0.00914422329515219,0.0223504435271025,-0.00263470783829689,0,
00:00:02.656,-0.0091062318533659,-0.00903292838484049,-0.00486797001212835,0,
00:00:02.66,-0.00522332079708576,-0.008276651613414291,0.000874918536283076,0,
00:00:02.664,0.00755571201443672,-0.00137005571741611,0.0021053901873529,0,
00:00:02.668,-0.00191389792598784,-0.00380078330636024,0.00131508393678814,0,
00:00:02.672,-0.012421122752129999,-0.00639711879193783,0.00221750279888511,0,
00:00:02.676,0.00751490611582994,-0.00400992855429649,-0.00257498933933675,0,
00:00:02.68,0.00671717245131731,0.0194567497819662,-0.00237968564033508,0,
00:00:02.684,-0.00332084577530622,0.00537162693217397,-0.000645845604594797,0,
00:00:02.688,-0.0116584105417132,-0.0146724227815866,0.000753146887291223,0,
00:00:02.692,0.0072592725045979,-0.0055145132355392,-0.0008664132910780611,0,
00:00:02.696,0.0121014686301351,0.00698955543339252,0.00494925165548921,0,
00:00:02.7,-0.00141771323978901,0.0122862914577127,-4.65724406240042e-05,0,
00:00:02.704,-0.00552253564819694,-0.00046768513857387,0.000390949018765241,0,
00:00:02.708,-0.00434000324457884,-0.0153158791363239,-0.00550572294741869,0,
00:00:02.712,-0.0014215192059055,-0.0114397974684834,-0.00230720173567533,0,
00:00:02.716,0.0009471554658375679,0.0110946604982018,0.00572632905095816,0,
00:00:02.72,0.00604126183316112,0.0194190517067909,0.00331665691919625,0,
00:00:02.724,-0.00236500566825271,-0.00627226801589131,-0.0027573176193982397,0,
00:00:02.728,-0.008815557695925241,-0.009365588426589971,-0.0048965443857014205,0,
00:00:02.732,0.00335497315973043,-0.008429421111941341,0.00104092981200665,0,
00:00:02.736,0.00593222584575415,0.0049725160934031,0.00232910527847707,0,
00:00:02.74,0.0118408612906933,0.0171330105513334,0.00146137143019587,0,
00:00:02.744,-0.00571880396455526,-0.000183185329660773,0.00223877863027155,0,
00:00:02.748,-0.0106408530846238,-0.0186267625540495,-0.00264765531755984,0,
00:00:02.752,-0.00278025539591908,-0.00223323190584779,-0.00455849710851908,0,
00:00:02.756,0.0057934965007007105,0.0065747476182878,-0.000826133938971907,0,
00:00:02.76,-0.00303944922052324,0.0071821715682745,0.00641287164762616,0,
00:00:02.764,0.00723879970610142,0.005383844021707771,0.00313643016852438,0,
00:00:02.768,-0.0037358142435550703,-0.0112918233498931,-0.00335684139281511,0,
00:00:02.772,-0.0116711407899857,-0.0179132521152496,-0.00545051693916321,0,
00:00:02.776,0.0056438660249114,0.00812828633934259,-0.0033726117108017198,0,
00:00:02.78,0.0146498885005713,0.01518882997334,0.00839382875710726,0,
00:00:02.784,0.00682237325236201,0.00984037201851606,0.00505237467586994,0,
00:00:02.788,-0.0132815297693014,-0.00117465481162071,-0.0049557345919311,0,
00:00:02.792,-0.0103696789592505,-0.00971600413322449,-0.00206601759418845,0,
00:00:02.796,0.00247796415351331,-0.00581198651343584,-0.000559863983653486,0,
00:00:02.8,0.000429520616307855,-0.00452845124527812,0.0022670337930321698,0,
00:00:02.804,-0.0017456624191254401,-0.00809491518884897,-0.0015163702191785,0,
00:00:02.808,0.00931635405868292,0.00509697292000055,-0.00122018111869693,0,
00:00:02.812,0.0140053648501635,0.0225717984139919,6.517751171486451e-05,0,
00:00:02.816,-0.0106504447758198,0.00620159320533276,-0.0011799520580098,0,
00:00:02.82,-0.0110309217125177,-0.0155119663104415,0.0029352472629398103,0,
00:00:02.824,0.00260016694664955,-0.00960049405694008,0.00217009685002267,0,
00:00:02.828,-0.00529260793700814,0.00040531883132644,0.00225885468535125,0,
00:00:02.832,0.00412626098841429,0.0159373916685581,-0.005220915190875529,0,
00:00:02.836,0.00923241768032312,-0.00470631895586848,-0.00108868756797165,0,
00:00:02.84,-0.00147471134550869,-0.0166545268148184,0.00264006340876222,0,
00:00:02.844,-0.00572053994983435,-0.0109545569866896,-0.00112103880383074,0,
00:00:02.848,-0.00854869931936264,0.0024537502322346,-0.00109576038084924,0,
00:00:02.852,0.0134888710454106,0.0418516807258129,-0.00212234654463828,0,
00:00:02.856,0.00795692205429077,0.012557890266180002,0.00267330091446638,0,
00:00:02.86,-0.00825291220098734,-0.0210107546299696,0.00244779628701508,0,
00:00:02.864,-0.00327399792149663,-0.0129861496388912,-0.0014259121380746401,0,
00:00:02.868,0.00048856541980058,-0.0188769791275263,0.0053209220059216,0,
00:00:02.872,-0.00462596490979195,-0.00793373305350542,-0.005668993107974529,0,
00:00:02.876,-0.0035474740434438,0.0111217591911554,-0.0020925544667989,0,
00:00:02.88,-0.00208475696854293,0.0139550138264894,0.000126860293676145,0,
00:00:02.884,0.0131098674610257,0.0209857877343893,0.00105336692649871,0,
00:00:02.888,0.00984530802816153,0.004198288545012471,0.00103326071985066,0,
00:00:02.892,-0.0009909907821565869,-0.0102182319387794,-0.0015245204558596,0,
00:00:02.896,-0.0158580206334591,-0.0203081499785185,0.00200896640308201,0,
00:00:02.9,-0.00599923310801387,-0.0077273729257285595,0.00344119360670447,0,
00:00:02.904,0.0065433308482170105,-0.00150390015915036,-0.0021316283382475398,0,
00:00:02.908,0.00387205160222948,0.0111376782879233,-0.00270437262952328,0,
00:00:02.912,-0.00464998697862029,-0.0006213668966665861,-0.00541297532618046,0,
00:00:02.916,0.0037837075069546704,0.0154188517481089,0.00630241306498647,0,
00:00:02.92,0.0101797059178352,0.00842844601720572,0.00236203754320741,0,
00:00:02.924,0.0014319502515718302,-0.0027073353994637697,0.0018061564769595898,0,
00:00:02.928,-0.0101670203730464,-0.0109987147152424,-0.0033097204286605102,0,
00:00:02.932,-0.00976931117475033,-0.0171305537223816,-0.0070121418684721,0,
00:00:02.936,-0.00150599179323763,-0.0139094963669777,0.0052890139631927,0,
00:00:02.94,0.0109160291031003,0.0197186954319477,0.00223933905363083,0,
00:00:02.944,0.00429849373176694,0.0125390775501728,0.00224974635057151,0,
00:00:02.948,-0.0049645523540675605,-0.00680553168058395,-0.00483321351930499,0,
00:00:02.952,-0.00104370003100485,0.007210738025605679,-0.00260929414071143,0,
00:00:02.956,0.000628494773991406,0.0054583563469350295,0.0029465127736329998,0,
00:00:02.96,0.000834964215755463,-0.00907584000378847,0.00468765525147319,0,
00:00:02.964,-0.0016858931630849801,-0.0117270015180111,0.000694368849508464,0,
00:00:02.968,-0.00021044578170403798,0.00431866245344281,-0.00663803145289421,0,
00:00:02.972,0.009471867233514791,0.0122459912672639,-0.00536903971806169,0,
00:00:02.976,-0.00239713722839952,0.0008468932937830691,0.007381286472082141,0,
00:00:02.98,-0.0119191966950893,-0.0117448456585407,0.00311687448993325,0,
00:00:02.984,-0.00218242965638638,-0.0166048109531403,0.0019176712958142198,0,
00:00:02.988,0.00813191011548042,0.00950193963944912,-0.0036331738810986298,0,
00:00:02.992,0.00336341233924031,0.0179114937782288,-0.00327998050488532,0,
00:00:02.996,7.73885913076811e-05,0.0222740396857262,-0.0030886975582689,0,
00:00:03,-0.00146182626485825,-0.0109543511644006,0.00284622749313712,0,
00:00:03.004,0.000499701942317188,-0.0320173799991608,0.00527938874438405,0,
00:00:03.008,-0.0028937268070876603,-0.00335403298959136,-0.0005642383475787941,0,
00:00:03.012,0.00030129821971058797,0.005306326318532229,-0.00409400183707476,0,
00:00:03.016,-0.00384861626662314,-0.0044865617528557795,-0.00151513493619859,0,
00:00:03.02,-0.000389482273021713,0.00961351487785578,0.00537578342482448,0,
00:00:03.024,0.0048315292224288,0.0242459867149591,0.000294369994662702,0,
00:00:03.028,0.00341167650185525,0.00491653755307198,-0.00164133636280894,0,
00:00:03.032,0.00036764197284355803,-0.014017429202795001,-0.0015743094263598301,0,
00:00:03.036,0.00245272787287831,-0.007608644664287571,-0.0027551578823477,0,
00:00:03.04,-0.0060744290240109,-0.0140236020088196,0.00216021854430437,0,
00:00:03.044,-0.00881870370358229,-0.00972135551273823,0.0043321615085005795,0,
00:00:03.048,0.00744898850098252,0.0163382720202208,-0.0012046812335029199,0,
00:00:03.052,0.0015154213178902901,0.018567593768238997,-0.004241974093019961,0,
00:00:03.056,-0.000109241809695959,-0.0040449108928442,-0.00128949654754251,0,
00:00:03.06,-0.00225255149416626,-0.00973725039511919,0.00780991651117802,0,
00:00:03.064,-5.65171758353245e-05,-0.000119283438834827,-0.00139392621349543,0,
00:00:03.068,0.00374792097136378,-0.00867810472846031,-0.00523519283160567,0,
00:00:03.072,-0.000194125997950323,0.014797150157391999,-0.00187583605293185,0,
00:00:03.076,0.00540656223893166,0.0121942358091474,0.00368057121522725,0,
00:00:03.08,0.0019175993511453301,-0.009048959240317341,0.00292992102913558,0,
00:00:03.084,-0.0170540492981672,-0.0158197097480297,0.00259601650759578,0,
00:00:03.088,-0.0030726646073162603,-0.0060702338814735395,-0.00317912176251411,0,
00:00:03.092,0.0134496623650193,0.0121678272262216,-0.0053340164013207,0,
00:00:03.096,-0.00114467169623822,0.00831194594502449,-0.0013497181935235901,0,
00:00:03.1,-0.00236526248045266,-0.0122023858129978,0.00630582170560956,0,
00:00:03.104,0.00196407339535654,-0.00507484329864383,0.00334466714411974,0,
00:00:03.108,0.0036370269954204603,0.0107528893277049,-0.00511645991355181,0,
00:00:03.112,-0.004094619303941729,0.0103518813848495,-0.0032259123399853698,0,
00:00:03.116,-0.000783113529905677,-0.0009637185139581561,0.0046021267771720895,0,
00:00:03.12,-0.0039302692748606205,-0.00573093304410577,-0.00153001793660223,0,
00:00:03.124,0.00631510280072689,-0.00535625405609608,0.00314568309113383,0,
00:00:03.128,0.00349474279209971,0.00161779206246138,-0.00124321423936635,0,
00:00:03.132,0.000858587794937193,-0.00363293918780982,-0.0039160870946943795,0,
00:00:03.136,-0.0116737904027104,-0.0034787154290825103,0.00315816351212561,0,
00:00:03.14,0.0013183398405089998,-0.0005393273895606401,-0.000159886680194177,0,
00:00:03.144,0.00157912552822381,0.0105498246848583,-0.000741447671316564,0,
00:00:03.148,0.0019383723847568,0.0120569160208106,-0.000313334021484479,0,
00:00:03.152,0.00155509659089148,-0.0113033419474959,-0.0018929950892925301,0,
00:00:03.156,-0.00139842345379293,-0.0142007619142532,0.00029196799732744705,0,
00:00:03.16,-0.00441995868459344,-0.0043773902580142,0.0060128066688776,0,
00:00:03.164,0.011089539155364,0.0171351861208677,0.00203584600239992,0,
00:00:03.168,0.0108753954991698,0.0210843533277512,-0.00642636697739363,0,
00:00:03.172,-0.0138763366267085,-0.0106831360608339,-0.00394399603828788,0,
00:00:03.176,-0.0184376463294029,-0.0218231119215488,0.00248250598087907,0,
00:00:03.18,0.00314184371381998,-0.00040653729229234197,0.00290126027539372,0,
00:00:03.184,0.00942242983728647,-0.0029112682677805398,0.00120675098150969,0,
00:00:03.188,0.00506670866161585,0.00402617268264294,0.0016659434186294699,0,
00:00:03.192,-1.35097052407218e-05,0.00786159746348858,-0.00517002260312438,0,
00:00:03.196,0.0059024216607213,0.0147670693695545,-0.0006417094264179469,0,
00:00:03.2,0.00446011731401086,0.006848331540822979,0.00104907480999827,0,
00:00:03.204,-0.008640012703835959,-0.0137759707868099,0.00321776559576392,0,
00:00:03.208,-0.015065330080688,-0.0220095459371805,-0.0034653430338949,0,
00:00:03.212,-0.0018552563851699198,-0.0100706461817026,-0.00174058740958571,0,
00:00:03.216,0.00622030952945352,0.0186064410954714,0.00519657460972667,0,
00:00:03.22,0.0138117615133524,0.0225721765309572,0.000336386205162853,0,
00:00:03.224,0.0049129733815789205,0.00491042993962765,-0.00148439197801054,0,
00:00:03.228,-0.00818749517202377,-0.0135542973875999,-0.00144074263516814,0,
00:00:03.232,-0.0116805285215378,-0.0195214711129665,-0.00271414476446807,0,
00:00:03.236,-0.0005940201226621871,-0.0037748753093183,0.00211549550294876,0,
00:00:03.24,0.00701573537662625,0.0107425572350621,0.004248854704201221,0,
00:00:03.244,0.007403877563774591,0.0113164111971855,-0.00127845420502126,0,
00:00:03.248,0.00124211958609521,-0.00113958003930748,-0.00220427033491433,0,
00:00:03.252,-0.00967595167458057,-0.0121984509751201,-0.0011904536513611698,0,
00:00:03.256,-0.000632395909633487,0.00530924228951335,-0.00201431172899902,0,
00:00:03.26,0.00406788941472769,0.00812697317451239,0.000661652826238424,0,
00:00:03.264,-0.00031281283008866,0.00577738881111145,0.00649983854964376,0,
00:00:03.268,0.00302527914755046,-0.011903764680027998,0.000297395890811458,0,
00:00:03.272,-0.004491204861551521,-0.00653100106865168,-0.0022760562133044,0,
00:00:03.276,-0.00724897859618068,-0.000458270515082404,-0.0043629547581076605,0,
00:00:03.28,0.008286037482321259,-0.00313632795587182,0.0008590841316618031,0,
00:00:03.284,-0.0026492464821785697,0.00125587696675211,0.00174799282103777,0,
00:00:03.288,0.00121684465557337,0.0213050954043865,0.000960073026362807,0,
00:00:03.292,0.0085824616253376,0.0140251917764544,-6.12059329796466e-06,0,
00:00:03.296,-0.0044311229139566395,-0.0194935444742441,-0.000526211457327008,0,
00:00:03.3,-0.000749203667510301,-0.0160448160022497,-0.0005455935024656361,0,
00:00:03.304,-0.00342469895258546,-0.00955258589237928,-0.00235541444271803,0,
00:00:03.308,-0.00400515692308545,-0.009191513992846009,0.0019964643288403697,0,
00:00:03.312,0.00225226487964392,0.0199154820293188,0.0059943338856101,0,
00:00:03.316,0.0073334234766662095,0.0357558019459248,-0.00769988168030977,0,
00:00:03.32,0.0019633905030787,0.007794461678713559,-3.10429095407017e-05,0,
00:00:03.324,-0.009270912036299709,-0.0310195982456207,0.0040147961117327205,0,
00:00:03.328,-0.00886213034391403,-0.0297082513570786,-0.0047603114508092395,0,
00:00:03.332,0.0077955750748515094,-0.00233243312686682,0.00252626393921673,0,
00:00:03.336,0.012323409318923999,0.0225653555244207,0.004633005708456039,0,
00:00:03.34,-0.00105519371572882,0.0189036820083857,-0.00149172055535018,0,
00:00:03.344,-0.00513731222599745,0.0034002314787358,-0.00275780586525798,0,
00:00:03.348,-0.00411556148901582,-0.0161156803369522,-0.0037608172278851297,0,
00:00:03.352,-0.00764418905600905,-0.0129237417131662,-0.00025005129282362797,0,
00:00:03.356,0.00464721349999309,0.00337992911227047,0.00445302901789546,0,
00:00:03.36,0.0169030334800482,0.0135173350572586,0.00285107945092022,0,
00:00:03.364,-0.00013206189032643998,0.00724646775051951,0.00208974839188159,0,
00:00:03.368,-0.014304842799901999,-0.00778178684413433,-0.00368063198402524,0,
00:00:03.372,-0.00606617843732238,-0.0150036225095391,-0.00766805652529001,0,
00:00:03.376,-0.000863287248648703,-5.632770262309351e-05,0.0027102967724204102,0,
00:00:03.38,0.00238051521591842,0.010096175596118,0.00406494317576289,0,
00:00:03.384,0.00775503693148494,-0.0044604842551052605,0.00197125668637455,0,
00:00:03.388,0.0116243092343211,0.0032607077155262197,-0.000318461941787973,0,
00:00:03.392,-0.0009503309847787019,0.008271084167063241,0.0006164922378957269,0,
00:00:03.396,-0.00929863657802343,-0.00633729016408324,-0.00544664636254311,0,
00:00:03.4,-0.0112986192107201,0.00606052856892347,-0.00242218398489058,0,
00:00:03.404,0.00623824633657932,0.00521918386220932,0.007670050021260979,0,
00:00:03.408,0.0056797442957758895,-0.00859471783041954,-0.00285243848338723,0,
00:00:03.412,-0.00331963528878987,-0.0174899362027645,-0.0024654851295054,0,
00:00:03.416,-0.00881615281105042,0.00404677260667086,0.000296262296615168,0,
00:00:03.42,0.0041323765181005,-0.00427405210211873,0.0060574579983949705,0,
00:00:03.424,0.00890219584107399,0.00445117615163326,0.00200581247918308,0,
00:00:03.428,0.0041632829234004,0.0245348811149597,-0.00649137981235981,0,
00:00:03.432,0.00275370455347002,0.00704524433240294,-0.0039874813519418205,0,
00:00:03.436,-0.00806059967726469,-0.0121805025264621,0.0024837916716933302,0,
00:00:03.44,-0.00911885593086481,-0.0110122514888644,0.0029370705597102603,0,
00:00:03.444,0.00192482443526387,-0.00822075642645359,0.00332805304788053,0,
00:00:03.448,0.00161355314776301,-0.0028638232033699803,-0.0044269147329032395,0,
00:00:03.452,0.00198966776952147,0.000186360295629129,-0.000771937193349004,0,
00:00:03.456,-0.000340916682034731,0.0110530406236649,-0.0015894569223746699,0,
00:00:03.46,0.00287351291626692,0.0149121638387442,0.0025669911410659604,0,
00:00:03.464,-0.0025205931160599,-0.00589464418590069,0.00401303637772799,0,
00:00:03.468,0.00147036660928279,-0.00185484997928143,-0.0038769100792706,0,
00:00:03.472,0.00579596823081374,0.00689070951193571,-0.00273587903939188,0,
00:00:03.476,0.00681373337283731,-0.0118782995268703,0.0022624342236667897,0,
00:00:03.48,-0.00976578705012798,-0.025243079289794,0.00195981259457767,0,
00:00:03.484,-0.0157575681805611,0.00279043894261122,0.00236896448768675,0,
00:00:03.488,-0.0034957779571414,0.0170974750071764,-0.00285383826121688,0,
00:00:03.492,0.0216260720044374,0.0241506211459637,-0.00482183648273349,0,
00:00:03.496,0.008557126857340341,0.004805482923984529,-0.0030253643635660397,0,
00:00:03.5,-0.0250382665544748,-0.0237022191286087,0.00844186451286078,0,
00:00:03.504,-0.00607584323734045,-0.0199993755668402,0.00286110420711339,0,
00:00:03.508,0.0250624194741249,0.0115707414224744,0.0010350220836699,0,
00:00:03.512,0.0065221250988543,0.0122967399656773,-0.00652467180043459,0,
00:00:03.516,-0.00934728421270847,-0.00657365471124649,-0.0037654826883226603,0,
00:00:03.52,-0.0107493763789535,-0.005744438152760271,0.0047369422391057,0,
00:00:03.524,-0.000924559601116925,0.0146655440330505,0.00101798446848989,0,
00:00:03.528,0.00765587808564305,0.0110245384275913,-0.000423169694840908,0,
00:00:03.532,0.00605365727096796,-0.010133015923202,-0.00269107311032712,0,
00:00:03.536,-0.00723547209054232,-0.020526796579361,-0.00040868521318770896,0,
00:00:03.54,-0.0032523935660719898,-0.00215881434269249,0.00365407788194716,0,
00:00:03.544,0.00208937586285174,0.0115489820018411,0.00411204574629664,0,
00:00:03.548,-0.0024157341104000802,0.0129062859341502,-0.00449968408793211,0,
00:00:03.552,0.004141868557780979,-0.00835019815713167,-0.00142304506152868,0,
00:00:03.556,-0.00160970317665488,-0.0149482190608978,-0.00434592645615339,0,
00:00:03.56,0.00143941969145089,0.0182463973760605,0.0062627992592752,0,
00:00:03.564,0.0032447581179440004,0.0193101670593023,0.00370578747242689,0,
00:00:03.568,0.000114763548481278,-0.0212538689374924,-0.00300529762171209,0,
00:00:03.572,-0.0044028419069945795,-0.017189247533679,-0.00335720391012728,0,
00:00:03.576,-0.00895662512630224,-0.0144956465810537,-0.00341845862567425,0,
00:00:03.58,0.0039553688839078,0.0201574862003326,0.00256879045628011,0,
00:00:03.584,0.0107593713328242,0.0469586402177811,0.00309955538250506,0,
00:00:03.588,0.00832624733448029,-0.0039846864528954,-0.000614708056673408,0,
00:00:03.592,-0.00471409829333425,-0.0375293269753456,0.0037953080609440795,0,
00:00:03.596,-0.0170937832444906,-0.0271448604762554,-0.0035370532423257797,0,
00:00:03.6,-0.00255245435982943,0.00421625701710582,-0.000594090670347214,0,
00:00:03.604,0.000711946748197079,0.0131855951622128,4.4988322770223e-05,0,
00:00:03.608,0.0079357773065567,0.0195527691394091,-5.17948728884221e-06,0,
00:00:03.612,0.013122352771461001,0.0184886176139116,-0.0021683273371309,0,
00:00:03.616,0.0007022460340522231,-0.00290874182246625,-0.00016706035239622,0,
00:00:03.62,-0.0124630052596331,-0.0264477431774139,0.00571719231083989,0,
00:00:03.624,-0.00722118001431227,-0.00578993558883667,-0.0021318267099559303,0,
00:00:03.628,0.011135421693325001,0.0134584717452526,-0.000211394173675217,0,
00:00:03.632,0.00343200261704624,-0.0049122404307127,-0.00239019212312996,0,
00:00:03.636,-0.007109067868441341,-0.0068365316838026,-0.000700245262123644,0,
00:00:03.64,-0.00706794252619147,0.00218468741513789,0.007234720047563309,0,
00:00:03.644,0.003986017312854529,0.00522343534976244,-0.00026353873545303903,0,
00:00:03.648,-0.0014380139764398302,0.00197360361926258,-0.00579467415809631,0,
00:00:03.652,0.0038008952978998397,0.00325923762284219,-0.007707236334681509,0,
00:00:03.656,0.00410488015040755,-0.00561408512294292,0.00410510739311576,0,
00:00:03.66,0.010136840865016,0.00203573936596513,0.0056499973870813795,0,
00:00:03.664,-0.000238964421441779,0.0126486532390118,0.000821075169369578,0,
00:00:03.668,-0.016448063775897002,-0.00549540063366294,0.0038058161735534703,0,
00:00:03.672,-0.0154821770265698,-0.0176902916282415,-0.00436666840687394,0,
00:00:03.676,0.007437295280396941,-0.00195614900439978,-0.00152525410521775,0,
00:00:03.68,0.0163807552307844,0.00600311579182744,-0.0005152716184966269,0,
00:00:03.684,0.00783258955925703,0.00485738553106785,-8.83175598573871e-05,0,
00:00:03.688,-0.008343440480530259,0.0100711928680539,-0.0019260833505541101,0,
00:00:03.692,0.00315457512624562,0.0083350632339716,0.000166519836056978,0,
00:00:03.696,-0.00533655099570751,-0.0046926983632147295,0.00388727965764701,0,
00:00:03.7,-0.00769481947645545,-0.0197992008179426,0.0020090155303478198,0,
00:00:03.704,-0.00651787128299475,-0.0163392350077629,0.00149120087735355,0,
00:00:03.708,0.00868478696793318,0.00860625505447388,-0.005929091945290571,0,
00:00:03.712,0.009945922531187529,0.0162423923611641,-0.0013768605422228599,0,
00:00:03.716,-0.00801204331219196,0.00101531867403537,0.000698869291227311,0,
00:00:03.72,0.00406021578237414,0.00180800713133067,-0.000868078786879778,0,
00:00:03.724,0.0027267222758382602,0.00925737526267767,0.0028654404450207897,0,
00:00:03.728,-0.00324393319897354,-0.0023178246337920397,0.00196915841661394,0,
00:00:03.732,-0.0032834280282259,-0.00598650285974145,6.0619961004704196e-05,0,
00:00:03.736,-0.00122806301806122,-0.007215865422040221,-0.00114624993875623,0,
00:00:03.74,0.0006345726433210071,-0.0109392236918211,-0.00129619636572897,0,
00:00:03.744,0.00141976238228381,-0.00104196125175804,-0.000755844172090292,0,
00:00:03.748,-0.00294059445150197,0.00900412350893021,-0.00214158603921533,0,
00:00:03.752,0.00862607080489397,0.0106781953945756,0.00029359207837842405,0,
00:00:03.756,0.00127928308211267,-0.000312631396809593,0.0020492363255471,0,
00:00:03.76,-0.00952735170722008,-0.00274604791775346,0.00415655970573425,0,
00:00:03.764,-0.00228066206909716,0.00212018773891032,0.0073275258764624596,0,
00:00:03.768,0.0106649389490485,-0.00678057363256812,-0.0118388812988997,0,
00:00:03.772,-0.00441011926159263,0.000856124155689031,-0.0036273242440074704,0,
00:00:03.776,-0.00637253280729055,0.00380788627080619,0.000878480670507997,0,
00:00:03.78,0.00786558538675308,0.00271445792168379,0.00032790083787404,0,
00:00:03.784,0.00223584589548409,-0.00611763214692473,0.00607760576531291,0,
00:00:03.788,-0.00600910512730479,-0.0125882904976606,0.000555742066353559,0,
00:00:03.792,-0.0073577021248638595,0.005786071997135879,-0.0057628252543509,0,
00:00:03.796,0.0091643538326025,0.0153625132516026,0.0043387636542320295,0,
00:00:03.8,0.00656954571604729,0.00138888321816921,0.00045390313607640597,0,
00:00:03.804,-8.43089073896408e-05,-0.000582567823585123,-0.00126464630011469,0,
00:00:03.808,-0.00413296930491924,-0.0111750429496169,-0.00134859199170023,0,
00:00:03.812,-0.00645294738933444,-0.0040721460245549705,-0.00480098137632012,0,
00:00:03.816,0.00176592892967165,0.0032988374587148398,0.00197913078591228,0,
00:00:03.82,-0.00432667182758451,0.00351447472348809,0.009931978769600391,0,
00:00:03.824,-1.37687993628788e-05,0.00148438813630491,-0.00140987592749298,0,
00:00:03.828,0.0018689413554966398,-0.0106938304379582,-0.00654513202607632,0,
00:00:03.832,0.00438734935596585,-0.00156584265641868,-0.00329976226203144,0,
00:00:03.836,0.0123311411589384,0.017186937853694,0.0008087411988526581,0,
00:00:03.84,0.0020363994408398897,0.0212237201631069,0.00695011671632528,0,
00:00:03.844,-0.01327745616436,-0.0191338043659925,0.00272393808700144,0,
00:00:03.848,-0.00734697794541717,-0.0127346934750676,-0.00407783826813102,0,
00:00:03.852,0.00314696412533522,-0.00971469562500715,-0.008038380183279509,0,
00:00:03.856,-0.00105808326043189,-0.00175608659628779,0.000563968205824494,0,
00:00:03.86,0.0004910885472781959,0.0110022071748972,0.00825928989797831,0,
00:00:03.864,-0.0019186477875337,0.00116492959205061,0.00389966228976846,0,
00:00:03.868,0.00845355074852705,0.00486131245270371,-0.00364824291318655,0,
00:00:03.872,0.00269150594249368,0.00834902841597795,-0.00826724991202354,0,
00:00:03.876,-0.00747069576755166,-0.00276757823303342,0.00212725065648556,0,
00:00:03.88,0.00736473221331835,-0.0007896885508671401,0.0037612318992614703,0,
00:00:03.884,-0.00129862502217293,0.005220605526119471,0.0040256641805172,0,
00:00:03.888,-0.00166634749621153,-0.0118743702769279,-0.0042312690056860395,0,
00:00:03.892,-0.00673002097755671,-0.0113585069775581,-0.00304000149480999,0,
00:00:03.896,0.0059794443659484395,0.00694369524717331,0.00214474671520293,0,
00:00:03.9,0.0027529078070074302,0.00648291129618883,0.00199994328431785,0,
00:00:03.904,-0.0145717849954963,-0.0109845213592052,0.00247662770561874,0,
00:00:03.908,-0.00236912909895182,-0.0005269115208648151,-0.00483503006398678,0,
00:00:03.912,0.0129729034379125,0.0108552714809775,-0.000728375511243939,0,
00:00:03.916,0.00671832542866468,0.00960637908428907,-0.00336713227443397,0,
00:00:03.92,0.00031249795574694904,-0.00343281263485551,0.00901706889271736,0,
00:00:03.924,-0.00127110932953656,-0.007858545519411559,-0.000170533414348029,0,
00:00:03.928,-0.0100097823888063,-0.00368791399523616,-0.004965036176145079,0,
00:00:03.932,-0.00219680136069655,0.019574748352169997,-0.00028178674983792,0,
00:00:03.936,0.00459712138399482,-0.00862636137753725,-0.00105660397093743,0,
00:00:03.94,0.0099496440961957,-0.0182094015181065,0.0048711611889302705,0,
00:00:03.944,-0.0030173407867550898,0.0006168950931169089,0.00197851937264204,0,
00:00:03.948,-0.0143922315910459,0.00886799488216639,-0.005708470009267329,0,
00:00:03.952,0.0019379876321181698,-0.00646177167072892,-0.00308356457389891,0,
00:00:03.956,0.003972527105361221,-0.00177933846134692,0.0009524954366497699,0,
00:00:03.96,0.00200733402743936,0.00681073311716318,0.004979063756763939,0,
00:00:03.964,0.0105857076123357,0.0317623391747475,0.00470800837501884,0,
00:00:03.968,8.190122025553141e-05,0.0104609755799174,-0.00460253143683076,0,
00:00:03.972,-0.00375086674466729,-0.0294321421533823,-0.00602543214336038,0,
00:00:03.976,-0.0101946471258998,-0.0348424464464188,0.00538983987644315,0,
00:00:03.98,-0.0070011024363338895,-0.0110850157216191,0.00338645745068789,0,
00:00:03.984,0.00148971891030669,0.0170594360679388,-0.0029470426961779603,0,
00:00:03.988,0.0063875000923872,0.0257468670606613,-0.00518739689141512,0,
00:00:03.992,0.008280656300485129,0.00685574812814593,0.000893504766281694,0,
00:00:03.996,0.0072851749137044,0.00218853540718555,0.00240516965277493,0,
00:00:04,-0.0017539499094709802,-0.000623751839157194,-0.000389665510738268,0,
00:00:04.004,-0.015524067915976,-0.00956199783831835,0.0023815380409359897,0,
00:00:04.008,-0.00527719361707568,-0.0114009641110897,0.00113291502930224,0,
00:00:04.012,0.00507165212184191,-0.00859454367309809,-0.0006114498246461151,0,
00:00:04.016,0.00611673621460795,0.00844823848456144,-0.00142435531597584,0,
00:00:04.02,0.009406848810613159,0.00886695832014084,-0.00121864734683186,0,
00:00:04.024,-0.0101671880111098,-0.00262024020776153,-0.000500519818160683,0,
00:00:04.028,-0.0028969761915504898,0.00264989119023085,-0.0018905116012319899,0,
00:00:04.032,0.000664449122268707,0.00154887861572206,0.0025107173714786803,0,
00:00:04.036,-0.00042147180647589304,-0.004925604909658429,0.00216636410914361,0,
00:00:04.04,0.0052881189621985,0.008158149197697641,-0.00159993732813746,0,
00:00:04.044,0.00420666486024857,0.00381240644492209,0.00324926758185029,0,
00:00:04.048,-0.00776728242635727,-0.0175015367567539,-0.00148771738167852,0,
00:00:04.052,-0.00493464292958379,-0.0109304683282971,-0.00641745142638683,0,
00:00:04.056,-0.0015104276826605199,0.00344975315965712,0.0027265187818557,0,
00:00:04.06,0.0097421333193779,0.0254567954689264,0.00750952353700995,0,
00:00:04.064,0.00536890048533678,0.00633156578987837,-0.0027676806785166303,0,
00:00:04.068,-0.00540153495967388,-0.0131716188043356,-0.00614294456318021,0,
00:00:04.072,-0.00275241234339774,-0.0129505759105086,-0.00404476094990969,0,
00:00:04.076,-0.00522624608129263,-0.00689403479918838,0.00610165670514107,0,
00:00:04.08,0.0143399396911263,0.0172727536410093,0.00512725068256259,0,
00:00:04.084,0.000193127591046505,0.0230739172548056,0.00106037466321141,0,
00:00:04.088,-0.0172876007854939,-0.0152221815660596,0.000111346824269276,0,
00:00:04.092,-0.00517717655748129,-0.0218915101140738,-0.0047439448535442396,0,
00:00:04.096,0.00496751209720969,-0.0114058936014771,-0.00769225135445595,0,
00:00:04.1,0.00823451392352581,0.00823420006781816,0.0053827324882149705,0,
00:00:04.104,0.00594405923038721,0.0123708816245198,0.002784906886518,0,
00:00:04.108,0.00780542474240065,0.0165877621620893,-0.00130017043557018,0,
00:00:04.112,0.000450898980489001,0.0108353607356548,-0.00256787776015699,0,
00:00:04.116,-0.0202646590769291,-0.0101397167891264,0.00483216810971498,0,
00:00:04.12,-0.0058792270720005,-0.0127703966572881,0.00701630627736449,0,
00:00:04.124,0.007998918183147909,-0.0115687986835837,-0.00674455473199487,0,
00:00:04.128,0.007146405987441541,-0.007461884990334509,-0.00393700366839767,0,
00:00:04.132,0.0021262506488710603,0.00151705578900874,-0.0032436584588140197,0,
00:00:04.136,-0.00592545280233026,0.0136320069432259,0.0006330414908006791,0,
00:00:04.14,-0.00321231526322663,0.00835987366735935,0.0050785015337169205,0,
00:00:04.144,0.000904383894521743,0.000414019683375955,0.00514152972027659,0,
00:00:04.148,0.000776853994466364,-0.00408255960792303,-0.00205074320547283,0,
00:00:04.152,0.0106471264734864,0.0122270379215479,-0.00562850525602698,0,
00:00:04.156,0.0007515492034144701,-0.00142436427995563,-0.000246614508796483,0,
00:00:04.16,-0.0030510451178997803,-0.0120798824355006,0.00135237316135317,0,
00:00:04.164,-0.00770861655473709,-0.0140922591090202,0.00324204098433256,0,
00:00:04.168,-0.013060680590569999,-0.00934250373393297,-0.0036047166213393203,0,
00:00:04.172,0.00571576319634914,0.00793246179819107,-0.0018855034140870001,0,
00:00:04.176,0.007299769669771191,0.0157169252634048,0.000983921345323324,0,
00:00:04.18,0.00975193735212088,0.0204334277659655,0.00639232434332371,0,
00:00:04.184,0.00649595120921731,-0.000412374269217253,-9.768886957317591e-05,0,
00:00:04.188,-0.014226189814508001,-0.0230741426348686,-0.00265213334932923,0,
00:00:04.192,-0.00537501974031329,-0.0159808974713087,-0.00453220773488283,0,
00:00:04.196,0.0023837408516556,0.0067490884102881,0.0009100678726099429,0,
00:00:04.2,-0.00758295506238937,0.00242477818392217,0.00192192278336734,0,
00:00:04.204,0.0068053766153752795,0.0100559927523136,-0.0009362391429021949,0,
00:00:04.208,0.0159487407654524,0.0235178600996733,0.004154440481215721,0,
00:00:04.212,0.00350927375257015,0.007827820256352421,-0.0008364419336430731,0,
00:00:04.216,-0.0117108952254057,-0.0363377146422863,-0.00619902415201068,0,
00:00:04.22,-0.0188690759241581,-0.0406373329460621,0.00259528192691505,0,
00:00:04.224,-0.00813358463346958,0.00539495004341006,0.005153011996299029,0,
00:00:04.228,0.0209215022623539,0.0481302738189697,-0.0031163310632109603,0,
00:00:04.232,0.0217804219573736,0.0367328114807606,-0.00264837662689388,0,
00:00:04.236,-0.00402470584958792,-0.020436204969883,0.0019290870986878898,0,
00:00:04.24,-0.018463522195816002,-0.0352027080953121,0.00363660044968128,0,
00:00:04.244,-0.0057421242818236394,-0.0162181090563536,-0.00399294635280967,0,
00:00:04.248,0.00377188017591834,0.0107876462861896,-0.000564155227039009,0,
00:00:04.252,0.00438544061034918,0.0105084478855133,0.000486817240016535,0,
00:00:04.256,-2.5458881282247603e-05,0.00605741888284683,-0.00156686431728303,0,
00:00:04.26,-0.00442179478704929,0.009857316501438621,0.00428132619708776,0,
00:00:04.264,0.00430286768823862,0.0033822359982878,-0.000343810126651078,0,
00:00:04.268,0.00183011393528432,-0.0140984421595931,-0.00157650699838996,0,
00:00:04.272,0.000670518900733441,-0.007435620296746491,-0.0052672172896564,0,
00:00:04.276,0.0040275910869240795,0.0058562615886330605,0.00373614695854485,0,
00:00:04.28,0.00165315542835742,-0.000316264457069337,0.0057870424352586295,0,
00:00:04.284,-0.009975334629416471,-0.000864788424223661,-0.0010164997074753,0,
00:00:04.288,-0.0038088904693722703,-0.003930755425244571,-0.00497222365811467,0,
00:00:04.292,0.000954556162469089,0.000825520197395235,-0.00220108823850751,0,
00:00:04.296,0.00302345841191709,0.0062198219820857,0.0030916805844754,0,
00:00:04.3,0.00484425993636251,0.00825851690024138,0.00455452268943191,0,
00:00:04.304,-0.000624504231382161,0.0024730907753109897,0.000491995073389262,0,
00:00:04.308,-0.00173400191124529,-0.00538661982864141,-0.00674753962084651,0,
00:00:04.312,-0.0031610662117600398,-0.0120218452066183,-0.00326813012361526,0,
00:00:04.316,0.0018193549476563898,-0.0055538103915751,0.00136675487738103,0,
00:00:04.32,-0.0021046530455350898,0.00414911983534694,0.007626078091561791,0,
00:00:04.324,0.008774987421929841,0.00380356633104384,0.0010564558906480698,0,
00:00:04.328,-0.00121861207298934,-0.00261306227184832,-0.00415446981787682,0,
00:00:04.332,-0.0060137244872748895,0.00407450925558805,-0.00259300693869591,0,
00:00:04.336,0.0012205427046865199,0.0238917302340269,0.00216254661791027,0,
00:00:04.34,0.0031640385277569303,-0.00262569217011333,0.0037399949505925205,0,
00:00:04.344,-0.0044632488861680005,-0.0333950743079185,-0.0019553296733647602,0,
00:00:04.348,-0.00491996528580785,-0.00804899260401726,-0.00470848521217704,0,
00:00:04.352,0.000457264541182667,0.0169849507510662,0.000749577127862722,0,
00:00:04.356,0.0019377527059987198,0.00722627947106957,-0.00011808273120550401,0,
00:00:04.36,0.010244145989418,-0.00177449430339038,0.00325405155308545,0,
00:00:04.364,-0.00026124066789634504,0.00570859992876649,0.0039380220696330105,0,
00:00:04.368,0.0007353359833359719,0.008000346831977371,-0.0022692985367029897,0,
00:00:04.372,0.00144455372355878,-0.004769264720380311,-0.00726398359984159,0,
00:00:04.376,-0.0124033568426967,-0.0156523995101452,0.00233172439038754,0,
00:00:04.38,-0.0129273170605302,-0.01154291536659,0.0034061623737216,0,
00:00:04.384,0.0119279818609357,0.00662610167637467,0.00352516095153987,0,
00:00:04.388,0.0155138839036226,0.0232134070247412,-0.00457465834915638,0,
00:00:04.392,-0.00489913113415241,-0.000685071747284383,-0.00105054420419037,0,
00:00:04.396,-0.000588258320931345,-0.018770894035697,-0.00179558747913688,0,
00:00:04.4,-0.008598975837230679,0.0008599183638580139,0.0025163332466036103,0,
00:00:04.404,-0.007876350544393059,0.005755493417382239,0.00201459834352136,0,
00:00:04.408,0.0081915594637394,0.003911969717592,0.000301323510939255,0,
00:00:04.412,0.0101049179211259,0.0026332528796047,-0.00296368496492505,0,
00:00:04.416,0.00473287515342236,0.0067305862903595,0.0008465189603157339,0,
00:00:04.42,-0.00769706955179572,-0.0115935737267137,-0.00114015804138035,0,
00:00:04.424,-0.007276858668774371,-0.0138414865359664,0.00412571476772428,0,
00:00:04.428,-0.00458430033177137,-0.0103835416957736,-0.000851048447657377,0,
00:00:04.432,0.00566935306414962,0.0129479123279452,-0.00411820225417614,0,
00:00:04.436,0.00292154378257692,0.0218127574771643,-0.00141421484295279,0,
00:00:04.44,-0.00293441652320325,0.00830467976629734,0.0055545843206346,0,
00:00:04.444,0.00610257126390934,-0.00336176180280745,0.000493584258947521,0,
00:00:04.448,0.0007624117424711589,-0.0130468141287565,-0.00148042966611683,0,
00:00:04.452,-0.0019797245040535896,-0.012756229378283001,-0.0035607870668172797,0,
00:00:04.456,-0.000298154540359974,-0.00790008436888456,0.00131484412122518,0,
00:00:04.46,-0.0033988994546234603,0.00584919704124331,0.00387662416324019,0,
00:00:04.464,-0.00806256290525198,0.0016625182470306802,-0.00122352165635675,0,
00:00:04.468,0.00222681369632483,0.0171918533742428,-0.003996933810412879,0,
00:00:04.472,0.0147149553522468,0.0232401806861162,-0.00307374773547053,0,
00:00:04.476,0.00772514473646879,-0.0105131845921278,0.00790055654942989,0,
00:00:04.48,-0.008473615162074571,-0.0261965580284595,0.004347939975559711,0,
00:00:04.484,-0.0120619107037783,-0.0163018740713596,-0.00337197887711227,0,
00:00:04.488,-0.0049941879697144,0.00149377074558288,-0.00625287368893623,0,
00:00:04.492,-0.00396508304402232,0.011895758099853998,-0.00423624133691192,0,
00:00:04.496,0.0114362770691514,0.014386129565536998,0.0058553870767355,0,
00:00:04.5,0.0076517164707183795,0.00257134693674743,0.00704480055719614,0,
00:00:04.504,0.004620443563908339,0.00241244304925203,-0.000920835882425308,0,
00:00:04.508,0.0006904377951286731,0.00574404839426279,-0.00557036837562919,0,
00:00:04.512,-0.000538725114893168,-0.0112415933981538,-0.000821680412627757,0,
00:00:04.516,-0.0163737647235394,-0.0175270773470402,0.000700796314049512,0,
00:00:04.52,-0.00355499912984669,-0.00479373009875417,0.00286320387385786,0,
00:00:04.524,0.0036804664414376,0.0108336359262466,-0.0015624897787347401,0,
00:00:04.528,0.00134604633785784,0.008408103138208391,-0.00159013387747109,0,
00:00:04.532,0.009883599355816841,0.00205439212732017,-0.00445878691971302,0,
00:00:04.536,0.00658379681408405,0.00405753497034311,0.0046504256315529294,0,
00:00:04.54,-0.0103760417550802,0.00345260044559836,0.00424492452293634,0,
00:00:04.544,0.00116103910841048,0.00217521330341697,0.0010024112416431301,0,
00:00:04.548,-0.0037222595419734703,-0.015605241060257,-0.00153909181244671,0,
00:00:04.552,-0.00214239349588752,-0.0213501416146755,-0.0022898672614246602,0,
00:00:04.556,-0.00148543564137071,0.00493733864277601,-0.005782083608210089,0,
00:00:04.56,-0.0021622607018798603,0.00787848886102438,0.00556766847148538,0,
00:00:04.564,0.0158025659620762,0.0235311407595873,0.00385888875462115,0,
00:00:04.568,-0.00189187354408205,0.0133800180628896,-0.00242096651345491,0,
00:00:04.572,-0.0033397818915545897,-0.010417465120554,-0.00487280683591962,0,
00:00:04.576,-0.00316215818747878,-0.0182290486991405,-0.00116055679973215,0,
00:00:04.58,0.000264202884864062,-0.0190862100571394,0.00419498467817903,0,
00:00:04.584,-0.0022261862177401803,0.0053227716125547895,0.00516081880778074,0,
00:00:04.588,-0.00292956852354109,0.0144824711605906,-0.00157283898442984,0,
00:00:04.592,0.00079814251512289,0.00732901552692056,-0.005140211433172229,0,
00:00:04.596,0.00110234133899212,0.0012444860767573099,-0.004146718885749579,0,
00:00:04.6,0.00501629710197449,-0.0106974188238382,0.007365938276052479,0,
00:00:04.604,0.0154826883226633,0.00453219702467322,0.00645624427124858,0,
00:00:04.608,-0.00790356658399105,0.00823692977428436,-0.007060794159770009,0,
00:00:04.612,-0.0160162672400475,-0.00208459328860044,-0.00759018631651998,0,
00:00:04.616,-0.00264568044804037,-0.00825857557356358,0.0036142221651971297,0,
00:00:04.62,0.00132583582308143,-0.00515356939285994,0.0046291407197713895,0,
00:00:04.624,-0.00182662985753268,-0.00428907386958599,0.006119711324572561,0,
00:00:04.628,0.00631006201729178,-0.00132972677238286,-0.00876914616674185,0,
00:00:04.632,0.0155997537076473,0.0188371259719133,-0.0011784115340560699,0,
00:00:04.636,0.00627418048679829,0.017599830403924,0.00130953558254987,0,
00:00:04.64,-0.0148531869053841,-0.0178002081811428,0.0013372084358707099,0,
00:00:04.644,-0.0119239129126072,-0.0186746958643198,0.00263571832329035,0,
00:00:04.648,0.00163492793217301,0.00374556332826614,-0.00211139209568501,0,
00:00:04.652,0.0024834543000906697,-0.00116311316378415,-0.00622976897284389,0,
00:00:04.656,-0.0011464006965979901,0.00128465390298516,0.00131703121587634,0,
00:00:04.66,0.0063060102984309205,0.0184665806591511,0.00802102871239185,0,
00:00:04.664,0.00637759082019329,0.00499659078195691,0.00318081607110798,0,
00:00:04.668,-0.0018502873135730603,-0.00808770954608917,-0.0043308311142027395,0,
00:00:04.672,-0.00214812159538269,-0.00941386632621288,-0.006551308091729879,0,
00:00:04.676,-0.0072115664370358,-0.00913698878139257,-0.0019348411587998301,0,
00:00:04.68,0.00142715824767947,0.0020149603951722397,0.00637109950184822,0,
00:00:04.684,0.000237955056945793,0.00220033945515752,-0.00247208750806749,0,
00:00:04.688,-0.00334928627125919,0.00526541797444224,0.0074601317755878,0,
00:00:04.692,0.0030704864766448697,0.007437073159962891,-0.00398678286001086,0,
00:00:04.696,0.00622915336862206,0.00491681508719921,-0.00184610218275338,0,
00:00:04.7,0.00445263972505927,0.00020421545195858898,-0.000655014184303582,0,
00:00:04.704,0.000491506420075893,-0.00143591582309455,3.24026659654919e-05,0,
00:00:04.708,-0.00895173382014036,-0.0108285499736667,-0.00172249274328351,0,
00:00:04.712,2.79678079095902e-05,-0.0117210438475013,0.000294122379273176,0,
00:00:04.716,-0.0168697685003281,0.00101147301029414,0.0018107673386111899,0,
00:00:04.72,0.00814234279096127,0.00499703828245401,0.00804278254508972,0,
00:00:04.724,0.0178131870925426,0.0027036692481488,-0.00300953723490238,0,
00:00:04.728,0.00413717003539205,0.0194273609668016,-0.007145037408918141,0,
00:00:04.732,-0.0157411992549896,0.00330376392230392,-0.0009626041864976289,0,
00:00:04.736,-0.004164834506809711,-0.0171772800385952,-0.000529147335328162,0,
00:00:04.74,0.0005943261203356089,-0.0201986152678728,0.00587364239618182,0,
00:00:04.744,0.00640571676194668,0.0068951533176004895,-0.0013366601197049,0,
00:00:04.748,0.00876511633396149,0.00838936772197485,0.000687191088218242,0,
00:00:04.752,-0.00113320408854634,0.0179281942546368,0.000231812213314697,0,
00:00:04.756,0.00307535217143595,0.0168727394193411,-0.000534337654244155,0,
00:00:04.76,-0.0105080362409353,-0.023938337340950997,0.00126799521967769,0,
00:00:04.764,-0.0167749300599098,-0.0298240873962641,-0.00255496008321643,0,
00:00:04.768,0.00415360601618886,6.62276725051925e-05,-0.00386599591001868,0,
00:00:04.772,0.007943602278828621,0.0175068713724613,-7.512523734476421e-05,0,
00:00:04.776,0.0114103714004159,0.0155556695535779,0.00272459629923105,0,
00:00:04.78,0.0038225168827921204,0.00152354477904737,0.00718250358477235,0,
00:00:04.784,-0.0075169918127358,-0.0139158116653562,-0.00023412219888996298,0,
00:00:04.788,-0.00625299382954836,-0.0048388219438493295,-0.0053391414694488,0,
00:00:04.792,-0.00162710854783654,0.0107102664187551,-0.0031685868743807103,0,
00:00:04.796,0.0038745466154068704,-0.00307155982591212,0.00221405387856066,0,
00:00:04.8,0.00287907756865025,-0.000986288767307997,0.0020728262607008197,0,
00:00:04.804,0.00453902734443545,0.0105783874168992,0.00046776668750680994,0,
00:00:04.808,0.0030893764924258,0.000989582855254412,-0.0007099246140569451,0,
00:00:04.812,-0.0168953910470009,-0.017823314294219,-0.00306119816377759,0,
00:00:04.816,-0.0101408660411835,-0.0112429400905967,0.00135737424716353,0,
00:00:04.82,0.014240519143641,0.00917806476354599,0.00157410046085715,0,
00:00:04.824,0.0072359312325716,0.0109009444713593,0.0025742265861481398,0,
00:00:04.828,-0.00258530350401998,-0.00102452735882252,-0.0044640782289207,0,
00:00:04.832,8.22915535536595e-05,-0.007286738138645891,-0.0024535707198083396,0,
00:00:04.836,0.00664084171876311,0.0108878435567021,0.00292711332440376,0,
00:00:04.84,-0.0040546334348619,0.0106525607407093,0.00668298685923219,0,
00:00:04.844,-0.007676996756345029,-0.00172316771931946,-0.00341255799867213,0,
00:00:04.848,-0.0009967514779418711,-0.00951929576694965,-0.00423083826899529,0,
00:00:04.852,0.0018233242444694,-0.0135758621618152,-0.005840755533426999,0,
00:00:04.856,0.0021735981572419396,-0.006799897179007529,0.00473266094923019,0,
00:00:04.86,0.00340100936591625,0.00800514314323664,0.007211870513856409,0,
00:00:04.864,0.000369643559679389,0.00294661917723715,-0.00210826937109232,0,
00:00:04.868,-0.00612192135304213,0.00228970823809505,-0.000674470444209874,0,
00:00:04.872,-0.00461871270090342,0.012649486772716,-0.000782065093517303,0,
00:00:04.876,0.00995881669223309,0.00633918400853872,-0.0029590071644634,0,
00:00:04.88,0.00330975814722478,-0.0047573852352798,0.00343218678608537,0,
00:00:04.884,-0.0019153610337525602,-0.0180518086999655,-0.000497452798299491,0,
00:00:04.888,-0.0119978096336126,-0.0103903533890843,-0.00332525558769703,0,
00:00:04.892,0.0009875340620055788,0.00740689830854535,-0.0028201111126691103,0,
00:00:04.896,0.009731088764965529,0.0166594982147217,0.00780964735895395,0,
00:00:04.9,0.00897893775254488,0.0105789992958307,0.00412451522424817,0,
00:00:04.904,-0.009632283821702,-0.0143042737618089,-0.00562797673046589,0,
00:00:04.908,-0.0101020270958543,-0.0118159810081124,-0.0022639581002295,0,
00:00:04.912,0.004867523908615111,-7.78111425461248e-05,-0.00037626692210324103,0,
00:00:04.916,0.007402664981782441,0.00901783164590597,-0.00154769129585475,0,
00:00:04.92,-0.00458875903859735,-0.00327676814049482,0.00479552429169416,0,
00:00:04.924,-0.00959180667996407,-0.00314395455643535,0.000222677859710529,0,
00:00:04.928,0.0105611244216561,0.0087369829416275,-0.0033102852758020197,0,
00:00:04.932,0.00982483197003603,0.007481254637241359,-0.00115910544991493,0,
00:00:04.936,-0.00622695544734597,0.00343178538605571,0.00326528470031917,0,
00:00:04.94,-0.0067935367114841895,-0.0140295131132007,0.0020524347200989697,0,
00:00:04.944,0.00384951592423022,-0.00752187753096223,0.00187077256850898,0,
00:00:04.948,-0.000298851053230464,0.0017527104355394801,-0.0055436627008020895,0,
00:00:04.952,0.000256965577136725,0.00809055753052235,-0.00117056129965931,0,
00:00:04.956,-0.009547079913318159,-0.00729970214888453,-0.00344871170818806,0,
00:00:04.96,-1.24078405860928e-05,-0.0046582897193729895,0.00296235061250627,0,
00:00:04.964,0.00534399412572384,0.0100020477548242,0.0143097322434187,0,
00:00:04.968,0.00761716812849045,0.0077603077515959705,-0.009824999608099459,0,
00:00:04.972,0.00700793555006385,0.0030940643046051303,-0.00634491303935647,0,
00:00:04.976,-0.00587008241564035,-0.00574288889765739,0.00137462071143091,0,
00:00:04.98,-0.0155235277488828,-0.0106316301971674,0.00285416725091636,0,
00:00:04.984,0.00425117230042815,-0.00149845040868968,0.00171973428223282,0,
00:00:04.988,0.0131012760102749,0.00538353156298399,-0.00189878873061389,0,
00:00:04.992,-0.00066953367786482,0.0103765986859798,0.0012226924300193802,0,
00:00:04.996,-0.00767609616741538,0.0011886951979249698,0.000744129356462508,0,
00:00:05,-0.00479937484487891,-0.00811538752168417,-0.00243981089442968,0,
00:00:05.004,-1.81255309144035e-05,-0.0176300220191479,0.0031416141428053396,0,
00:00:05.008,0.00288437097333372,0.0053823790512979,0.0009712073951959609,0,
00:00:05.012,-0.0030300545040518,0.0037771509960293796,-0.0078795375302434,0,
00:00:05.016,0.005704900715500121,0.0037801321595907203,-0.000619300408288836,0,
00:00:05.02,0.00914693623781204,0.0073194243013858795,0.007362729404121641,0,
00:00:05.024,0.0034029025118798,0.0123532982543111,0.00577768264338374,0,
00:00:05.028,-0.00916502624750137,0.00182929274160415,-0.00947569590061903,0,
00:00:05.032,-0.0103321885690093,-0.00962421484291554,-0.0034509792458266,0,
00:00:05.036,0.0034010438248515103,-0.0123056918382645,0.00355549529194832,0,
00:00:05.04,0.00177093863021582,-0.0242827963083982,0.00338826957158744,0,
00:00:05.044,-0.00536231370642781,-0.00163508497644216,0.00516697624698281,0,
00:00:05.048,-0.00399682344868779,0.0205585844814777,-0.0069505292922258394,0,
00:00:05.052,0.0192332025617361,0.0381230711936951,-0.00496472511440516,0,
00:00:05.056,0.0111929010599852,0.002705002669245,0.00207678694278002,0,
00:00:05.06,-0.0169928967952728,-0.0276146493852139,0.0031277164816856397,0,
00:00:05.064,-0.0128628192469478,-0.0157438758760691,0.00168823322746903,0,
00:00:05.068,0.00494693266227841,-0.00089922099141404,-0.0020994753576815102,0,
00:00:05.072,0.00867511797696352,0.00519188214093447,0.000991199165582657,0,
00:00:05.076,-0.00124365056399256,-0.0046942443586885894,-0.0014968874165788302,0,
00:00:05.08,-0.00880917254835367,0.0050251563079655205,0.0036220853216946103,0,
00:00:05.084,0.00906423665583134,0.0231200456619263,0.000849522242788225,0,
00:00:05.088,0.005691178608685729,0.0109135108068585,-0.0083084749057889,0,
00:00:05.092,-0.0138412648811936,-0.0302074253559113,-0.00102204130962491,0,
00:00:05.096,0.000554609345272183,-0.0188815966248512,0.00716928858309984,0,
00:00:05.1,0.0112061053514481,0.0162260010838509,-0.000423733232310042,0,
00:00:05.104,0.004126340616494421,0.0159553792327642,0.00490413326770067,0,
00:00:05.108,-0.009930294007062909,-0.0142252212390304,-0.00418765004724264,0,
00:00:05.112,-0.0109428064897656,-0.00597900897264481,-0.00850702822208405,0,
00:00:05.116,0.0038546102587133603,0.0076936758123338205,0.00248310854658484,0,
00:00:05.12,0.0135095110163093,0.0156161217018962,0.00437746522948146,0,
00:00:05.124,0.00501586683094502,0.00463395658880472,0.00244017760269344,0,
00:00:05.128,-0.00392284989356995,-0.0166137777268887,0.0020749696996063,0,
00:00:05.132,-0.0113624539226294,-0.0126787461340427,-0.007524700369685891,0,
00:00:05.136,-0.00975251290947199,-2.9949054805911102e-05,0.000779676483944058,0,
00:00:05.14,0.0013718791306018801,0.0013775781262666,0.00222772662527859,0,
00:00:05.144,0.0144740948453546,0.0013716791290789801,0.00319374678656459,0,
00:00:05.148,0.00645695626735687,0.00814598985016346,-0.00426315236836672,0,
00:00:05.152,-0.0027710336726158896,0.0131659032776952,-0.000519743247423321,0,
00:00:05.156,0.00187907984945923,0.0107818795368075,-0.0013861594488844301,0,
00:00:05.16,-0.00450726924464107,-0.0167279001325369,0.004740537609905,0,
00:00:05.164,-0.00740883592516184,-0.0137577001005411,0.00203930982388556,0,
00:00:05.168,-0.00919119920581579,-0.0135030979290605,-0.00764566985890269,0,
00:00:05.172,0.0076504149474203595,0.0018527323845773898,0.00108063360676169,0,
00:00:05.176,0.0128653831779957,0.0221788883209229,0.00273619033396244,0,
00:00:05.18,0.0039712195284664605,0.0104314684867859,0.0035910273436456897,0,
00:00:05.184,-0.010440138168633002,0.00035299651790410296,-0.00205865548923612,0,
00:00:05.188,-0.007186003960669041,-0.0138344522565603,-0.004680676851421589,0,
00:00:05.192,-0.000305498950183392,-0.0112924203276634,-0.00127103261183947,0,
00:00:05.196,0.00806914269924164,0.005402894224971529,0.00393358385190368,0,
00:00:05.2,0.0024647023528814303,0.00231234868988395,0.004931459203362461,0,
00:00:05.204,0.00127317605074495,0.0023021784145385,-0.0037487335503101297,0,
00:00:05.208,0.000270802469458431,0.0103229153901339,-0.0010617350926622699,0,
00:00:05.212,-0.0133789563551545,-0.0131335947662592,-0.00023301440523937298,0,
00:00:05.216,-0.008550497703254221,-0.00497874291613698,-0.00210435455664992,0,
00:00:05.22,0.0175495073199272,0.0217647459357977,0.00408462528139353,0,
00:00:05.224,0.0162832606583834,-0.00562594458460808,0.00182128662709147,0,
00:00:05.228,-0.0038963854312896702,-0.0122606828808784,-0.0074839182198047595,0,
00:00:05.232,-0.00858378037810326,0.00500805582851171,0.00139487651176751,0,
00:00:05.236,-0.0124316038563848,-0.0034888533409684896,0.000921973667573184,0,
00:00:05.24,-0.00654510920867324,-0.0106922779232264,0.00567863695323467,0,
00:00:05.244,0.00328616541810334,0.0045871706679463395,0.0016320088179782,0,
00:00:05.248,0.00396204832941294,0.00494214007630944,-0.00865390338003635,0,
00:00:05.252,0.0131097342818975,0.00829867832362652,-0.0018801767146214802,0,
00:00:05.256,0.0126108629629016,0.0191211011260748,0.0043133539147675,0,
00:00:05.26,-0.0018732909811660602,-0.0081421909853816,0.00738805066794157,0,
00:00:05.264,-0.0277067944407463,-0.0169920437037945,-0.00352110061794519,0,
00:00:05.268,0.0005038470262661581,-0.00801768619567156,-0.00474260840564966,0,
00:00:05.272,0.0115716708824039,-0.00231946213170886,-0.00424424093216658,0,
00:00:05.276,-0.00488419365137815,-0.000131620283355005,0.00046463235048577195,0,
00:00:05.28,0.0017863028915599,0.008269627578556541,0.00552158756181598,0,
00:00:05.284,0.0029604646842926697,0.0164228156208992,0.00568250566720963,0,
00:00:05.288,0.0057319798506796395,0.00200573564507067,-0.0038344736676663204,0,
00:00:05.292,-0.00827659387141466,-0.0154993897303939,-0.00160666659940034,0,
00:00:05.296,-0.0005202888278290629,-0.0153789706528187,-0.004964355379343029,0,
00:00:05.3,-0.000408969033742324,0.00683004781603813,0.0077236723154783206,0,
00:00:05.304,0.00534448027610779,0.0236966069787741,-0.0006971424445509911,0,
00:00:05.308,-7.106632983777671e-05,0.00313479430042207,-0.0027198768220841898,0,
00:00:05.312,0.000138458286528476,-0.0070199784822762,-0.00381771475076675,0,
00:00:05.316,-0.0015772448386997,-0.0128904208540916,-0.00022172836179379398,0,
00:00:05.32,-0.00632098130881786,-0.0141429752111435,0.00661666505038738,0,
00:00:05.324,-0.0016221066471189302,-0.0111345117911696,0.000954042770899832,0,
00:00:05.328,0.004991066642105579,0.0169124454259872,-0.00159987306687981,0,
00:00:05.332,0.0063973730430007,0.0354032479226589,-0.00397953344509006,0,
00:00:05.336,0.00139924196992069,0.00130852242000401,0.000897501187864691,0,
00:00:05.34,-0.00894914008677006,-0.0249920710921288,0.00363889127038419,0,
00:00:05.344,-0.0020296843722462697,-0.0177508760243654,-0.0012537521542981302,0,
00:00:05.348,0.0021983156912028803,0.0122584886848927,-0.00389240914955735,0,
00:00:05.352,0.007282184436917309,0.0110912946984172,-0.000859238265547901,0,
00:00:05.356,0.0042309463024139396,-0.00215305970050395,0.00394876673817635,0,
00:00:05.36,-0.0110613731667399,-0.008757566101849079,0.00263912556692958,0,
00:00:05.364,0.00609453767538071,0.00346948765218258,0.00212500197812915,0,
00:00:05.368,-0.0104589201509953,-0.000666508451104164,-0.00560816191136837,0,
00:00:05.372,-0.00657257018610835,0.00435794051736593,-0.00347764883190393,0,
00:00:05.376,0.0120250517502427,0.00156753847841173,0.00244481931440532,0,
00:00:05.38,0.00906929094344378,-0.00786960311233997,0.00259360740892589,0,
00:00:05.384,-0.00318392249755561,-0.0030548518989235197,0.0009031143854372199,0,
00:00:05.388,-0.000496579043101519,0.0130407875403762,0.0015197095926851,0,
00:00:05.392,-1.92776205949485e-05,0.00521736079826951,-0.0030703109223395603,0,
00:00:05.396,-0.009037715382874009,-0.0063819652423262605,-0.0045715244486928,0,
00:00:05.4,-0.00806768890470266,-0.0162277072668076,0.0015122857876122,0,
00:00:05.404,0.008473147638142109,-0.00874259136617184,0.00268773688003421,0,
00:00:05.408,0.0168432574719191,0.008374929428100591,-0.000452402891824022,0,
00:00:05.412,-0.004908488132059571,0.0214003175497055,0.00213565933518112,0,
00:00:05.416,-0.0126263061538339,0.0112531222403049,0.000884417619090527,0,
00:00:05.42,-0.00060862977989018,-0.00243251002393663,-0.000753911794163287,0,
00:00:05.424,0.00557080656290054,-0.010066932067274999,-0.0014426187844947,0,
00:00:05.428,0.0012234243331477,-0.0226086881011724,-0.0011557305697351698,0,
00:00:05.432,-0.006567751988768579,-0.0145492665469646,-0.0024925295729190102,0,
00:00:05.436,0.00741435121744871,0.0146601600572467,0.00222077569924295,0,
00:00:05.44,0.0109013617038727,0.0217800885438919,0.0021980667952448104,0,
00:00:05.444,-0.0111557859927416,0.0112823313102126,0.00069002847885713,0,
00:00:05.448,-0.0175812784582376,-0.0243748314678669,-0.000569075287785381,0,
00:00:05.452,0.00661696027964354,-0.00785482954233885,-0.00516071356832981,0,
00:00:05.456,0.0212404038757086,0.0264600366353989,0.00525785749778152,0,
00:00:05.46,0.0065797409042716,0.0107459714636207,-0.0010188322048634302,0,
00:00:05.464,-0.0139983156695962,-0.0192790627479553,0.000872408738359809,0,
00:00:05.468,-0.0229687578976154,-0.020938953384757,0.00638125371187925,0,
00:00:05.472,-0.000233868791838177,-0.00868688244372606,-0.0107827950268984,0,
00:00:05.476,0.0133989667519927,0.012574271298944999,-0.00396263925358653,0,
00:00:05.48,0.0179760865867138,0.0299874376505613,0.00416593812406063,0,
00:00:05.484,0.00045519429841078796,0.007242155726999041,0.00655464036390185,0,
00:00:05.488,-0.0092063182964921,-0.0231857914477587,-0.0021542541217058897,0,
00:00:05.492,-0.00739572290331125,-0.0141152162104845,-0.00024892683723010096,0,
00:00:05.496,0.0018715427722781899,0.00512860668823123,-0.000265306298388168,0,
00:00:05.5,0.00811588298529387,0.00287701305933297,-0.0005578966811299321,0,
00:00:05.504,-0.0142304413020611,-0.00324060511775315,-0.000565252092201263,0,
00:00:05.508,-0.00221921992488205,0.0022377681452781,-0.00238092103973031,0,
00:00:05.512,0.013236871920526002,0.026658546179532994,0.00198976160027087,0,
00:00:05.516,0.00239225756376982,-0.00224740174598992,0.00186481268610805,0,
00:00:05.52,-0.00896282587200403,-0.0266158934682608,0.00251822336576879,0,
00:00:05.524,-0.0017372464062646,-0.0132103497162461,-0.0047089988365769395,0,
00:00:05.528,0.000623115221969783,0.0104645462706685,-0.0006321468972601,0,
00:00:05.532,0.00752703426405787,0.00863051787018776,-0.0033518006093800103,0,
00:00:05.536,0.00786429457366467,0.0102557698264718,0.00481281662359834,0,
00:00:05.54,-0.00118924921844155,0.010888172313570999,0.00785419624298811,0,
00:00:05.544,-0.0131887784227729,-0.0140443481504917,-0.0036181425675749796,0,
00:00:05.548,-0.00928441248834133,-0.00872152298688889,-0.00729112373664975,0,
00:00:05.552,0.009534008800983429,-0.005587387830019,-0.00275957630947232,0,
00:00:05.556,0.0036329065915197104,-0.0119561851024628,0.00391075992956758,0,
00:00:05.56,-0.0073426417075097596,0.00781022245064378,0.0037133423611521704,0,
00:00:05.564,0.0077085015363991295,0.0306442528963089,0.00128028704784811,0,
00:00:05.568,0.0101429168134928,0.010706614702940001,-0.000793329032603651,0,
00:00:05.572,-0.00172004860360175,-0.0143686644732952,-0.00574412988498807,0,
00:00:05.576,-0.00690297456458211,-0.0116726960986853,0.0047381278127431896,0,
00:00:05.58,-0.006126674357801679,-0.02216518484056,0.0028894522693008197,0,
00:00:05.584,-0.00874485168606043,-0.0116475624963641,-0.00512206787243485,0,
00:00:05.588,0.00480268523097038,0.0117993820458651,-0.0009711782331578429,0,
00:00:05.592,0.00752871297299862,0.0256646927446127,0.000778177927713841,0,
00:00:05.596,0.000540703302249312,0.0142658045515418,0.0010703019797802,0,
00:00:05.6,0.00460531981661916,-0.00105345482006669,-0.00140202697366476,0,
00:00:05.604,0.007468660362064841,-0.00782933365553617,0.00212093093432486,0,
00:00:05.608,-0.0062062437646091,-0.00839051976799965,0.00143437401857227,0,
00:00:05.612,-0.0125574255362153,-0.0137730594724417,-0.00220607616938651,0,
00:00:05.616,-0.004903089720755821,-0.00629171309992671,-0.0011650437954813199,0,
00:00:05.62,0.009320911020040509,0.0110965650528669,0.00874701607972384,0,
00:00:05.624,0.00043313839705660896,0.00804017297923565,-0.00676125660538673,0,
00:00:05.628,-0.00393222598358989,0.0116047328338027,-0.00567157380282879,0,
00:00:05.632,0.0115408767014742,-0.0105872238054872,-0.00047052773879840997,0,
00:00:05.636,0.0030089735519141,-0.0174727011471987,0.00719146616756916,0,
00:00:05.64,-0.00992290396243334,0.010411698371172,0.00374711537733674,0,
00:00:05.644,-0.0017896087374538198,0.010483774356544,-0.0051908902823925,0,
00:00:05.648,0.00298998784273863,0.000400487071601674,-0.00354240741580725,0,
00:00:05.652,-0.0028911093249917,-0.00804116390645504,0.000137614188133739,0,
00:00:05.656,0.00300780264660716,0.00207749311812222,0.00225126021541655,0,
00:00:05.66,-0.000469344726298004,0.0034680152311921102,0.00849717389792204,0,
00:00:05.664,-0.00292963534593582,-0.0051426780410111,-0.000697089242748916,0,
00:00:05.668,0.00382485100999475,-0.0059340773150324795,-0.0091071929782629,0,
00:00:05.672,1.25825517898193e-05,0.00390788493677974,-0.004791818093508479,0,
00:00:05.676,0.0011296577285975198,0.008226343430578709,0.00321783707477152,0,
00:00:05.68,-0.00470959628000855,-0.00469145365059376,0.006307085044682029,0,
00:00:05.684,-0.0018426151946187,-0.0126189049333334,0.000291206146357581,0,
00:00:05.688,0.00578189641237259,0.00532041909173131,-0.0037194795440882397,0,
00:00:05.692,0.00102467928081751,0.0107035869732499,-0.00156833382789046,0,
00:00:05.696,-0.00522007932886481,0.00287034059874713,0.0009594670264050359,0,
00:00:05.7,0.006717059761285779,0.00236935215070844,0.00398106640204787,0,
00:00:05.704,-0.0035712942481041,-0.00313776405528188,0.00772610120475292,0,
00:00:05.708,-0.00314833619631827,-0.009954806417226791,-0.00923093967139721,0,
00:00:05.712,0.0060716029256582295,-0.0006816997192800049,-0.00731625268235803,0,
00:00:05.716,2.63116089627147e-05,0.00171644054353237,0.0013084799284115401,0,
00:00:05.72,-0.00897024944424629,-0.000528583535924554,0.0037636577617377,0,
00:00:05.724,0.0012726252898573901,-0.005542377009987829,0.0049420860596001105,0,
00:00:05.728,0.0017429519211873401,0.00973535887897015,-0.0031244100537151103,0,
00:00:05.732,0.00873466394841671,0.0149796660989523,-0.00442663533613086,0,
00:00:05.736,0.0023283998016268,-0.00604360597208142,0.00628562131896615,0,
00:00:05.74,-0.0121975019574165,-0.0191671904176474,0.00132666900753975,0,
00:00:05.744,-0.0039868582971394105,-0.0114648779854178,-0.00153247837442905,0,
00:00:05.748,0.00666705099865794,0.0175706464797258,-0.00215731677599251,0,
00:00:05.752,0.00284615391865373,0.00969364400953054,-0.0013861962361261199,0,
00:00:05.756,-0.00173519412055612,-0.000269565789494663,-0.0023157114628702398,0,
00:00:05.76,0.00109675142448395,-0.0031481110490858603,0.0046265316195786,0,
00:00:05.764,0.006791458930820229,0.00347044761292636,-0.0015889899805188199,0,
00:00:05.768,-0.00644709914922714,-0.00103507132735103,0.0011251310352236,0,
00:00:05.772,-0.00802174489945173,-0.00678820768371224,-0.00122269010171294,0,
00:00:05.776,-0.00561537919566035,-0.0109443692490458,0.003949583042413001,0,
00:00:05.78,0.0118635082617402,0.00127184030134231,-0.00309863337315619,0,
00:00:05.784,0.0084581021219492,0.00513266818597913,-0.00019589104340411698,0,
00:00:05.788,-0.00786189548671246,0.0025776179973036103,0.000253953330684453,0,
00:00:05.792,0.00324900122359395,0.0127934664487839,-0.0020635926630348,0,
00:00:05.796,0.00335734873078763,0.0066251615062356,-0.000288463634205982,0,
00:00:05.8,-0.00637201918289065,0.0017279825406149,0.00551008665934205,0,
00:00:05.804,-0.007355400826781991,-0.009370739571750159,-0.00020885554840788202,0,
00:00:05.808,0.00509556056931615,-0.0209541916847229,-0.00430284859612584,0,
00:00:05.812,-0.00427660718560219,-0.0127292526885867,7.15913556632586e-05,0,
00:00:05.816,0.0059997197240591,0.0111863510683179,0.00510680349543691,0,
00:00:05.82,0.004364125896245239,0.00421202927827835,-0.00338922347873449,0,
00:00:05.824,-0.0061279209330678,0.00988534279167652,-0.0053465892560780005,0,
00:00:05.828,0.0012736205244436901,0.0208445005118847,-0.00072336255107075,0,
00:00:05.832,0.0061409147456288294,0.0055559198372066,0.007116987835615871,0,
00:00:05.836,-0.00343923829495907,-0.0136029990389943,0.00179469166323543,0,
00:00:05.84,-0.00617280835285783,-0.0230892673134804,-0.000990554806776345,0,
00:00:05.844,-0.0016728228656575099,-0.0206397771835327,-0.00382217578589916,0,
00:00:05.848,0.004442750476300721,0.009629728272557259,-0.00138630776200444,0,
00:00:05.852,0.005728738382458689,0.0248585809022188,0.0031885472126305103,0,
00:00:05.856,-0.00109547900501639,0.015923760831356003,0.00414871983230114,0,
00:00:05.86,-0.0049470583908259895,-0.00498926127329469,-0.0021073597017675604,0,
00:00:05.864,-6.696224590996279e-05,-0.0130627155303955,-0.00305302138440311,0,
00:00:05.868,0.00113540550228208,-0.00838245823979378,-0.00577357457950711,0,
00:00:05.872,0.00287412595935166,0.000887487607542425,0.00405594101175666,0,
00:00:05.876,0.000243650109041482,0.0035412546712905203,0.00437586940824986,0,
00:00:05.88,-0.00389722851105034,0.00285644340328872,0.0036052227951586203,0,
00:00:05.884,-0.00633249478414655,-0.000948674278333783,-0.0029680342413485102,0,
00:00:05.888,0.000245923612965271,0.009980198927223679,-0.0036026486195623896,0,
00:00:05.892,0.0173885356634855,-0.00302581512369215,-0.0038200712297111797,0,
00:00:05.896,-0.00248843454755843,-0.0111674116924405,0.000164804703672417,0,
00:00:05.9,-0.00703604845330119,-0.007292759604752059,0.00909687485545874,0,
00:00:05.904,-0.00663523934781551,-0.00635531079024076,-0.0028661398682743302,0,
00:00:05.908,0.00135785678867251,0.0149077046662569,-0.00331148109398782,0,
00:00:05.912,0.00152138900011778,0.0172485765069723,-0.000635688717011362,0,
00:00:05.916,0.00672925962135196,0.0059385453350842,0.0055079921148717395,0,
00:00:05.92,0.0025393839459866303,-0.0050266575999558,-0.000139174226205796,0,
00:00:05.924,-0.00410482101142406,-0.0138527499511838,-0.00218783528544009,0,
00:00:05.928,-0.00594461150467396,-0.0188184063881636,-0.00190762034617364,0,
00:00:05.932,0.000635649950709194,-0.00321832508780062,-0.0007122280658222731,0,
00:00:05.936,0.000401478901039809,0.0137384813278913,-0.00171479990240186,0,
00:00:05.94,0.00176821986678988,0.008714485913515091,0.00489780120551586,0,
00:00:05.944,-0.00206461665220559,0.00911348685622215,0.000430166779551655,0,
00:00:05.948,0.0176539588719606,0.00548801431432366,-0.00523593043908477,0,
00:00:05.952,0.00185570155736059,-0.00468555884435773,0.00291941268369555,0,
00:00:05.956,-0.0181072000414133,-0.0137223955243826,0.00286052678711712,0,
00:00:05.96,-0.013968788087368,-0.0101577797904611,0.00255644973367453,0,
00:00:05.964,0.00178749510087073,-0.00199804781004786,-0.0012096819700673199,0,
00:00:05.968,0.00252217287197709,0.00864726863801479,-0.007408359088003641,0,
00:00:05.972,0.009935093112289909,0.0152521198615432,-0.00302055897191167,0,
00:00:05.976,0.0168679412454367,0.00471128197386861,0.00409839395433664,0,
00:00:05.98,-0.000690053857397288,-0.0134872775524855,0.0041694873943924895,0,
00:00:05.984,-0.00635712500661612,-0.00267567345872521,0.00168030511122197,0,
00:00:05.988,-0.00816419906914234,0.0023557054810226,-0.000632876646704972,0,
00:00:05.992,-0.00777615094557405,0.000655841431580484,-0.00374422897584736,0,
00:00:05.996,-0.00577512662857771,-0.0116159431636333,0.000488999939989299,0,
00:00:06,0.00524449814110994,-0.0062001864425838,0.000953941023908556,0,
00:00:06.004,0.0142942657694221,0.021351283416152,0.000282897788565606,0,
00:00:06.008,0.0036716600880026796,0.0189949981868267,-0.00030181268812157203,0,
00:00:06.012,-0.0139419874176383,-0.0161915887147188,-0.00045725895324721905,0,
00:00:06.016,0.0021578383166343,-0.0174164641648531,-0.0023608177434653,0,
00:00:06.02,0.0082552544772625,0.0020449755247682303,0.0040360032580792895,0,
00:00:06.024,-0.0026080703828483803,0.0127929700538516,-0.00223304540850222,0,
00:00:06.028,-0.0045678187161684,0.00471609085798264,0.000735861482098699,0,
00:00:06.032,-0.0025296539533883303,-0.0162353496998549,-0.00336574926041067,0,
00:00:06.036,0.0042550559155643,-0.0031410718802362698,0.00607786932960153,0,
00:00:06.04,-0.00231017521582544,0.0047155520878732204,0.00291244266554713,0,
00:00:06.044,-0.00771952280774713,0.00419606873765588,-0.00380713562481105,0,
00:00:06.048,0.0107866693288088,0.00789347197860479,-0.00796384084969759,0,
00:00:06.052,0.00280848471447825,0.00631660455837846,0.00255620945245028,0,
00:00:06.056,-0.0011676863068714699,-0.00101273716427386,0.006162547972053289,0,
00:00:06.06,-0.00225963559933007,-0.0122362514957786,0.000109660992166027,0,
00:00:06.064,-0.0037767037283629205,-0.0130691463127732,-0.0018493595998734199,0,
00:00:06.068,0.00759679591283202,-0.00170684163458645,-0.00573231047019362,0,
00:00:06.072,-0.0081580700352788,0.0111335059627891,0.00546886306256056,0,
00:00:06.076,-0.00222341413609684,0.00488023087382317,0.0016166060231626,0,
00:00:06.08,0.0023818826302886,-0.00389609998092055,-0.00062379048904404,0,
00:00:06.084,0.00781787745654583,0.00649742828682065,-0.00129709916654974,0,
00:00:06.088,0.006810196209698921,0.016610162332654,-0.00303910952061415,0,
00:00:06.092,-0.0107471020892262,-0.00654315389692783,0.00169006723444909,0,
00:00:06.096,-0.0100718419998884,-0.0176406353712082,0.0018992131808772698,0,
00:00:06.1,0.0034618563950061802,-0.00571569334715605,0.000646258762571961,0,
00:00:06.104,0.00595678947865963,-0.00520660961046815,0.00162419804837555,0,
00:00:06.108,-0.0027153464034199697,-0.00477612437680364,-0.00697869993746281,0,
00:00:06.112,0.00825953017920256,0.0184146147221327,0.00165102968458086,0,
00:00:06.116,0.0115943793207407,0.016210651025176003,0.000814729195553809,0,
00:00:06.12,-0.0130534265190363,0.00661752093583345,0.00540843466296792,0,
00:00:06.124,-0.0142876524478197,-0.0137186739593744,0.00348572572693229,0,
00:00:06.128,-0.0034681945107877302,-0.0154998460784554,-0.00862830597907305,0,
00:00:06.132,0.00539450207725167,-0.00343976728618145,-0.00543918879702687,0,
00:00:06.136,0.010053176432848,-0.00463450606912375,0.0005377294728532429,0,
00:00:06.14,0.00359777268022299,0.0135059393942356,0.00598494755104184,0,
00:00:06.144,0.0018345523858442898,0.0168688669800758,0.0060737170279026,0,
00:00:06.148,0.000135657319333404,0.00235422374680638,-0.001596201909706,0,
00:00:06.152,-0.00576130067929626,-0.0192201547324657,-0.007768304087221621,0,
00:00:06.156,-0.0027864817529916802,-0.00737668247893453,0.0034462041221559,0,
00:00:06.16,-0.0056110653094947295,-0.0008480160031467679,0.000635995587799698,0,
00:00:06.164,0.00156736792996526,0.00480369105935097,-0.000533542945049703,0,
00:00:06.168,0.00589602626860142,0.00816083326935768,-0.00477223051711917,0,
00:00:06.172,0.00309145916253328,0.0081770857796073,0.00578154856339097,0,
