Elapsed Time,EMG1,EMG2,EMG3,BioRadio Event,Unnamed: 5
00:00:00,0.201350674033165,-2.12767457962036,3.5599627494812,0,
00:00:00.004,-0.199909389019012,2.022629737854,-3.38352632522583,0,
00:00:00.008,-0.14722532033920302,1.6892209053039597,-2.82213020324707,0,
00:00:00.012,-0.00210052193142474,0.18330736458301503,-0.30492970347404497,0,
00:00:00.016,0.0652416571974754,-0.8729369640350341,1.4445028305053702,0,
00:00:00.02,0.0880784466862679,-1.05790519714355,1.76830422878265,0,
00:00:00.024,0.0530921407043934,-0.644483029842377,1.08229696750641,0,
00:00:00.028,0.0186141394078732,-0.0768042504787445,0.136751875281334,0,
00:00:00.032,-0.0221637859940529,0.310648411512375,-0.511555254459381,0,
00:00:00.036,-0.0269066784530878,0.421127170324326,-0.706511795520782,0,
00:00:00.04,-0.0295549053698778,0.304879367351532,-0.5156482458114621,0,
00:00:00.044,-0.0266251843422651,0.11451941728591901,-0.19611039757728602,0,
00:00:00.048,0.00251838960684836,-0.0404168590903282,0.0750154852867126,0,
00:00:00.052,0.013856889680027998,-0.123069107532501,0.20857639610767398,0,
00:00:00.056,0.013032590970397,-0.121969774365425,0.18901024758815801,0,
00:00:00.06,0.0128783257678151,-0.0615760013461113,0.10413994640111901,0,
00:00:00.064,-0.0120221404358745,-0.00284076109528542,0.00399333378300071,0,
00:00:00.068,-0.00468441378325224,0.032514151185750996,-0.0528209358453751,0,
00:00:00.072,0.0063765947706997395,0.0480185560882092,-0.0672618746757507,0,
00:00:00.076,0.00435970025137067,0.0319078415632248,-0.0490069352090359,0,
00:00:00.08,-0.0111234625801444,-0.00141714257188141,-0.00590399000793695,0,
00:00:00.084,-0.00860248971730471,-0.0159254390746355,0.0138116683810949,0,
00:00:00.088,0.0012857075780630099,-0.00721710175275803,0.0200566407293081,0,
00:00:00.092,0.0175031684339046,-0.00529316579923034,0.0154037578031421,0,
00:00:00.096,0.00123408040963113,-0.0098242312669754,0.00827297195792198,0,
00:00:00.1,-0.0068126330152154,-0.0014702248154208099,-0.00170127849560231,0,
00:00:00.104,-0.00477777747437358,0.00981551595032215,-0.015537828207016,0,
00:00:00.108,-0.00065438129240647,0.0095966886729002,0.00688720727339387,0,
00:00:00.112,0.00611779000610113,-0.000352747534634545,-0.0032868473790586,0,
00:00:00.116,0.00259252870455384,-0.0063723991625011,-0.0105931162834167,0,
00:00:00.12,-0.00584000861272216,-0.0041114054620266,0.00424432102590799,0,
00:00:00.124,-0.00148565415292978,-0.000300671206787229,0.00604360364377499,0,
00:00:00.128,0.00270840176381171,0.0020168642513454,-0.00121732638217509,0,
00:00:00.132,-0.00285404920578003,0.0043830806389451,-0.000605632667429745,0,
00:00:00.136,-0.0029248155187815397,-0.0048091160133481,0.00517134228721261,0,
00:00:00.14,0.0057317242026329,0.0106791434809566,-0.000418813753640279,0,
00:00:00.144,0.008310612291097641,0.00275968248024583,0.0038344869390130004,0,
00:00:00.148,-0.00374898011796176,-0.014204228296876,-0.0100816553458571,0,
00:00:00.152,-0.00981276854872704,-0.010659096762538001,-0.005888599902391429,0,
00:00:00.156,0.00293109123595059,0.005080153234302999,0.00540991686284542,0,
00:00:00.16,-0.0027842300478369,0.00610589887946844,0.00315506756305695,0,
00:00:00.164,0.008699260652065279,0.00290839839726686,0.00152211985550821,0,
00:00:00.168,-0.00252788723446429,0.00424186373129487,0.000239514964050613,0,
00:00:00.172,0.0011446129065007,0.007440908346325159,-0.000556527753360569,0,
00:00:00.176,-0.00035673446836881296,-0.00562952645123005,-0.000805617950391024,0,
00:00:00.18,-0.00596231035888195,-0.009845349006354809,0.00143753329757601,0,
00:00:00.184,-0.00617611361667514,-0.00661107013002038,-0.000190137187018991,0,
00:00:00.188,0.0124307917430997,0.00543368980288506,-0.0056699486449360795,0,
00:00:00.192,0.003159154439345,0.0059655224904418,0.00657300557941198,0,
00:00:00.196,0.000286824040813372,0.0045630712993443,-0.00549204368144274,0,
00:00:00.2,-0.0050702323205769105,-0.00482127536088228,0.00129361904691905,0,
00:00:00.204,-0.0038518141955137296,-0.00602480443194509,-2.74033864116063e-05,0,
00:00:00.208,-0.00704645225778222,-0.000676638213917613,0.00485324487090111,0,
00:00:00.212,0.00111005594953895,0.00741293001919985,-0.00487903039902449,0,
00:00:00.216,0.0191330686211586,0.00612431205809116,0.00163319462444633,0,
00:00:00.22,0.00100467912852764,0.00123168376740068,-0.00047370168613269903,0,
00:00:00.224,-0.00024789813323877795,-0.009094762615859509,-0.000131830413010903,0,
00:00:00.228,-0.0103674717247486,-0.0108550582081079,0.00044698736746795497,0,
00:00:00.232,-0.0142103368416429,0.000899762846529484,-0.00150307337753475,0,
00:00:00.236,0.00211469456553459,0.0124816857278347,0.00436020502820611,0,
00:00:00.24,0.0037428252398967704,-0.00206759502179921,0.00376374227926135,0,
00:00:00.244,0.0127004496753216,-0.000181069990503602,-0.00778319733217359,0,
00:00:00.248,0.00396588491275907,0.0006301737739704549,-0.006810865364968779,0,
00:00:00.252,-0.000163055912707932,0.00459031062200665,0.0110575072467327,0,
00:00:00.256,-0.00857273116707802,-0.00200618943199515,0.0036994412075728204,0,
00:00:00.26,-0.0054504629224538794,-0.00581958098337054,-0.00878872070461512,0,
00:00:00.264,0.0039746207185089606,-0.00471716886386275,0.00133858690969646,0,
00:00:00.268,-0.000960678386036307,0.00510895811021328,-0.00454193446785212,0,
00:00:00.272,3.06339607050177e-05,0.00448498222976923,0.00162494159303606,0,
00:00:00.276,0.0035839576739817897,0.0010043935617432,0.00144378154072911,0,
00:00:00.28,0.00185832590796053,-0.0015843678265810002,0.00868926383554935,0,
00:00:00.284,0.0015077355783432698,-0.004334590397775171,0.000403172569349408,0,
00:00:00.288,-0.00998868234455585,-0.00161403580568731,-0.00803486630320549,0,
00:00:00.292,0.0109568778425455,-0.000846287875901908,0.00186225189827383,0,
00:00:00.296,-0.008042686618864541,0.00428358977660537,-0.0029734200797975102,0,
00:00:00.3,0.0009982546325773,0.00964106153696775,0.000745740486308932,0,
00:00:00.304,-0.00231477781198919,0.00103071518242359,-0.0029355688020587,0,
00:00:00.308,0.00436613988131285,-0.0184097066521645,0.00457201572135091,0,
00:00:00.312,-0.00363497482612729,-0.00149252091068774,0.00329234264791012,0,
00:00:00.316,0.003327815560624,0.0117043731734157,-0.00407176138833165,0,
00:00:00.32,0.00892946030944586,-0.00234659225679934,0.00201420020312071,0,
00:00:00.324,-0.00993916671723127,-0.000197941815713421,0.00322030461393297,0,
00:00:00.328,-0.00466210208833218,0.00289206462912261,-0.00280849635601044,0,
00:00:00.332,0.00284986826591194,0.00291134906001389,-0.007496078498661521,0,
00:00:00.336,0.00754738971590996,-0.007511966861784459,0.00037530274130404,0,
00:00:00.34,-0.00250673037953675,0.000221394671825692,0.0036502869334071896,0,
00:00:00.344,-0.00581278931349516,-0.000420175085309893,0.00751793524250388,0,
00:00:00.348,-0.0038357009179890203,-0.00130213878583163,-0.00042150396620854703,0,
00:00:00.352,0.008196789771318441,0.00549632729962468,-0.00567578291520476,0,
00:00:00.356,0.000954712275415659,0.0008443151600658889,-0.00337248388677835,0,
00:00:00.36,0.0012293630279600599,0.00102181697729975,0.00014984799781814199,0,
00:00:00.364,-0.0006246897391974929,0.000858490588143468,0.00420866487547755,0,
00:00:00.368,-0.0018004085868597,-0.004338134545832871,0.0023020850494504,0,
00:00:00.372,-0.0037769980262965,-0.007703259121626621,-0.0024745413102209603,0,
00:00:00.376,0.00738319754600525,0.00312666106037796,-0.003959709778428079,0,
00:00:00.38,-0.00623146584257483,0.00255455262959003,0.00392090855166316,0,
00:00:00.384,-0.00209582783281803,0.00232112361118197,0.004782066680490971,0,
00:00:00.388,-0.00107225065585226,0.00558621529489756,-0.004349858034402129,0,
00:00:00.392,0.00411881972104311,-0.00162407371681184,0.0024777629878372,0,
00:00:00.396,0.00544097041711211,-0.0038324813358485703,-0.0106728235259652,0,
00:00:00.4,-0.00738261872902513,-0.00909712910652161,0.0006778233801014719,0,
00:00:00.404,0.00520544266328216,0.00302399857901037,0.00902653858065605,0,
00:00:00.408,0.000989729771390557,0.00978557858616114,0.00026127239107154304,0,
00:00:00.412,0.000477579567814246,0.00163453968707472,0.00245224079117179,0,
00:00:00.416,-0.00410262309014797,-0.0048834029585123106,-0.007166601251810791,0,
00:00:00.42,-0.0050428849644959,-0.0036794040352106103,0.000577076338231564,0,
00:00:00.424,-0.000454538210760802,-0.0006281134556047621,-0.000340488652000204,0,
00:00:00.428,-0.00321922521106899,0.00145384203642607,0.000612465024460107,0,
00:00:00.432,0.0219740997999907,0.00397481024265289,0.00535268848761916,0,
00:00:00.436,0.00350622087717056,0.00338158151134849,-0.0050364709459245205,0,
00:00:00.44,-0.0212179943919182,-0.005401019472628829,-0.0009691143059171741,0,
00:00:00.444,-0.00324229872785509,-0.00399406254291534,0.00517113972455263,0,
00:00:00.448,-0.0009251442970708009,0.0018128016963601102,-0.000571264827158302,0,
00:00:00.452,0.00569506734609604,0.0001709387433948,-0.008713595569133759,0,
00:00:00.456,0.00739942211657763,-0.00332676712423563,0.00813478231430054,0,
00:00:00.46,-0.0018564163474366101,0.00934544391930103,0.00044720442383550097,0,
00:00:00.464,-0.00454983208328485,0.00440759258344769,-0.00212709698826075,0,
00:00:00.468,0.0032905018888413897,-0.0045819808728992896,-0.0038957376964390295,0,
00:00:00.472,0.00439004832878709,-0.007677447050809859,-0.00270785624161363,0,
00:00:00.476,-0.00038336345460265897,-0.00506935594603419,0.00405670097097754,0,
00:00:00.48,-0.00569706223905087,0.0037422094028443102,0.0063773738220334105,0,
00:00:00.484,-0.00588632747530937,0.007446847390383479,0.00191028544213623,0,
00:00:00.488,0.00378454080782831,0.00540624186396599,-0.00222625955939293,0,
00:00:00.492,-0.00241977931000292,-0.0011215675622224801,-0.007774432189762591,0,
00:00:00.496,0.00912687741219997,-0.008996398188173771,-0.0028667887672781897,0,
00:00:00.5,-0.00217246194370091,-0.00688569620251656,0.0126804010942578,0,
00:00:00.504,-0.000817916879896075,0.00295113469474018,0.000555249163880944,0,
00:00:00.508,-0.00474479468539357,0.0056082736700773204,-0.00890609994530678,0,
00:00:00.512,0.0054917992092669,0.0060011697933077795,-0.00481514725834131,0,
00:00:00.516,-0.00112343032378703,-0.0031237925868481398,-0.000922850100323558,0,
00:00:00.52,-0.0014903001720085699,0.0010783598991110901,0.00616384297609329,0,
00:00:00.524,0.010165536776185,0.00154041836503893,0.0034277550876140603,0,
00:00:00.528,-0.009171033278107641,-0.00621670158579946,0.0163387060165405,0,
00:00:00.532,-0.00739007582888007,-0.00186160649172962,-0.0135678667575121,0,
00:00:00.536,0.00160033034626395,-0.00167908705770969,-0.0103472340852022,0,
00:00:00.54,0.00629887636750937,0.00114954693708569,-0.00255545089021325,0,
00:00:00.544,0.00122891878709197,0.004809269215911629,0.0072826212272048,0,
00:00:00.548,-0.0027070171199739,0.000438076793216169,0.000860134256072342,0,
00:00:00.552,0.0010608751326799401,0.00561494613066316,0.000166590340086259,0,
00:00:00.556,0.00106361182406545,-0.00852720439434052,0.000640218204353005,0,
00:00:00.56,0.0020964490249753,-0.00526555068790913,0.00279439892619848,0,
00:00:00.564,-0.00270539615303278,0.0051034688949585,0.00041041208896786,0,
00:00:00.568,-0.00248307478614151,0.00651318999007344,-0.00382700259797275,0,
00:00:00.572,-0.0027548291254788602,-0.00320657924748957,-0.00234139920212328,0,
00:00:00.576,0.00691634137183428,0.000652747810818255,0.006357123143970971,0,
00:00:00.58,-0.007254764903336759,-0.00909072998911142,-0.0085477689281106,0,
00:00:00.584,0.00793648138642311,0.00171911390498281,0.000590972078498453,0,
00:00:00.588,-0.00197088741697371,0.00874290335923433,0.0118571883067489,0,
00:00:00.592,-0.00240804255008698,0.00131643400527537,-0.0030074855312705,0,
00:00:00.596,0.0058624641969799995,-0.00671224063262343,-0.0118804825469851,0,
00:00:00.6,-0.0048254621215164705,0.000819414155557752,0.000781841110438108,0,
00:00:00.604,-0.00154867686796933,0.00146507180761546,0.0008862637332640589,0,
00:00:00.608,0.00231616524979472,0.000218145753024146,0.0184608362615108,0,
00:00:00.612,-0.00110241619404405,-0.000726484751794487,-0.00315664638765156,0,
00:00:00.616,-0.00294883060269058,-0.0029272558167576803,-0.0149671118706465,0,
00:00:00.62,8.20157947600819e-05,-0.000528822711203247,0.0019377839053049699,0,
00:00:00.624,0.00650732638314366,0.0037109840195626,-0.000350402668118477,0,
00:00:00.628,-0.0014382767258212,-0.0019223189447075103,0.00310007575899363,0,
00:00:00.632,-0.00202410365454853,-0.0024976951535791198,0.000103726248198655,0,
00:00:00.636,0.00150784698780626,0.00970061216503382,0.00020079898240510401,0,
00:00:00.64,0.0027585967909544698,0.00587190082296729,0.0006162589415907861,0,
00:00:00.644,-0.00267234165221453,-0.00753964111208916,0.0047170128673315,0,
00:00:00.648,-0.00288108037784696,-0.00796100124716759,-0.0037839373107999602,0,
00:00:00.652,0.000980172189883888,-0.00533118564635515,-0.0035283009056001897,0,
00:00:00.656,-0.00136742845643312,-0.000854668498504907,-0.000800082227215171,0,
00:00:00.66,-0.0023571178317070003,0.004907802212983371,0.00335342646576464,0,
00:00:00.664,0.00506385043263435,0.0126557713374496,-0.0042985905893147,0,
00:00:00.668,-0.00101538794115186,0.00653928704559803,0.0118422284722328,0,
00:00:00.672,0.00353555707260966,-0.00803735200315714,-0.00453596422448754,0,
00:00:00.676,-0.0011455689091235401,-0.0130241792649031,-0.0058463457971811295,0,
00:00:00.68,-0.00409226818010211,-0.00012238384806551,-1.68163405760424e-05,0,
00:00:00.684,0.00285471929237247,0.00205675279721618,0.00147319724783301,0,
00:00:00.688,0.00164387060794979,0.007760852109640841,-0.00300423451699317,0,
00:00:00.692,-0.00909315049648285,0.0012737882789224401,0.000192640392924659,0,
00:00:00.696,0.0101794172078371,-0.00590764451771975,0.009158443659543991,0,
00:00:00.7,-0.0050819572061300295,-0.00034254745696671296,-0.00074555748142302,0,
00:00:00.704,0.00295034609735012,0.00600209133699536,-0.00331829767674208,0,
00:00:00.708,-0.000343832420185208,0.00190810253843665,0.00171653868164867,0,
00:00:00.712,0.00099971005693078,-0.00663611898198724,-0.004616281483322379,0,
00:00:00.716,-0.00472016865387559,-0.00613898597657681,-0.000585198751650751,0,
00:00:00.72,-0.00178865389898419,0.000349857029505074,-0.0012953719124198,0,
00:00:00.724,-0.000370181020116434,0.0086554978042841,0.00081371859414503,0,
00:00:00.728,0.0111658293753862,0.00900441687554121,0.00420260708779097,0,
00:00:00.732,0.0020180640276521397,-0.00264218100346625,-5.3927196859149296e-05,0,
00:00:00.736,-0.0040307063609361605,-0.0111185386776924,-0.000816164654679596,0,
00:00:00.74,-0.0073395427316427205,-0.00370005471631885,0.00160863192286342,0,
00:00:00.744,-0.00335033587180078,0.00341839715838432,-0.0020246230997145198,0,
00:00:00.748,-0.00299181253649294,-0.0028378504794091,0.000561638036742806,0,
00:00:00.752,-0.00101823906879872,0.000990491942502558,-0.006209170445799829,0,
00:00:00.756,0.0225273612886667,0.00626598857343197,0.009360137395560741,0,
00:00:00.76,0.00460497569292784,0.0041888011619448705,-0.003972987644374371,0,
00:00:00.764,-0.013778492808341999,0.00441574212163687,0.00290260394103825,0,
00:00:00.768,-0.0106416624039412,-0.00220047845505178,-0.00142913439776748,0,
00:00:00.772,6.3841842347756e-05,-0.008112144656479359,-0.00846302043646574,0,
00:00:00.776,0.008343204855918879,-0.00966059789061546,0.0026212888769805397,0,
00:00:00.78,-0.00199418561533093,0.00322780129499733,0.0070013981312513395,0,
00:00:00.784,0.0006819989648647611,0.0038165971636772203,0.00308015919290483,0,
00:00:00.788,-0.000865163339767605,0.00783703476190567,-0.0034202744718641,0,
00:00:00.792,0.00676741823554039,-0.0037845754995942103,-0.00339450524188578,0,
00:00:00.796,-0.00035422947257757203,-0.0009432057850062849,-0.00124156451784074,0,
00:00:00.8,-0.013956481590866997,0.0044404175132513,0.000626979803200811,0,
00:00:00.804,0.0106855323538184,0.000612382136750966,0.0075927255675196596,0,
00:00:00.808,0.000757578178308904,-0.005087763536721471,-0.00688411993905902,0,
00:00:00.812,5.881346805836071e-05,-0.0100268442183733,-0.00459792744368315,0,
00:00:00.816,-0.00975825637578964,0.00325652724131942,0.00704321451485157,0,
00:00:00.82,0.0102252960205078,0.0127733247354627,-0.00424834433943033,0,
00:00:00.824,-0.0068028373643755895,0.0005368659039959309,0.008847003802657129,0,
00:00:00.828,0.0094080213457346,-0.0040271757170558,-0.00114942889194936,0,
00:00:00.832,-0.00665657036006451,-0.00589983910322189,-0.00836984161287546,0,
00:00:00.836,-0.000268093281192705,-0.0038541620597243296,-0.0013187247095629599,0,
00:00:00.84,-0.000789968704339117,0.00597701501101255,0.0023467270657420197,0,
00:00:00.844,0.00488306023180485,0.00902852043509483,0.004989850800484421,0,
00:00:00.848,0.00382104469463229,-0.00305628124624491,-0.000257999228779227,0,
00:00:00.852,-0.00174934242386371,-0.007325996644794941,0.000594223500229418,0,
00:00:00.856,-0.0129235051572323,-0.005176081787794829,-0.005091276019811629,0,
00:00:00.86,-0.00014599585847463502,0.00553735718131065,7.23671255400404e-05,0,
00:00:00.864,-0.0012022234732285099,0.0051673292182385895,0.00379685405641794,0,
00:00:00.868,0.016985671594739,0.0035281644668430103,0.00150652613956481,0,
00:00:00.872,0.0053826677612960295,-0.00557891838252544,-0.00525576528161764,0,
00:00:00.876,-0.0128764621913433,-0.0042330902069807105,-0.000200400812900625,0,
00:00:00.88,-0.010386542417109,0.00160849164240062,-0.000430612271884456,0,
00:00:00.884,0.0106422118842602,0.00418573105707765,0.00555522972717881,0,
00:00:00.888,0.007311807945370671,0.000958250253461301,-0.00389855820685625,0,
00:00:00.892,-0.00275134923867881,-0.00600616028532386,0.004305710550397629,0,
00:00:00.896,-0.00940803345292807,-0.00477726431563497,0.00794876273721457,0,
00:00:00.9,-0.00158117653336376,0.00355070899240673,-0.0120361344888806,0,
00:00:00.904,0.000594218436162919,0.00709474924951792,-0.006351432297378779,0,
00:00:00.908,0.0075093600898981094,0.00712195644155145,0.000279730826150626,0,
00:00:00.912,0.00391049357131124,-0.00752581749111414,-0.000269056035904214,0,
00:00:00.916,-0.007223026361316441,-0.0109946290031075,0.00592787470668554,0,
00:00:00.92,0.00248149479739368,0.00843254197388887,0.00539028644561768,0,
00:00:00.924,0.00177521735895425,0.00163568323478103,0.0144066661596298,0,
00:00:00.928,-0.00294899707660079,0.000965756713412702,-0.0110318334773183,0,
00:00:00.932,-0.00226596696302295,-0.00336748780682683,-0.0166336372494698,0,
00:00:00.936,-0.000223718481720425,-0.00227990164421499,-0.00111564982216805,0,
00:00:00.94,0.0011739864712581,-0.00207924912683666,0.007442575879395009,0,
00:00:00.944,-0.000643607694655657,0.0034052778501063603,0.0036621994804590897,0,
00:00:00.948,0.00287008355371654,0.0032370926346629897,0.00133874081075191,0,
00:00:00.952,-0.000290634110569954,0.00110816361848265,-0.0042597777210176,0,
00:00:00.956,0.00799087155610323,-0.0069811916910111895,0.00522448681294918,0,
00:00:00.96,-0.00775097263976932,0.00234942301176488,-0.0016451458213850901,0,
00:00:00.964,-0.00421472731977701,0.00565653527155519,-0.00404692115262151,0,
00:00:00.968,-0.0005218256264925,0.00580295734107494,0.0139195518568158,0,
00:00:00.972,0.00372836412861943,-0.00407692603766918,-0.00544870970770717,0,
00:00:00.976,-0.00198198412545025,-0.0107708740979433,-0.016914201900363,0,
00:00:00.98,-0.000401133496779948,-0.00453123077750206,0.00134296447504312,0,
00:00:00.984,0.0037388661876320796,0.00452602375298738,0.00912501383572817,0,
00:00:00.988,0.00220417976379395,0.0055743707343936,0.0037013206165283897,0,
00:00:00.992,-0.00242403359152377,-0.0011203333269804699,-0.00387071026489139,0,
00:00:00.996,0.00433215498924255,0.0019552365411073,0.00259605050086975,0,
00:00:01,-0.00618698261678219,0.00568257179111242,0.00168654951266944,0,
00:00:01.004,0.00414594495669007,0.0022768345661461397,-0.0006910805823281411,0,
00:00:01.008,-0.0116917807608843,-0.0103521822020411,-0.00198091729544103,0,
00:00:01.012,0.00659464811906219,-0.0025279747787863,-0.00388288451358676,0,
00:00:01.016,0.0038125992286950398,-0.00376060861162841,0.0032350483816117,0,
00:00:01.02,-0.00157559802755713,0.0030834591016173397,0.0019402517937123802,0,
00:00:01.024,0.0006016205297783019,0.00432445155456662,-0.00268535991199315,0,
00:00:01.028,-0.00412988709285855,0.00264532933942974,-0.00188011361751705,0,
00:00:01.032,0.00322790700010955,0.000361787271685898,-0.0019647807348519603,0,
00:00:01.036,-0.00378541648387909,-0.00530501455068588,0.00330883264541626,0,
00:00:01.04,0.0016722676809877198,0.00242194486781955,0.000975915580056608,0,
00:00:01.044,0.00308796134777367,0.00221185805276036,0.00499405153095722,0,
00:00:01.048,-0.000141508644446731,-0.0020526607986539602,-0.0053261904977262,0,
00:00:01.052,0.0165874864906073,0.0005425058188848201,-0.00317398901097476,0,
00:00:01.056,-0.0133844260126352,0.00422777095809579,0.0112387156113982,0,
00:00:01.06,-0.006590036675333979,-0.00253949780017138,-0.000867268186993897,0,
00:00:01.064,-0.0111386654898524,-0.008142208680510521,-0.0076516740955412405,0,
00:00:01.068,0.0036494254600256703,-0.00461315037682652,-0.0110920947045088,0,
00:00:01.072,0.00591464294120669,0.0071544898673892,0.00789526477456093,0,
00:00:01.076,0.00584962777793407,0.006736368872225279,0.00997131038457155,0,
00:00:01.08,0.0116383880376816,0.00431170547381043,-0.00178752513602376,0,
00:00:01.084,-0.0056200297549367,-0.0035967896692454798,-0.00608526915311813,0,
00:00:01.088,-0.0104673001915216,-0.0089044077321887,-0.00033471779897809,0,
00:00:01.092,-0.00482999812811613,0.00125027226749808,-0.000492653052788228,0,
00:00:01.096,0.00553067354485393,0.007275903131812809,0.00130869471468031,0,
00:00:01.1,0.00862328056246042,-0.00427124788984656,0.00412750151008368,0,
00:00:01.104,-0.00530217308551073,-0.00339281628839672,0.00362724252045155,0,
00:00:01.108,-0.00517350295558572,0.0043694376945495605,-0.00531043997034431,0,
00:00:01.112,-0.00519189331680536,-0.0015555970603600099,-0.0020466095302254,0,
00:00:01.116,0.00398818263784051,0.00120418053120375,-0.00457166507840157,0,
00:00:01.12,0.00815462786704302,0.00296996557153761,0.0105299018323421,0,
00:00:01.124,0.00390164577402174,-0.0020782719366252396,-0.00412512058392167,0,
00:00:01.128,-0.00114699895493686,-0.0023527811281383,-0.00209033489227295,0,
00:00:01.132,0.00254717818461359,-0.0029780010227114,-0.00237368606030941,0,
00:00:01.136,-0.0114486496895552,0.000367545842891559,0.00267657777294517,0,
00:00:01.14,-0.00879614427685738,0.00674625718966126,0.0046105869114399,0,
00:00:01.144,0.00728781381621957,0.00489442842081189,-0.00329472962766886,0,
00:00:01.148,0.00315361935645342,-0.00587127031758428,0.0016966690309345698,0,
00:00:01.152,0.0084201768040657,-0.00750790676102042,0.000344008993124589,0,
00:00:01.156,-0.004533462692052129,-0.007851632311940191,-0.00768106849864125,0,
00:00:01.16,-0.000453050393844023,0.0132640926167369,-0.0021513800602406302,0,
00:00:01.164,-0.00508736679330468,0.0074688526801765,0.00978575553745031,0,
00:00:01.168,-0.0017877728678286102,-0.00183056143578142,0.007573298644274471,0,
00:00:01.172,0.0038744795601815,0.00428542634472251,-0.009409374557435509,0,
00:00:01.176,0.0135355982929468,-0.00658652698621154,-0.00452464865520597,0,
00:00:01.18,-0.0133511060848832,-0.00926999561488628,0.00439572241157293,0,
00:00:01.184,-0.00957122910767794,-0.007415063213556999,0.000674959854222834,0,
00:00:01.188,0.00261013861745596,0.00862117763608694,-0.0007115074549801651,0,
00:00:01.192,0.0128217125311494,0.0083243977278471,-0.00281694182194769,0,
00:00:01.196,0.0011953253997489801,-0.00340786995366216,-0.000358921533916146,0,
00:00:01.2,-0.00125748512800783,-5.998560664011171e-05,0.0038073991890996703,0,
00:00:01.204,-0.009619303978979591,0.0011528917821124198,0.00427393801510334,0,
00:00:01.208,0.000540802779141814,0.00286100199446082,-0.0043949377723038205,0,
00:00:01.212,0.00315270619466901,0.00206311815418303,0.000682537502143532,0,
00:00:01.216,0.00432834308594465,-0.00428486382588744,-0.004270860459655521,0,
00:00:01.22,-0.00147797050885856,-0.00011126699973829099,-0.0015523879555985301,0,
00:00:01.224,-0.0023764178622514,-0.0035532698966562705,0.00579887954518199,0,
00:00:01.228,-0.00124999904073775,-0.0106978928670287,0.000927093031350523,0,
00:00:01.232,8.99780352483504e-05,0.00794160552322865,-0.0032061617821455,0,
00:00:01.236,0.000821756664663553,0.00829584337770939,-0.00353329768404365,0,
00:00:01.24,0.00292822113260627,-0.00138457422144711,0.00485660787671804,0,
00:00:01.244,-0.00150768272578716,-0.000113884852908086,0.00552199967205524,0,
00:00:01.248,0.00252854102291167,-0.000541068031452596,0.00209978152997792,0,
00:00:01.252,-0.008542792871594429,-0.0051500988192856294,-0.0119827874004841,0,
00:00:01.256,-0.0008877268410287801,0.00299498857930303,-0.003973917569965121,0,
00:00:01.26,0.00571364350616932,0.0048330412246286895,0.006542266346514229,0,
00:00:01.264,0.00217005843296647,-0.00165032455697656,0.00276481756009161,0,
00:00:01.268,-0.00149628240615129,-0.00510881608352065,-0.0037659052759409,0,
00:00:01.272,0.0120561802759767,0.0021891938522458102,0.0052906367927789705,0,
00:00:01.276,-0.00481526413932443,0.00158708030357957,0.00246887863613665,0,
00:00:01.28,-0.014842951670289,-0.000409525207942352,-0.005921869538724421,0,
00:00:01.284,0.00262518669478595,-0.0034520658664405303,-0.0037388501223176705,0,
00:00:01.288,0.000374594441382214,-0.0012118564918637302,0.00240746745839715,0,
00:00:01.292,0.00155888323206455,-0.00288115185685456,0.000631653645541519,0,
00:00:01.296,0.000284527690382674,0.00198625470511615,0.0009415469248779119,0,
00:00:01.3,0.0018106674542650602,0.00680568441748619,0.00521710282191634,0,
00:00:01.304,0.00850688945502043,0.0144150648266077,-0.00124912580940872,0,
00:00:01.308,-0.00249828048981726,-0.0059827081859111795,-0.00321084167808294,0,
00:00:01.312,-0.00487560126930475,-0.0150589030236006,-0.00654570339247584,0,
00:00:01.316,-0.00311971921473742,-0.00321762845851481,0.0032958178780973,0,
00:00:01.32,-0.00048555238754488495,-0.0020412381272763,0.00608021579682827,0,
00:00:01.324,-0.00081041909288615,0.00112893874756992,0.00168567826040089,0,
00:00:01.328,0.0036625943612307297,0.00968896131962538,-0.0063805766403675105,0,
00:00:01.332,0.00695017026737332,0.00621521100401878,-0.0035480717197060602,0,
00:00:01.336,-0.00553386658430099,-0.00188588513992727,0.00292631820775568,0,
00:00:01.34,-0.004557552747428421,0.00250114710070193,0.0031630934681743396,0,
00:00:01.344,0.00581232737749815,-0.0023465454578399697,0.0012294395128265,0,
00:00:01.348,-0.00155138422269374,-0.00963146518915892,-0.00262626190669835,0,
00:00:01.352,-0.00218975776806474,-0.00697453925386071,-0.00140283443033695,0,
00:00:01.356,-0.0027075724210590102,0.0012870995560661,0.00250889686867595,0,
00:00:01.36,0.0048107705079019104,0.00825504679232836,0.00135458668228239,0,
00:00:01.364,-0.0011983999283984301,0.00412281369790435,0.0015536322025582199,0,
00:00:01.368,-0.000690689659677446,0.00554551556706429,-0.00546773849055171,0,
00:00:01.372,0.00698884576559067,0.0017525394214317198,0.00119842356070876,0,
00:00:01.376,-0.000513602455612272,-0.00863649416714907,0.00110781891271472,0,
00:00:01.38,-0.0101550752297044,-0.00881949625909328,-0.00649653002619743,0,
00:00:01.384,0.00230988417752087,0.000557559484150261,0.00499188574030995,0,
00:00:01.388,-0.0027964918408542897,0.0020942899864167,0.00214176275767386,0,
00:00:01.392,0.0049728425219655,0.005802680738270279,-0.00380849139764905,0,
00:00:01.396,0.00810255855321884,0.00132344348821789,0.0013184760464355302,0,
00:00:01.4,-0.0012812642380595199,-0.000183783020474948,0.00243053096346557,0,
00:00:01.404,-0.0112127372995019,-0.0006252673920243981,0.0117430724203587,0,
00:00:01.408,-0.000392902729799971,0.00348066864535213,-0.0100256325677037,0,
00:00:01.412,0.00739827752113342,0.0058875419199466705,-0.0113756339997053,0,
00:00:01.416,-0.0031052399426698698,-0.0093461275100708,0.0040314723737537896,0,
00:00:01.42,0.0019400783348828602,-0.010576163418591,0.0052882754243910295,0,
00:00:01.424,0.00100321997888386,-0.00445384392514825,-0.00209742016158998,0,
00:00:01.428,-0.00699787260964513,0.00849507562816143,-0.0010807587532326599,0,
00:00:01.432,0.00442679133266211,0.00402932707220316,0.00318028940819204,0,
00:00:01.436,0.0017280885949730901,0.0050458163022995,0.00201598578132689,0,
00:00:01.44,0.000157985938130878,-0.000230859921430238,0.0018542445031926,0,
00:00:01.444,-0.000549747492186725,-0.00150479527655989,-0.00351142790168524,0,
00:00:01.448,-0.000647873559501022,0.00283602345734835,-0.00529774744063616,0,
00:00:01.452,-0.00249430537223816,-0.000567383714951575,-0.00319921341724694,0,
00:00:01.456,0.0080876536667347,-0.00545680616050959,0.004363973159343,0,
00:00:01.46,-0.00625898549333215,-0.005639744922518729,0.0132244052365422,0,
00:00:01.464,0.00155376770999283,0.00598356919363141,-0.0014363001100719,0,
00:00:01.468,-0.005618143361061811,-0.00023301465262193198,-0.00893234834074974,0,
00:00:01.472,-0.00165013363584876,-0.00481306528672576,-0.0100305294618011,0,
00:00:01.476,0.00277986889705062,0.004297654144465921,0.00341866887174547,0,
00:00:01.48,0.00620878068730235,0.00424300786107779,0.00829807575792074,0,
00:00:01.484,0.00497100362554193,0.00119230698328465,-0.00012234780297149,0,
00:00:01.488,-0.00301185343414545,0.000699828611686826,0.000916515884455293,0,
00:00:01.492,-0.00460570584982634,-0.00423580734059215,-0.000157820541062392,0,
00:00:01.496,-0.000815180479548872,-0.00128823495469987,-0.0073512913659215,0,
00:00:01.5,-0.0045013884082436605,-0.00482569448649883,0.0046475725248456,0,
00:00:01.504,-0.0026232001837343,-0.0005397950299084191,0.0103607159107924,0,
00:00:01.508,0.0111890165135264,0.0031804293394088697,-0.00967439636588097,0,
00:00:01.512,0.00150259537622333,0.00805434212088585,-0.0031580354552716,0,
00:00:01.516,-0.00653493357822299,0.000474998145364225,0.0022376654669642396,0,
00:00:01.52,0.009552815929055209,-0.00299869244918227,0.0014661058085039301,0,
00:00:01.524,-0.0060578384436667,-0.0032098931260407,-0.004390958696603779,0,
00:00:01.528,-0.00832900404930115,-0.00174112408421934,0.000850920390803367,0,
00:00:01.532,0.00035540075623430295,-6.341973494272679e-05,0.0023795892484486103,0,
00:00:01.536,0.00591886555776,0.0030359700322151197,-0.00032159429974854,0,
00:00:01.54,-0.00462854374200106,-0.0029070929158479,0.000354113115463406,0,
00:00:01.544,0.0079776206985116,0.00316362944431603,0.00306750764138997,0,
00:00:01.548,0.00869266409426928,0.00176374090369791,0.00299051287584007,0,
00:00:01.552,-0.00543957762420177,-0.00281251408159733,-0.0033560802694410103,0,
00:00:01.556,-0.0140735888853669,-0.0061514149419963395,-0.0079531716182828,0,
00:00:01.56,-0.0047556241042912,-0.00022970653662923702,0.0042805895209312396,0,
00:00:01.564,0.0066267801448702795,0.00842618476599455,0.0017146316822618198,0,
00:00:01.568,0.00788609217852354,0.00701312534511089,0.0023020454682409802,0,
00:00:01.572,0.00623251171782613,-0.000523284019436687,-0.0065005817450583,0,
00:00:01.576,0.00820499751716852,-0.00528955506160855,0.0019043111242353899,0,
00:00:01.58,-0.0163592416793108,-0.00756931724026799,0.0029184294398874,0,
00:00:01.584,-0.009495655074715609,-0.0070956568233668795,0.0033086529001593603,0,
00:00:01.588,0.00797546096146107,0.00571539951488376,-0.00247902330011129,0,
00:00:01.592,-0.000812507409136742,0.009171171113848691,-0.007063333876430991,0,
00:00:01.596,-0.000871211872436106,0.00162866699974984,0.00268075335770845,0,
00:00:01.6,-0.0031763066072017,-0.00607308046892285,0.00574611686170101,0,
00:00:01.604,0.00794276222586632,0.00343824061565101,-0.000443031487520784,0,
00:00:01.608,-0.00128826790023595,0.00168861588463187,-0.00223564659245312,0,
00:00:01.612,0.00734684383496642,-0.0016124955145642198,-0.005847869906574489,0,
00:00:01.616,-0.00500597385689616,-0.009150512516498571,0.00556599628180265,0,
00:00:01.62,-0.0009300657548010349,0.00170073809567839,0.0038747221697121898,0,
00:00:01.624,-0.00129756575915962,0.008474128320813179,-0.0024440675042569603,0,
00:00:01.628,-0.00167769752442837,0.00312701356597245,-0.00286615360528231,0,
00:00:01.632,-0.00319105992093682,-0.00666649779304862,-0.0032223227899521602,0,
00:00:01.636,-0.00849094800651073,-0.00678102718666196,0.000407248240662739,0,
00:00:01.64,0.0101761799305677,-0.000281140848528594,0.00692405691370368,0,
00:00:01.644,0.0155254313722253,0.00420963019132614,0.000910382892470807,0,
00:00:01.648,-0.00769404321908951,0.00678866822272539,-0.00184172089211643,0,
00:00:01.652,-0.00413791416212916,0.00267403293401003,-0.0083883898332715,0,
00:00:01.656,0.00404772954061627,0.0025323471054434802,0.0067676752805709795,0,
00:00:01.66,-0.010834046639502,-0.0074350298382341905,0.00699377292767167,0,
00:00:01.664,-0.0048868325538933294,-0.00416512507945299,-0.00445949099957943,0,
00:00:01.668,0.00950426049530506,-0.005663478747010229,-0.005237041506916279,0,
00:00:01.672,0.0132316378876567,0.00444975960999727,-0.004160407464951279,0,
00:00:01.676,-0.0094044478610158,0.00065963005181402,0.000864681380335242,0,
00:00:01.68,-0.0106444926932454,0.00380327249877155,0.0038475659675896202,0,
00:00:01.684,0.00461828894913197,0.000424248835770413,0.00787468533962965,0,
00:00:01.688,0.0012821670388802901,0.0020975093357265,0.0019653616473078697,0,
00:00:01.692,0.00363643234595656,0.00225256499834359,-0.007581019308418041,0,
00:00:01.696,0.00595102226361632,-0.00149366864934564,-0.00311497808434069,0,
00:00:01.7,-0.004491305910050871,-0.00354727543890476,0.00185540108941495,0,
00:00:01.704,-0.00918090343475342,-0.00925624836236238,-0.000804336683358997,0,
00:00:01.708,-0.00220506358891726,0.00271378178149462,-0.0023523003328591603,0,
00:00:01.712,0.0163977239280939,0.00757340155541897,0.000600678089540452,0,
00:00:01.716,-0.00215429719537497,0.0016639817040413599,0.00468919379636645,0,
00:00:01.72,-0.0102209690958261,-0.00304629048332572,0.0046886028721928605,0,
00:00:01.724,0.00237911264412105,0.00249101594090462,-0.00240419269539416,0,
00:00:01.728,0.00324708526022732,0.00063899444648996,-0.0037428827490657603,0,
00:00:01.732,-0.00336833880282938,-0.00380587880499661,-0.0043393806554377105,0,
00:00:01.736,-0.00136958656366915,-0.00454684626311064,-0.000342153012752533,0,
00:00:01.74,0.00562567077577114,0.00201939255930483,0.0067551298998296296,0,
00:00:01.744,-0.00147170049604028,0.00114569498691708,0.00118600705172867,0,
00:00:01.748,0.0026022614911198603,0.00594997359439731,-0.00140527240000665,0,
00:00:01.752,0.000168434926308692,0.0039534382522106205,-0.0018081648740917399,0,
00:00:01.756,-0.00634009670466185,-0.0084571922197938,-0.0073045063763856905,0,
00:00:01.76,0.00138734420761466,-0.0055699641816318,0.00994560215622187,0,
00:00:01.764,-0.000222408314584754,0.0044009000994265106,0.00353520503267646,0,
00:00:01.768,-0.0017663564067333898,0.0038325060158968,-0.004098730161786079,0,
00:00:01.772,0.0049391551874578,-0.00142376346047968,-0.006163209211081271,0,
00:00:01.776,0.00263498350977898,0.0025049326941371,-0.00154348195064813,0,
00:00:01.78,0.00117518031038344,-0.008509468287229541,0.00659290095791221,0,
00:00:01.784,-0.0087275542318821,-0.00290517997927964,0.00583767145872116,0,
00:00:01.788,-0.00617590360343456,0.007717544678598641,-0.00680830096825957,0,
00:00:01.792,0.0039961258880794,0.0037923983763903397,-0.00688135344535112,0,
00:00:01.796,0.008425239473581309,0.00278057041577995,0.00629473151639104,0,
00:00:01.8,0.00621518818661571,0.00305621372535825,0.0028660399839282,0,
00:00:01.804,-0.0029979101382196,-0.00106136943213642,0.000168410304468125,0,
00:00:01.808,-0.00944613665342331,-0.0144298709928989,-0.00117804924957454,0,
00:00:01.812,0.00653189886361361,-0.00897186528891325,-0.0075370161794126,0,
00:00:01.816,-0.00144735549110919,0.00696590403094888,0.0072430963627994095,0,
00:00:01.82,-0.007460923865437509,0.013415090739727,0.0049407831393182295,0,
00:00:01.824,-3.51669805240817e-05,0.0012267716228961901,-0.000658573408145458,0,
00:00:01.828,0.0012978932354599198,-0.00518408697098494,-0.00794067420065403,0,
00:00:01.832,0.00537935132160783,-0.0012234989553689998,-0.0017616963014006602,0,
00:00:01.836,0.0012804194120690198,7.794824341544881e-06,0.0015473508974537301,0,
00:00:01.84,0.0020384662784636,-0.00194838969036937,0.00236365292221308,0,
00:00:01.844,0.00170387886464596,0.00402302155271173,0.00165901787113398,0,
00:00:01.848,-0.00412226654589176,-0.00253399601206183,-0.00158810743596405,0,
00:00:01.852,-0.0060042799450457105,0.00455632666125894,0.00364015367813408,0,
00:00:01.856,0.00258529186248779,-0.00127744628116488,-0.0010864190990105302,0,
00:00:01.86,0.00460138125345111,-0.0010662670247256801,-0.00208773836493492,0,
00:00:01.864,-0.00571861304342747,-0.00423574261367321,-0.0033697965554893,0,
00:00:01.868,0.0075341067276895,-0.00831214524805546,-0.000235343672102317,0,
00:00:01.872,-0.00813888106495142,0.00463915942236781,0.00630967691540718,0,
00:00:01.876,-0.0107188802212477,0.0029561931733042,-0.00145826523657888,0,
00:00:01.88,0.0100604929029942,0.00609558448195457,0.0022576584015041603,0,
00:00:01.884,0.0143074421212077,0.0055385641753673606,-0.00225213728845119,0,
00:00:01.888,-0.0048402468673884895,0.0038963430561125296,-0.00036435792571865,0,
00:00:01.892,0.0020781415514648,-0.0061425631865859,-0.00501878699287772,0,
00:00:01.896,-0.006019424181431529,-0.0100003620609641,0.000785838346928358,0,
00:00:01.9,-0.007298408076167109,-0.006852074060589079,0.0025615927297622,0,
00:00:01.904,0.0025514154694974396,0.00529084959998727,-7.91132042650133e-05,0,
00:00:01.908,0.0012302410323172801,0.0039872950874269,0.0026231289375573397,0,
00:00:01.912,-0.000869725889060646,-0.00146997766569257,0.005343947093933821,0,
00:00:01.916,0.0051373466849327105,0.00506612006574869,-0.0067386208102107,0,
00:00:01.92,0.000297102204058319,0.0009774559875950222,-0.00290088425390422,0,
00:00:01.924,-0.00139269698411226,0.0013751890510320698,0.00200172164477408,0,
00:00:01.928,-0.0034173601306974897,0.00517416931688786,-0.00276047759689391,0,
00:00:01.932,0.00342404097318649,-0.00636683078482747,0.0017309671966359,0,
00:00:01.936,0.00180010963231325,-0.0112453056499362,-0.00395232951268554,0,
00:00:01.94,-0.00510950293391943,-0.00121375848539174,0.00912608113139868,0,
00:00:01.944,-0.0106525896117091,0.00218328507617116,0.00900902412831783,0,
00:00:01.948,0.0196841955184937,0.009126225486397741,-0.00582620268687606,0,
00:00:01.952,0.0121144987642765,0.0048251673579216,-0.0125628802925348,0,
00:00:01.956,-0.0170252025127411,-0.0029808038379997,-0.00500427186489105,0,
00:00:01.96,-0.0133970696479082,-0.00191222131252289,0.00506665883585811,0,
00:00:01.964,-0.00165355438366532,-0.00208066590130329,0.00430547352880239,0,
00:00:01.968,0.0063709532842040105,-0.0037078056484460796,0.0117568178102374,0,
00:00:01.972,0.0120067689567804,-0.00486659444868565,-0.0041331904940307106,0,
00:00:01.976,0.0029521039687097103,0.00171142187900841,-0.0128878932446241,0,
00:00:01.98,-0.00256107095628977,0.0119175212457776,0.0022996929474175,0,
00:00:01.984,-0.006279143039137129,0.00133390666451305,0.009134837426245209,0,
00:00:01.988,-0.00326487678103149,-0.000630991184152663,-0.00336664798669517,0,
00:00:01.992,0.00663601933047175,-0.00295302481390536,-0.00569372018799186,0,
00:00:01.996,0.000500123132951558,0.00289070350117981,0.00553385354578495,0,
00:00:02,-0.00462228478863835,-0.00799124129116535,0.00553036946803331,0,
00:00:02.004,-0.00269139604642987,-0.00523873092606664,-0.0049512437544763106,0,
00:00:02.008,0.00044191628694534296,0.0024862622376531397,-0.004869297146797179,0,
00:00:02.012,-0.00197188323363662,-0.000194969776202925,-0.00555975362658501,0,
00:00:02.016,0.00818015914410353,0.0023536616936326,0.00750779639929533,0,
00:00:02.02,0.00240614148788154,0.00781551282852888,0.00377883855253458,0,
00:00:02.024,-0.0013595441123470699,0.00496703293174505,-0.00149306037928909,0,
00:00:02.028,-0.0026321175973862397,-0.010655902326106999,0.00489144492894411,0,
00:00:02.032,-0.00208213552832603,-0.0044126701541245,-0.00809598807245493,0,
00:00:02.036,0.00542949652299285,0.000989571562968194,0.00180231290869415,0,
00:00:02.04,-0.0118332067504525,0.00946567952632904,0.0018689953722059699,0,
00:00:02.044,0.0059940000064671,0.00721427891403437,-0.00439398875460029,0,
00:00:02.048,-0.0029208543710410604,-0.0158311761915684,-0.00166350603103638,0,
00:00:02.052,0.00206445693038404,-0.00937872193753719,0.00591031508520246,0,
00:00:02.056,0.0117050027474761,0.00396570283919573,0.0011074389331042801,0,
00:00:02.06,-0.0036583053879439796,0.0120599940419197,-0.0031127124093473,0,
00:00:02.064,-0.0062940283678472,0.0121460305526853,0.000579349172767252,0,
00:00:02.068,-0.00349556794390082,-0.007524595130234959,0.00285635562613606,0,
00:00:02.072,2.82199562207097e-05,-0.0164150334894657,-0.0019489916739985301,0,
00:00:02.076,-0.00209863879717886,-0.007698751054704191,-0.00423834985122085,0,
00:00:02.08,0.00619759317487478,0.0111275110393763,-0.000857772189192474,0,
00:00:02.084,0.0066638421267271,0.016816932708025,0.008299540728330609,0,
00:00:02.088,0.00266554742120206,-0.0023637176491320103,0.000990500440821052,0,
00:00:02.092,-0.00999080110341311,-0.009488387964665891,-0.00921852607280016,0,
00:00:02.096,-0.0064460602588951605,0.000762018375098705,0.000429831648943946,0,
00:00:02.1,0.00225340807810426,-0.00163368077483028,0.0030106736812740603,0,
00:00:02.104,0.00416836841031909,-0.009786956943571571,0.00218357727862895,0,
00:00:02.108,0.00273588998243213,0.0014132461510598699,0.000478032394312322,0,
00:00:02.112,-0.00153685931582004,0.00916286557912827,-0.00281919119879603,0,
00:00:02.116,0.00100508984178305,0.0107994684949517,0.000884160166606307,0,
00:00:02.12,0.00648116320371628,0.005564296618103979,0.00293839233927429,0,
00:00:02.124,-0.00259262206964195,-0.0077364738099277,-0.00202980102039874,0,
00:00:02.128,-0.0183346122503281,-0.0188522338867188,-0.000203568386496045,0,
00:00:02.132,0.0032939976081252102,-0.00275422795675695,-0.0069505209103226705,0,
00:00:02.136,0.0106486799195409,0.00568775134161115,0.000768629543017596,0,
00:00:02.14,0.00381730915978551,0.0071430210955441,0.00825649313628674,0,
00:00:02.144,-0.0068015600554645105,0.0044835670851171,0.0059337890706956395,0,
00:00:02.148,0.00769305089488626,0.00291698519140482,-0.00361107126809657,0,
00:00:02.152,0.00288487365469337,-0.00782151333987713,-0.0119666717946529,0,
00:00:02.156,-0.00993250962346792,0.00193131365813315,-0.0018513588001951601,0,
00:00:02.16,-0.00213779835030437,0.0034473717678338302,0.0084135802462697,0,
00:00:02.164,0.000628254550974816,-0.00507524283602834,0.005529107060283421,0,
00:00:02.168,-0.000851416145451367,-0.00590122304856777,-0.004043014254421,0,
00:00:02.172,-0.00326592614874244,-0.000297481281450018,-0.00333509058691561,0,
00:00:02.176,0.00187863770406693,0.00583440391346812,-0.000318488397169858,0,
00:00:02.18,0.0132659776136279,0.00439845956861973,0.0057501993142068395,0,
00:00:02.184,0.00258861877955496,0.00295993662439287,0.00406080624088645,0,
00:00:02.188,-0.00685169454663992,0.00256634340621531,-0.00830987188965082,0,
00:00:02.192,-0.006594426464289429,-0.0120518915355206,-0.007505229674279691,0,
00:00:02.196,-0.0026858514174819,-0.0110706705600023,0.004427254665642979,0,
00:00:02.2,-0.00320963561534882,0.0032139203976839802,0.00962774641811848,0,
00:00:02.204,0.0044935536570847,0.017205361276865002,-0.00358966994099319,0,
00:00:02.208,0.00350397569127381,0.00564264971762896,-0.00195093255024403,0,
00:00:02.212,0.019577270373702,-0.00162725988775492,0.00126215268392116,0,
00:00:02.216,-0.008080163970589641,-0.00898999068886042,-0.004125243052840229,0,
00:00:02.22,-0.0193218719214201,-0.0111927874386311,-0.00144963979255408,0,
00:00:02.224,0.000538640946615487,-0.0021585354115814,0.0079486183822155,0,
00:00:02.228,-0.00334679638035595,0.0072975535877049,0.00102741958107799,0,
00:00:02.232,0.0050833132117986705,0.005122615490108729,-0.008974572643637659,0,
00:00:02.236,0.00501202791929245,0.00721646007150412,0.000664910592604429,0,
00:00:02.24,0.0168966632336378,0.0009626363171264529,0.0051937741227448,0,
00:00:02.244,-0.0054902033880353,-0.0061963414773345,0.000181141745997593,0,
00:00:02.248,-0.0100529827177525,-0.0011905070859938901,-0.00541695859283209,0,
00:00:02.252,-0.0103747434914112,-0.00782959908246994,-0.00122609466779977,0,
00:00:02.256,0.0031978280749172,-0.000138459712616168,0.0110747246071696,0,
00:00:02.26,0.008136667311191559,0.00156658247578889,0.00407507596537471,0,
00:00:02.264,-0.000167995603987947,0.00787346810102463,-0.0060686012730002395,0,
00:00:02.268,0.0072201625443995,0.00171065411996096,-0.0131853288039565,0,
00:00:02.272,-0.0121679604053497,-0.00767737627029419,-0.00164684397168458,0,
00:00:02.276,-0.006213191896677021,0.00783506967127323,0.007323118392378091,0,
00:00:02.28,0.0195067320019007,0.00765752186998725,0.00644038198515773,0,
00:00:02.284,0.0035653661470860204,-0.0132803581655025,0.0043040877208113705,0,
00:00:02.288,-0.015276868827641002,-0.00925613939762115,-0.00332591263577342,0,
00:00:02.292,-0.0113997962325811,0.0021560480818152397,-0.0085893115028739,0,
00:00:02.296,0.000854897138196975,0.0038374923169612898,0.0014298319583758699,0,
00:00:02.3,0.0124002061784267,0.00462345452979207,0.00935210008174181,0,
00:00:02.304,0.010690656490624,0.00323287583887577,-0.00428977143019438,0,
00:00:02.308,-0.00292135775089264,0.00497705256566405,-0.0071556675247848,0,
00:00:02.312,0.000522091810125858,-0.000950162822846323,-0.00377917755395174,0,
00:00:02.316,-0.0055001247674226796,-0.007116481661796571,0.00500153796747327,0,
00:00:02.32,-0.00969421118497849,-0.0052072717808187,0.0121715608984232,0,
00:00:02.324,-0.00270699011161923,-0.00103412242606282,-0.000824773218482733,0,
00:00:02.328,0.00171006715390831,0.0041050654835999,-0.0030895804520696397,0,
00:00:02.332,0.0161581709980965,0.0030245934613049,-0.0104751754552126,0,
00:00:02.336,0.0021220829803496604,-0.0014885307755321301,0.0006669727154076099,0,
00:00:02.34,-0.007112301420420409,-0.00319583062082529,0.00589576782658696,0,
00:00:02.344,-0.0102111687883735,9.70164037426002e-05,0.0030590819660574198,0,
00:00:02.348,0.00209441198967397,0.00659757666289806,-0.0026912880130112197,0,
00:00:02.352,0.00687368120998144,0.00272810505703092,-0.00454595778137445,0,
00:00:02.356,-0.00305785797536373,-0.00606634747236967,0.00141360855195671,0,
00:00:02.36,0.004817616194486621,-0.0019225280266255101,0.00253237527795136,0,
00:00:02.364,0.00399651098996401,0.0022732806392014,0.00145697197876871,0,
00:00:02.368,-0.008135866373777391,0.0010158895747736099,2.50406428676797e-05,0,
00:00:02.372,-0.00324778794310987,-0.0007356149144470691,-0.0029126305598765603,0,
00:00:02.376,0.00044551276369020305,-0.0054975752718746706,-0.00313002918846905,0,
00:00:02.38,2.22468543142895e-06,-0.0031834957189858,0.00915954355150461,0,
00:00:02.384,0.00601727562025189,0.0049707316793501394,0.0035629300400614704,0,
00:00:02.388,-0.00558410212397575,0.0097649022936821,-0.00956137105822563,0,
00:00:02.392,0.0106345759704709,0.0028530457057058803,-0.00611398182809353,0,
00:00:02.396,-0.00473920302465558,-0.009907970204949379,-0.00163532828446478,0,
00:00:02.4,-0.00124347489327192,0.000117786214104854,0.0124151576310396,0,
00:00:02.404,-0.0013685345184058,0.00282987859100103,0.00416049547493458,0,
00:00:02.408,-0.00562159577384591,-0.000472531246487051,-0.00443927524611354,0,
00:00:02.412,-0.0010404649656266,-0.00685889180749655,-0.00475089251995087,0,
00:00:02.416,0.0031638776417821602,-0.00475337915122509,-0.0040865698829293294,0,
00:00:02.42,0.0124819530174136,0.00215344363823533,0.000509453006088734,0,
00:00:02.424,-0.00109085964504629,0.00993714109063149,0.009588985703885559,0,
00:00:02.428,-0.0122321415692568,0.0011182783637195802,-0.000474407017463818,0,
00:00:02.432,-0.0033184704370796698,-0.00332164042629302,-0.00731699215248227,0,
00:00:02.436,0.00493116164579988,0.00693110981956124,0.0016245070146396802,0,
00:00:02.44,0.0067856064997613395,-0.00502750324085355,0.00479118525981903,0,
00:00:02.444,0.00175591197330505,-0.00297659239731729,-0.000916171818971634,0,
00:00:02.448,-0.00460551492869854,0.00487136095762253,-0.00223909225314856,0,
00:00:02.452,-0.0059321564622223395,-0.00599193666130304,-0.0035158144310116803,0,
00:00:02.456,0.0030386745929718,-0.00630659656599164,0.0018017350230366,0,
00:00:02.46,0.0008607279160059991,0.0023209699429571603,0.00230738916434348,0,
00:00:02.464,-0.00371701619587839,0.000660967838484794,0.00310352561064065,0,
00:00:02.468,0.000186877281521447,0.00538836233317852,-0.000171315186889842,0,
00:00:02.472,0.0137294195592403,0.012466611340642001,-0.008650370873510841,0,
00:00:02.476,0.00399960391223431,-0.0007823632331565019,0.00132687308359891,0,
00:00:02.48,-0.0143824219703674,-0.014207043685019,0.00357691221870482,0,
00:00:02.484,-0.009503215551376341,-0.0061611789278686,0.0043646153062582,0,
00:00:02.488,4.14304522564635e-05,0.00091313716256991,-0.00169750361237675,0,
00:00:02.492,0.00788347981870174,0.00428067939355969,-0.00474028894677758,0,
00:00:02.496,0.0105303656309843,0.00621254043653607,-0.00363950710743666,0,
00:00:02.5,-0.004120204132050279,0.000140085830935277,0.0118271987885237,0,
00:00:02.504,-0.007141129579395059,-0.005850304849445821,0.000459363829577342,0,
00:00:02.508,0.00431351736187935,0.000358633900759742,-0.00645945919677615,0,
00:00:02.512,0.000771519262343645,0.00457382947206497,-0.0064200274646282205,0,
00:00:02.516,-0.00103025301359594,0.00826408341526985,-0.00245180167257786,0,
00:00:02.52,0.000784079486038536,-0.0028996043838560603,0.0120663279667497,0,
00:00:02.524,-0.00476385001093149,-0.0155529053881764,0.004301799926906821,0,
00:00:02.528,0.00242040189914405,-0.00404793908819556,-0.00618168013170362,0,
00:00:02.532,-0.0021251505240798,0.00661745434626937,-0.0045941434800624795,0,
00:00:02.536,-0.000187004538020119,0.00507164327427745,-0.00039985214243642997,0,
00:00:02.54,0.00397635949775577,0.00538466358557343,0.00639067450538278,0,
00:00:02.544,0.00443227449432015,0.00947561580687761,0.000667534593958408,0,
00:00:02.548,-0.000186811928870156,-0.00816852785646915,0.000268120580585673,0,
00:00:02.552,-0.00541007658466697,-0.0202601868659258,-0.00600616633892059,0,
00:00:02.556,-0.0015661878278479,0.00308243627659976,-0.00273714493960142,0,
00:00:02.56,-0.00642846338450909,0.0110804717987776,0.007652984932065009,0,
00:00:02.564,0.00211432855576277,0.00639481330290437,-0.000623440952040255,0,
00:00:02.568,0.00527888722717762,-0.0043048351071775,-0.00426828768104315,0,
00:00:02.572,0.0124743562191725,-0.00195307098329067,-0.0012464632745832198,0,
00:00:02.576,-0.00657868990674615,-0.0008307231473736469,0.005888246465474371,0,
00:00:02.58,-0.007689491380006071,-0.000239079963648692,0.00072068942245096,0,
00:00:02.584,0.00335494987666607,0.0042305467650294295,-0.0014787437394261401,0,
00:00:02.588,0.00178991607390344,-0.00374132418073714,-0.00166085176169872,0,
00:00:02.592,-0.00973870418965817,-0.007230026647448541,-0.0029658037237823,0,
00:00:02.596,-0.0009257297497242689,0.00372551823966205,-0.00219235382974148,0,
00:00:02.6,0.0045443857088685,0.00915993098169565,0.00609411345794797,0,
00:00:02.604,0.00938538461923599,0.00050980772357434,0.0102675771340728,0,
00:00:02.608,0.0031101410277187803,-0.0098835127428174,-0.0018957438878715,0,
00:00:02.612,-0.00723745953291655,2.26823649427388e-05,-0.0156611613929272,0,
00:00:02.616,-0.00342939724214375,0.0029120238032192,-0.00475116446614265,0,
00:00:02.62,-0.00287618557922542,0.0022743707522749896,0.00797377433627844,0,
00:00:02.624,-0.0014962132554501302,-0.00146107864566147,0.00270087993703783,0,
00:00:02.628,0.0108811184763908,0.00547262746840715,0.00164593651425093,0,
00:00:02.632,0.008715216070413591,-0.00130904151592404,0.00526172341778874,0,
00:00:02.636,-0.0133593427017331,-0.00590041931718588,-0.00156898982822895,0,
00:00:02.64,-0.00772078754380345,-0.00312523660250008,-0.00159378547687083,0,
00:00:02.644,-0.0045058950781822205,0.000644922838546336,-0.00685361446812749,0,
00:00:02.648,0.009995913133025171,0.0026327243540436,-0.000569326221011579,0,
00:00:02.652,0.0037347865290939795,0.0025367108173668398,0.00211312831379473,0,
00:00:02.656,0.005413094069808721,-0.0008123613661155099,0.0023002070374786897,0,
00:00:02.66,-0.00398221937939525,-0.000209529855055735,0.00127682834863663,0,
00:00:02.664,-0.00199048058129847,0.00270514097064734,-0.00196845433674753,0,
00:00:02.668,-0.00337817310355604,0.00288166664540768,0.00551659986376762,0,
00:00:02.672,0.0053722374141216295,0.000863529392518103,-0.00513600464910269,0,
00:00:02.676,-0.0045645143836736705,-0.00554592162370682,-0.0037072726991027602,0,
00:00:02.68,-0.000867749389726669,-0.0131279388442636,0.00228951731696725,0,
00:00:02.684,0.000898758124094456,0.00437719514593482,0.00469701271504164,0,
00:00:02.688,-0.0029154389631003102,0.0120857749134302,-0.0009714288171380759,0,
00:00:02.692,0.0130526069551706,-0.0011500692926347301,-0.0062853950075805205,0,
00:00:02.696,-0.00651582144200802,-0.0028553749434649897,0.00474251760169864,0,
00:00:02.7,-0.006574106868356471,0.00307346787303686,-0.00084549019811675,0,
00:00:02.704,0.000828048447147012,-0.0013155585620552301,0.00342539441771805,0,
00:00:02.708,0.00491147115826607,-0.00213505094870925,0.000657493714243174,0,
00:00:02.712,9.814818622544409e-05,-0.00332120875827968,-0.00832385942339897,0,
00:00:02.716,-0.00110390968620777,0.00192243698984385,0.00113622541539371,0,
00:00:02.72,-0.00493545783683658,0.00233020959421992,0.00941847544163466,0,
00:00:02.724,0.0038081274833530205,-0.00108502898365259,-0.00392988510429859,0,
00:00:02.728,0.0035592576023191205,0.00580611592158675,-0.00680541200563312,0,
00:00:02.732,0.0069395750761032104,0.0030070322100073103,-0.0036339522339403603,0,
00:00:02.736,-0.00531710311770439,-0.0077656265348196,0.0028509900439530602,0,
00:00:02.74,-0.0130861699581146,-0.0126080047339201,0.0139529192820191,0,
00:00:02.744,0.000403115234803408,0.00044361423351801905,0.00270094932056963,0,
00:00:02.748,0.00324729806743562,0.00727893598377705,-0.009153306484222409,0,
00:00:02.752,0.00467343395575881,0.00317488936707377,-0.0028033556882292,0,
00:00:02.756,0.0014792610891163301,0.00963498000055552,-0.00521418964490294,0,
00:00:02.76,0.00936506129801273,0.0112225748598576,0.00149534386582673,0,
00:00:02.764,-0.0010698615806177302,-0.00983787607401609,0.00337521126493812,0,
00:00:02.768,-0.0043674437329173105,-0.0129429148510098,0.00460058031603694,0,
00:00:02.772,-0.0102218855172396,-0.009183810092508791,-0.00323910545557737,0,
00:00:02.776,-0.0045859650708735,-0.00207356107421219,-0.000209577861824073,0,
00:00:02.78,-7.10674867150374e-05,0.0100628826767206,-0.00168723217211664,0,
00:00:02.784,0.00710522616282105,0.0044199055992066895,1.70060793607263e-05,0,
00:00:02.788,0.00413986435160041,-0.00158994807861745,0.009632240980863571,0,
00:00:02.792,0.004245169460773471,0.00505241006612778,-0.00857838708907366,0,
00:00:02.796,0.000412473746109754,0.007107779383659359,0.00021129137894604398,0,
00:00:02.8,-0.0005186495254747571,0.0055038081482052794,-0.0032183681614697,0,
00:00:02.804,-0.00527297705411911,-0.0101091405376792,0.0016441426705569,0,
00:00:02.808,-0.00800639018416405,-0.0217966828495264,0.00436298968270421,0,
00:00:02.812,0.00530599756166339,0.000174675602465868,-0.0049401554279029395,0,
00:00:02.816,0.004951102193444971,0.0111102843657136,0.00223717768676579,0,
00:00:02.82,-0.00727664912119508,0.00671311654150486,0.00442392844706774,0,
00:00:02.824,0.0102425115182996,0.0045983474701643,0.000501653354149312,0,
00:00:02.828,0.004345501773059371,-0.00257787969894707,-0.00679514324292541,0,
00:00:02.832,-0.0142329344525933,-0.00373274646699429,0.000778469548095018,0,
00:00:02.836,-0.007428010459989309,-0.00433585373684764,-0.00476224115118384,0,
00:00:02.84,0.00889831036329269,-0.00462917238473892,0.00626200437545776,0,
00:00:02.844,0.0035931814927607796,0.00630104681476951,0.0064957425929606,0,
00:00:02.848,0.0015641642967239,0.0143804028630257,-0.00828344281762838,0,
00:00:02.852,0.0024508959613740396,0.00234578549861908,-0.00264698965474963,0,
00:00:02.856,0.0017034811899066,-0.0161407608538866,0.00371328950859606,0,
00:00:02.86,-0.0044254707172513,-0.0103547740727663,0.00514481123536825,0,
00:00:02.864,-0.00011195126717211699,0.0043074116110801705,-0.00143237959127873,0,
00:00:02.868,-0.00975043512880802,0.00250180368311703,-0.00707995519042015,0,
00:00:02.872,0.0014558256370946802,0.00782102905213833,0.00620258878916502,0,
00:00:02.876,0.00482923304662108,0.0036919072736054702,-0.00096247042529285,0,
00:00:02.88,0.00997536908835173,-0.009603427723050121,-0.00214014342054725,0,
00:00:02.884,-0.0150987962260842,0.00422809133306146,-0.0030530875083059103,0,
00:00:02.888,-4.67505633423571e-05,0.00329771544784307,0.00442103995010257,0,
00:00:02.892,0.0224275160580873,-0.00280513404868543,-0.00139908597338945,0,
00:00:02.896,-0.00446498859673738,-0.00309533393010497,-0.000660851481370628,0,
00:00:02.9,-0.0152886211872101,0.000849495816510171,0.000932803202886134,0,
00:00:02.904,-0.0076150200329721,-0.00141538982279599,0.00975415017455816,0,
00:00:02.908,0.0040371585637331,-0.00028905799263157,-0.00490409508347511,0,
00:00:02.912,0.00676889391615987,-0.00106454500928521,-0.00851167552173138,0,
00:00:02.916,0.0045604878105223205,0.00335979461669922,-0.00089377531548962,0,
00:00:02.92,0.00103641429450363,0.0067272796295583205,0.0024969435762614,0,
00:00:02.924,-0.00151181814726442,-0.005657454952597621,0.000746768491808325,0,
00:00:02.928,-0.00440445821732283,-0.00252787303179502,0.0056554595939815,0,
00:00:02.932,0.000200118549400941,0.00383567088283598,-0.00017405004473403102,0,
00:00:02.936,0.0030510474462062103,-0.0031786027830094103,-0.00636560656130314,0,
00:00:02.94,-0.005669092293828729,-0.00858111027628183,0.00198690942488611,0,
00:00:02.944,0.00633822660893202,0.00821709726005793,0.00661004055291414,0,
00:00:02.948,-0.00327556463889778,0.00681069726124406,-0.00338039407506585,0,
00:00:02.952,0.0037643453106284103,-0.0033272171858698104,-0.00425111595541239,0,
00:00:02.956,-0.0033840329851955197,0.000654731877148151,-0.0037990203127265,0,
00:00:02.96,-0.00688360957428813,-0.0007385798380710179,0.00483549991622567,0,
00:00:02.964,0.0038121354300528795,0.00208415533415973,0.00364198489114642,0,
00:00:02.968,0.0028129389975220004,-0.0121021224185824,-0.00385844684205949,0,
00:00:02.972,0.004179373383522029,-0.00645902520045638,-0.00202451273798943,0,
00:00:02.976,0.00104204332455993,0.0087110847234726,0.0010207631858065698,0,
00:00:02.98,0.00236331718042493,0.0137689160183072,0.0043968427926302,0,
00:00:02.984,-0.00870897434651852,0.0024727031122893104,0.0039746873080730395,0,
00:00:02.988,-0.00324512994848192,-0.000173209438798949,0.00110896246042103,0,
00:00:02.992,0.000725793419405818,-0.0056616212241351604,-0.0121219782158732,0,
00:00:02.996,0.0065654325298965,-0.0132323615252972,-0.00358429690822959,0,
00:00:03,-0.0038109323941171204,-0.00675984425470233,0.00494943838566542,0,
00:00:03.004,-0.00437274482101202,0.006117273122072221,0.0071091619320213795,0,
00:00:03.008,0.0031032972037792197,0.0153727736324072,0.00216252030804753,0,
00:00:03.012,0.0105640711262822,0.00422140117734671,-0.006395016331225629,0,
00:00:03.016,0.0026252977550029802,-0.0036108179483562704,-0.00179277081042528,0,
00:00:03.02,-0.0131509387865663,-0.0122516714036465,-0.0015170503174886099,0,
00:00:03.024,-0.00315864617004991,-0.004712534602731471,0.00113324238918722,0,
00:00:03.028,0.0038836505264043795,0.00953069608658552,0.0066305547952652,0,
00:00:03.032,-0.00101428222842515,0.00663670664653182,0.000164977987878956,0,
00:00:03.036,0.0066360104829073,-0.0018813105998560801,-0.00248454068787396,0,
00:00:03.04,-0.0018418813124299,0.00030380935641005603,-0.0024301696103066197,0,
00:00:03.044,-0.00484534772112966,-0.000278011022601277,0.000929793692193925,0,
00:00:03.048,0.000868786417413503,-0.0138538675382733,-0.0018126321956515301,0,
00:00:03.052,8.5594154370483e-05,-0.004547132644802329,-0.00284820375964046,0,
00:00:03.056,-0.0008218819275498389,0.00764088006690145,0.00270330812782049,0,
00:00:03.06,0.00777974724769592,0.0111473929136992,0.00301517243497074,0,
00:00:03.064,0.004947616718709471,0.0049520488828420604,0.00335904979147017,0,
00:00:03.068,-0.00692407926544547,0.00241728336550295,-0.004485530778765679,0,
00:00:03.072,-0.00672138761729002,-0.0089077316224575,-0.007144231349229809,0,
00:00:03.076,-0.00647173635661602,-0.009912987239658829,0.00831307470798492,0,
00:00:03.08,0.0117355212569237,-0.00473607098683715,0.007552602794021371,0,
00:00:03.084,-0.0036770396400243,0.009571299888193609,-0.0006879024440422651,0,
00:00:03.088,0.0019632449839264198,0.00929060857743025,-0.0141014736145735,0,
00:00:03.092,0.00422212621197104,-0.0030735689215362102,-0.004121611360460521,0,
00:00:03.096,-0.00354125979356468,-0.0069914567284286,0.0035417494364082796,0,
00:00:03.1,-0.0026309338863939,-0.000575641344767064,0.0101303942501545,0,
00:00:03.104,0.00417808908969164,0.0018420075066387699,0.00455676298588514,0,
00:00:03.108,-0.000301702646538615,0.0018434809753671302,-0.006010021083056929,0,
00:00:03.112,0.000473516527563334,0.00292960926890373,-0.00909187365323305,0,
00:00:03.116,-0.00108617206569761,0.0020469815935939602,0.009207299910485741,0,
00:00:03.12,-0.00595904374495149,-0.00623016944155097,0.00539359170943499,0,
00:00:03.124,-0.0014926326693967,-0.0103308977559209,-0.00600476982071996,0,
00:00:03.128,-0.00129755714442581,0.00398342590779066,-0.00552947679534554,0,
00:00:03.132,0.0080263139680028,0.0116637479513884,-0.0034866549540311102,0,
00:00:03.136,0.016371900215745,0.00514087127521634,0.00178502046037465,0,
00:00:03.14,0.00547997839748859,0.0018287030979991,0.00446654669940472,0,
00:00:03.144,-0.029083639383316002,-0.00749973440542817,0.00801321398466825,0,
00:00:03.148,-0.0143232308328152,-0.0162439662963152,0.00174048321787268,0,
00:00:03.152,0.00560029037296772,-0.0021010180935263603,-0.0037821147125214295,0,
00:00:03.156,0.0143741173669696,0.00289905234239995,-0.00942272040992975,0,
00:00:03.16,0.0096762403845787,0.0126161305233836,-0.00372585165314376,0,
00:00:03.164,0.00169048411771655,0.0106195835396647,0.008609930984675879,0,
00:00:03.168,-0.005925128236412999,0.0010618900414556302,-0.00105794193223119,0,
00:00:03.172,-0.0033448887988925,-0.0016668700845912099,-0.00101717677898705,0,
00:00:03.176,-4.1868453990900896e-05,-0.00494963629171252,0.000864960486069322,0,
00:00:03.18,-0.00293541653081775,-0.0138636622577906,0.0037594446912407897,0,
00:00:03.184,0.0026061702519655197,-0.00827146414667368,0.00337540660984814,0,
00:00:03.188,-0.00545366806909442,0.0070131504908204105,-0.00750232301652431,0,
00:00:03.192,-0.00373208802193403,0.00279801455326378,0.00407672394067049,0,
00:00:03.196,0.006901187356561421,0.00685039069503546,-0.0005949397454969581,0,
00:00:03.2,0.00394503399729729,0.007152405567467209,-0.00466281827539206,0,
00:00:03.204,0.00562316784635186,-0.000851777847856283,-0.0042778388597071206,0,
00:00:03.208,-0.0064624696969986,-0.0036990609951317297,0.00297443778254092,0,
00:00:03.212,-0.0006585615337826309,0.00491325883194804,2.27524797082879e-05,0,
00:00:03.216,0.00197911728173494,-0.00133736594580114,0.00844142027199268,0,
00:00:03.22,0.00154576555360109,-0.0104191955178976,0.00353384623304009,0,
00:00:03.224,-0.00221885391511023,-0.010396501980722,-0.00660666823387146,0,
00:00:03.228,-0.0119841387495399,0.000351953320205212,-0.00513662490993738,0,
00:00:03.232,0.00124506093561649,0.00981699768453836,0.0032996810041368,0,
00:00:03.236,0.00400090496987104,0.00647089490666986,-0.00394550850614905,0,
00:00:03.24,0.00512072863057256,0.0030458834953606103,0.007600964512676,0,
00:00:03.244,0.00774851115420461,0.0019560377113521103,0.0032611764036119,0,
00:00:03.248,0.00110412470530719,0.00216725142672658,-0.0108407996594906,0,
00:00:03.252,-0.0085295932367444,-0.008010986261069771,-0.00513954134657979,0,
00:00:03.256,-0.0037381930742412797,-0.0109687596559525,0.008913613855838779,0,
00:00:03.26,0.00166862888727337,0.00202745897695422,0.00428236648440361,0,
00:00:03.264,-0.000667885353323072,0.009498521685600279,0.000140052870847285,0,
00:00:03.268,-0.00209151930175722,0.00196773442439735,-0.00202495139092207,0,
00:00:03.272,0.0049710343591868895,-0.00628124549984932,-0.00430468376725912,0,
00:00:03.276,-0.00331377424299717,-0.00724979070946574,0.00276063196361065,0,
00:00:03.28,0.00326576037332416,0.00946181546896696,0.0016014245338738,0,
00:00:03.284,0.0065788789652288,0.00680248672142625,-0.0028298725374043,0,
00:00:03.288,-0.00616500712931156,-0.00418630475178361,-0.00394352525472641,0,
00:00:03.292,-0.00722317397594452,-0.00444284826517105,0.0021751783788204197,0,
00:00:03.296,0.00335202924907207,0.00476194778457284,0.00306633091531694,0,
00:00:03.3,0.008252419531345371,0.00131115631666034,0.00163769198115915,0,
00:00:03.304,-0.000336732482537627,-0.00900972913950682,-0.0021474314853549,0,
00:00:03.308,-0.00816347543150187,-0.00410469714552164,0.00092506519285962,0,
00:00:03.312,-0.0017830883152782898,0.00443323375657201,0.0005002870457246901,0,
00:00:03.316,0.00172962690703571,0.00526720052585006,-0.000499095360282809,0,
00:00:03.32,0.00048393651377409697,0.0047505283728241894,0.0032143774442374698,0,
00:00:03.324,0.00163706357125193,-0.00218818662688136,-0.00468150712549686,0,
00:00:03.328,0.00612595351412892,-0.0034668892621994,-0.00558726117014885,0,
00:00:03.332,0.00345680536702275,-4.79726295452565e-05,-0.00024180630862247202,0,
00:00:03.336,-0.0029846120160073,-0.000202237482881173,0.00570895336568356,0,
00:00:03.34,-0.0120542980730534,-0.00482617830857635,0.0021569745149463398,0,
00:00:03.344,-0.004842195659875871,-0.000791334896348417,0.0069048828445375,0,
00:00:03.348,0.00534067070111632,0.005040118470788,-0.00608780235052109,0,
00:00:03.352,0.00459200004115701,0.00180471886415035,-0.0055695753544569,0,
00:00:03.356,0.00359579059295356,0.00480920122936368,0.00284658279269934,0,
00:00:03.36,0.00372449727728963,0.0022719127591699396,0.0021131900139153,0,
00:00:03.364,0.00389626785181463,-0.007606905885040759,-0.00447036046534777,0,
00:00:03.368,-0.00704871769994497,-0.0120895002037287,-0.00178530160337687,0,
00:00:03.372,-0.00671926978975534,0.004921035375446079,0.0037792678922414797,0,
00:00:03.376,-0.00237489957362413,0.0136406989768147,0.00310196145437658,0,
00:00:03.38,0.0014824605314061,4.1521256207488504e-05,0.0027367693837732103,0,
00:00:03.384,-0.0010700847487896698,-0.00921692419797182,-0.00521814310923219,0,
00:00:03.388,0.00448315078392625,-0.0047797923907637605,0.00280632055364549,0,
00:00:03.392,0.00639945594593883,-0.000806371215730906,-0.00781731586903334,0,
00:00:03.396,-0.000332437979523093,0.00616176798939705,-0.000715496018528938,0,
00:00:03.4,0.00986333563923836,0.0115806888788939,0.00336042861454189,0,
00:00:03.404,-0.0121309068053961,0.00406851852312684,0.0120940571650863,0,
00:00:03.408,-0.0150569193065166,-0.0101435976102948,-0.00377980619668961,0,
00:00:03.412,-0.000738742295652628,-0.0200216248631477,-0.00861162785440683,0,
00:00:03.416,0.0112763047218323,8.635236008558421e-05,-0.00165805139113218,0,
00:00:03.42,0.0101236421614885,0.0202768072485924,-0.000388716580346227,0,
00:00:03.424,-0.0069297552108764605,0.00421228399500251,0.0063960752449929706,0,
00:00:03.428,-0.00316234561614692,-0.00317950686439872,0.00119960145093501,0,
00:00:03.432,0.000266982737230137,0.0015830051852390198,-0.0031814172398299,0,
00:00:03.436,0.0037676030769944204,-0.008957634679973129,0.00255686417222023,0,
00:00:03.44,0.0035882035735994603,-0.009776321239769459,-0.00126134674064815,0,
00:00:03.444,-0.00103952118661255,0.0064326822757720895,-0.0016370451776310802,0,
00:00:03.448,-0.00374950538389385,0.00735906092450023,-0.000686440558638424,0,
00:00:03.452,-0.00968179944902658,-0.00116741668898612,-0.00386619288474321,0,
00:00:03.456,0.000318234611768276,-0.001321482937783,0.00676045147702098,0,
00:00:03.46,0.007383673451840879,-0.00187316373921931,0.0019652231130749,0,
00:00:03.464,0.00745686935260892,0.007093329448252921,-0.000981523073278368,0,
00:00:03.468,-0.0009521839674562221,0.00256919232197106,-0.0019070961279794602,0,
00:00:03.472,-0.0037216886412352298,-0.00701751699671149,-0.0035270627122372398,0,
00:00:03.476,-0.00100750382989645,-0.000855104473885149,0.00356399966403842,0,
00:00:03.48,-0.0031635053455829603,0.00187045568600297,-0.00209682760760188,0,
00:00:03.484,-0.00325955683365464,-0.0024985282216221103,0.00323839765042067,0,
00:00:03.488,0.00507874274626374,-0.00415638834238052,-0.000781972892582417,0,
00:00:03.492,-0.00046636810293421106,-0.004411831032484771,-0.00137305608950555,0,
00:00:03.496,1.15829034257331e-05,0.006795652210712429,-0.0027139310259372,0,
00:00:03.5,0.00736148934811354,0.00666803168132901,8.29508571769111e-05,0,
00:00:03.504,-0.00258201267570257,0.00238951062783599,0.00627281237393618,0,
00:00:03.508,-0.00839789398014545,-0.00563984084874392,-0.0017009429866448,0,
00:00:03.512,-0.00253673130646348,-0.00125221000052989,-0.00216042366810143,0,
00:00:03.516,0.0114328181371093,0.0088139558210969,0.007756108418107029,0,
00:00:03.52,0.00317817577160895,-0.000972963462118059,-0.00512386253103614,0,
00:00:03.524,-0.00712252175435424,-0.0122362142428756,-0.00548940617591143,0,
00:00:03.528,-0.0028606036212295302,-0.00583242578431964,-0.00375735876150429,0,
00:00:03.532,0.00201242323964834,0.00451589934527874,0.00361064937897027,0,
00:00:03.536,0.00132362614385784,0.00431910110637546,0.00446852948516607,0,
00:00:03.54,-0.00644705584272742,0.0038049959111958703,0.000286211346974596,0,
00:00:03.544,0.00498935440555215,0.00621649483218789,0.0039792088791728,0,
00:00:03.548,0.00418290495872498,0.006434851326048371,0.000265855342149735,0,
00:00:03.552,0.000387529580621049,-0.0103903561830521,-0.00714874966070056,0,
00:00:03.556,-0.00630893791094422,-0.0100901611149311,-0.00167840823996812,0,
00:00:03.56,-0.0027179531753063198,-0.011845993809402001,0.00110933324322104,0,
00:00:03.564,0.00788046140223742,0.00402348302304745,-0.000264855189016089,0,
00:00:03.568,-0.00459701055660844,0.0152296097949147,0.00119397637899965,0,
00:00:03.572,0.00175865471828729,0.0116942031309009,0.00609832303598523,0,
00:00:03.576,-8.90010778675787e-05,0.0006126925582066179,0.00163629464805126,0,
00:00:03.58,0.0023229354992508897,-0.0130482986569405,-0.00691093550994992,0,
00:00:03.584,-0.0013995299814268901,-0.00410571228712797,-0.00010100153303938,0,
00:00:03.588,0.00293254130519927,0.0021068644709885103,-0.00568317761644721,0,
00:00:03.592,3.5015164030483e-05,-0.000488438119646162,0.00367956864647567,0,
00:00:03.596,-0.00257876235991716,-0.00222361204214394,0.006380735896527771,0,
00:00:03.6,-0.00909532606601715,0.000609680777415633,0.00185984454583377,0,
00:00:03.604,0.00236618565395474,0.00883623771369457,-0.00431484542787075,0,
00:00:03.608,0.00504572689533234,0.0007712186197750269,-0.00568014848977327,0,
00:00:03.612,0.00335222110152245,-0.0076975109986960905,-0.000997389783151448,0,
00:00:03.616,-0.0014531776541844,-0.00412708008661866,0.0047975545749068295,0,
00:00:03.62,0.0027887632604688397,-0.00106419366784394,0.00156073179095984,0,
00:00:03.624,-0.00210726237855852,0.00344847259111702,0.00470739603042603,0,
00:00:03.628,-0.000652357412036508,0.0171871725469828,-0.00595303159207106,0,
00:00:03.632,-0.00130910438019782,0.00365620059892535,0.00463461922481656,0,
00:00:03.636,-0.0055718733929097704,-0.0192516092211008,0.00110189616680145,0,
00:00:03.64,0.00114364712499082,-0.00826564617455006,-0.00948084052652121,0,
00:00:03.644,0.00959066580981016,0.00044155083014629803,-0.006660853046923879,0,
00:00:03.648,-0.007405953947454691,0.000583338493015617,0.008221057243645191,0,
00:00:03.652,-0.0021448079496622103,0.0047524785622954395,0.00493830908089876,0,
00:00:03.656,0.00206983159296215,0.0059429220855236106,-0.000685972510837018,0,
00:00:03.66,0.0073598292656242795,0.00589446956291795,0.0009607002139091491,0,
00:00:03.664,-0.00189399113878608,0.0068461075425148,0.00186112441588193,0,
00:00:03.668,0.00107331818435341,-0.0114906663075089,-0.0012198784388601802,0,
00:00:03.672,-0.0033574861008673898,-0.00948340725153685,-0.00716034602373838,0,
00:00:03.676,-0.00507802236825228,-0.008212398737668991,-0.0007118500070646411,0,
00:00:03.68,-0.00105303653981537,0.0094339307397604,0.00222699739970267,0,
00:00:03.684,0.00442722765728831,0.0160881169140339,0.00250671873800457,0,
00:00:03.688,0.00540126720443368,0.00625105341896415,-0.000656782533042133,0,
00:00:03.692,0.00275466381572187,-0.0125148994848132,0.00210138014517725,0,
00:00:03.696,-0.0110815325751901,-0.0133481593802571,0.000954873918090016,0,
00:00:03.7,0.00285546993836761,0.00263160094618797,-0.000682532438077033,0,
00:00:03.704,0.0007179165259003639,0.00275346590206027,-0.0014260797761380698,0,
00:00:03.708,-0.0107461791485548,-0.0038512630853802,-0.00326945586130023,0,
00:00:03.712,0.007343930192291741,0.00123546249233186,0.0035727370996028202,0,
00:00:03.716,0.00803600624203682,0.009356028400361541,-0.00221639149822295,0,
00:00:03.72,0.00688687292858958,0.00728608388453722,0.00103983236476779,0,
00:00:03.724,-0.00391121581196785,0.00331835146062076,-0.0009408173500560221,0,
00:00:03.728,-0.0132994409650564,-0.0139947263523936,0.00640771212056279,0,
00:00:03.732,-0.00117804913315922,-0.007475926540791991,-0.00479402765631676,0,
00:00:03.736,0.00358399073593318,0.00171971251256764,0.00033882501884363597,0,
00:00:03.74,0.00584749970585108,0.00175314757507294,-0.00402086228132248,0,
00:00:03.744,0.0020550130866468,0.000568728020880371,0.005226851440966129,0,
00:00:03.748,-0.0056767589412629604,0.00441762479022145,-0.00590074574574828,0,
00:00:03.752,-0.00300664315000176,0.0029195058159530198,0.00208064075559378,0,
00:00:03.756,0.00513450289145112,0.0022096827160567,0.00521859200671315,0,
00:00:03.76,-0.00111192686017603,-0.009923845529556271,-0.000523391994647682,0,
00:00:03.764,0.00119114213157445,0.00429004430770874,-0.0020513110794127,0,
00:00:03.768,0.00267387856729329,0.00350044504739344,-0.0035802242346108,0,
00:00:03.772,-0.00241436040960252,-0.00048371544107794805,-0.000500789086800069,0,
00:00:03.776,-0.00256451871246099,-0.0027744285762309998,0.00403208518400788,0,
00:00:03.78,-0.00509845372289419,-0.0067698135972023,0.0045746765099465795,0,
00:00:03.784,0.008644696325063709,-0.0033694291487336198,-0.004203223157674071,0,
00:00:03.788,0.000499995425343513,0.0138383973389864,-0.00343572651036084,0,
00:00:03.792,0.000132992470753379,0.0026354957371950197,0.00582795403897762,0,
00:00:03.796,-0.00566781871020794,-0.00937906932085752,-0.004307362716645001,0,
00:00:03.8,0.00192846136633307,-0.000339971884386614,-0.0030097702983766803,0,
00:00:03.804,-0.0021788626909256,0.0022872465196996897,0.0047047049738466705,0,
00:00:03.808,0.0020632348023355,0.0017772967694327198,0.0006638640770688651,0,
00:00:03.812,0.00219144625589252,0.00039702249341644303,-0.00494141131639481,0,
00:00:03.816,0.000805920455604792,0.00145004026126117,0.00518750073388219,0,
00:00:03.82,-0.000484059186419472,-0.0028988732956349897,0.0030207468662411,0,
00:00:03.824,-0.00103289028629661,-0.0023047507274895898,-0.00109301821794361,0,
00:00:03.828,-0.00088222068734467,-0.00245120702311397,-0.009320245124399659,0,
00:00:03.832,-0.00246542552486062,0.000916239689104259,0.0032840408384799996,0,
00:00:03.836,0.00413338281214237,0.007045595906674859,-0.00019366714695934198,0,
00:00:03.84,-0.00207714666612446,-0.0013244650326669199,0.00716398982331157,0,
00:00:03.844,0.00292574125342071,0.00403219368308783,-0.00400534411892295,0,
00:00:03.848,-0.005304513964802029,-0.00466678803786635,-0.0012252387823537,0,
00:00:03.852,-0.00389339821413159,-0.00857104640454054,-0.0019565729890018697,0,
00:00:03.856,0.01058463845402,0.0026708107907325,0.00455039227381349,0,
00:00:03.86,0.0180892590433359,0.0066955634392797895,-0.002037120051682,0,
00:00:03.864,-0.020076796412468,0.00270429369993508,0.0006072248215787111,0,
00:00:03.868,-0.0096011608839035,0.0005776191246695821,0.00258648721501231,0,
00:00:03.872,-0.00521810399368405,-0.0113650346174836,-0.00424069352447987,0,
00:00:03.876,0.00135832687374204,-0.00442764116451144,-0.00232810503803194,0,
00:00:03.88,0.00960019323974848,0.00780669087544084,0.00498538184911013,0,
00:00:03.884,0.012268896214663998,0.008950093761086459,0.0025381036102771802,0,
00:00:03.888,0.0008968602051027119,0.00198726751841605,-0.0052461521700024605,0,
00:00:03.892,-0.00304794451221824,-0.005722143687307829,-0.00291038607247174,0,
00:00:03.896,-0.00993860326707363,-0.00317907053977251,-0.00119723682291806,0,
00:00:03.9,-0.0011279025347903401,0.000251773308264092,0.008847774937748909,0,
00:00:03.904,-0.00103900523390621,-0.0108227012678981,0.0104392869397998,0,
00:00:03.908,-0.00119860423728824,-0.0015332371694967198,-0.012071686796844,0,
00:00:03.912,0.0019603963010013103,0.0153322629630566,-0.009888867847621441,0,
00:00:03.916,0.00971036218106747,0.011198696680366998,-0.0034744916483759897,0,
00:00:03.92,0.000948549248278141,-0.00507391337305307,0.0127307008951902,0,
00:00:03.924,-0.0121738985180855,-0.00844160560518503,0.0034953553695231698,0,
00:00:03.928,0.00556501280516386,-0.005354895722120999,-0.0010975226759910599,0,
00:00:03.932,-0.00200368720106781,-0.007093338761478659,-0.00449466239660978,0,
00:00:03.936,-0.00117057596798986,0.0122292768210173,0.00010041590576292901,0,
00:00:03.94,0.00309835746884346,0.0101271532475948,0.00301332026720047,0,
00:00:03.944,0.006202040240168571,-0.0024727140553295604,-0.00153631577268243,0,
00:00:03.948,-0.00195746053941548,-0.0132144102826715,-0.005950662307441229,0,
00:00:03.952,-0.0107782809063792,-0.00789747294038534,0.0033636768348515,0,
00:00:03.956,0.0005022360128350559,0.0069684479385614395,0.00587221328169107,0,
00:00:03.96,-0.0022260220721364,0.00427525164559484,-0.0006960728205740451,0,
00:00:03.964,0.0133247571066022,0.00601425999775529,-0.00259838835336268,0,
00:00:03.968,0.00414556451141834,0.00886204093694687,-0.00404034508392215,0,
00:00:03.972,-0.00332699855789542,-0.000875399156939238,-0.000656881020404398,0,
00:00:03.976,-0.0120344208553433,-0.0139723159372807,0.00830603484064341,0,
00:00:03.98,0.005798992235213521,-0.0042602303437888605,-0.00327731529250741,0,
00:00:03.984,-0.004393875598907471,0.000625010055955499,0.000840471882838756,0,
00:00:03.988,0.00247769430279732,0.000385252526029944,-0.0043388158082962,0,
00:00:03.992,0.00268369889818132,0.00229608453810215,-0.0037147253751754795,0,
00:00:03.996,-0.005343446042388679,0.0008921985281631349,0.0118500227108598,0,
00:00:04,0.00115940882824361,0.00404515489935875,-0.00145120162051171,0,
00:00:04.004,0.0036110794171690897,0.00216131471097469,-0.006375248543918129,0,
00:00:04.008,0.00695455726236105,-0.00262734037823975,-0.000625135377049446,0,
00:00:04.012,-0.0032490375451743603,-0.00216334383003414,0.00361386057920754,0,
00:00:04.016,-0.0043366556055843795,0.00156604556832463,-0.00454629538580775,0,
00:00:04.02,0.00206686183810234,0.00485195638611913,0.00513960048556328,0,
00:00:04.024,0.000459862261777744,-0.00051965395687148,0.0031291621271520896,0,
00:00:04.028,-0.00167851499281824,-0.0064147333614528205,-0.00293780234642327,0,
00:00:04.032,-0.00624854024499655,-0.00444111041724682,-0.00923671759665012,0,
00:00:04.036,-0.0013172453036531802,-0.0024796507786959397,0.00694397184997797,0,
00:00:04.04,0.0032847817055881,-0.0101535674184561,0.00569176813587546,0,
00:00:04.044,0.012789654545486,0.0143507430329919,-0.0017433050088584401,0,
00:00:04.048,-0.00496881268918514,0.017680399119853998,-0.00532867573201656,0,
00:00:04.052,0.000146405523992144,0.0104705300182104,-0.00416535837575793,0,
00:00:04.056,-0.00588337937369943,-0.0110047785565257,0.009547351859509941,0,
00:00:04.06,-0.00958996266126633,-0.0236551314592361,0.00045505689922720194,0,
00:00:04.064,0.00649120379239321,-0.00986753683537245,-0.00260326056741178,0,
00:00:04.068,0.0055787353776395295,0.00713838590309024,-0.004379235208034521,0,
00:00:04.072,0.0072736642323434405,0.00950917694717646,-0.000925343134440482,0,
00:00:04.076,-0.00563994655385613,0.0183315835893154,0.00199754745699465,0,
00:00:04.08,0.00554602965712547,0.00201182090677321,0.008939700201153759,0,
00:00:04.084,-0.00858363229781389,-0.0127625726163387,0.00203093932941556,0,
00:00:04.088,-0.00825863052159548,-0.0146811632439494,-0.008544256910681721,0,
00:00:04.092,0.006050162017345429,0.000896434707101434,-0.0103592667728662,0,
00:00:04.096,0.00770258763805032,0.008246044628322121,0.0032318411394953697,0,
00:00:04.1,-0.00277252472005785,0.0054335710592567895,0.0042163738980889294,0,
00:00:04.104,-0.00574123067781329,-0.00142271583899856,0.00815872941166162,0,
00:00:04.108,0.000651991169434041,-0.00658776517957449,0.00453636050224304,0,
00:00:04.112,0.00042291622958146003,-0.00148106925189495,-0.0132397841662169,0,
00:00:04.116,0.0079930704087019,0.0134980911388993,0.00148988841101527,0,
00:00:04.12,0.00232973881065845,0.00465224869549274,0.0029266697820276,0,
00:00:04.124,-0.0117800263687968,-0.0114707555621862,-0.00147842871956527,0,
00:00:04.128,-0.0035405997186899203,-0.0109297102317214,-0.00343375210650265,0,
00:00:04.132,0.00483518652617931,-0.00147480121813715,-0.00014119783008936798,0,
00:00:04.136,0.00482567213475704,0.007521418388932941,0.00449283933266997,0,
00:00:04.14,-0.000239599728956819,0.0069301789626479105,0.004895361140370371,0,
00:00:04.144,-0.000977616873569787,0.00270397099666297,-0.0020570936612784897,0,
00:00:04.148,0.0078051844611764,-0.0011458417866379,-0.00554441660642624,0,
00:00:04.152,-0.00586783792823553,-0.00289524812251329,-0.00432972377166152,0,
00:00:04.156,-0.0125980451703072,-0.0005413126782514151,0.0115431463345885,0,
00:00:04.16,0.00576781015843153,-0.0032563486602157398,-0.00150886666961014,0,
00:00:04.164,0.00864083040505648,-0.00363621977157891,-0.0062506147660315,0,
00:00:04.168,-0.00408355053514242,0.00265834596939385,-0.0024985377676785,0,
00:00:04.172,-0.0015011583454906901,0.00551430322229862,0.0036936933174729295,0,
00:00:04.176,6.85828636051156e-05,-0.00224429788067937,0.0054000923410058,0,
00:00:04.18,0.000648112501949072,0.000260122411418706,-0.0010249007027596198,0,
00:00:04.184,0.000564433983527124,-0.0017479917732998698,-0.000522991409525275,0,
00:00:04.188,0.00021383495186455502,0.00176129664760083,-0.00582368532195687,0,
00:00:04.192,-0.0021792498882859898,0.00109897868242115,-0.0021000816486775897,0,
00:00:04.196,-0.00242573115974665,-0.000318960461299866,0.00407415442168713,0,
00:00:04.2,0.009516743943095209,0.0030824055429548,0.00564978132024407,0,
00:00:04.204,0.00147063832264394,-0.0028495027218014,-0.0009586162050254641,0,
00:00:04.208,-0.0036716996692121,-0.00568098016083241,-0.00475342990830541,0,
00:00:04.212,-0.00869132857769728,-0.0018591391853988199,-0.0020114290527999397,0,
00:00:04.216,-0.00284015596844256,-0.000132122018840164,0.00314057152718306,0,
00:00:04.22,0.0029717045836150603,0.00323525629937649,0.00446892995387316,0,
00:00:04.224,0.00707701221108437,0.0020122742280364,0.00034620639053173396,0,
00:00:04.228,0.0058697224594652705,0.00868361908942461,-0.00895102880895138,0,
00:00:04.232,-0.0024632157292217,0.00417541619390249,-0.00135930441319942,0,
00:00:04.236,-0.00448304833844304,-0.00421622069552541,0.0030049993656575697,0,
00:00:04.24,-0.0030613187700509995,-0.0139488345012069,0.00576130114495754,0,
00:00:04.244,0.0013615568168461301,-0.00415334105491638,0.0105335200205445,0,
00:00:04.248,-0.0009833992226049302,0.0008796402253210539,-0.00933762732893229,0,
00:00:04.252,-9.971358667826279e-05,0.00531982304528356,-0.0115818837657571,0,
00:00:04.256,0.000999631127342582,0.007864042185246941,-0.00319472933188081,0,
00:00:04.26,0.0012825489975512,0.00547009240835905,0.00609408644959331,0,
00:00:04.264,-0.00123824481852353,-0.00130814022850245,0.006382999010384079,0,
00:00:04.268,4.82469295093324e-05,-0.00937748327851295,0.0029521083924919397,0,
00:00:04.272,0.0053270761854946605,-0.00940343923866749,-0.00259587075561285,0,
00:00:04.276,-0.00484510371461511,0.008720189332962041,-0.000335339485900477,0,
00:00:04.28,0.00329836434684694,0.0114102130755782,0.00141190004069358,0,
00:00:04.284,-0.000916039629373699,-0.00503823207691312,-0.0030616563744843,0,
00:00:04.288,-0.00206486787647009,-0.0066679399460554106,-0.00464089633896947,0,
00:00:04.292,-0.00347529724240303,-0.00697860447689891,0.0014329707482829699,0,
00:00:04.296,0.00798786524683237,0.0029202583245933104,0.00267400476150215,0,
00:00:04.3,-0.00364131340757012,0.010129552334546998,0.0016859108582139,0,
00:00:04.304,-0.00801185425370932,0.00456119421869516,0.000260797707596794,0,
00:00:04.308,0.001154292258434,-0.00818524323403835,-0.000667315965984017,0,
00:00:04.312,0.00699226884171367,-0.0010198887903243301,-0.005031811073422429,0,
00:00:04.316,0.00640766462311149,0.000690864224452525,0.0054344329982996,0,
00:00:04.32,-0.0019462212221697,0.00044005585368722693,0.00323666702024639,0,
00:00:04.324,-0.008393362164497379,-9.11789393285289e-05,-0.00515252677723765,0,
00:00:04.328,0.00501492712646723,-0.000322399544529617,0.0029295131098479,0,
00:00:04.332,0.0026069600135088,0.00391243444755673,-0.00552604161202908,0,
00:00:04.336,-0.0102073606103659,-0.003975966945290571,-0.000415001937653869,0,
00:00:04.34,7.67545789130963e-05,-0.00313578872010112,0.003995233681052921,0,
00:00:04.344,0.0037301762495189896,-0.00222409586422145,8.7045285908971e-05,0,
00:00:04.348,0.00332113518379629,0.0038208162877708704,-0.0047013228759169605,0,
00:00:04.352,-0.000738800736144185,0.0037655008491128705,0.0037690931931138,0,
00:00:04.356,0.0015056973788887301,-0.0006511905230581759,0.005542534869164229,0,
00:00:04.36,-0.0038265276234597,-0.00291093136183918,-0.00135430751834065,0,
00:00:04.364,0.00497943116351962,0.00390710728242993,-0.00318681518547237,0,
00:00:04.368,0.0019166504498571199,0.00198034988716245,-0.00434468826279044,0,
00:00:04.372,-0.008437288925051691,-0.00117983587551862,-0.000668156135361642,0,
00:00:04.376,0.00434482656419277,0.00152780069038272,0.0043181814253330205,0,
00:00:04.38,-0.00170157116372138,-0.00196556141600013,0.007096126209944491,0,
00:00:04.384,-0.0017355487216264,-0.00594827253371477,-0.00374707579612732,0,
00:00:04.388,-6.21252183918841e-05,-0.0113650560379028,-0.0068994346074759995,0,
00:00:04.392,0.00116574473213404,0.00669400440528989,-0.00017200481670443,0,
00:00:04.396,0.00136842834763229,0.00949082337319851,0.00433710170909762,0,
00:00:04.4,0.0008359588100574911,0.00730595178902149,0.00222013751044869,0,
00:00:04.404,-0.00196345197036862,-0.00615927251055837,-0.00266635487787426,0,
00:00:04.408,-0.0025685951113700897,-0.007073412183672191,-0.00405881414189935,0,
00:00:04.412,0.007131772115826609,0.00547318905591965,-0.000161408126587048,0,
00:00:04.416,0.00316266622394323,0.0080787492915988,0.00269044609740376,0,
00:00:04.42,-0.00425647012889385,-0.00448277592658997,0.00921104475855827,0,
00:00:04.424,-0.0127770276740193,-0.00431748712435365,-0.00020965121802873899,0,
00:00:04.428,0.0164150670170784,-0.00536608276888728,-0.011116293258965,0,
00:00:04.432,-0.008863206952810291,-0.0055355103686451895,0.0031504034996032697,0,
00:00:04.436,0.00444825226441026,0.00821106322109699,-0.00143499486148357,0,
00:00:04.44,-0.00155340030323714,0.0026268174406141,-0.000805791118182242,0,
00:00:04.444,-0.0038649411872029296,0.0032393848523497603,0.00284539815038443,0,
00:00:04.448,-0.000408291554776952,0.000647969893179834,-0.0025281708221882603,0,
00:00:04.452,0.00655663991346955,-0.00574064627289772,-0.000481928756926209,0,
00:00:04.456,-0.00109163788147271,-0.000384909799322486,0.0060016298666596395,0,
00:00:04.46,-0.00166787707712501,0.00571346655488014,0.00667693186551332,0,
00:00:04.464,0.0037780338898301103,0.00160798127762973,-0.0119513506069779,0,
00:00:04.468,0.00286591425538063,-0.00469865696504712,-0.00710983062162995,0,
00:00:04.472,-0.00847641099244356,-0.0039135729894042,0.00980630703270435,0,
00:00:04.476,-0.0049352664500474895,-0.0009326077997684481,0.00426951656118035,0,
00:00:04.48,0.0030957099515944698,-0.000666324282065034,-0.00292581412941217,0,
00:00:04.484,0.00219393125735223,0.00206091487780213,-0.0010961227817460901,0,
00:00:04.488,0.0043501532636582895,0.0031586468685418398,-0.00311035057529807,0,
00:00:04.492,0.0037906079087406397,0.008503180928528309,-0.00305233080871403,0,
00:00:04.496,-0.00516575342044234,-0.0012298527872189901,0.00315540330484509,0,
00:00:04.5,8.23042792035267e-05,-0.00560129294171929,0.00564436754211783,0,
00:00:04.504,-0.0045303450897336,-0.0133501393720508,-0.00037993543082848197,0,
00:00:04.508,0.0026336743030697103,0.0037216113414615397,-0.00415156641975045,0,
00:00:04.512,-4.71012099296786e-05,0.009308679029345509,0.00242392509244382,0,
00:00:04.516,-0.00435114745050669,-0.0037220004014670797,-0.000883758941199631,0,
00:00:04.52,0.00836159382015467,-0.00141680636443198,-0.00116983999032527,0,
00:00:04.524,-0.00015129022358451,0.0128221474587917,-0.000401122437324375,0,
00:00:04.528,-0.00250223558396101,0.00397846242412925,0.000322264793794602,0,
00:00:04.532,-0.003958855289965871,-0.0140088573098183,0.00267573166638613,0,
00:00:04.536,0.00773452688008547,-0.00297044171020389,0.0026518239174038198,0,
00:00:04.54,-0.00786411855369806,-0.00169242511037737,-0.00541850877925754,0,
00:00:04.544,-0.00198553293012083,-0.0011776959290728,-0.00562905427068472,0,
00:00:04.548,0.00453529367223382,0.00230098143219948,0.00432331580668688,0,
00:00:04.552,0.00162375054787844,0.0059493118897080395,0.00425561936572194,0,
00:00:04.556,0.0027581553440541,0.00309844897128642,-0.000860537111293525,0,
00:00:04.56,0.0023176830727607,-0.000579269952140749,-0.00132512545678765,0,
00:00:04.564,-0.0017349037807434802,-0.0025412682443857197,0.00370679446496069,0,
00:00:04.568,-0.00795395020395517,-0.0045734690502286,-0.00573058519512415,0,
00:00:04.572,-0.00541991833597422,-0.0013974899193272,-0.0008071190095506611,0,
00:00:04.576,0.00811202544718981,0.00157284748274833,-0.00047863015788607305,0,
00:00:04.58,0.00399768585339189,0.00670342100784183,0.0100646242499352,0,
00:00:04.584,0.0025095276068896103,-0.00211148848757148,-0.00328841432929039,0,
00:00:04.588,-0.005540404934436079,-0.00280206650495529,-0.0068590505979955205,0,
00:00:04.592,-0.00145651795901358,0.00111130182631314,0.00409606052562594,0,
00:00:04.596,0.00243051163852215,0.0028265870641917,-0.00155707146041095,0,
00:00:04.6,-0.00115580891724676,-0.00439856015145779,0.0009389008628204461,0,
00:00:04.604,-0.0010267689358443,-0.00259855133481324,0.000596038589719683,0,
00:00:04.608,4.32691995229106e-05,0.000692083733156323,-0.00226601911708713,0,
00:00:04.612,-0.00132046197541058,0.00446559907868505,-0.00272402795962989,0,
00:00:04.616,-0.00135992781724781,0.00019129608699586202,0.00516370590776205,0,
00:00:04.62,0.0122700799256563,0.0013539862120524,0.00336397485807538,0,
00:00:04.624,-0.00661269295960665,0.0037483221385628,-0.000301128340652213,0,
00:00:04.628,0.0024053710512816897,-0.007708744145929809,-0.00656511867418885,0,
00:00:04.632,-0.00217492785304785,-0.00505369668826461,-0.00263807456940413,0,
00:00:04.636,-0.00737193832173944,-0.0017026885179802801,0.0143122579902411,0,
00:00:04.64,-0.00211472855880857,0.009673736058175559,-0.00620949221774936,0,
00:00:04.644,0.005151460412889721,0.0013304789317771801,-0.00706676254048944,0,
00:00:04.648,0.0027380590327084104,-0.0053794807754457,-0.00394777953624725,0,
00:00:04.652,0.0037399539723992296,0.00470247166231275,0.00648876698687673,0,
00:00:04.656,0.00485138362273574,0.00477708596736193,0.00547197507694364,0,
00:00:04.66,-0.00586552545428276,-0.0032599053811281898,-0.000824717106297612,0,
00:00:04.664,-0.0080054821446538,-0.00486082723364234,5.6705805036472204e-05,0,
00:00:04.668,-0.0022919119801372303,-0.00291006895713508,-0.0011651848908513802,0,
00:00:04.672,0.0110487267374992,0.0018876815447583801,-0.00593282468616962,0,
00:00:04.676,-0.0014716455480083802,-0.000374938652385026,0.000525120936799794,0,
00:00:04.68,-0.00749677559360862,-0.0058816047385335,0.00485615245997906,0,
00:00:04.684,-0.0016233550850302,0.00295758387073874,0.006567291449755429,0,
00:00:04.688,0.0141031434759498,0.0101216789335012,-0.00467837089672685,0,
00:00:04.692,-0.00285422778688371,0.0024302094243466897,-0.0117208566516638,0,
00:00:04.696,-0.0009678532951511439,0.00603093160316348,0.0036371231544762898,0,
00:00:04.7,-0.008310620673000809,-0.00950140506029129,0.00583022134378552,0,
00:00:04.704,0.00557813048362732,-0.0113196317106485,0.0029163185972720398,0,
00:00:04.708,-0.000633983174338937,-0.00336447474546731,-0.00245078466832638,0,
00:00:04.712,-0.0034170241560787,0.0015765660209581301,-0.0021569894161075397,0,
00:00:04.716,0.00377870700322092,0.0080476300790906,0.0036853507626801703,0,
00:00:04.72,0.00034844531910493997,0.008287547156214709,0.0009170316625386481,0,
00:00:04.724,-0.00260860845446587,0.0038307642098516204,-0.00627417769283056,0,
00:00:04.728,0.00157290557399392,-0.00755512295290828,-0.00514603033661842,0,
00:00:04.732,-0.000501635251566768,-0.00465185195207596,0.00539838057011366,0,
00:00:04.736,0.00436743441969156,-0.00616256007924676,0.0051270788535475705,0,
00:00:04.74,0.0010654438519850401,0.00198316876776516,-0.000564870308153331,0,
00:00:04.744,-0.00646104989573359,0.0106917172670364,0.000528824224602431,0,
00:00:04.748,-0.00133489072322845,0.0015843346482142802,0.00334860035218298,0,
00:00:04.752,0.00319668557494879,-0.009931749664247041,-0.0118380794301629,0,
00:00:04.756,0.00173519481904805,-0.006854548584669829,-0.0008673922857269639,0,
00:00:04.76,-0.00460270186886191,0.0040830858051776895,0.0101222079247236,0,
00:00:04.764,0.00043188524432480297,0.013008757494389999,0.000173617503605783,0,
00:00:04.768,0.0019954866729676697,0.00676833279430866,-0.00702823745086789,0,
00:00:04.772,0.0015380549011752,-0.0122250840067863,0.0016209873137995599,0,
00:00:04.776,-0.00373226357623935,-0.0133362524211407,0.0005374154425226151,0,
00:00:04.78,0.0034812397789210103,0.0112355658784509,0.0029721914324909397,0,
00:00:04.784,0.0066425334662199,0.0101356031373143,0.00314066698774695,0,
00:00:04.788,-0.00215531000867486,-0.0108325770124793,-0.0050611109472811205,0,
00:00:04.792,-0.009282161481678491,-0.00540036289021373,-0.0035178959369659398,0,
00:00:04.796,-0.00407760310918093,0.000809744466096163,0.00418144511058927,0,
00:00:04.8,0.00825789757072926,0.00594604248180985,0.00029198071570135696,0,
00:00:04.804,-0.00331121473573148,-0.00041367081576027003,-0.000886206224095076,0,
00:00:04.808,0.000949207169469446,0.0020006827544421,-0.0027696571778506,0,
00:00:04.812,0.00881381146609783,0.007330095861107109,-0.000211748483707197,0,
00:00:04.816,0.00017301911429967701,-0.00223122839815915,-0.000216040731174871,0,
00:00:04.82,-0.00432112067937851,-0.0102236773818731,0.00412440439686179,0,
00:00:04.824,-0.00655029993504286,-0.0051334360614419,0.0111211203038692,0,
00:00:04.828,-0.0044084750115871395,-0.000623856321908534,-0.00571477692574263,0,
00:00:04.832,0.0037817095872014796,0.00877430010586977,-0.0123270554468036,0,
00:00:04.836,0.00715813273563981,0.00607299851253629,-0.00033943814923986803,0,
00:00:04.84,-0.00319235422648489,0.000618922989815474,0.0015421238495037,0,
00:00:04.844,0.000422762444941327,-0.00296984962187707,-0.0009570448310114439,0,
00:00:04.848,0.00769688887521625,-0.0140058975666761,0.0131632182747126,0,
00:00:04.852,-0.00505902245640755,0.00552570819854736,0.00506809959188104,0,
00:00:04.856,-0.0009541594772599641,0.0160274486988783,-0.0106626963242888,0,
00:00:04.86,-0.00327641540206969,0.00378255057148635,-0.00621985411271453,0,
00:00:04.864,0.000452950451290235,-0.009375785477459429,-0.0012490747030824401,0,
00:00:04.868,-0.00142124015837908,-0.0226621944457293,0.0019625290296971802,0,
00:00:04.872,4.38866263721138e-05,-0.00547024328261614,-0.00336936884559691,0,
00:00:04.876,-0.000658195640426129,0.0164722669869661,0.00800737179815769,0,
00:00:04.88,0.00362658547237515,0.0169406291097403,0.0077017177827656295,0,
00:00:04.884,0.00263508385978639,0.007218311075121159,-0.00394223956391215,0,
00:00:04.888,0.000273301673587412,-0.00695773074403405,-0.00102074898313731,0,
00:00:04.892,0.000706607184838504,-0.00815769657492638,-0.00854044035077095,0,
00:00:04.896,-0.00162326858844608,-0.0108572943136096,0.0010448710527271,0,
00:00:04.9,-0.0068354420363903,-0.0032309188973158602,0.00305995251983404,0,
00:00:04.904,0.00195959629490972,0.00376034271903336,0.0019471532432362398,0,
00:00:04.908,-0.0034417295828461604,0.00415657693520188,-0.00385663798078895,0,
00:00:04.912,0.00288827088661492,0.00879338197410107,0.00322516309097409,0,
00:00:04.916,0.0105370515957475,0.00542136887088418,0.00445120315998793,0,
00:00:04.92,-0.00536854052916169,-0.0044090929441154,-9.62275662459433e-05,0,
00:00:04.924,-0.000705635058693588,-0.008532050997018809,-0.00743971345946193,0,
00:00:04.928,0.0142307840287685,-0.00212086969986558,-0.00370101351290941,0,
00:00:04.932,-0.0187295712530613,0.0009787511080503462,-0.0007675497326999901,0,
00:00:04.936,-0.0125263016670942,-0.000184169839485548,0.00773889059200883,0,
00:00:04.94,0.00553423771634698,0.00351149076595902,0.0049709132872521895,0,
00:00:04.944,0.00957526359707117,-0.0018016864778474,0.0041189263574779,0,
00:00:04.948,0.00416206428781152,0.00202371599152684,-0.00909234024584293,0,
00:00:04.952,0.00102121033705771,0.0040081334300339205,-0.006734265480190521,0,
00:00:04.956,0.00326530868187547,0.000535101862624288,-0.00278317369520664,0,
00:00:04.96,0.00057614000979811,-0.004465339239686729,0.0115001210942864,0,
00:00:04.964,-0.00873442459851503,-0.0010353421093896,-0.000298432889394462,0,
00:00:04.968,-0.00615334464237094,0.0018427399918437,-0.00232516112737358,0,
00:00:04.972,-0.000648284505587071,-0.00203434517607093,0.000999886426143348,0,
00:00:04.976,0.0030951693188399102,-0.00363160925917327,-0.0016445787623524698,0,
00:00:04.98,0.00386966275982559,-0.0041897543705999895,-0.0007629850879311559,0,
00:00:04.984,-0.0016225677682086802,0.006650867871940139,0.0025545971002429698,0,
00:00:04.988,0.008662641979753971,0.0125392628833652,-0.00308349099941552,0,
00:00:04.992,0.00259534013457596,0.00025697119417600296,0.00520458072423935,0,
00:00:04.996,-0.0124175706878304,-0.0105853024870157,0.0018332174513489,0,
00:00:05,-0.0066182529553771,-0.00699339620769024,-0.00650382786989212,0,
00:00:05.004,0.0122794844210148,-0.00043105377699248504,-0.0018415938830003101,0,
00:00:05.008,0.000299738690955564,0.00368116656318307,-0.00142351421527565,0,
00:00:05.012,-0.00478762900456786,0.00425635883584619,0.00137298693880439,0,
00:00:05.016,0.000120447024528403,0.00459818635135889,0.0006981597398407759,0,
00:00:05.02,0.00560628669336438,0.00036509439814835803,0.008408946916460991,0,
00:00:05.024,-0.00705391075462103,-0.0007238493417389691,0.0047460352070629605,0,
00:00:05.028,0.0029350465629249802,-0.0011936102528125,-0.0116275930777192,0,
00:00:05.032,0.0026168497279286398,-0.009734758175909521,-0.0073895012028515296,0,
00:00:05.036,-0.00422710692510009,-0.00590202119201422,0.00473354989662766,0,
00:00:05.04,-0.0019499799236655198,0.00292527675628662,0.007355862762779,0,
00:00:05.044,0.00545213557779789,0.0073269121348857906,-0.0020527443848550302,0,
00:00:05.048,0.00488018663600087,0.0104361390694976,-0.0006213008891791111,0,
00:00:05.052,-0.0072415699250996095,0.00679721077904105,-0.00689020985737443,0,
00:00:05.056,-0.00476865051314235,-0.00825321394950151,0.00936501659452915,0,
00:00:05.06,-0.00163326703477651,-0.0139208873733878,-0.00363053916953504,0,
00:00:05.064,0.009507435373961929,-0.00521909492090344,0.00321798375807703,0,
00:00:05.068,0.011402384378016,0.0117473788559437,-0.00547189032658935,0,
00:00:05.072,-0.009334526024758821,0.00726401619613171,-0.0025272816419601397,0,
00:00:05.076,-0.0117096789181232,-0.00900709722191095,0.00789713021367788,0,
00:00:05.08,-0.0011998943518847199,-0.00326796108856797,0.00159552169498056,0,
00:00:05.084,0.00200056098401546,0.00780448270961642,-0.0021545677445828897,0,
00:00:05.088,0.00875384267419577,-0.000528956938069314,-0.00499174976721406,0,
00:00:05.092,0.0044709173962473895,-0.00852550100535154,-0.00604832312092185,0,
00:00:05.096,-0.00316539616324008,0.00250217923894525,0.0052873590029776105,0,
00:00:05.1,-0.0102083124220371,0.00485556060448289,0.0100451661273837,0,
00:00:05.104,0.0017952979542315,0.000812368642073125,0.00261159264482558,0,
00:00:05.108,0.0111104175448418,0.00825627893209457,-0.00821798201650381,0,
00:00:05.112,0.00150249991565943,-0.0018721919041127,-0.008252830244600771,0,
00:00:05.116,-0.00425744568929076,-0.0107419192790985,0.00310292537324131,0,
00:00:05.12,-0.00718294363468885,-0.00389932887628675,0.00025152758462354503,0,
00:00:05.124,-0.00508383521810174,0.000941758276894689,0.00603134883567691,0,
00:00:05.128,0.00136247416958213,0.00302822468802333,0.00087545724818483,0,
00:00:05.132,0.00917040184140205,0.000756215886212885,-0.0012238406343385599,0,
00:00:05.136,0.00494015868753195,0.0013735836837440699,0.00471829436719418,0,
00:00:05.14,-0.00503502134233713,0.005742027424275879,-0.00894803740084171,0,
00:00:05.144,3.81313693651464e-05,-0.0030296514742076397,-0.00110692484304309,0,
00:00:05.148,0.00163045199587941,-0.00127587968017906,-0.000616133387666196,0,
00:00:05.152,-0.0075478865765035204,-0.00310051906853914,-0.00269441748969257,0,
00:00:05.156,-0.00116490584332496,0.0011752943973988301,0.00838241633027792,0,
00:00:05.16,0.00240721227601171,-0.000784513773396611,0.00311469309963286,0,
00:00:05.164,0.0009559610043652359,0.000197743793250993,0.00136909959837794,0,
00:00:05.168,0.00591017864644527,0.00525361998006701,-0.00432171951979399,0,
00:00:05.172,-7.20796306268312e-05,-0.0028259914834052303,-0.00173779891338199,0,
00:00:05.176,-0.00437459209933877,0.00139947887510061,-0.0032420440111309303,0,
00:00:05.18,-0.00225387816317379,-0.00445007998496294,-0.0007747641066089269,0,
00:00:05.184,0.000529793498571962,-0.006292912177741529,0.0035934911575168397,0,
00:00:05.188,0.00805036351084709,0.0113033214583993,0.000252628640737385,0,
00:00:05.192,0.0018724026158452,0.00616829888895154,-0.0021286895498633398,0,
00:00:05.196,-0.0040529603138566,-0.00629368098452687,0.0022395879495888896,0,
00:00:05.2,-0.0138245858252048,-0.00212512328289449,0.00200528441928327,0,
00:00:05.204,-0.0038423230871558202,-0.00810560584068298,0.00243549537844956,0,
00:00:05.208,0.0100220115855336,-0.00804723519831896,-0.00289913709275424,0,
00:00:05.212,0.00901944283396006,0.0100655276328325,-0.0049985744990408395,0,
00:00:05.216,0.007134147454053159,0.0148466881364584,0.0008936657104641199,0,
00:00:05.22,-0.00610542623326182,0.00249264924786985,0.006371995434165,0,
00:00:05.224,-0.0074537480250001,-0.00500003062188625,0.0016497588949278,0,
00:00:05.228,-0.0037805379834026103,-0.00661753630265594,-0.0111505975946784,0,
00:00:05.232,0.000267612456809729,-0.00435101706534624,-0.00232928548939526,0,
00:00:05.236,0.000407192565035075,0.0031865837518125803,0.00583858415484428,0,
00:00:05.24,0.00874357763677835,-0.00450885389000177,0.00523207569494843,0,
00:00:05.244,-0.000814466446172446,-0.0010316873667761699,-0.00039027037564665095,0,
00:00:05.248,0.00119323923718184,0.0051057361997664,0.00481817359104753,0,
00:00:05.252,-0.0100257964804769,0.0021838517859578102,-0.00476874597370625,0,
00:00:05.256,-0.00168953475076705,-0.000992225017398596,-0.00510618602856994,0,
00:00:05.26,0.00566652277484536,0.008455029688775541,-0.00200671469792724,0,
00:00:05.264,0.00879310630261898,-0.0005746861570514741,0.0009282379178330301,0,
00:00:05.268,-0.00488119991496205,-0.00743456650525332,0.0022300039418041697,0,
00:00:05.272,-0.0049312119372189,-0.00534848915413022,-0.00219099433161318,0,
00:00:05.276,0.00294718239456415,-0.0050533022731542605,0.00692578498274088,0,
00:00:05.28,-0.00023679931473452598,0.00413708435371518,0.0032384595833718803,0,
00:00:05.284,-0.0008256352157332,0.0124998204410076,-0.00605435809120536,0,
00:00:05.288,0.0017002457752823801,0.00020487439178396,-0.00227984297089279,0,
00:00:05.292,-0.00179729016963392,-0.004169425461441279,-0.000200399925233796,0,
00:00:05.296,-0.00327631714753807,-0.00175815855618566,0.00070064899045974,0,
00:00:05.3,0.00218965229578316,-0.005711018573492771,0.0008177013951353731,0,
00:00:05.304,0.0026620461139828,0.000705105543602258,-0.0015478394925594302,0,
00:00:05.308,0.00324475835077465,0.00490884715691209,4.9547044909559204e-05,0,
00:00:05.312,-0.00649057282134891,-0.0058593098074197795,0.00557560147717595,0,
00:00:05.316,-0.0029463900718838,0.00101830787025392,0.0017078920500353,0,
00:00:05.32,0.0164102837443352,0.0103981802240014,-0.0023764774668961802,0,
00:00:05.324,-0.0038284345064312202,0.00173843745142221,-0.009884826838970179,0,
00:00:05.328,-0.0146077033132315,-0.00156721123494208,0.0013372960966080401,0,
00:00:05.332,-0.00134002487175167,-0.004637575708329679,0.00225445651449263,0,
00:00:05.336,0.0023966811131686,-0.00454635685309768,0.00511255627498031,0,
00:00:05.34,0.010982328094542,-0.0063780415803194,0.00244096457026899,0,
00:00:05.344,0.00027501612203195697,0.00226531317457557,-0.000752512831240892,0,
00:00:05.348,-0.0030815785285085396,0.00721332989633083,-0.0023337770253419898,0,
00:00:05.352,-0.0026929546147584898,-1.5579782484564903e-05,-0.0083851870149374,0,
00:00:05.356,-0.00314738438464701,-0.00447764527052641,0.00904549844563007,0,
00:00:05.36,0.00021695374744013,0.000353968382114545,0.00318460282869637,0,
00:00:05.364,0.006615703925490379,0.0163130052387714,-0.00601123878732324,0,
00:00:05.368,0.00274084368720651,0.0043527465313673,-0.00584546010941267,0,
00:00:05.372,-0.0018346158321946898,-0.00988343730568886,0.00454980554059148,0,
00:00:05.376,-0.0036582418251782703,-0.0155446734279394,0.0025084200315177397,0,
00:00:05.38,-0.00491694966331124,-0.006153462920337921,0.00335520971566439,0,
00:00:05.384,-0.0009789913892745972,0.00149152497760952,0.000355167576344684,0,
00:00:05.388,-0.0017975043738260898,0.00560305593535304,-0.00408848747611046,0,
00:00:05.392,0.00721027515828609,0.00803820043802261,-0.00258248043246567,0,
00:00:05.396,0.00343111483380198,0.0143504431471229,0.00207625911571085,0,
00:00:05.4,0.00700143212452531,0.00217214436270297,0.0036878294777125103,0,
00:00:05.404,-0.00270561478100717,-0.012277876958251001,0.000172066109371372,0,
00:00:05.408,-0.00632321881130338,-0.008601781912148,-0.00655090156942606,0,
00:00:05.412,-0.00709445821121335,-0.007651411928236479,-0.00282052136026323,0,
00:00:05.416,-0.00177361373789608,-0.0014200878795236301,0.00178527098614722,0,
00:00:05.42,-0.00138519192114472,0.0060697416774928604,0.00785495061427355,0,
00:00:05.424,0.00816553365439177,0.0184977650642395,-0.0009969857055693858,0,
00:00:05.428,0.0105208037421107,0.0037743959110230203,-0.000210621525184251,0,
00:00:05.432,-0.00264180125668645,-0.0110223591327667,-0.00721471989527345,0,
00:00:05.436,-0.00783817563205957,-0.0137798711657524,0.00662847654893994,0,
00:00:05.44,-0.00195761257782578,0.0008947649621404711,0.00399861205369234,0,
00:00:05.444,0.00282227783463895,0.00771215185523033,-0.00548328785225749,0,
00:00:05.448,-0.00470150541514158,0.00274329725652933,-0.0062327617779374105,0,
00:00:05.452,0.00127809040714055,-0.00399435218423605,0.00373927527107298,0,
00:00:05.456,0.0116674629971385,0.00306079676374793,0.00601892080157995,0,
00:00:05.46,-0.00118670018855482,0.0064542661421001,-0.0007883157813921571,0,
00:00:05.464,-0.00777021236717701,-5.4585743782809004e-05,-0.00272651156410575,0,
00:00:05.468,-0.00477002654224634,-0.00907832011580467,-0.00614334968850017,0,
00:00:05.472,-0.00207629357464612,-0.00762108201161027,0.0014071571640670302,0,
00:00:05.476,0.0069119576364755604,0.00229250150732696,0.0100918421521783,0,
00:00:05.48,0.000742974923923612,0.00540895573794842,-0.0008978357654996221,0,
00:00:05.484,0.00232556625269353,0.0041655614040792,-0.00813725776970387,0,
00:00:05.488,0.00284953834488988,0.00136787234805524,0.0030751689337194,0,
00:00:05.492,-0.005002392921596771,-0.00301560340449214,-0.00150295696221292,0,
00:00:05.496,-0.0054702153429389,7.79120600782335e-05,0.0016150989104062301,0,
00:00:05.5,0.008234654553234579,-0.0041434559971094105,0.00125102081801742,0,
00:00:05.504,-0.0001800908066798,0.0075114369392395,-0.00199299561791122,0,
00:00:05.508,0.00160103593952954,0.00479378690943122,-0.00492492644116282,0,
00:00:05.512,-0.00583155173808336,-0.007267153821885591,0.00680332770571113,0,
00:00:05.516,-0.00366466259583831,-0.0110649289563298,0.00675196759402752,0,
00:00:05.52,-0.00379289872944355,-0.00444328505545855,-0.00229059578850865,0,
00:00:05.524,0.00666118320077658,0.00703604333102703,-0.00700444914400578,0,
00:00:05.528,0.00815206672996283,0.0169712565839291,0.000485390395624563,0,
00:00:05.532,0.00402080919593573,0.00733070774003863,-0.00539263151586056,0,
00:00:05.536,-0.00936984643340111,-0.0205297581851482,0.00363864051178098,0,
00:00:05.54,-0.00449102185666561,-0.0120654674246907,0.00415712548419833,0,
00:00:05.544,-0.0023242451716214397,0.00829450413584709,-0.00246948911808431,0,
00:00:05.548,0.0018770614406094,0.00765335047617555,0.00329678039997816,0,
00:00:05.552,0.00584559794515371,0.0102694928646088,0.0016202611150220002,0,
00:00:05.556,0.00313818757422268,0.0004884291556663809,-0.00108110869769007,0,
00:00:05.56,0.00158821488730609,-0.0130176488310099,-0.00229399441741407,0,
00:00:05.564,-0.00235148030333221,-0.00393116567283869,-0.00394998164847493,0,
00:00:05.568,-0.006056221202015879,0.000422552635427564,-0.00077377661364153,0,
00:00:05.572,-0.0030936065595597,-0.00214392715133727,0.0019616880454123,0,
00:00:05.576,0.00276830396614969,-0.000304249435430393,0.000579113664571196,0,
00:00:05.58,-0.00343954493291676,0.0124768326058984,0.007866847328841691,0,
00:00:05.584,0.00491477642208338,0.00570268835872412,-0.00199741730466485,0,
00:00:05.588,0.004445248749107121,-0.00917825754731894,0.00237205787561834,0,
00:00:05.592,0.00322523061186075,-0.004970930516719821,-0.00821677502244711,0,
00:00:05.596,-0.0014337697066366699,-0.000837891362607479,-0.00719255581498146,0,
00:00:05.6,-0.008121931925415991,-0.000493314175400883,0.00667091831564903,0,
00:00:05.604,-0.00790647231042385,0.00200341851450503,0.00148831505794078,0,
00:00:05.608,0.00967142079025507,0.00501134758815169,0.00282274140045047,0,
00:00:05.612,0.00952477380633354,0.0104512572288513,-0.0032470331061631398,0,
00:00:05.616,-0.0013432450359687198,-0.00487102940678597,0.0008906744187697769,0,
00:00:05.62,-0.007534091826528309,-0.0151906032115221,0.0035900962539017205,0,
00:00:05.624,-0.00885558314621449,-0.00840003881603479,0.000725414545740932,0,
00:00:05.628,0.00381011399440467,0.00973528064787388,-0.004001781810075039,0,
00:00:05.632,0.00801770947873592,0.00963799841701984,-0.000614197691902518,0,
00:00:05.636,-0.0006824059528298679,0.0013914679875597401,-2.0187811969663e-05,0,
00:00:05.64,-0.00371432467363775,-0.0124047948047519,-6.10295719525311e-05,0,
00:00:05.644,0.00564743997529149,0.005271641071885821,-0.00419300654903054,0,
00:00:05.648,0.00851633958518505,0.0189345199614763,0.0019674515351653103,0,
00:00:05.652,-0.0103033846244216,0.000504886847920716,0.005480304826050999,0,
00:00:05.656,-0.0132007664069533,-0.0218535680323839,0.000177904730662704,0,
00:00:05.66,-0.00214389176107943,-0.0128916604444385,0.004817103035748001,0,
00:00:05.664,0.0107382284477353,0.00136520923115313,-0.00926497764885426,0,
00:00:05.668,0.0169726721942425,0.0114503540098667,-0.00559927755966783,0,
00:00:05.672,-0.007783539127558471,0.00957960821688175,0.007264459505677221,0,
00:00:05.676,-0.00945854000747204,0.00752684008330107,0.00277908402495086,0,
00:00:05.68,-0.00147625408135355,-0.00797666050493717,-0.000469096936285496,0,
00:00:05.684,-0.000155813395394944,-0.00968404021114111,-0.0038096122443676,0,
00:00:05.688,0.00432709790766239,0.0036339715588837897,-0.00157017726451159,0,
00:00:05.692,0.00508944736793637,0.00559265818446875,0.0009913741378113632,0,
00:00:05.696,-0.00162346824072301,-0.0038396124728024,0.0082309739664197,0,
00:00:05.7,-0.0009898442076519132,-0.0015922752209007699,-0.00437454925850034,0,
00:00:05.704,-0.0039282389916479605,-0.000595589284785092,-0.00445602368563414,0,
00:00:05.708,-0.00193661311641335,-0.00410386407747865,-0.000988354790024459,0,
00:00:05.712,-0.00144424848258495,0.000253475503996015,0.00167581648565829,0,
00:00:05.716,0.0038925069384276897,0.00574553618207574,0.0064941048622131296,0,
00:00:05.72,0.00340803805738688,0.00609390018507838,-0.000349459092831239,0,
00:00:05.724,0.00308838137425482,-0.00151216262020171,-0.00293208681978285,0,
00:00:05.728,-0.00709371827542782,-0.00985900592058897,-0.00672920839861035,0,
00:00:05.732,-0.0035343968775123397,0.00113193690776825,0.0029422992374748,0,
00:00:05.736,0.0077929692342877405,0.0143396444618702,0.00164212670642883,0,
00:00:05.74,0.0123640317469835,0.00109149399213493,0.0034444362390786396,0,
00:00:05.744,-0.0136914858594537,-0.0178392697125673,-0.001083719660528,0,
00:00:05.748,-0.0151936076581478,-0.00672351242974401,-0.0014390379656106199,0,
00:00:05.752,0.00689376378431916,0.00767057854682207,0.00360286980867386,0,
00:00:05.756,0.0069300704635679704,0.0036148561630398,0.00042586890049278704,0,
00:00:05.76,0.00386818335391581,0.00282011344097555,-0.00467084255069494,0,
00:00:05.764,0.00047874468145892,0.00393026089295745,-0.0052677872590720706,0,
00:00:05.768,-0.00162911787629128,0.0046750237233936795,0.0018225304083898698,0,
00:00:05.772,-2.89769923256245e-05,-0.0042349607683718204,-0.000654235016554594,0,
00:00:05.776,-0.0034209864679724,-0.010429865680635,0.00425116997212172,0,
00:00:05.78,-0.00414033094421029,-0.0021210890263319,0.0078811626881361,0,
00:00:05.784,0.00216310122050345,0.0026324167847633397,0.00548631977289915,0,
00:00:05.788,0.00315624754875898,0.0037715190555900296,-0.0143952881917357,0,
00:00:05.792,0.0017679700395092398,0.0005152202793397009,-0.00907576270401478,0,
00:00:05.796,-0.0020297120790928602,0.00475117936730385,0.00494986865669489,0,
00:00:05.8,0.00930132158100605,-0.00106696342118084,0.00656588515266776,0,
00:00:05.804,-0.00945368967950344,-0.0027266051620245,0.00120305002201349,0,
00:00:05.808,-0.00718017015606165,0.0021054025273770103,-0.00040899356827139903,0,
00:00:05.812,0.0019457278540357897,-0.00250485516153276,-0.0006437114207074049,0,
00:00:05.816,0.00443664379417896,-0.00684997998178005,0.00366297760047019,0,
00:00:05.82,0.00528276152908802,0.000891453644726425,-9.27478467929177e-05,0,
00:00:05.824,-0.00110959948506206,0.0039019854739308396,-0.005310433451086279,0,
00:00:05.828,-0.00463586021214724,0.0033968633506447103,-0.007756219245493409,0,
00:00:05.832,-0.0018274249741807602,0.00137101614382118,0.00164108618628234,0,
00:00:05.836,0.00323114055208862,0.00156355078797787,0.009352444671094421,0,
00:00:05.84,0.0044274278916418604,-0.00340566271916032,0.00246235751546919,0,
00:00:05.844,-0.0039286846294999105,-0.00300309178419411,-0.0036485828459262796,0,
00:00:05.848,0.00317317852750421,0.0011638312134891699,-0.00283146626316011,0,
00:00:05.852,-0.006059143226593729,-0.00118291866965592,0.0036908376496285204,0,
00:00:05.856,-0.0032307812944054604,-0.00231633195653558,0.00129308516625315,0,
00:00:05.86,-0.0007612389745190741,0.0028915575239807398,-0.0038082078099250798,0,
00:00:05.864,0.00545966625213623,-0.00542003801092505,-0.00277003110386431,0,
00:00:05.868,0.012931352481246,0.00474894838407636,-0.00643758568912745,0,
00:00:05.872,0.0017323310021311,0.0202019792050123,0.00537135638296604,0,
00:00:05.876,-0.0138204013928771,-0.00312322983518243,0.0108144981786609,0,
00:00:05.88,-0.0158738102763891,-0.0204938240349293,0.00551143195480108,0,
00:00:05.884,0.00712148146703839,-0.004439394921064379,-0.00772948889061809,0,
00:00:05.888,0.007872654125094409,0.0027898475527763397,-0.0120021915063262,0,
00:00:05.892,0.0069400980137288605,0.000342984625604004,-0.00123352301307023,0,
00:00:05.896,-0.00300017278641462,0.00516824750229716,0.00657777255401015,0,
00:00:05.9,-0.00125091464724392,0.00441925972700119,0.0052968109957873795,0,
00:00:05.904,-0.005097837653011079,-0.000565419264603406,0.00142619281541556,0,
00:00:05.908,0.00313065852969885,-0.0011472919723019,-0.0036008208990097,0,
00:00:05.912,0.00276357005350292,0.0035443012602627295,0.0015787462471053,0,
00:00:05.916,0.0043739695101976395,0.00419729761779308,-0.00424620090052485,0,
00:00:05.92,-0.00546412682160735,-0.0112080331891775,0.00199540192261338,0,
00:00:05.924,-0.005043844692409039,-0.0049311430193483795,-0.00506462296471,0,
00:00:05.928,-0.00343691580928862,0.000904604734387249,0.00317805982194841,0,
00:00:05.932,0.00154976116027683,0.00161277933511883,0.0034278384409844897,0,
00:00:05.936,0.00627759983763099,0.00548241939395666,0.00317008187994361,0,
00:00:05.94,0.00590389268472791,0.00338956224732101,-0.0028935496229678397,0,
00:00:05.944,-0.00195487821474671,0.0021400647237896898,-0.0032748153898865,0,
00:00:05.948,-0.00601873686537147,-0.00193341681733727,0.0006502015748992559,0,
00:00:05.952,0.00129185931291431,-0.0101233022287488,-0.0036212098784744705,0,
00:00:05.956,-0.0031060015317052603,-0.00349277025088668,0.0016581576783210002,0,
00:00:05.96,-0.00073884759331122,0.007620012853294609,-0.0014486515428870901,0,
00:00:05.964,0.00601049186661839,0.0122996680438519,0.00974163971841335,0,
00:00:05.968,0.000693387992214412,-0.0006185917882248759,0.0015635051531717199,0,
00:00:05.972,0.000560090527869761,-0.0174983404576778,-0.009863828308880329,0,
00:00:05.976,-0.00778432376682758,-0.0032502769026905303,-0.0007411894621327519,0,
00:00:05.98,0.0014561511343345,0.008936244063079359,0.0020589125342667103,0,
00:00:05.984,0.0031363016460090897,0.00237820600159466,0.00181040063034743,0,
00:00:05.988,0.00380528625100851,0.0027043649461120397,0.000635279517155141,0,
00:00:05.992,-0.00412038993090391,0.000276416336419061,-0.0024002706632018102,0,
00:00:05.996,0.0013439725153148198,0.00249676173552871,0.0033617794979363697,0,
00:00:06,-0.0036999597214162397,-0.0122739262878895,-0.00296474969945848,0,
00:00:06.004,0.000751130224671215,0.0033322968520224103,0.0044556418433785395,0,
00:00:06.008,0.0037199587095528798,0.0105911707505584,-0.0052997716702520795,0,
00:00:06.012,0.00108877196907997,-0.0047537619248032605,-0.00521854404360056,0,
00:00:06.016,-0.00354620418511331,-0.0146417887881398,0.0070996372960507904,0,
00:00:06.02,-0.004381796810776,0.00114186038263142,0.00281458650715649,0,
00:00:06.024,-6.4702708186814595e-06,0.00966137275099754,0.00175873376429081,0,
00:00:06.028,0.0072147948667407,0.0089326836168766,-0.0015664013335481301,0,
00:00:06.032,-0.000625539571046829,-0.00290237623266876,-0.00725624011829495,0,
00:00:06.036,-0.00154284329619259,-0.00253353826701641,-0.000594293465837836,0,
00:00:06.04,0.00363775412552059,-0.00243017915636301,0.00238676532171667,0,
00:00:06.044,0.00262630777433515,-0.00168314960319549,0.000512291619088501,0,
00:00:06.048,-0.008672398515045641,0.00150373892392963,0.00129553291480988,0,
00:00:06.052,-0.0008700882899574941,0.00046084116911515594,0.00365598988719285,0,
00:00:06.056,-0.0008399171638302509,-0.00489831669256091,0.0010378039442002801,0,
00:00:06.06,-0.00309787271544337,0.000894666009116918,-0.00573727954179049,0,
00:00:06.064,0.00811715610325336,0.00478950655087829,0.011859948746860001,0,
00:00:06.068,-0.00104342994745821,-0.00403342489153147,-0.008400083519518379,0,
00:00:06.072,0.00550864124670625,-0.00120779639109969,-0.0104634314775467,0,
00:00:06.076,-0.000793033512309194,0.00858435221016407,-7.845868822187191e-05,0,
00:00:06.08,-0.00327657745219767,0.00356736872345209,0.0047490568831563,0,
00:00:06.084,0.00127223413437605,-0.000613942102063447,0.00279156933538616,0,
00:00:06.088,-0.00308399135246873,-0.007179480046033859,0.00659105461090803,0,
00:00:06.092,-0.00904393382370472,-0.0139905838295817,-0.000368884822819382,0,
00:00:06.096,0.00103609077632427,0.0043724952265620206,-0.0030329362489283102,0,
00:00:06.1,0.00997140537947416,0.0125813474878669,-0.00489529548212886,0,
00:00:06.104,0.0056195463985204705,0.0035654166713357,0.0006293146288953719,0,
00:00:06.108,-0.0027767710853368,-0.00437791971489787,0.00175331498030573,0,
00:00:06.112,-0.00422077113762498,-0.00834184605628252,0.0031530826818198,0,
00:00:06.116,-0.00667501240968704,-0.0016638619126752,0.000214985688216984,0,
00:00:06.12,0.0036427304148674,0.008060690946877001,-0.00615371251478791,0,
00:00:06.124,0.00436416128650308,0.00947389006614685,0.00168970914091915,0,
