,Elapsed Time,EMG
0,00:00:00,1.3845452070236224
1,00:00:00.004,-1.3216915130615268
2,00:00:00.008,-1.0954435467720018
3,00:00:00.012,-0.12122882157564166
4,00:00:00.016,0.5797706246376038
5,00:00:00.02,0.6945867240428891
6,00:00:00.024,0.41059652715921313
7,00:00:00.028,0.0396863892674445
8,00:00:00.032,-0.20365802198648492
9,00:00:00.036,-0.2729170992970472
10,00:00:00.04,-0.20488724857568782
11,00:00:00.044,-0.07538397610187529
12,00:00:00.048,0.04452192899771032
13,00:00:00.052,0.09113510046154291
14,00:00:00.056,0.0768286492675539
15,00:00:00.06,0.038438017945736605
16,00:00:00.064,-0.0180783970281482
17,00:00:00.068,-0.02857651375234122
18,00:00:00.072,-0.02811444248072806
19,00:00:00.076,-0.020012915134429946
20,00:00:00.08,0.011565387714654183
21,00:00:00.084,0.019481516908854243
22,00:00:00.088,0.02325433958321812
23,00:00:00.092,-0.01185042737051845
24,00:00:00.096,-0.022246990352869003
25,00:00:00.1,-0.008114889031276107
26,00:00:00.104,0.01616885536350314
27,00:00:00.108,0.01353760715574026
28,00:00:00.112,-0.013772236765362308
29,00:00:00.116,0.006242543109692591
30,00:00:00.12,-0.0011269979295320809
31,00:00:00.124,-0.00768253463320434
32,00:00:00.128,-0.0048874444328248605
33,00:00:00.132,0.00035855566966347635
34,00:00:00.136,0.01217649062164124
35,00:00:00.14,0.011090489715570584
36,00:00:00.144,-0.0008604319300502547
37,00:00:00.148,-0.00648131140042096
38,00:00:00.152,-0.02122356183826919
39,00:00:00.156,-0.0046097717713564695
40,00:00:00.16,0.01430978602729735
41,00:00:00.164,0.011670704465359468
42,00:00:00.168,0.0008900782413547824
43,00:00:00.172,-0.0037165786197874704
44,00:00:00.176,-0.014459731348324548
45,00:00:00.18,-0.0007808935770299301
46,00:00:00.184,0.026158503664191878
47,00:00:00.188,0.0068326760374475244
48,00:00:00.192,-0.02043459471315147
49,00:00:00.196,-0.017265918664634262
50,00:00:00.2,0.00624609235092067
51,00:00:00.204,0.004872431047260765
52,00:00:00.208,0.00011267460649833083
53,00:00:00.212,0.004644949687644841
54,00:00:00.216,0.01229706523008645
55,00:00:00.22,-0.002601218271593095
56,00:00:00.224,-0.01605420582927767
57,00:00:00.228,-0.0107812830246985
58,00:00:00.232,0.02043573791161176
59,00:00:00.236,0.01213431544601917
60,00:00:00.24,-0.008725158753804859
61,00:00:00.244,-0.0082814950728789
62,00:00:00.248,-0.00654519774252549
63,00:00:00.252,-0.00657918083015829
64,00:00:00.256,0.00777771254070103
65,00:00:00.26,0.01156387839000672
66,00:00:00.264,0.01545547298155724
67,00:00:00.268,-0.015899808029644212
68,00:00:00.272,-0.009419511217856759
69,00:00:00.276,-0.00019839801825583046
70,00:00:00.28,-0.0016850711544975703
71,00:00:00.284,-0.0021354500204324584
72,00:00:00.288,0.00604176905471829
73,00:00:00.292,0.0046377293765544995
74,00:00:00.296,0.021832647034898407
75,00:00:00.3,-0.00032689596991985863
76,00:00:00.304,-0.02351705124601718
77,00:00:00.308,-0.02902232389897109
78,00:00:00.312,0.005642833537422121
79,00:00:00.316,0.019668877124786387
80,00:00:00.32,0.008209474035538742
81,00:00:00.324,0.0012819269904866797
82,00:00:00.328,0.004228246223647149
83,00:00:00.332,0.030891293194144943
84,00:00:00.336,-0.02139180758967999
85,00:00:00.34,-0.04567997762933371
86,00:00:00.344,-0.018103025387972593
87,00:00:00.348,0.013790309545584014
88,00:00:00.352,0.04111962160095568
89,00:00:00.356,0.0361506156623363
90,00:00:00.36,-0.02794870408251883
91,00:00:00.364,-0.02704899571835999
92,00:00:00.368,-0.008045613300055269
93,00:00:00.372,0.008785114972852181
94,00:00:00.376,0.009102430427446961
95,00:00:00.38,-0.0023440862460120163
96,00:00:00.384,-0.00532994326204062
97,00:00:00.388,0.01181943179108202
98,00:00:00.392,0.01646429853281007
99,00:00:00.396,-0.01889030495658521
100,00:00:00.4,-0.015477290260605573
101,00:00:00.404,0.0102626655716449
102,00:00:00.408,-0.00893631577491761
103,00:00:00.412,0.0009136402513831844
104,00:00:00.416,0.01386779733002185
105,00:00:00.42,0.0121531315962784
106,00:00:00.424,0.0012445121537894002
107,00:00:00.428,-0.01117958128452301
108,00:00:00.432,-0.021660908591002222
109,00:00:00.436,-0.007800042163580661
110,00:00:00.44,0.015005956403911079
111,00:00:00.444,0.021324784494936463
112,00:00:00.448,0.004489967774134133
113,00:00:00.452,-0.004855403210967798
114,00:00:00.456,-0.011809090618044141
115,00:00:00.46,-0.012466222862713058
116,00:00:00.464,0.00012688063725363515
117,00:00:00.468,0.006316351704299452
118,00:00:00.472,0.0024298739444930132
119,00:00:00.476,0.003387932316400102
120,00:00:00.48,0.009465756360441405
121,00:00:00.484,0.00799191230908036
122,00:00:00.488,-0.01949021569453176
123,00:00:00.492,-0.008242971380241219
124,00:00:00.496,0.005336656526196753
125,00:00:00.5,0.003583720972528685
126,00:00:00.504,-0.012598587432876198
127,00:00:00.508,0.022672444581985498
128,00:00:00.512,0.0053223746363073605
129,00:00:00.516,0.00033059401903300957
130,00:00:00.52,-0.008408687659539286
131,00:00:00.524,-0.02703318232670422
132,00:00:00.528,-0.0029657804407179304
133,00:00:00.532,0.01425783403647074
134,00:00:00.536,0.018774987227516294
135,00:00:00.54,0.007210577372461548
136,00:00:00.544,-0.004111395333893601
137,00:00:00.548,-0.015116621740162421
138,00:00:00.552,-0.01191984233446419
139,00:00:00.556,0.017940638470463413
140,00:00:00.56,0.0038254718529060435
141,00:00:00.564,-0.007633369532413778
142,00:00:00.568,-0.004998988733859731
143,00:00:00.572,-0.00800478644669056
144,00:00:00.576,0.00916728690935997
145,00:00:00.58,0.02438774565234781
146,00:00:00.584,-0.0036701353819808
147,00:00:00.588,-0.00891970284283159
148,00:00:00.592,-0.01854603760875765
149,00:00:00.596,-0.0027351268217898897
150,00:00:00.6,0.0013015609001740772
151,00:00:00.604,-0.003557201824150983
152,00:00:00.608,0.0009972314001061014
153,00:00:00.612,0.05356426769867543
154,00:00:00.616,0.009443525923416012
155,00:00:00.62,-0.040697107091546086
156,00:00:00.624,-0.03821939253248277
157,00:00:00.628,-0.00714900915045291
158,00:00:00.632,0.022661360839265395
159,00:00:00.636,0.024662102689035285
160,00:00:00.64,0.00821944465860725
161,00:00:00.644,-0.00991309760138393
162,00:00:00.648,0.005777517188107591
163,00:00:00.652,-0.010315241175703701
164,00:00:00.656,-0.01570002594962718
165,00:00:00.66,0.00304343493189663
166,00:00:00.664,0.005560594785492862
167,00:00:00.668,0.009389389218995327
168,00:00:00.672,0.009288890636526017
169,00:00:00.676,-0.00884631555527449
170,00:00:00.68,-0.02031136525329205
171,00:00:00.684,-0.006826404016464951
172,00:00:00.688,0.0298115941695869
173,00:00:00.692,0.009092438267543919
174,00:00:00.696,-0.01611472235526891
175,00:00:00.7,-0.0068489282857626685
176,00:00:00.704,0.0022329906641971337
177,00:00:00.708,0.0013064227532595405
178,00:00:00.712,0.0015538418665528308
179,00:00:00.716,0.013804684160277251
180,00:00:00.72,-0.0029171607457101367
181,00:00:00.724,-0.01790233142673973
182,00:00:00.728,-0.01447419682517647
183,00:00:00.732,0.01375353342154992
184,00:00:00.736,0.01629831292666495
185,00:00:00.74,-0.0009134795982390644
186,00:00:00.744,-0.004691418958827849
187,00:00:00.748,-0.0032134079374373
188,00:00:00.752,0.0033489032648503806
189,00:00:00.756,-0.0011510805634316057
190,00:00:00.76,-4.3459935113789386e-05
191,00:00:00.764,-0.011531759519129992
192,00:00:00.768,-0.0020496133656706717
193,00:00:00.772,0.013006623717956245
194,00:00:00.776,0.02970358659513299
195,00:00:00.78,-0.01301464624702931
196,00:00:00.784,-0.035631720675155534
197,00:00:00.788,-0.000503958253830203
198,00:00:00.792,0.015210863435640926
199,00:00:00.796,-0.0065345495240762405
200,00:00:00.8,0.00856436369940639
201,00:00:00.804,0.018712811172008483
202,00:00:00.808,0.002986956853419542
203,00:00:00.812,-0.03116384800523519
204,00:00:00.816,0.0022985250689089194
205,00:00:00.82,0.005932358559221029
206,00:00:00.824,0.003899054601788521
207,00:00:00.828,-0.00534031388815492
208,00:00:00.832,-0.0034023518674075603
209,00:00:00.836,0.0134390729945153
210,00:00:00.84,4.2108003981410156e-05
211,00:00:00.844,-0.0017151995125459485
212,00:00:00.848,-0.0009307870641350679
213,00:00:00.852,-0.0025600891603971823
214,00:00:00.856,-0.01318046974483876
215,00:00:00.86,0.00212326014298014
216,00:00:00.864,0.02674432878848168
217,00:00:00.868,-0.01099795347545297
218,00:00:00.872,-0.012342480011284372
219,00:00:00.876,0.007316720584640295
220,00:00:00.88,-0.0013923523947596671
221,00:00:00.884,-0.01208227407187226
222,00:00:00.888,-0.004455792251974341
223,00:00:00.892,0.04013375472277404
224,00:00:00.896,0.016796911600977217
225,00:00:00.9,-0.035179119411623105
226,00:00:00.904,-0.033644004492089166
227,00:00:00.908,-0.0004176390357315601
228,00:00:00.912,0.020993279409594848
229,00:00:00.916,0.009625045466236763
230,00:00:00.92,0.01421518228016794
231,00:00:00.924,0.011265774723142389
232,00:00:00.928,-0.012868411547970025
233,00:00:00.932,-0.018571619642898402
234,00:00:00.936,-0.007398228277452291
235,00:00:00.94,-0.002880696207284929
236,00:00:00.944,0.003191610041540119
237,00:00:00.948,0.01265171857085079
238,00:00:00.952,0.012530346633866431
239,00:00:00.956,-0.00721275797695853
240,00:00:00.96,-0.007616055081598463
241,00:00:00.964,0.0016703636501915749
242,00:00:00.968,0.01015515136532486
243,00:00:00.972,-0.00181447598151863
244,00:00:00.976,-0.02426209137775002
245,00:00:00.98,-0.0054181478917598724
246,00:00:00.984,0.020451209857128564
247,00:00:00.988,0.018596065230667577
248,00:00:00.992,-0.006846525124274191
249,00:00:00.996,-0.008725466439500461
250,00:00:01,-0.00170921254903079
251,00:00:01.004,-0.0056153414770960695
252,00:00:01.008,-0.003901134012266997
253,00:00:01.012,0.0021628119284287164
254,00:00:01.016,0.007446748670190569
255,00:00:01.02,-0.0034972047433257094
256,00:00:01.024,0.014539482537657002
257,00:00:01.028,0.010628841235302399
258,00:00:01.032,-0.02325395424850293
259,00:00:01.036,-0.02008428506087516
260,00:00:01.04,0.006014332640916108
261,00:00:01.044,0.02141312230378385
262,00:00:01.048,0.00352652964647859
263,00:00:01.052,-0.008257851237431169
264,00:00:01.056,-0.005372160027036441
265,00:00:01.06,-0.0062344108009710995
266,00:00:01.064,0.02341066324152051
267,00:00:01.068,0.014805142302066091
268,00:00:01.072,-0.02941596950404346
269,00:00:01.076,-0.020642095245420967
270,00:00:01.08,0.0017141316202469144
271,00:00:01.084,0.00410907168406993
272,00:00:01.088,0.019967392785474693
273,00:00:01.092,0.031165111839072765
274,00:00:01.096,-0.011463416391052271
275,00:00:01.1,-0.034662162302993224
276,00:00:01.104,-0.007375333458185201
277,00:00:01.108,0.008674260578118266
278,00:00:01.112,0.0036647622473537913
279,00:00:01.116,0.00485479389317334
280,00:00:01.12,0.015104667574632913
281,00:00:01.124,-0.007412640508846378
282,00:00:01.128,-0.00439931149594486
283,00:00:01.132,-0.0007860568002797563
284,00:00:01.136,-0.0033722869120538204
285,00:00:01.14,-0.01000190363265574
286,00:00:01.144,0.01267258264124395
287,00:00:01.148,0.008632236393168567
288,00:00:01.152,-0.00681243796134368
289,00:00:01.156,-0.004090240399818873
290,00:00:01.16,-0.0032005837420001886
291,00:00:01.164,0.009040723787620664
292,00:00:01.168,-0.00902623904403299
293,00:00:01.172,-0.003893558285199109
294,00:00:01.176,0.016144132649060318
295,00:00:01.18,0.011229882831685245
296,00:00:01.184,-0.02727071382105346
297,00:00:01.188,-0.0011263097403570977
298,00:00:01.192,0.013064924729405902
299,00:00:01.196,0.00809587037656456
300,00:00:01.2,-0.02137573505751787
301,00:00:01.204,-0.004734595000627456
302,00:00:01.208,0.013527539034839714
303,00:00:01.212,0.012411212082952261
304,00:00:01.216,0.003770032431930319
305,00:00:01.22,-0.01015567523427308
306,00:00:01.224,-0.009437813423574
307,00:00:01.228,-0.005539625592064147
308,00:00:01.232,0.001744001521728926
309,00:00:01.236,0.01395533070899544
310,00:00:01.24,-0.00262705341447145
311,00:00:01.244,-0.002004794405365832
312,00:00:01.248,-0.0010332629317417745
313,00:00:01.252,-0.010620408924296491
314,00:00:01.256,-0.0023924234556034173
315,00:00:01.26,0.02449431736022236
316,00:00:01.264,0.01942145777866245
317,00:00:01.268,-0.01618279283866286
318,00:00:01.272,-0.016226065752562135
319,00:00:01.276,-0.02467393979895858
320,00:00:01.28,0.0014875051565468199
321,00:00:01.284,0.033774586627259885
322,00:00:01.288,-0.0005439070519059896
323,00:00:01.292,-0.011163785646203874
324,00:00:01.296,-0.001862708711996671
325,00:00:01.3,0.009796922793611884
326,00:00:01.304,-0.0017709331586957255
327,00:00:01.308,-0.0009010059584397756
328,00:00:01.312,0.0030995107954367995
329,00:00:01.316,0.0053327679634094195
330,00:00:01.32,-0.009787264651095022
331,00:00:01.324,-0.016947275027632717
332,00:00:01.328,0.0036819959059357695
333,00:00:01.332,0.007561681326478722
334,00:00:01.336,0.005039550829678778
335,00:00:01.34,0.003584344362025148
336,00:00:01.344,-0.0027352459728717795
337,00:00:01.348,0.01980388211086391
338,00:00:01.352,0.004153453468461521
339,00:00:01.356,-0.0368060909677297
340,00:00:01.36,-0.01529315649531781
341,00:00:01.364,0.00804362767667043
342,00:00:01.368,0.02567665604874491
343,00:00:01.372,-0.0067020701244473405
344,00:00:01.376,-0.0008174171089194731
345,00:00:01.38,0.025549079437041662
346,00:00:01.384,-0.008755253191338847
347,00:00:01.388,-0.03153471671976148
348,00:00:01.392,-0.00346263544633985
349,00:00:01.396,0.015863206528592855
350,00:00:01.4,0.011198857886483893
351,00:00:01.404,-0.015212633414193981
352,00:00:01.408,0.0129750908818096
353,00:00:01.412,0.00107246008701623
354,00:00:01.416,-0.00186568265780807
355,00:00:01.42,-0.00609613617416471
356,00:00:01.424,-0.0036932007642462876
357,00:00:01.428,-1.4144636224956621e-05
358,00:00:01.432,0.0022489239927381307
359,00:00:01.436,0.002545772353187199
360,00:00:01.44,-0.004679374280385678
361,00:00:01.444,0.004093778319656849
362,00:00:01.448,0.012472513015382013
363,00:00:01.452,0.0015575340948998997
364,00:00:01.456,-0.01596193434670564
365,00:00:01.46,-0.011814608413260428
366,00:00:01.464,0.0006222049996722491
367,00:00:01.468,-3.8754835259170045e-05
368,00:00:01.472,0.026920562784653136
369,00:00:01.476,0.02404544246383012
370,00:00:01.48,-0.02534896187717093
371,00:00:01.484,-0.03155103360768405
372,00:00:01.488,-0.004748203195049426
373,00:00:01.492,0.0108532231388381
374,00:00:01.496,0.00755225855391473
375,00:00:01.5,0.018753756186924878
376,00:00:01.504,0.00663756288122386
377,00:00:01.508,-0.0060851206362713016
378,00:00:01.512,-0.006858937616925687
379,00:00:01.516,-0.012573017622344189
380,00:00:01.52,-0.014605535310693087
381,00:00:01.524,0.007355503999860956
382,00:00:01.528,0.010199222480878239
383,00:00:01.532,0.00587556231766939
384,00:00:01.536,0.013383878918830305
385,00:00:01.54,-0.00545527320355177
386,00:00:01.544,-0.02219165989663452
387,00:00:01.548,0.01787992590107025
388,00:00:01.552,0.009193210484227162
389,00:00:01.556,-0.02244183531729501
390,00:00:01.56,-0.016928565950365737
391,00:00:01.564,0.0135711374459788
392,00:00:01.568,0.015298524405807241
393,00:00:01.572,0.00020342122297734217
394,00:00:01.576,0.0016940909554250517
395,00:00:01.58,-0.009554950229357928
396,00:00:01.584,0.008664659311762085
397,00:00:01.588,-0.0007184852147474889
398,00:00:01.592,0.0018556972499937006
399,00:00:01.596,-0.011747084790840742
400,00:00:01.6,0.004028873750939993
401,00:00:01.604,-0.0059291198849678005
402,00:00:01.608,-0.010319231776520593
403,00:00:01.612,0.013163543189875778
404,00:00:01.616,0.007587764412164693
405,00:00:01.62,-0.001464656612370164
406,00:00:01.624,0.0029864155803807067
407,00:00:01.628,0.008866969496011729
408,00:00:01.632,0.00013864994980394016
409,00:00:01.636,-0.019744830671697876
410,00:00:01.64,-0.009246598230674868
411,00:00:01.644,-0.002316081809112802
412,00:00:01.648,0.00512171851005405
413,00:00:01.652,0.010122134350240264
414,00:00:01.656,0.029388445429503945
415,00:00:01.66,-0.00810151491896249
416,00:00:01.664,-0.019885412417352224
417,00:00:01.668,-0.01660479960264637
418,00:00:01.672,-0.005521580897038806
419,00:00:01.676,0.021386015607276963
420,00:00:01.68,0.022845042869448627
421,00:00:01.684,-0.01548436179291457
422,00:00:01.688,-0.010666243149898951
423,00:00:01.692,-0.005256192001979792
424,00:00:01.696,-0.00416987965581939
425,00:00:01.7,0.01559031521901488
426,00:00:01.704,0.01407345349434763
427,00:00:01.708,-0.016987031063763425
428,00:00:01.712,0.0018498637946322547
429,00:00:01.716,0.00874615402426571
430,00:00:01.72,-0.002711789798922841
431,00:00:01.724,-0.026282209204509858
432,00:00:01.728,0.00550088024465367
433,00:00:01.732,0.012809280655346783
434,00:00:01.736,0.016657663392834348
435,00:00:01.74,-0.00661486783064902
436,00:00:01.744,-0.012097994927898977
437,00:00:01.748,-0.00125141604803503
438,00:00:01.752,-0.00840851035900414
439,00:00:01.756,0.009698464215034619
440,00:00:01.76,0.004830175603274258
441,00:00:01.764,0.00637504644691944
442,00:00:01.768,0.00870661111548543
443,00:00:01.772,-0.008010909165022916
444,00:00:01.776,-0.02394160890253258
445,00:00:01.78,-0.0013294238597154591
446,00:00:01.784,0.021502900170162292
447,00:00:01.788,0.00183181720785797
448,00:00:01.792,-0.008829637197777629
449,00:00:01.796,-0.002384830091614277
450,00:00:01.8,-0.0045514639932662205
451,00:00:01.804,0.00867707328870892
452,00:00:01.808,0.004695801762864
453,00:00:01.812,0.006996575859375288
454,00:00:01.816,-0.007686079770792272
455,00:00:01.82,-0.007416721840854739
456,00:00:01.824,0.00797135088942014
457,00:00:01.828,-0.00600764225237072
458,00:00:01.832,-0.01517233776394282
459,00:00:01.836,0.016260512056760507
460,00:00:01.84,0.009834696247708054
461,00:00:01.844,-0.010504492325708279
462,00:00:01.848,-6.125192157888397e-07
463,00:00:01.852,0.0020660541485995098
464,00:00:01.856,0.0009463879396207672
465,00:00:01.86,0.005743447225540876
466,00:00:01.864,-0.009119351161643861
467,00:00:01.868,-0.00803200155496597
468,00:00:01.872,-0.0015148780075833269
469,00:00:01.876,0.014177410397678608
470,00:00:01.88,0.008065282017923862
471,00:00:01.884,0.002736168215051289
472,00:00:01.888,-0.01041199255269019
473,00:00:01.892,-0.013620483456179491
474,00:00:01.896,-0.001417284824128731
475,00:00:01.9,0.007448452452081254
476,00:00:01.904,0.010657335398718711
477,00:00:01.908,-0.007809646544046705
478,00:00:01.912,-0.004701813508290794
479,00:00:01.916,0.012110433512134477
480,00:00:01.92,-0.003108180331764746
481,00:00:01.924,-0.0043369733393774325
482,00:00:01.928,0.0007082544252625654
483,00:00:01.932,-0.0028912352863699198
484,00:00:01.936,0.006395262025762355
485,00:00:01.94,-0.001207479770528152
486,00:00:01.944,-0.00207711932307575
487,00:00:01.948,0.0033537871386215565
488,00:00:01.952,-0.0014703233027830694
489,00:00:01.956,-0.00235185981728136
490,00:00:01.96,0.002863916088244876
491,00:00:01.964,0.002378644945565613
492,00:00:01.968,-0.01242779195308685
493,00:00:01.972,-0.00237808492965996
494,00:00:01.976,0.011198977997992195
495,00:00:01.98,0.0006763898709323257
496,00:00:01.984,-0.0049343528226018
497,00:00:01.988,0.006025527487508951
498,00:00:01.992,0.012182107893750072
499,00:00:01.996,-0.012927445350214868
500,00:00:02,-0.008264714619144804
501,00:00:02.004,-0.000987732317298649
502,00:00:02.008,0.009782588458620008
503,00:00:02.012,0.0004872081335633952
504,00:00:02.016,-0.008400855571380816
505,00:00:02.02,0.004209211096167558
506,00:00:02.024,0.006581495901627933
507,00:00:02.028,0.00947061751503502
508,00:00:02.032,-0.015307593741454191
509,00:00:02.036,-0.015142574207857295
510,00:00:02.04,0.007870427943998944
511,00:00:02.044,0.007953173015266626
512,00:00:02.048,0.00649361487012356
513,00:00:02.052,-0.0035733283730223706
514,00:00:02.056,0.0004375218413770199
515,00:00:02.06,-0.0030193524435162605
516,00:00:02.064,-0.006490087136626238
517,00:00:02.068,-0.00899616972310469
518,00:00:02.072,0.01809070724993948
519,00:00:02.076,0.030263396562077063
520,00:00:02.08,-0.014876196510158458
521,00:00:02.084,-0.03558324882760644
522,00:00:02.088,-0.009662224911153369
523,00:00:02.092,0.007286249194294212
524,00:00:02.096,0.013065352453850224
525,00:00:02.1,0.020847712061367898
526,00:00:02.104,0.0069321307819336705
527,00:00:02.108,-0.004554979910608376
528,00:00:02.112,-0.01788516854867338
529,00:00:02.116,-0.008961618412286022
530,00:00:02.12,-0.00649935309775173
531,00:00:02.124,0.012631449892069232
532,00:00:02.128,0.014505797531455727
533,00:00:02.132,0.0025438982993364347
534,00:00:02.136,-0.021145371370948858
535,00:00:02.14,0.005278588039800524
536,00:00:02.144,-0.00413208710961044
537,00:00:02.148,0.006449456617701802
538,00:00:02.152,0.0007509307470172661
539,00:00:02.156,-0.010116954334080221
540,00:00:02.16,0.02292367839254441
541,00:00:02.164,0.0030549009097740115
542,00:00:02.168,-0.012840954819694168
543,00:00:02.172,-0.00850964919663966
544,00:00:02.176,-0.008939625200582668
545,00:00:02.18,0.0014419775106944204
546,00:00:02.184,0.00822388997767121
547,00:00:02.188,0.02077047876082361
548,00:00:02.192,0.0006440189899876709
549,00:00:02.196,-0.018236066360259463
550,00:00:02.2,-0.010917406951193701
551,00:00:02.204,0.0027652604039758487
552,00:00:02.208,0.00934265647083526
553,00:00:02.212,0.01620667660608884
554,00:00:02.216,-0.00739337410777802
555,00:00:02.22,-0.0110626993700862
556,00:00:02.224,-0.012123723281547419
557,00:00:02.228,7.664904114790261e-05
558,00:00:02.232,0.0168797539081424
559,00:00:02.236,0.0035723117180168594
560,00:00:02.24,0.004870188131462817
561,00:00:02.244,-0.006239640359126499
562,00:00:02.248,-0.0107998107559979
563,00:00:02.252,0.0030889277113601496
564,00:00:02.256,0.002012808108702304
565,00:00:02.26,-0.000891561794560405
566,00:00:02.264,0.00038137557567097984
567,00:00:02.268,0.0077429835218936205
568,00:00:02.272,-0.006562164664501325
569,00:00:02.276,-0.004453438101336362
570,00:00:02.28,0.013123462325893339
571,00:00:02.284,0.006096632219851029
572,00:00:02.288,-0.02468163263984024
573,00:00:02.292,-0.005264511739369487
574,00:00:02.296,0.004504143027588729
575,00:00:02.3,0.02371702133677897
576,00:00:02.304,-2.2727763280269285e-05
577,00:00:02.308,-0.014601411530748051
578,00:00:02.312,-0.0015246608527377196
579,00:00:02.316,-0.002204872696893289
580,00:00:02.32,0.0014003715477883803
581,00:00:02.324,0.005583405960351241
582,00:00:02.328,-0.00512125575914979
583,00:00:02.332,0.01382473413832486
584,00:00:02.336,0.00664679147303105
585,00:00:02.34,-0.01451346627436583
586,00:00:02.344,-0.01594942295923829
587,00:00:02.348,-0.00048397848149761406
588,00:00:02.352,0.01200131024233997
589,00:00:02.356,0.00867914501577616
590,00:00:02.36,0.003623363096266991
591,00:00:02.364,-0.00533635029569268
592,00:00:02.368,-0.012393842989695258
593,00:00:02.372,-0.0014122042339295103
594,00:00:02.376,-0.0013246897433418772
595,00:00:02.38,0.01787788496585565
596,00:00:02.384,0.00845113181276247
597,00:00:02.388,-0.006087608853704287
598,00:00:02.392,-0.01179641205817461
599,00:00:02.396,-0.0003901899326592701
600,00:00:02.4,-0.00985819927882403
601,00:00:02.404,0.00115771417040378
602,00:00:02.408,0.00932152767200023
603,00:00:02.412,0.007224060362204909
604,00:00:02.416,0.0060607889899984
605,00:00:02.42,-0.010355432983487838
606,00:00:02.424,-0.011343525140546273
607,00:00:02.428,0.012082084605935954
608,00:00:02.432,0.01390705083031208
609,00:00:02.436,-0.009580615442246209
610,00:00:02.44,-0.01768522337079047
611,00:00:02.444,-0.003063087351620191
612,00:00:02.448,0.0024399726389674496
613,00:00:02.452,0.010518213995965194
614,00:00:02.456,0.027362571330741048
615,00:00:02.46,-0.006677618599496785
616,00:00:02.464,-0.02502912236377594
617,00:00:02.468,-0.010643140878528357
618,00:00:02.472,0.0009385049343109096
619,00:00:02.476,0.011123459291411527
620,00:00:02.48,0.01602494856342677
621,00:00:02.484,-0.008359364932402963
622,00:00:02.488,0.0034576541511341895
623,00:00:02.492,0.01694637796026657
624,00:00:02.496,-0.025973420706577613
625,00:00:02.5,-0.01833585032727569
626,00:00:02.504,0.006476389338786247
627,00:00:02.508,0.005800737300887699
628,00:00:02.512,0.003558033320587125
629,00:00:02.516,0.0144653080496937
630,00:00:02.52,0.014308764250017699
631,00:00:02.524,-0.0056907939724624
632,00:00:02.528,-0.0167820602655411
633,00:00:02.532,-0.02498302049934864
634,00:00:02.536,-0.001693666970822964
635,00:00:02.54,0.019783583004027612
636,00:00:02.544,0.020078784087672837
637,00:00:02.548,0.00458096934016794
638,00:00:02.552,-0.0181220326339826
639,00:00:02.556,-0.009619338612537835
640,00:00:02.56,0.01253726321738213
641,00:00:02.564,0.0057818184723146294
642,00:00:02.568,-0.01431195857003332
643,00:00:02.572,-0.012282838579267239
644,00:00:02.576,0.010299807414412495
645,00:00:02.58,0.0026999079855158994
646,00:00:02.584,0.009971163701266082
647,00:00:02.588,0.00852238526567817
648,00:00:02.592,-0.00637864519376308
649,00:00:02.596,-0.00886140156944748
650,00:00:02.6,0.0010274728992953792
651,00:00:02.604,-0.0063696880824864
652,00:00:02.608,-0.00857891398482025
653,00:00:02.612,0.0085840872488916
654,00:00:02.616,0.017886027693748488
655,00:00:02.62,-0.0037281409022398336
656,00:00:02.624,-0.016126485686982068
657,00:00:02.628,0.0033036492532119103
658,00:00:02.632,0.004211279563605732
659,00:00:02.636,0.011172465630806986
660,00:00:02.64,-0.007147336669731884
661,00:00:02.644,-0.00952423119451851
662,00:00:02.648,-0.00023406368563882833
663,00:00:02.652,0.020377477470901774
664,00:00:02.656,-0.016233254747930873
665,00:00:02.66,-0.015741770621389154
666,00:00:02.664,0.011552009964361752
667,00:00:02.668,0.026892280206084217
668,00:00:02.672,-0.01373374043032527
669,00:00:02.676,-0.01050424133427441
670,00:00:02.68,0.004616171878296884
671,00:00:02.684,-0.006242517265491181
672,00:00:02.688,-0.00901759264525026
673,00:00:02.692,0.004248211625963451
674,00:00:02.696,0.01151511329226196
675,00:00:02.7,0.011605279723880816
676,00:00:02.704,0.004999458789825439
677,00:00:02.708,-0.0089104324579239
678,00:00:02.712,-0.02197168348357085
679,00:00:02.716,0.000773148000007495
680,00:00:02.72,0.007435493171215059
681,00:00:02.724,0.0019402216421440198
682,00:00:02.728,0.0041568439919501595
683,00:00:02.732,-0.0059488351689651504
684,00:00:02.736,0.011834115739475237
685,00:00:02.74,0.0029061563545837894
686,00:00:02.744,-0.0106660332530737
687,00:00:02.748,0.007751425342576114
688,00:00:02.752,-0.01150484150275588
689,00:00:02.756,-0.011282882536761466
690,00:00:02.76,0.00554718915373087
691,00:00:02.764,0.015893585514277227
692,00:00:02.768,0.004647494992241261
693,00:00:02.772,-0.01807815430220211
694,00:00:02.776,-0.01105199119774625
695,00:00:02.78,0.039185890345834154
696,00:00:02.784,0.02774469088763002
697,00:00:02.788,-0.04028893006034199
698,00:00:02.792,-0.047541196225211
699,00:00:02.796,-0.0004037010949105007
700,00:00:02.8,0.020419945183675722
701,00:00:02.804,0.025209243642166233
702,00:00:02.808,0.015822155401110642
703,00:00:02.812,-0.004216800560243421
704,00:00:02.816,-0.016591324238106588
705,00:00:02.82,-0.002628367277793609
706,00:00:02.824,0.023942427826113992
707,00:00:02.828,-0.0062849489040672415
708,00:00:02.832,-0.029857523273676592
709,00:00:02.836,-0.01389861339703205
710,00:00:02.84,0.005996277561280296
711,00:00:02.844,0.015346899046562612
712,00:00:02.848,0.015525261813308995
713,00:00:02.852,-0.0003208238194929435
714,00:00:02.856,-0.0014267053920775609
715,00:00:02.86,-0.004659551254007951
716,00:00:02.864,0.015697040595114193
717,00:00:02.868,-0.001854027563240334
718,00:00:02.872,-0.02993897905980703
719,00:00:02.876,-0.01387987053021789
720,00:00:02.88,0.02526784830843098
721,00:00:02.884,0.004322243970818813
722,00:00:02.888,-0.0030864802538417193
723,00:00:02.892,-0.003063589741941545
724,00:00:02.896,0.0015395814552903253
725,00:00:02.9,0.012039345427183438
726,00:00:02.904,-0.0029984684661030795
727,00:00:02.908,-0.010101658757776022
728,00:00:02.912,0.01272970344871283
729,00:00:02.916,-0.0049180790083482905
730,00:00:02.92,-0.01404351810924705
731,00:00:02.924,-0.00011508178431540988
732,00:00:02.928,0.005574600771069519
733,00:00:02.932,0.007517686259234329
734,00:00:02.936,-0.0034877140424214356
735,00:00:02.94,-6.998248863965056e-06
736,00:00:02.944,-0.0008973216172307721
737,00:00:02.948,0.006910638534463944
738,00:00:02.952,0.012110622134059668
739,00:00:02.956,-0.01560689788311721
740,00:00:02.96,-0.01553646265529096
741,00:00:02.964,-0.00489331386052072
742,00:00:02.968,0.015164099400863062
743,00:00:02.972,0.007139698253013199
744,00:00:02.976,-0.00055651168804616
745,00:00:02.98,-0.0017803967930376547
746,00:00:02.984,-0.0011081940610893056
747,00:00:02.988,-0.00036650721449404
748,00:00:02.992,0.010349432937800855
749,00:00:02.996,-0.005743036635976752
750,00:00:03,-0.012284268625080572
751,00:00:03.004,-0.008515299821738148
752,00:00:03.008,0.013856351797585424
753,00:00:03.012,0.014453382915235116
754,00:00:03.016,-0.005110862781293689
755,00:00:03.02,-0.014747137203812582
756,00:00:03.024,-0.007158996282669251
757,00:00:03.028,0.00451865885406733
758,00:00:03.032,0.024030268425121883
759,00:00:03.036,-0.0042740911194414305
760,00:00:03.04,0.003359147671289976
761,00:00:03.044,-0.010631333221681421
762,00:00:03.048,-0.01163896487560123
763,00:00:03.052,-0.007296752679394553
764,00:00:03.056,0.00395647168625146
765,00:00:03.06,0.0179881823714823
766,00:00:03.064,0.00877704587765038
767,00:00:03.068,-0.01317075779661538
768,00:00:03.072,0.0015460313297808118
769,00:00:03.076,-0.0033648489043116396
770,00:00:03.08,-0.0025190729647874806
771,00:00:03.084,-0.00224605528637767
772,00:00:03.088,0.0034297498641535588
773,00:00:03.092,-0.0007446034578606504
774,00:00:03.096,0.005262664053589109
775,00:00:03.1,0.008903410984203271
776,00:00:03.104,-0.013247036200482405
777,00:00:03.108,-0.001953531522303849
778,00:00:03.112,0.0017606345936655998
779,00:00:03.116,0.008121721912175438
780,00:00:03.12,0.0011549604823812797
781,00:00:03.124,-0.0088820424862206
782,00:00:03.128,-0.01212242315523324
783,00:00:03.132,0.0017404202371835605
784,00:00:03.136,0.008411323680775244
785,00:00:03.14,0.005708756973035639
786,00:00:03.144,0.01784201711416241
787,00:00:03.148,-0.011206010371097329
788,00:00:03.152,-0.015092320063558914
789,00:00:03.156,-0.0032947262516245203
790,00:00:03.16,0.001627317571546879
791,00:00:03.164,0.017750369384884807
792,00:00:03.168,-0.0025162194506265275
793,00:00:03.172,0.00122458057012409
794,00:00:03.176,-0.014471183996647631
795,00:00:03.18,-0.013370710192248222
796,00:00:03.184,0.010932723380392417
797,00:00:03.188,0.02100597298704092
798,00:00:03.192,-0.00849698681849987
799,00:00:03.196,-0.0021874428202863817
800,00:00:03.2,-0.0008199712610803501
801,00:00:03.204,-0.0008379486971534732
802,00:00:03.208,0.0033526684856042283
803,00:00:03.212,0.0018300363371963639
804,00:00:03.216,-0.017504389979876613
805,00:00:03.22,-0.0012045770417898971
806,00:00:03.224,0.02245918055996301
807,00:00:03.228,-0.0030773121743550335
808,00:00:03.232,-0.00686624622903763
809,00:00:03.236,-0.00519591459305957
810,00:00:03.24,0.000789176257967478
811,00:00:03.244,0.01244644285179675
812,00:00:03.248,0.008425719570368532
813,00:00:03.252,-0.01266591492458244
814,00:00:03.256,-0.008994912059279166
815,00:00:03.26,-0.0067498070420697305
816,00:00:03.264,-0.00205205520614982
817,00:00:03.268,0.01323705702088774
818,00:00:03.272,0.010191065113758672
819,00:00:03.276,0.0020060532842762794
820,00:00:03.28,0.002194191794842499
821,00:00:03.284,-0.015802897512912785
822,00:00:03.288,-0.005047458689659841
823,00:00:03.292,0.0036127877538092417
824,00:00:03.296,-0.00010855879372684047
825,00:00:03.3,0.005785710178315642
826,00:00:03.304,-0.001063434261595839
827,00:00:03.308,0.0032111920299939855
828,00:00:03.312,0.0026987749151885718
829,00:00:03.316,-0.001980110406293529
830,00:00:03.32,-0.012601355345395828
831,00:00:03.324,-0.0038705972256138916
832,00:00:03.328,0.00714845047332346
833,00:00:03.332,0.005945259123109279
834,00:00:03.336,0.008022070192964748
835,00:00:03.34,0.007433832266997348
836,00:00:03.344,-0.006215912871994082
837,00:00:03.348,-0.016778700053691857
838,00:00:03.352,-0.0015546092181466533
839,00:00:03.356,-0.0051092953945044445
840,00:00:03.36,-0.003306169499410315
841,00:00:03.364,0.022312949877232348
842,00:00:03.368,0.014789506618399204
843,00:00:03.372,-0.00648766465019435
844,00:00:03.376,-0.016407158807851378
845,00:00:03.38,-0.004722617683000864
846,00:00:03.384,0.0010663035791367388
847,00:00:03.388,0.0009747236035763784
848,00:00:03.392,0.004725396051071584
849,00:00:03.396,-0.0031142365187406384
850,00:00:03.4,0.00629769614897668
851,00:00:03.404,-0.0027044459711760196
852,00:00:03.408,-0.001515708174338216
853,00:00:03.412,0.01136545627377927
854,00:00:03.416,0.0002936218515969787
855,00:00:03.42,-0.012857989699114116
856,00:00:03.424,-0.005331973428837958
857,00:00:03.428,0.0031896845321171038
858,00:00:03.432,2.7476402465256454e-05
859,00:00:03.436,0.00623322662431747
860,00:00:03.44,-0.00484244013205171
861,00:00:03.444,0.00518712013217737
862,00:00:03.448,0.0015839371189940764
863,00:00:03.452,0.00361171015538275
864,00:00:03.456,-0.0012016972759738504
865,00:00:03.46,-0.0002541348803788404
866,00:00:03.464,-0.014371947385370721
867,00:00:03.468,-0.011705192970112008
868,00:00:03.472,0.023210384504636715
869,00:00:03.476,0.01429939229274173
870,00:00:03.48,-0.00826917530503124
871,00:00:03.484,-0.01734553265850993
872,00:00:03.488,-0.0017894967459142234
873,00:00:03.492,-0.00290550908539444
874,00:00:03.496,-0.0026840297505259392
875,00:00:03.5,0.04225287097506228
876,00:00:03.504,0.018879717215895642
877,00:00:03.508,-0.04086511209607129
878,00:00:03.512,-0.03317201463505623
879,00:00:03.516,-0.01046139094978571
880,00:00:03.52,0.030115448869764812
881,00:00:03.524,0.037548432126641246
882,00:00:03.528,-0.011430399375967678
883,00:00:03.532,-0.01988610520493237
884,00:00:03.536,0.0015799613174749556
885,00:00:03.54,0.00314074428752065
886,00:00:03.544,-0.008455208037048582
887,00:00:03.548,-0.0005673232662957153
888,00:00:03.552,5.373382009565006e-05
889,00:00:03.556,0.012807706953026349
890,00:00:03.56,0.008123749430524182
891,00:00:03.564,-0.008907435636501766
892,00:00:03.568,-0.012815066147595599
893,00:00:03.572,0.01143132941797375
894,00:00:03.576,0.00576673017349094
895,00:00:03.58,-0.018095603445544842
896,00:00:03.584,-0.014222618890926249
897,00:00:03.588,0.0258835384156555
898,00:00:03.592,0.01447791769169272
899,00:00:03.596,-0.0060031432658433906
900,00:00:03.6,-0.01476108958013357
901,00:00:03.604,-0.009184519527480001
902,00:00:03.608,0.007997018081368882
903,00:00:03.612,-0.004447340033948422
904,00:00:03.616,0.010358531260862947
905,00:00:03.62,0.024421344045549624
906,00:00:03.624,-0.00887472461909056
907,00:00:03.628,-0.025406349217519147
908,00:00:03.632,-0.01172533910721537
909,00:00:03.636,0.00638782605528831
910,00:00:03.64,0.013894257601350561
911,00:00:03.644,0.01294285454787313
912,00:00:03.648,-0.0029149756010156142
913,00:00:03.652,-0.013551377109251958
914,00:00:03.656,-0.001637730747461326
915,00:00:03.66,0.015543115994660179
916,00:00:03.664,0.005953478161245581
917,00:00:03.668,-0.02838366804644463
918,00:00:03.672,-0.01521318242885172
919,00:00:03.676,0.017498200002592036
920,00:00:03.68,0.020112372818402918
921,00:00:03.684,0.00703166727907956
922,00:00:03.688,-0.01109603443183003
923,00:00:03.692,0.0005862447433173643
924,00:00:03.696,-0.008721655220142564
925,00:00:03.7,-0.005719469219911839
926,00:00:03.704,0.002115962797688557
927,00:00:03.708,-0.000336124852765347
928,00:00:03.712,0.0024665653472766298
929,00:00:03.716,0.010156108415685632
930,00:00:03.72,0.0011887482833117203
931,00:00:03.724,-0.010144589236006139
932,00:00:03.728,-0.007044679688988249
933,00:00:03.732,0.005922414362430569
934,00:00:03.736,0.006633267155848471
935,00:00:03.74,0.015109779837075583
936,00:00:03.744,-0.002689814427867523
937,00:00:03.748,-0.02270117611624296
938,00:00:03.752,-0.01814321102574468
939,00:00:03.756,0.002627734233101364
940,00:00:03.76,0.017238872242160155
941,00:00:03.764,0.04002343168394869
942,00:00:03.768,-0.0034431952735758348
943,00:00:03.772,-0.03441276960074906
944,00:00:03.776,-0.02057295100530606
945,00:00:03.78,-0.0074827887583523885
946,00:00:03.784,0.03137899300782012
947,00:00:03.788,0.02497706748545172
948,00:00:03.792,-0.01600359613075856
949,00:00:03.796,-0.009655194357037522
950,00:00:03.8,-0.01433122670277953
951,00:00:03.804,0.009979972906876359
952,00:00:03.808,0.026860272511839877
953,00:00:03.812,-0.008590708486735783
954,00:00:03.816,-0.02415967325214299
955,00:00:03.82,-0.007736590458080179
956,00:00:03.824,0.0038601965643465597
957,00:00:03.828,0.012687203357927529
958,00:00:03.832,0.005627794656902549
959,00:00:03.836,0.012957768514752341
960,00:00:03.84,0.006914080586284319
961,00:00:03.844,-0.01319725427310914
962,00:00:03.848,-0.02621828159317379
963,00:00:03.852,-0.00908907642588019
964,00:00:03.856,0.005979245062917471
965,00:00:03.86,0.01851469965185972
966,00:00:03.864,0.01287481468170879
967,00:00:03.868,0.014754095085663764
968,00:00:03.872,-0.006776285008527309
969,00:00:03.876,-0.027191308559849886
970,00:00:03.88,-0.016763008199632154
971,00:00:03.884,0.008498436771333221
972,00:00:03.888,0.005065181758254741
973,00:00:03.892,0.0121728559024632
974,00:00:03.896,0.00578070036135614
975,00:00:03.9,0.004720166529295961
976,00:00:03.904,0.0016521578654646817
977,00:00:03.908,0.00176241761073471
978,00:00:03.912,-0.0255616736831143
979,00:00:03.916,-0.01964698219671845
980,00:00:03.92,0.01422311417991298
981,00:00:03.924,0.028481295565143203
982,00:00:03.928,-0.000619389466010035
983,00:00:03.932,-0.01094841805752362
984,00:00:03.936,-0.01540436563664119
985,00:00:03.94,0.003057361995161041
986,00:00:03.944,0.0178461885079741
987,00:00:03.948,0.01616218034178018
988,00:00:03.952,0.0005067760648671529
989,00:00:03.956,-0.02762290096143264
990,00:00:03.96,-0.024386467819567804
991,00:00:03.964,-0.0008093806973192839
992,00:00:03.968,0.009122041155933399
993,00:00:03.972,0.031717845937237116
994,00:00:03.976,0.02168684755451975
995,00:00:03.98,-0.017129114516137623
996,00:00:03.984,-0.022352685802616182
997,00:00:03.988,-0.013901621801778669
998,00:00:03.992,0.0109650605591014
999,00:00:03.996,0.018300062423804758
1000,00:00:04,-0.0010222030687145828
1001,00:00:04.004,-0.010858132969588031
1002,00:00:04.008,0.0008188681676983521
1003,00:00:04.012,0.003935683052986879
1004,00:00:04.016,-0.0038833596918266327
1005,00:00:04.02,-0.000678138603689156
1006,00:00:04.024,-0.001644072457565932
1007,00:00:04.028,-0.003599692892748866
1008,00:00:04.032,0.006014096084982149
1009,00:00:04.036,0.01360045920591801
1010,00:00:04.04,-0.012802756158635019
1011,00:00:04.044,-0.0025031742152350437
1012,00:00:04.048,0.0013169079902581866
1013,00:00:04.052,-0.008652009011711927
1014,00:00:04.056,0.016943137627094988
1015,00:00:04.06,0.012561587907839563
1016,00:00:04.064,-0.008266064804047301
1017,00:00:04.068,-0.019444289209786768
1018,00:00:04.072,-0.01285609893966466
1019,00:00:04.076,-0.01109865563921631
1020,00:00:04.08,0.02210649987682702
1021,00:00:04.084,0.049922384321689564
1022,00:00:04.088,0.00888703647069633
1023,00:00:04.092,-0.042529007419943796
1024,00:00:04.096,-0.03412147331982847
1025,00:00:04.1,-0.009867197717539961
1026,00:00:04.104,0.02064055437222119
1027,00:00:04.108,0.020673497363532117
1028,00:00:04.112,0.01563511847052725
1029,00:00:04.116,-0.001054616121109568
1030,00:00:04.12,-0.005044319288572303
1031,00:00:04.124,-0.0009549204260110807
1032,00:00:04.128,-0.00592841580510137
1033,00:00:04.132,-0.03079922450706364
1034,00:00:04.136,-0.010737436925410283
1035,00:00:04.14,0.0073845956940204
1036,00:00:04.144,0.04064566083252426
1037,00:00:04.148,0.04247821168974038
1038,00:00:04.152,-0.013869005721062411
1039,00:00:04.156,-0.0509052245179191
1040,00:00:04.16,-0.032163847994525
1041,00:00:04.164,0.007275463081896305
1042,00:00:04.168,0.02575903467368331
1043,00:00:04.172,0.016750228242017308
1044,00:00:04.176,0.011326893232762812
1045,00:00:04.18,0.0032453639432787904
1046,00:00:04.184,0.003803278086706998
1047,00:00:04.188,-0.022666415665298676
1048,00:00:04.192,-0.0295532513409853
1049,00:00:04.196,-0.0058626643149182305
1050,00:00:04.2,0.020034214132465457
1051,00:00:04.204,0.01924215978942807
1052,00:00:04.208,0.0038970040332060316
1053,00:00:04.212,-0.01100976055022329
1054,00:00:04.216,0.01590041257441042
1055,00:00:04.22,0.01392347691580653
1056,00:00:04.224,-0.02649824996478859
1057,00:00:04.228,-0.04112269449979068
1058,00:00:04.232,0.01488468295428902
1059,00:00:04.236,0.02554032173793533
1060,00:00:04.24,0.006594435311853889
1061,00:00:04.244,-0.010243014723528145
1062,00:00:04.248,-0.006800412666052583
1063,00:00:04.252,0.025414111383725
1064,00:00:04.256,0.012108757626265319
1065,00:00:04.26,-0.03427905659191313
1066,00:00:04.264,-0.021919568360317512
1067,00:00:04.268,0.007756333710858597
1068,00:00:04.272,0.015388708095997568
1069,00:00:04.276,0.01290291012264788
1070,00:00:04.28,-0.0012603150680661201
1071,00:00:04.284,-0.002871957549359643
1072,00:00:04.288,-0.001719654988846738
1073,00:00:04.292,-0.00506974814925343
1074,00:00:04.296,-0.007223006279673427
1075,00:00:04.3,-0.00019818668886983524
1076,00:00:04.304,0.007081157556967808
1077,00:00:04.308,0.005734484409913421
1078,00:00:04.312,0.01818259572610259
1079,00:00:04.316,-0.01549281389452516
1080,00:00:04.32,-0.018078031949698953
1081,00:00:04.324,-0.013706856640055828
1082,00:00:04.328,0.00938432849943638
1083,00:00:04.332,0.036514595616608886
1084,00:00:04.336,0.001425188966095451
1085,00:00:04.34,-0.013669510080944742
1086,00:00:04.344,-0.013669602572917963
1087,00:00:04.348,-0.014820700045675041
1088,00:00:04.352,-0.00568651256617159
1089,00:00:04.356,0.017131597851403092
1090,00:00:04.36,0.03576933173462747
1091,00:00:04.364,-0.010599484667182
1092,00:00:04.368,-0.019467848353087902
1093,00:00:04.372,-0.0029275245033204595
1094,00:00:04.376,0.008552165236324068
1095,00:00:04.38,-0.00545705039985479
1096,00:00:04.384,-0.0058987237280234694
1097,00:00:04.388,0.005044856099630122
1098,00:00:04.392,0.00957473448943347
1099,00:00:04.396,-0.0018786352593451704
1100,00:00:04.4,-0.00222829123958945
1101,00:00:04.404,-0.004655931377783411
1102,00:00:04.408,0.0001392406411468896
1103,00:00:04.412,-0.005090356367873032
1104,00:00:04.416,-0.00780573685187846
1105,00:00:04.42,0.012790177046554168
1106,00:00:04.424,0.03242303896695372
1107,00:00:04.428,-0.006170175154693459
1108,00:00:04.432,-0.023955794982612168
1109,00:00:04.436,-0.022325047990307167
1110,00:00:04.44,0.001748323789797719
1111,00:00:04.444,0.010161492973566062
1112,00:00:04.448,0.013660118216648691
1113,00:00:04.452,0.003194862860254943
1114,00:00:04.456,0.0036363285034894943
1115,00:00:04.46,0.000535635859705532
1116,00:00:04.464,-0.0028233496705070207
1117,00:00:04.468,-0.012648475822061352
1118,00:00:04.472,-0.00623834098223598
1119,00:00:04.476,0.01031334127765149
1120,00:00:04.48,-0.00597032892983406
1121,00:00:04.484,-0.0053792056860402174
1122,00:00:04.488,0.01924727088771758
1123,00:00:04.492,0.020470285962801437
1124,00:00:04.496,-0.015622866107150959
1125,00:00:04.5,-0.02279881085269153
1126,00:00:04.504,-0.010672060190699993
1127,00:00:04.508,0.00313465017825365
1128,00:00:04.512,0.01652251929044724
1129,00:00:04.516,0.01442008803132918
1130,00:00:04.52,0.005040858319262046
1131,00:00:04.524,-0.0037179368082433935
1132,00:00:04.528,-0.005717046442441646
1133,00:00:04.532,-0.017348265508189797
1134,00:00:04.536,-0.011973133310675621
1135,00:00:04.54,0.00759397611545865
1136,00:00:04.544,0.01025579636916518
1137,00:00:04.548,0.01031651871744543
1138,00:00:04.552,0.0014586682082153848
1139,00:00:04.556,-0.00691254308912903
1140,00:00:04.56,0.010633193960529745
1141,00:00:04.564,-0.003068800549954174
1142,00:00:04.568,-0.01901623094454406
1143,00:00:04.572,-0.001237015283550138
1144,00:00:04.576,0.00793078984133899
1145,00:00:04.58,0.00404874747619033
1146,00:00:04.584,0.0035259202122688298
1147,00:00:04.588,-0.0042450900582480305
1148,00:00:04.592,0.00146441953256726
1149,00:00:04.596,-0.0077138647902757
1150,00:00:04.6,0.00677690608426928
1151,00:00:04.604,0.006960305385291581
1152,00:00:04.608,-0.012755748350173228
1153,00:00:04.612,0.010961468127788976
1154,00:00:04.616,-0.0013940937351435397
1155,00:00:04.62,-0.01318367710337043
1156,00:00:04.624,0.004500640294281772
1157,00:00:04.628,0.01228437060490246
1158,00:00:04.632,-0.007788294198689981
1159,00:00:04.636,-0.01048758463002741
1160,00:00:04.64,0.0018807882443070394
1161,00:00:04.644,0.015456994995474857
1162,00:00:04.648,0.008563004550524052
1163,00:00:04.652,-0.01015122071839868
1164,00:00:04.656,-0.01641530240885913
1165,00:00:04.66,-0.001960880239494151
1166,00:00:04.664,0.01299494830891489
1167,00:00:04.668,0.004192579770460721
1168,00:00:04.672,0.006039255880750719
1169,00:00:04.676,0.0026202469016425286
1170,00:00:04.68,-0.01664113742299381
1171,00:00:04.684,-0.018134043551981498
1172,00:00:04.688,0.01551645854488015
1173,00:00:04.692,0.01030153129249808
1174,00:00:04.696,0.00128392828628421
1175,00:00:04.7,0.00856428127735853
1176,00:00:04.704,-0.007865497609600397
1177,00:00:04.708,-0.017706673359498416
1178,00:00:04.712,-0.00279705342836678
1179,00:00:04.716,0.019600398372858728
1180,00:00:04.72,-0.0007302238373085859
1181,00:00:04.724,-8.838088251645997e-05
1182,00:00:04.728,-0.005965248972643165
1183,00:00:04.732,0.0013974821195006397
1184,00:00:04.736,-0.0027299306530039792
1185,00:00:04.74,0.00378459005150944
1186,00:00:04.744,-0.0040227840654552
1187,00:00:04.748,-0.003000223310664279
1188,00:00:04.752,0.010811498621478701
1189,00:00:04.756,0.001192463765619318
1190,00:00:04.76,0.0035459809005260394
1191,00:00:04.764,0.003542828475474388
1192,00:00:04.768,-0.014294919790700078
1193,00:00:04.772,-0.01865882193669677
1194,00:00:04.776,0.00286733527900651
1195,00:00:04.78,0.018208647845312932
1196,00:00:04.784,0.008921543601900332
1197,00:00:04.788,-0.0022579386131837903
1198,00:00:04.792,-0.007187119836089549
1199,00:00:04.796,-0.0039047951577231305
1200,00:00:04.8,0.00022129423450678804
1201,00:00:04.804,0.004394711111672224
1202,00:00:04.808,0.0064856647222768455
1203,00:00:04.812,-0.004500476876273751
1204,00:00:04.816,-0.0032240422442555428
1205,00:00:04.82,-0.010425492655485868
1206,00:00:04.824,0.0030406570585910253
1207,00:00:04.828,0.0027421968989074204
1208,00:00:04.832,0.021345005952753092
1209,00:00:04.836,-0.0011669468549371283
1210,00:00:04.84,-0.01712450780905779
1211,00:00:04.844,-0.01036105817183852
1212,00:00:04.848,0.004516563494689771
1213,00:00:04.852,0.008861978843924591
1214,00:00:04.856,-0.006396547920303418
1215,00:00:04.86,-0.0016926527896430363
1216,00:00:04.864,0.010501513490453359
1217,00:00:04.868,0.014305325457826257
1218,00:00:04.872,-0.009202698362059891
1219,00:00:04.876,-0.011849051661556594
1220,00:00:04.88,0.004563852678984405
1221,00:00:04.884,-0.01112478715367615
1222,00:00:04.888,-0.008116253884509199
1223,00:00:04.892,0.011071193846873939
1224,00:00:04.896,0.007563329243566848
1225,00:00:04.9,0.013049936853349202
1226,00:00:04.904,0.0017748943064361832
1227,00:00:04.908,-0.013863734318874825
1228,00:00:04.912,-0.01207363308640193
1229,00:00:04.916,0.0025485642254352296
1230,00:00:04.92,0.0039215694196172955
1231,00:00:04.924,-0.0022065124940127104
1232,00:00:04.928,0.010523482982534919
1233,00:00:04.932,0.02004985132953152
1234,00:00:04.936,-0.0033884245203807907
1235,00:00:04.94,-0.03119225357659158
1236,00:00:04.944,-0.02466921933228144
1237,00:00:04.948,0.014080404303967948
1238,00:00:04.952,0.027484189718961688
1239,00:00:04.956,-0.0014356174506247104
1240,00:00:04.96,-0.006082688691094521
1241,00:00:04.964,0.011910745000932333
1242,00:00:04.968,0.012176478281617161
1243,00:00:04.972,-0.011943998935748861
1244,00:00:04.976,-0.01809005672112107
1245,00:00:04.98,-0.011249906718148853
1246,00:00:04.984,-0.004826675285585223
1247,00:00:04.988,0.01070606918074192
1248,00:00:04.992,0.02024813703610559
1249,00:00:04.996,0.011159588175360106
1250,00:00:05,-0.005421046866103991
1251,00:00:05.004,-0.019300626358017315
1252,00:00:05.008,-0.006879241322167222
1253,00:00:05.012,0.011593508999794682
1254,00:00:05.016,0.003348419209942222
1255,00:00:05.02,0.0034228518343297743
1256,00:00:05.024,-0.0016333092935383402
1257,00:00:05.028,-0.01478386652888726
1258,00:00:05.032,-0.004279939690604812
1259,00:00:05.036,0.0063541178824380005
1260,00:00:05.04,0.030303862877190103
1261,00:00:05.044,-0.0029251879896037224
1262,00:00:05.048,-0.020981602661777333
1263,00:00:05.052,-0.0188683598244097
1264,00:00:05.056,0.00616922322660685
1265,00:00:05.06,0.018902148003689948
1266,00:00:05.064,0.01328041125088935
1267,00:00:05.068,-0.008601652632933107
1268,00:00:05.072,-0.023950265080202423
1269,00:00:05.076,-0.004557326727081091
1270,00:00:05.08,0.024221221799962257
1271,00:00:05.084,0.01964347576722504
1272,00:00:05.088,-0.01308787072775886
1273,00:00:05.092,-0.02475441875867541
1274,00:00:05.096,-0.014421399217098951
1275,00:00:05.1,0.021906490423134514
1276,00:00:05.104,0.02887949021533136
1277,00:00:05.108,-0.0037451224925462104
1278,00:00:05.112,-0.02313976630102848
1279,00:00:05.116,-0.01041096402332184
1280,00:00:05.12,0.0021048409398645154
1281,00:00:05.124,0.01002555072773249
1282,00:00:05.128,0.0053333883406594396
1283,00:00:05.132,-0.00037063528725411613
1284,00:00:05.136,0.003212399518815803
1285,00:00:05.14,0.008039999112952459
1286,00:00:05.144,-0.013273341115564092
1287,00:00:05.148,-0.016601107490714626
1288,00:00:05.152,0.010839289716386718
1289,00:00:05.156,0.014349386896356058
1290,00:00:05.16,-0.005963526840787385
1291,00:00:05.164,-0.009294995070376882
1292,00:00:05.168,0.0017439269895476157
1293,00:00:05.172,0.0016813210495456627
1294,00:00:05.176,-0.004179645242402333
1295,00:00:05.18,0.00753653212450444
1296,00:00:05.184,0.0034638979414012352
1297,00:00:05.188,0.008405054628383367
1298,00:00:05.192,-0.007624982390552761
1299,00:00:05.196,-0.004472050117328758
1300,00:00:05.2,-0.005602858436759596
1301,00:00:05.204,-0.0020100643741898273
1302,00:00:05.208,-0.002520529495086522
1303,00:00:05.212,0.005122949747601517
1304,00:00:05.216,0.001846453946200198
1305,00:00:05.22,-0.00113324553240091
1306,00:00:05.224,0.013148659840226179
1307,00:00:05.228,0.004881631000898791
1308,00:00:05.232,-0.0028926645318279095
1309,00:00:05.236,-0.012782093835994601
1310,00:00:05.24,-0.01046383124776185
1311,00:00:05.244,-0.00494989519938826
1312,00:00:05.248,0.011967161211941866
1313,00:00:05.252,0.020898615708574608
1314,00:00:05.256,-0.00040945899672807044
1315,00:00:05.26,-0.02101099421270194
1316,00:00:05.264,-0.0046750316687393925
1317,00:00:05.268,-0.01339070335961878
1318,00:00:05.272,0.022916869842447393
1319,00:00:05.276,0.022971483645960692
1320,00:00:05.28,-0.01746978657320141
1321,00:00:05.284,-0.00027735810726881027
1322,00:00:05.288,-0.0011793777812272351
1323,00:00:05.292,-0.014447398949414509
1324,00:00:05.296,-0.006656382174696784
1325,00:00:05.3,0.00793628417886794
1326,00:00:05.304,0.01736735273152588
1327,00:00:05.308,0.009349368978291746
1328,00:00:05.312,-0.0057495583314448595
1329,00:00:05.316,-0.006074145319871601
1330,00:00:05.32,-0.01550643891096115
1331,00:00:05.324,-0.007623835146659982
1332,00:00:05.328,0.002720023388974373
1333,00:00:05.332,0.0082801423559431
1334,00:00:05.336,0.02671002829447393
1335,00:00:05.34,0.00523056951351464
1336,00:00:05.344,-0.017828878248110372
1337,00:00:05.348,-0.02219395409338179
1338,00:00:05.352,0.00663242151495069
1339,00:00:05.356,0.004535273183137178
1340,00:00:05.36,-0.0013369471416808726
1341,00:00:05.364,0.007399290247121827
1342,00:00:05.368,-0.004615102865500376
1343,00:00:05.372,-0.003966950178437404
1344,00:00:05.376,0.010491261200513673
1345,00:00:05.38,0.011756455060094602
1346,00:00:05.384,-0.012267432408407332
1347,00:00:05.388,-0.011065125203458592
1348,00:00:05.392,0.00359389884397387
1349,00:00:05.396,0.0020642259623855357
1350,00:00:05.4,-0.0032059145014500193
1351,00:00:05.404,-0.0019482074421830558
1352,00:00:05.408,0.013434695370960951
1353,00:00:05.412,0.00341812986880541
1354,00:00:05.416,-0.01469278943841346
1355,00:00:05.42,-0.006941694882698359
1356,00:00:05.424,0.011671248590573668
1357,00:00:05.428,0.010215654154308139
1358,00:00:05.432,-0.008218506816774607
1359,00:00:05.436,-0.00484585680533201
1360,00:00:05.44,0.001287859719013793
1361,00:00:05.444,-0.00036417829687708053
1362,00:00:05.448,0.010778923038742547
1363,00:00:05.452,-0.010892248745221883
1364,00:00:05.456,-0.009406151541043073
1365,00:00:05.46,0.00719971244689077
1366,00:00:05.464,0.020054283901117742
1367,00:00:05.468,-0.0050918236374855
1368,00:00:05.472,-0.017660228535532913
1369,00:00:05.476,-0.01412964612245559
1370,00:00:05.48,0.017716253409162188
1371,00:00:05.484,0.00972627056762577
1372,00:00:05.488,-0.002754368382738904
1373,00:00:05.492,-0.00368167296983302
1374,00:00:05.496,-0.0013427891535684596
1375,00:00:05.5,0.0068217396037653115
1376,00:00:05.504,-0.0006017032646923274
1377,00:00:05.508,-0.012286776298424238
1378,00:00:05.512,0.004288039053790271
1379,00:00:05.516,0.005134758946951485
1380,00:00:05.52,-0.00483828724827618
1381,00:00:05.524,0.00843879533931613
1382,00:00:05.528,-0.005638196002109911
1383,00:00:05.532,-0.012871504528447989
1384,00:00:05.536,0.00786462350515649
1385,00:00:05.54,0.02599051455035805
1386,00:00:05.544,-0.010014670784585147
1387,00:00:05.548,-0.01901883690152318
1388,00:00:05.552,-0.0032885924447327913
1389,00:00:05.556,0.010806618171045564
1390,00:00:05.56,-0.006127056170953435
1391,00:00:05.564,0.0027654412551782978
1392,00:00:05.568,0.00508021586574614
1393,00:00:05.572,0.00947476201690734
1394,00:00:05.576,-0.00981158670037985
1395,00:00:05.58,0.007577921380288899
1396,00:00:05.584,-0.003253494855016476
1397,00:00:05.588,-0.01916707446798687
1398,00:00:05.592,0.0030126874626148483
1399,00:00:05.596,0.02339882729575036
1400,00:00:05.6,-0.009551385330269113
1401,00:00:05.604,-0.012112299038562927
1402,00:00:05.608,-0.0017623790481593473
1403,00:00:05.612,0.010219430550932839
1404,00:00:05.616,0.009732600767165419
1405,00:00:05.62,-0.002821350004523991
1406,00:00:05.624,-0.00717332190833986
1407,00:00:05.628,0.00507511955220253
1408,00:00:05.632,-0.0006393599323928308
1409,00:00:05.636,-0.00759500311687589
1410,00:00:05.64,-0.0032370977569371505
1411,00:00:05.644,0.01034051785245537
1412,00:00:05.648,-0.003624296899943151
1413,00:00:05.652,0.0031349695382232286
1414,00:00:05.656,-0.005371206440031542
1415,00:00:05.66,-0.00436749774962664
1416,00:00:05.664,0.00180064770393074
1417,00:00:05.668,0.01749587059020995
1418,00:00:05.672,0.002826887372066263
1419,00:00:05.676,-0.020297489827498762
1420,00:00:05.68,-0.00842208007816225
1421,00:00:05.684,0.00966098229400813
1422,00:00:05.688,0.0045169012155383825
1423,00:00:05.692,0.010375532438047229
1424,00:00:05.696,-0.005382949719205501
1425,00:00:05.7,-0.00919185625389219
1426,00:00:05.704,-0.005542429396882648
1427,00:00:05.708,0.00622559210751206
1428,00:00:05.712,0.006098294135881586
1429,00:00:05.716,0.00827817991375923
1430,00:00:05.72,-0.00735580481705256
1431,00:00:05.724,-0.011832009200588807
1432,00:00:05.728,-0.0029388808761723327
1433,00:00:05.732,0.00685070478357371
1434,00:00:05.736,0.015308078276575512
1435,00:00:05.74,-0.0006840091664344103
1436,00:00:05.744,-0.011393382214009758
1437,00:00:05.748,0.0014518784591928012
1438,00:00:05.752,-0.01180526521056894
1439,00:00:05.756,0.0037593562738038673
1440,00:00:05.76,0.0133976936340332
1441,00:00:05.764,-0.00759027770254762
1442,00:00:05.768,-0.00043931114487349987
1443,00:00:05.772,0.010612960031721776
1444,00:00:05.776,-0.007988082943484187
1445,00:00:05.78,3.446952905504898e-05
1446,00:00:05.784,0.00031121866777538906
1447,00:00:05.788,-0.000846364302560678
1448,00:00:05.792,-0.003303820703877138
1449,00:00:05.796,-0.009121297392994164
1450,00:00:05.8,0.015758619876578433
1451,00:00:05.804,0.0050901619251817395
1452,00:00:05.808,-0.00869291741400957
1453,00:00:05.812,-0.0011955634690821206
1454,00:00:05.816,0.005090246675536039
1455,00:00:05.82,-0.0072978355456143635
1456,00:00:05.824,-0.005432742065750061
1457,00:00:05.828,0.006452894420363008
1458,00:00:05.832,0.014767838176339816
1459,00:00:05.836,0.008848366131132934
1460,00:00:05.84,-0.019916093442589038
1461,00:00:05.844,-0.02770557813346386
1462,00:00:05.848,0.0015141261974349657
1463,00:00:05.852,0.02907784005219585
1464,00:00:05.856,0.02733992051798847
1465,00:00:05.86,-0.017628553556278362
1466,00:00:05.864,-0.02447241079062221
1467,00:00:05.868,0.006129050962044861
1468,00:00:05.872,-0.0054329308040905735
1469,00:00:05.876,-0.010183122474700212
1470,00:00:05.88,0.0241505379090086
1471,00:00:05.884,0.021651351824402847
1472,00:00:05.888,-0.015684984973631806
1473,00:00:05.892,-0.012329109944403211
1474,00:00:05.896,-0.0012877996196038986
1475,00:00:05.9,-0.00750864937435836
1476,00:00:05.904,0.00016759056597948074
1477,00:00:05.908,0.014788496075198068
1478,00:00:05.912,0.007672286592423963
1479,00:00:05.916,0.0020531864138320114
1480,00:00:05.92,-0.017057948047295202
1481,00:00:05.924,-0.0159851829521358
1482,00:00:05.928,0.009648221021052448
1483,00:00:05.932,0.01275388291105626
1484,00:00:05.936,0.006396910641342406
1485,00:00:05.94,0.001343354815617206
1486,00:00:05.944,-0.0044729137443937335
1487,00:00:05.948,-0.008310706733027473
1488,00:00:05.952,-0.010652498109266164
1489,00:00:05.956,0.004339796490967275
1490,00:00:05.96,0.014292484149336804
1491,00:00:05.964,0.003664196410682035
1492,00:00:05.968,-0.016095391882117865
1493,00:00:05.972,0.002029857132583848
1494,00:00:05.976,0.02440828457474707
1495,00:00:05.98,-0.006256757187657051
1496,00:00:05.984,-0.025002526585012633
1497,00:00:05.988,-0.008406040957197543
1498,00:00:05.992,0.004114528303034609
1499,00:00:05.996,0.009322781697846949
1500,00:00:06,0.01653690863167871
1501,00:00:06.004,0.01687828058948071
1502,00:00:06.008,-0.020268043386749913
1503,00:00:06.012,-0.01937602716498078
1504,00:00:06.016,0.004516726010479031
1505,00:00:06.02,0.020630118175176914
1506,00:00:06.024,-0.0013854589778929897
1507,00:00:06.028,-0.020218250807374688
1508,00:00:06.032,-0.00048259960021823645
1509,00:00:06.036,-0.0028397564310580496
1510,00:00:06.04,0.00434413133189083
1511,00:00:06.044,0.010186128667555751
1512,00:00:06.048,0.012781646750227093
1513,00:00:06.052,-0.00748786167241632
1514,00:00:06.056,-0.00657179648987948
1515,00:00:06.06,0.0027616164879873395
1516,00:00:06.064,-0.01053897594101727
1517,00:00:06.068,0.00860949768684804
1518,00:00:06.072,0.011011447291821191
1519,00:00:06.076,-0.012289725476875901
1520,00:00:06.08,-0.02280028467066583
1521,00:00:06.084,0.00209516356699168
1522,00:00:06.088,0.02068853471428152
1523,00:00:06.092,0.020222134538926198
1524,00:00:06.096,-0.00034235150087624094
1525,00:00:06.1,-0.017882905493024754
1526,00:00:06.104,-0.00629614957142617
1527,00:00:06.108,-0.01195217622444033
1528,00:00:06.112,0.004302860121242698
1529,00:00:06.116,0.0095737589290366
1530,00:00:06.12,0.007314674905501299
1531,00:00:06.124,0.006442691374104467
1532,00:00:06.128,0.00042206307989540136
1533,00:00:06.132,-0.00653889065142721
1534,00:00:06.136,-0.012169543653726581
1535,00:00:06.14,-0.011327156098559499
1536,00:00:06.144,0.01064557430800049
1537,00:00:06.148,0.00909828359726816
1538,00:00:06.152,0.0021485862089320996
1539,00:00:06.156,0.005768275797890967
1540,00:00:06.16,-0.00925806281156835
1541,00:00:06.164,-0.010423008468933407
1542,00:00:06.168,0.012386012938804907
1543,00:00:06.172,0.01995870796963578
1544,00:00:06.176,-0.02415359613951294
1545,00:00:06.18,-0.0170501100365072
1546,00:00:06.184,0.002788081998005507
1547,00:00:06.188,0.01973838667618114
1548,00:00:06.192,0.01683371677063401
1549,00:00:06.196,-0.014051339006982737
1550,00:00:06.2,-0.01149734668433666
1551,00:00:06.204,-0.00578136206604541
1552,00:00:06.208,0.000273689569439743
1553,00:00:06.212,0.004062960157170892
1554,00:00:06.216,0.01311200007330627
1555,00:00:06.22,0.014123554690740999
1556,00:00:06.224,-0.01075791381299495
1557,00:00:06.228,-0.02171843871474268
1558,00:00:06.232,0.01163520797854295
1559,00:00:06.236,-0.00041328903171233985
1560,00:00:06.24,-0.006716207135468741
1561,00:00:06.244,-0.00310828234069049
1562,00:00:06.248,0.01245043717790393
1563,00:00:06.252,0.003194018354406581
1564,00:00:06.256,-0.00755717779975384
1565,00:00:06.26,0.0033186991349794036
1566,00:00:06.264,0.00912167568822042
1567,00:00:06.268,-0.00829162786249071
1568,00:00:06.272,-0.0011319636178086507
1569,00:00:06.276,-0.009408071040525066
1570,00:00:06.28,3.38971367455144e-05
1571,00:00:06.284,0.0155274614226073
1572,00:00:06.288,-0.01075651170685887
1573,00:00:06.292,-0.0036992977838963305
1574,00:00:06.296,0.022302630357444248
1575,00:00:06.3,-0.0015544588677585108
1576,00:00:06.304,-0.018753729760646872
1577,00:00:06.308,-0.00931134819984436
1578,00:00:06.312,0.005086595308966942
1579,00:00:06.316,0.01102410932071506
1580,00:00:06.32,0.014624584233388301
1581,00:00:06.324,-0.0038230605423450496
1582,00:00:06.328,-0.02058325195685028
1583,00:00:06.332,-0.0022965941752772813
1584,00:00:06.336,0.0075307168299332304
1585,00:00:06.34,-0.004249141085892919
1586,00:00:06.344,0.0032489444129168996
1587,00:00:06.348,0.0144485413620714
1588,00:00:06.352,0.0130687728524208
1589,00:00:06.356,-0.01334571372717621
1590,00:00:06.36,-0.019772081868723028
1591,00:00:06.364,0.004856530809775
1592,00:00:06.368,-0.009390476188855254
1593,00:00:06.372,-0.00037758940015919507
1594,00:00:06.376,0.006319099338725212
1595,00:00:06.38,0.005652454565279183
1596,00:00:06.384,0.02371471771039073
1597,00:00:06.388,0.00787227717228237
1598,00:00:06.392,-0.015658172080293343
1599,00:00:06.396,-0.02668636548332872
1600,00:00:06.4,-0.00410638656467199
1601,00:00:06.404,0.004617277998477231
1602,00:00:06.408,0.012732952600345009
1603,00:00:06.412,0.003348697442561369
1604,00:00:06.416,-0.002059539721813055
1605,00:00:06.42,0.0010442109778523497
1606,00:00:06.424,-0.001427460694685581
1607,00:00:06.428,-0.0027480822755023815
1608,00:00:06.432,0.004315492726163935
1609,00:00:06.436,0.00019212847109884002
1610,00:00:06.44,0.0050135611090809055
1611,00:00:06.444,0.0032754787243902705
1612,00:00:06.448,-0.01954861078411346
1613,00:00:06.452,-0.019344916421687248
1614,00:00:06.456,0.023190359119325918
1615,00:00:06.46,0.03419279586523775
1616,00:00:06.464,-0.00599118135869503
1617,00:00:06.468,-0.02549477526918049
1618,00:00:06.472,-0.0216403673402965
1619,00:00:06.476,0.007968079764395949
1620,00:00:06.48,0.0017312257550656796
1621,00:00:06.484,0.02096277824603025
1622,00:00:06.488,0.015623189508914942
1623,00:00:06.492,-7.380498573184013e-05
1624,00:00:06.496,-0.021054721903055892
1625,00:00:06.5,-0.021073959855129956
1626,00:00:06.504,-0.0002771896542980729
1627,00:00:06.508,0.02178158843889831
1628,00:00:06.512,0.00857763062231243
1629,00:00:06.516,-0.007533812655310616
1630,00:00:06.52,-0.005847975262440742
1631,00:00:06.524,-0.0004873680300079286
1632,00:00:06.528,0.015202811802737425
1633,00:00:06.532,-0.004757122271257658
1634,00:00:06.536,-0.010370917938416869
1635,00:00:06.54,-0.008825791708659377
1636,00:00:06.544,-0.0026259994483552795
1637,00:00:06.548,0.02829729416407653
1638,00:00:06.552,0.01574496319517489
1639,00:00:06.556,-0.02075814991258088
1640,00:00:06.56,-0.017896311823278718
1641,00:00:06.564,-0.014742729952558872
1642,00:00:06.568,-0.003098398417932903
1643,00:00:06.572,0.011612642614636534
1644,00:00:06.576,0.03276984312105928
1645,00:00:06.58,0.024496808677213266
1646,00:00:06.584,-0.011060593824367929
1647,00:00:06.588,-0.03120838280301537
1648,00:00:06.592,-0.028703725547529712
1649,00:00:06.596,-0.002818523324094717
1650,00:00:06.6,0.02620622259564698
1651,00:00:06.604,0.007309930864721538
1652,00:00:06.608,0.011873159091919702
1653,00:00:06.612,0.004748398658193757
1654,00:00:06.616,-0.0036451509222388194
1655,00:00:06.62,-0.00996056338772178
1656,00:00:06.624,-0.015689271502196806
1657,00:00:06.628,-0.00273952702991665
1658,00:00:06.632,0.0014406358241103633
1659,00:00:06.636,0.00948699250875507
1660,00:00:06.64,0.004247545381076629
1661,00:00:06.644,0.007246056746225806
1662,00:00:06.648,0.010101458989083791
1663,00:00:06.652,-0.0009586109881638549
1664,00:00:06.656,-0.00923071139550299
1665,00:00:06.66,-0.02679920976515858
1666,00:00:06.664,-0.00883789686486125
1667,00:00:06.668,0.005476629361510299
1668,00:00:06.672,0.016045665834099082
1669,00:00:06.676,0.03184957895427946
1670,00:00:06.68,0.01000005751848221
1671,00:00:06.684,-0.02426664950326085
1672,00:00:06.688,-0.02663614554330708
1673,00:00:06.692,-0.01038847141899169
1674,00:00:06.696,0.02200482971966269
1675,00:00:06.7,0.005046583886723962
1676,00:00:06.704,0.006703926526824942
1677,00:00:06.708,-0.008113715215586126
1678,00:00:06.712,-0.005082672418211588
1679,00:00:06.716,0.007037506264168771
1680,00:00:06.72,0.00616661459207534
1681,00:00:06.724,-0.009465724026085807
1682,00:00:06.728,0.00033795187482610583
1683,00:00:06.732,0.0033423769054934114
1684,00:00:06.736,-0.006145871855551375
1685,00:00:06.74,-0.004779556737048548
1686,00:00:06.744,0.006175447488203644
1687,00:00:06.748,0.0058248733403161185
1688,00:00:06.752,0.0017789258854463798
1689,00:00:06.756,0.00460440805181861
1690,00:00:06.76,-0.008782347926171498
1691,00:00:06.764,-0.01131471153348685
1692,00:00:06.768,0.002593967190477996
1693,00:00:06.772,0.004144311300478879
1694,00:00:06.776,0.008469718275591731
1695,00:00:06.78,-0.00337029236834496
1696,00:00:06.784,0.005307363418978641
1697,00:00:06.788,-0.003824885177891699
1698,00:00:06.792,-0.002680233214050539
1699,00:00:06.796,-0.006303740839939562
1700,00:00:06.8,0.0007869225664762832
1701,00:00:06.804,-0.002901849569752809
1702,00:00:06.808,0.00670917890965936
1703,00:00:06.812,0.02260921515699011
1704,00:00:06.816,-0.01408557099057358
1705,00:00:06.82,-0.017119558178819702
1706,00:00:06.824,0.005606092512607571
1707,00:00:06.828,0.00203059881459921
1708,00:00:06.832,-0.003175523597747089
1709,00:00:06.836,-0.005679688241798431
1710,00:00:06.84,0.019974357477622107
1711,00:00:06.844,0.00503271725028753
1712,00:00:06.848,-0.01182333612814548
1713,00:00:06.852,-0.010884066694416139
1714,00:00:06.856,-0.0012870349455624901
1715,00:00:06.86,0.007496000267565251
1716,00:00:06.864,0.0149175482802093
1717,00:00:06.868,-0.0015048209461383457
1718,00:00:06.872,-0.014143847482046116
1719,00:00:06.876,-0.0030609404784627263
1720,00:00:06.88,3.1895702704780315e-05
1721,00:00:06.884,0.005213274504058089
1722,00:00:06.888,0.01008757087402045
1723,00:00:06.892,-0.0009650615975260691
1724,00:00:06.896,-0.01440531690604983
1725,00:00:06.9,-0.0018418924883008034
1726,00:00:06.904,-0.0021584363275906093
1727,00:00:06.908,0.004433063731994483
1728,00:00:06.912,0.021814896259456852
1729,00:00:06.916,0.008089326147455719
1730,00:00:06.92,-0.02400695974938575
1731,00:00:06.924,-0.010225401871139185
1732,00:00:06.928,-0.006485656806034967
1733,00:00:06.932,0.006456398972659375
1734,00:00:06.936,0.016179374768398702
1735,00:00:06.94,0.002991839195601638
1736,00:00:06.944,-0.00738579337485134
1737,00:00:06.948,-0.00883014197461307
1738,00:00:06.952,0.00818053411785516
1739,00:00:06.956,0.024771508178673657
1740,00:00:06.96,-0.01800438784994185
1741,00:00:06.964,-0.023045873182127297
1742,00:00:06.968,-0.00819650711491704
1743,00:00:06.972,0.010382373933680357
1744,00:00:06.976,0.029005349380895527
1745,00:00:06.98,0.0037012487300671524
1746,00:00:06.984,-0.01587931415997447
1747,00:00:06.988,-0.007637327478732962
1748,00:00:06.992,-0.01015498838387429
1749,00:00:06.996,0.009413818595930934
1750,00:00:07,0.00919242063537241
1751,00:00:07.004,-0.009600068849977106
1752,00:00:07.008,0.009471801706240505
1753,00:00:07.012,0.00982368248514831
1754,00:00:07.016,0.0001831499394029381
1755,00:00:07.02,-0.01942159421741961
1756,00:00:07.024,-0.01084765302948654
1757,00:00:07.028,0.002020952902967113
1758,00:00:07.032,0.006822631281465869
1759,00:00:07.036,0.01055043353699148
1760,00:00:07.04,0.001676432322710749
1761,00:00:07.044,0.016059676650911528
1762,00:00:07.048,-0.00019843295740428572
1763,00:00:07.052,-0.03421409497968856
1764,00:00:07.056,0.0007483075605704895
1765,00:00:07.06,0.002080232457956296
1766,00:00:07.064,-0.003103634575381868
1767,00:00:07.068,0.02396295149810608
1768,00:00:07.072,0.0023606608156114903
1769,00:00:07.076,-0.01294047222472727
1770,00:00:07.08,-0.00962098874151706
1771,00:00:07.084,0.013196509564295418
1772,00:00:07.088,-0.0009727929718792395
1773,00:00:07.092,-0.0030607234220951813
1774,00:00:07.096,0.005038701056037103
1775,00:00:07.1,-0.0010708898771554162
1776,00:00:07.104,-0.009588988963514572
1777,00:00:07.108,-0.0008694877615198554
1778,00:00:07.112,-0.000152057968080044
1779,00:00:07.116,0.010534381843172014
1780,00:00:07.12,0.02036521793343126
1781,00:00:07.124,-0.010903024929575619
1782,00:00:07.128,-0.02459438634105025
1783,00:00:07.132,-0.011599036399275061
1784,00:00:07.136,0.004098173230886459
1785,00:00:07.14,0.0285559429321438
1786,00:00:07.144,0.011896470736246594
1787,00:00:07.148,-0.0068850724492222105
1788,00:00:07.152,-0.020437777217011895
1789,00:00:07.156,0.0012735566124319996
1790,00:00:07.16,8.458085358143959e-05
1791,00:00:07.164,0.003500732709653679
1792,00:00:07.168,0.0044755063863704
1793,00:00:07.172,-0.009836198645643885
1794,00:00:07.176,-0.0007540079677710344
1795,00:00:07.18,0.007157820509746671
1796,00:00:07.184,0.01814409275539223
1797,00:00:07.188,-0.010599891189485788
1798,00:00:07.192,-0.012066403403878215
1799,00:00:07.196,0.0018327467842027532
1800,00:00:07.2,-0.0013113276800140797
1801,00:00:07.204,-0.005803960448247379
1802,00:00:07.208,0.006003988033626223
1803,00:00:07.212,0.01549347920808939
1804,00:00:07.216,-0.0044476687326096016
1805,00:00:07.22,-0.01142642204649745
1806,00:00:07.224,0.004421056713908911
1807,00:00:07.228,0.014201965415850282
1808,00:00:07.232,-0.02477026148699222
1809,00:00:07.236,-0.0013558897189796405
1810,00:00:07.24,0.022237439174205093
1811,00:00:07.244,-0.0084913130194764
1812,00:00:07.248,-0.00425479921977968
1813,00:00:07.252,0.00789543884457089
1814,00:00:07.256,-0.008396360091865071
1815,00:00:07.26,-0.009042392710398417
1816,00:00:07.264,0.0016041069757193333
1817,00:00:07.268,0.012330669698712882
1818,00:00:07.272,0.018409950367640746
1819,00:00:07.276,-0.0033115747210104044
1820,00:00:07.28,-0.022950697341002572
1821,00:00:07.284,-0.007374114647973324
1822,00:00:07.288,0.01177092571742833
1823,00:00:07.292,0.00564111024141312
1824,00:00:07.296,-0.008720379788428542
1825,00:00:07.3,-0.003540967241860929
1826,00:00:07.304,0.009595819108653807
1827,00:00:07.308,0.004081271472387021
1828,00:00:07.312,-0.0005567757034441439
1829,00:00:07.316,0.0013928867410868424
1830,00:00:07.32,-0.00249471084680408
1831,00:00:07.324,-0.014875960536301129
1832,00:00:07.328,-0.0018803749699145603
1833,00:00:07.332,0.008956524892710151
1834,00:00:07.336,0.008422926417551959
1835,00:00:07.34,0.013699757633730762
1836,00:00:07.344,-0.007180297106970117
1837,00:00:07.348,-0.015847050584852692
1838,00:00:07.352,-0.011702129559125755
1839,00:00:07.356,0.012324602575972702
1840,00:00:07.36,0.006283690199779809
1841,00:00:07.364,0.0121636579278857
1842,00:00:07.368,-0.012837065674830237
1843,00:00:07.372,-0.018419398125843194
1844,00:00:07.376,-0.0012456253170967102
1845,00:00:07.38,0.03218178008683031
1846,00:00:07.384,0.018129453179426533
1847,00:00:07.388,-0.028987931087613078
1848,00:00:07.392,-0.02383358462247997
1849,00:00:07.396,0.01866801269352437
1850,00:00:07.4,-0.0010546358535066204
1851,00:00:07.404,-0.005706831463612616
1852,00:00:07.408,-0.0003055272391066007
1853,00:00:07.412,0.01905619422905143
1854,00:00:07.416,0.00828581163659692
1855,00:00:07.42,0.0010696316894609431
1856,00:00:07.424,-0.014725340995937598
1857,00:00:07.428,-0.02608375076670204
1858,00:00:07.432,-0.009956822141248267
1859,00:00:07.436,0.022209970105905072
1860,00:00:07.44,0.030832738091703532
1861,00:00:07.444,-0.013240967411547911
1862,00:00:07.448,-0.005023319856263701
1863,00:00:07.452,0.00416072737425566
1864,00:00:07.456,-0.0007972077000886202
1865,00:00:07.46,-0.015634591341950037
1866,00:00:07.464,-0.00588274188339711
1867,00:00:07.468,0.028028415748849556
1868,00:00:07.472,-0.00407775479834527
1869,00:00:07.476,-0.01685215113684532
1870,00:00:07.48,-0.006380092003382751
1871,00:00:07.484,0.011087702820077521
1872,00:00:07.488,0.007283461338374768
1873,00:00:07.492,-0.00619892310351134
1874,00:00:07.496,0.012464099563658201
1875,00:00:07.5,-0.002404056896921248
1876,00:00:07.504,-0.006704895291477388
1877,00:00:07.508,-0.0008136094256769892
1878,00:00:07.512,-0.007370383362285789
1879,00:00:07.516,0.0022292264620773564
1880,00:00:07.52,0.005932628235314037
1881,00:00:07.524,-0.00799203803762797
1882,00:00:07.528,-0.0038249080535024396
1883,00:00:07.532,0.02368775953073057
1884,00:00:07.536,0.0007891082204878304
1885,00:00:07.54,-0.016966598748695147
1886,00:00:07.544,0.0035880542127415494
1887,00:00:07.548,-0.0012672385200858103
1888,00:00:07.552,-0.010128810150490608
1889,00:00:07.556,-0.0009175310260616208
1890,00:00:07.56,0.02153895678929985
1891,00:00:07.564,-0.005539507605135429
1892,00:00:07.568,-0.004734228947199879
1893,00:00:07.572,0.0008725399084141829
1894,00:00:07.576,0.011639264004770696
1895,00:00:07.58,0.0026537352241575653
1896,00:00:07.584,-0.018846576102077982
1897,00:00:07.588,-0.015818696760106818
1898,00:00:07.592,0.00285213883034885
1899,00:00:07.596,0.013653855188749741
1900,00:00:07.6,0.01074423058889807
1901,00:00:07.604,0.0032513764454051904
1902,00:00:07.608,-0.011123835342004888
1903,00:00:07.612,-0.0014077812957111768
1904,00:00:07.616,0.02080900897271935
1905,00:00:07.62,-0.00750535447150469
1906,00:00:07.624,-0.01804811996407808
1907,00:00:07.628,-0.01083080330863595
1908,00:00:07.632,-0.0017091898771468578
1909,00:00:07.636,0.007465222210157665
1910,00:00:07.64,0.02479650115128614
1911,00:00:07.644,0.016374760220060125
1912,00:00:07.648,-0.012289049220271388
1913,00:00:07.652,-0.028609756845980917
1914,00:00:07.656,-0.00981700420379637
1915,00:00:07.66,0.01666069810744375
1916,00:00:07.664,0.00030462021823041336
1917,00:00:07.668,0.0013129418002790806
1918,00:00:07.672,0.006078186212107551
1919,00:00:07.676,0.02260728413239121
1920,00:00:07.68,-0.009566041582729667
1921,00:00:07.684,-0.02551318076439197
1922,00:00:07.688,-0.0052993290591985005
1923,00:00:07.692,-0.001312243781285366
1924,00:00:07.696,0.011202943976968527
1925,00:00:07.7,0.00797187385614958
1926,00:00:07.704,-0.00048124941531569026
1927,00:00:07.708,0.011952178436331447
1928,00:00:07.712,0.0052220825891708955
1929,00:00:07.716,-0.01897009508684277
1930,00:00:07.72,-0.022454732999904126
1931,00:00:07.724,0.003909463295713069
1932,00:00:07.728,0.01515230242512191
1933,00:00:07.732,0.010841801762580868
1934,00:00:07.736,-0.005910567357204849
1935,00:00:07.74,2.3315544240180798e-05
1936,00:00:07.744,0.015345772495493269
1937,00:00:07.748,0.002505361946532495
1938,00:00:07.752,-0.024410884361714152
1939,00:00:07.756,-0.01562825974542644
1940,00:00:07.76,-0.012023036397295066
1941,00:00:07.764,0.011711156534147494
1942,00:00:07.768,0.04334653797559436
1943,00:00:07.772,0.01212909165769816
1944,00:00:07.776,-0.01725824968889355
1945,00:00:07.78,-0.03362008638214324
1946,00:00:07.784,-0.01461681560613215
1947,00:00:07.788,0.02933394897263496
1948,00:00:07.792,0.01523249852471051
1949,00:00:07.796,-0.00907654361799361
1950,00:00:07.8,-0.009315854986198241
1951,00:00:07.804,-0.00884016137570143
1952,00:00:07.808,0.0106997893890366
1953,00:00:07.812,0.011347386520355943
1954,00:00:07.816,-7.718708366156232e-05
1955,00:00:07.82,0.0009331377223133815
1956,00:00:07.824,-0.011234509322093796
1957,00:00:07.828,-0.01590707967989147
1958,00:00:07.832,0.007529883994720876
1959,00:00:07.836,0.017126385238952952
1960,00:00:07.84,-0.0063600401044823195
1961,00:00:07.844,0.00285515224095434
1962,00:00:07.848,0.00921334116719659
1963,00:00:07.852,-0.01852694235276436
1964,00:00:07.856,-0.010332417907193301
1965,00:00:07.86,0.0197907048277557
1966,00:00:07.864,-0.0018073194078169806
1967,00:00:07.868,-0.0063573800143785775
1968,00:00:07.872,-0.001151229545939721
1969,00:00:07.876,0.0011790255084633892
1970,00:00:07.88,0.020556949544698007
1971,00:00:07.884,-0.01202088303398341
1972,00:00:07.888,-0.009516403399175035
1973,00:00:07.892,0.006121184851508537
1974,00:00:07.896,0.01172586600296199
1975,00:00:07.9,-0.015951382461935268
1976,00:00:07.904,-0.017091978865209967
1977,00:00:07.908,0.01934289033306409
1978,00:00:07.912,-0.001045268429152155
1979,00:00:07.916,0.0007791793905198505
1980,00:00:07.92,0.0022245431318879093
1981,00:00:07.924,0.014287177240476009
1982,00:00:07.928,-0.009372306289151339
1983,00:00:07.932,-0.01688899751752617
1984,00:00:07.936,0.00185549189336598
1985,00:00:07.94,0.0007827224326320001
1986,00:00:07.944,0.0007358894217759401
1987,00:00:07.948,0.02449935209006072
1988,00:00:07.952,0.00975728384219109
1989,00:00:07.956,-0.012208388041472045
1990,00:00:07.96,-0.03013339673634615
1991,00:00:07.964,-0.01199788763187826
1992,00:00:07.968,0.00347942882217467
1993,00:00:07.972,0.02801261795684696
1994,00:00:07.976,0.0061130831018090205
1995,00:00:07.98,0.0046709248563274715
1996,00:00:07.984,0.005238470388576389
1997,00:00:07.988,-0.0092326661106199
1998,00:00:07.992,-0.017407425388228134
1999,00:00:07.996,-0.015168972604442384
2000,00:00:08,0.00345378601923585
2001,00:00:08.004,0.01015353319235146
2002,00:00:08.008,0.009012284455820915
2003,00:00:08.012,0.01899038744159044
2004,00:00:08.016,0.006957274163141848
2005,00:00:08.02,-0.01708621263969688
2006,00:00:08.024,-0.027913688216358378
2007,00:00:08.028,-0.006159892887808381
2008,00:00:08.032,0.01205338176805522
2009,00:00:08.036,0.01644442800898101
2010,00:00:08.04,0.00618932652287185
2011,00:00:08.044,-0.00321518105920404
2012,00:00:08.048,0.009900448785629144
2013,00:00:08.052,-0.004333413438871499
2014,00:00:08.056,-0.022138628410175436
2015,00:00:08.06,-0.01881865598261356
2016,00:00:08.064,0.012062696623615924
2017,00:00:08.068,0.02393555827438833
2018,00:00:08.072,0.004624436143785711
2019,00:00:08.076,0.0001384732313454689
2020,00:00:08.08,-0.0035485383705235983
2021,00:00:08.084,-0.011208913696464148
2022,00:00:08.088,-0.01069789798930286
2023,00:00:08.092,0.008390823262743648
2024,00:00:08.096,0.0036785685224458593
2025,00:00:08.1,-0.00235872421762906
2026,00:00:08.104,-0.0015569305396638817
2027,00:00:08.108,0.0153830860508606
2028,00:00:08.112,0.005063073476776479
2029,00:00:08.116,-0.01264144177548589
2030,00:00:08.12,-0.012599502180819365
2031,00:00:08.124,-0.006817375717218971
2032,00:00:08.128,0.00906192569527775
2033,00:00:08.132,0.014621708789491135
2034,00:00:08.136,0.013737395405769327
2035,00:00:08.14,-0.01156011479906738
2036,00:00:08.144,-0.032506350427866024
2037,00:00:08.148,0.01542319904547185
2038,00:00:08.152,0.018335091881453953
2039,00:00:08.156,-0.0002302840002812391
2040,00:00:08.16,-0.01581705606076864
2041,00:00:08.164,-0.0072055931668728555
2042,00:00:08.168,0.0034740456612780708
2043,00:00:08.172,0.008041803317610171
2044,00:00:08.176,0.010670758609194341
2045,00:00:08.18,0.008637941209599381
2046,00:00:08.184,-0.00650347175542265
2047,00:00:08.188,-0.01156173786148429
2048,00:00:08.192,-0.008427247405052178
2049,00:00:08.196,-0.010497234921786006
2050,00:00:08.2,-0.012095505138859151
2051,00:00:08.204,0.02684996731113641
2052,00:00:08.208,0.04318777972366669
2053,00:00:08.212,0.0018711034208536183
2054,00:00:08.216,-0.04895708721596754
2055,00:00:08.22,-0.015351559966802628
2056,00:00:08.224,-0.001546624771435746
2057,00:00:08.228,0.017690512584522367
2058,00:00:08.232,0.010687157162465152
2059,00:00:08.236,0.0025754304660949873
2060,00:00:08.24,0.0017132507637143196
2061,00:00:08.244,-0.009731875965371757
2062,00:00:08.248,0.004502799885813147
2063,00:00:08.252,0.01569424555054868
2064,00:00:08.256,-0.0005916286027059
2065,00:00:08.26,-0.014933757018297914
2066,00:00:08.264,-0.02196526643820111
2067,00:00:08.268,-0.01794252739637158
2068,00:00:08.272,0.025307549396529808
2069,00:00:08.276,0.019847413233947012
2070,00:00:08.28,0.0078070699237286975
2071,00:00:08.284,-0.0025499555049464002
2072,00:00:08.288,-0.0074053707212442515
2073,00:00:08.292,-0.006977610988542434
2074,00:00:08.296,-0.009904364938847724
2075,00:00:08.3,0.00163519277703017
2076,00:00:08.304,-0.005726758856326342
2077,00:00:08.308,0.0012604864314198702
2078,00:00:08.312,0.059304472524672754
2079,00:00:08.316,0.02105117682367568
2080,00:00:08.32,-0.053985754493623965
2081,00:00:08.324,-0.059528314974159016
2082,00:00:08.328,-0.020072625018656295
2083,00:00:08.332,0.029736426658928422
2084,00:00:08.336,0.04180673125665639
2085,00:00:08.34,0.02507745876209807
2086,00:00:08.344,0.00235542887821794
2087,00:00:08.348,-0.01464268891140819
2088,00:00:08.352,-0.01191261998610571
2089,00:00:08.356,-0.011346971499733632
2090,00:00:08.36,-0.01929711853154003
2091,00:00:08.364,0.01964497799053792
2092,00:00:08.368,0.037335473578423206
2093,00:00:08.372,-0.01274852547794581
2094,00:00:08.376,-0.029222943820059282
2095,00:00:08.38,-0.01182995527051391
2096,00:00:08.384,-0.0019075798045378157
2097,00:00:08.388,0.0112247597426176
2098,00:00:08.392,0.012794843642041049
2099,00:00:08.396,0.02013096166774627
2100,00:00:08.4,0.00802267575636507
2101,00:00:08.404,-0.02041331690270452
2102,00:00:08.408,-0.03006947017274795
2103,00:00:08.412,0.00246278429403902
2104,00:00:08.416,0.037170313065871596
2105,00:00:08.42,0.00094532268121839
2106,00:00:08.424,-0.012893867096863649
2107,00:00:08.428,-0.018075595609843717
2108,00:00:08.432,-0.007054275076370688
2109,00:00:08.436,0.012779834680259242
2110,00:00:08.44,0.00596761575434357
2111,00:00:08.444,0.006304778624326
2112,00:00:08.448,0.012851973529905079
2113,00:00:08.452,-0.011360608506947752
2114,00:00:08.456,-0.01788494526408612
2115,00:00:08.46,0.00804451492149382
2116,00:00:08.464,0.007700530579313641
2117,00:00:08.468,-0.007388909813016651
2118,00:00:08.472,8.911945042200473e-05
2119,00:00:08.476,0.00630255705618766
2120,00:00:08.48,-0.00027674273587764025
2121,00:00:08.484,-0.00905635103117674
2122,00:00:08.488,-0.002742746029980479
2123,00:00:08.492,0.0017120511038228867
2124,00:00:08.496,0.01603935775347052
2125,00:00:08.5,0.014217763207852872
2126,00:00:08.504,-0.01739874194026924
2127,00:00:08.508,-0.02251603896729646
2128,00:00:08.512,-0.0050645154551602935
2129,00:00:08.516,0.02391303540207448
2130,00:00:08.52,0.011848024616483606
2131,00:00:08.524,-0.00831632665358484
2132,00:00:08.528,-0.007024549180641769
2133,00:00:08.532,-0.01578425608022368
2134,00:00:08.536,0.007826398592442267
2135,00:00:08.54,0.01164066651836037
2136,00:00:08.544,0.00838379748165604
2137,00:00:08.548,0.0018601048795972015
2138,00:00:08.552,0.0047497292980551425
2139,00:00:08.556,-0.01980632473714647
2140,00:00:08.56,-0.01990680675953627
2141,00:00:08.564,-0.0008265593787655295
2142,00:00:08.568,0.02715136564802384
2143,00:00:08.572,-0.0035716453567147307
2144,00:00:08.576,0.0048490909393876696
2145,00:00:08.58,0.019182197283953442
2146,00:00:08.584,-0.007144876406528062
2147,00:00:08.588,-0.033245910657569766
2148,00:00:08.592,-0.007358559232670811
2149,00:00:08.596,0.00898132665315643
2150,00:00:08.6,0.01102966489270329
2151,00:00:08.604,0.0025958644109778106
2152,00:00:08.608,0.01375720743089914
2153,00:00:08.612,0.016316093853674826
2154,00:00:08.616,-0.00794354802928865
2155,00:00:08.62,-0.03797569102607666
2156,00:00:08.624,-0.012764277416863484
2157,00:00:08.628,0.01675091893412176
2158,00:00:08.632,0.025002315640449527
2159,00:00:08.636,-0.01991186069790274
2160,00:00:08.64,0.00475499208550902
2161,00:00:08.644,0.007724465045612312
2162,00:00:08.648,0.011026500491425398
2163,00:00:08.652,-0.012282818422136185
2164,00:00:08.656,-0.02136870566755534
2165,00:00:08.66,0.0009916414273902822
2166,00:00:08.664,0.03032530634664004
2167,00:00:08.668,0.014052794518647722
2168,00:00:08.672,-0.02140151569619776
2169,00:00:08.676,-0.01913870358839635
2170,00:00:08.68,0.0009882544982247046
2171,00:00:08.684,-0.00830729934386909
2172,00:00:08.688,0.008446315070614219
2173,00:00:08.692,0.01928886421956126
2174,00:00:08.696,0.004870133911026646
2175,00:00:08.7,-0.0012411116622388398
2176,00:00:08.704,-0.0016834262060001527
2177,00:00:08.708,-0.012346524337772273
2178,00:00:08.712,-0.01342354773078113
2179,00:00:08.716,0.00861963466741145
2180,00:00:08.72,0.02048629708588125
2181,00:00:08.724,-0.003546614549122749
2182,00:00:08.728,-0.0157264680601656
2183,00:00:08.732,-0.008711875983863141
2184,00:00:08.736,0.009798318613320634
2185,00:00:08.74,0.018050899030640687
2186,00:00:08.744,-0.00034713954664765964
2187,00:00:08.748,-0.012688505463302132
2188,00:00:08.752,-0.01666977821150794
2189,00:00:08.756,0.0011051054461859227
2190,00:00:08.76,0.018932011909782928
2191,00:00:08.764,0.01914525916799905
2192,00:00:08.768,-0.00712234620004898
2193,00:00:08.772,-0.022728524636477235
2194,00:00:08.776,-0.01264900277601555
2195,00:00:08.78,0.00785704702138898
2196,00:00:08.784,0.005939017573837196
2197,00:00:08.788,0.026078539085574483
2198,00:00:08.792,0.01500579155981541
2199,00:00:08.796,-0.03651457111118365
2200,00:00:08.8,-0.02468903979752216
2201,00:00:08.804,0.002152620363631284
2202,00:00:08.808,0.01725912456458903
2203,00:00:08.812,0.008576289750635619
2204,00:00:08.816,0.01354896793782244
2205,00:00:08.82,0.021027162205427916
2206,00:00:08.824,-0.02518756187055255
2207,00:00:08.828,-0.02895518392324451
2208,00:00:08.832,-0.006556325592100648
2209,00:00:08.836,0.004967991146259005
2210,00:00:08.84,0.019519016612321152
2211,00:00:08.844,0.019136689603328712
2212,00:00:08.848,0.005924370459979398
2213,00:00:08.852,-0.02924975985661145
2214,00:00:08.856,-0.010680511011742055
2215,00:00:08.86,0.002972718211822211
2216,00:00:08.864,0.008321544679347433
2217,00:00:08.868,0.007065471174428241
2218,00:00:08.872,0.009106104553211477
2219,00:00:08.876,-0.0006952043622732162
2220,00:00:08.88,-0.01583880587713793
2221,00:00:08.884,-0.0021355404751375318
2222,00:00:08.888,0.0022964030504226806
2223,00:00:08.892,-0.009891562745906418
2224,00:00:08.896,0.01121168234385551
2225,00:00:08.9,0.01835274137556557
2226,00:00:08.904,-0.0014766980893909899
2227,00:00:08.908,-0.01637278194539248
2228,00:00:08.912,-0.007555708289146431
2229,00:00:08.916,-0.0075760665204143065
2230,00:00:08.92,0.01276608952321107
2231,00:00:08.924,0.01766555942595003
2232,00:00:08.928,-0.0005623566685244371
2233,00:00:08.932,-0.012322881259024181
2234,00:00:08.936,-0.005837855394929651
2235,00:00:08.94,-0.0024072517408058004
2236,00:00:08.944,0.008707893546670675
2237,00:00:08.948,0.0006437412230297812
2238,00:00:08.952,-0.0013037747703492399
2239,00:00:08.956,-0.007104787277057769
2240,00:00:08.96,0.010038472129963345
2241,00:00:08.964,0.007633997622178865
2242,00:00:08.968,-0.008238659473136069
2243,00:00:08.972,-0.009691472863778467
2244,00:00:08.976,-0.004178405826678493
2245,00:00:08.98,-0.0002366970293223884
2246,00:00:08.984,0.006940095161553474
2247,00:00:08.988,0.02303773141466085
2248,00:00:08.992,0.02231854107230904
2249,00:00:08.996,-0.02654026146046821
2250,00:00:09,-0.04099510423839098
2251,00:00:09.004,-0.014436058234423389
2252,00:00:09.008,0.02015258464962244
2253,00:00:09.012,0.02475675055757163
2254,00:00:09.016,0.016000896015611943
2255,00:00:09.02,0.002772886597085748
2256,00:00:09.024,-0.013300629798322902
2257,00:00:09.028,-0.010637571453116841
2258,00:00:09.032,0.0006937901489436596
2259,00:00:09.036,-0.006365037848809154
2260,00:00:09.04,-0.004281510919099673
2261,00:00:09.044,0.000744862772990018
2262,00:00:09.048,0.006415559713786935
2263,00:00:09.052,0.0175609709694982
2264,00:00:09.056,-0.0037585976533592103
2265,00:00:09.06,-0.014363133348524588
2266,00:00:09.064,0.01530612411443145
2267,00:00:09.068,0.0006589832773897823
2268,00:00:09.072,-0.02097785915248094
2269,00:00:09.076,-0.011635157978162197
2270,00:00:09.08,0.00915185711346567
2271,00:00:09.084,0.01122071457211855
2272,00:00:09.088,0.010166161577217279
2273,00:00:09.092,0.0109268487431109
2274,00:00:09.096,-0.0012216547038406207
2275,00:00:09.1,-0.02445360668934882
2276,00:00:09.104,-0.0011898837983608213
2277,00:00:09.108,-0.00961249438114465
2278,00:00:09.112,0.0008927513263188296
2279,00:00:09.116,0.015594579745084033
2280,00:00:09.12,0.014631967118475564
2281,00:00:09.124,-0.009240201732609418
2282,00:00:09.128,-0.004731346096377824
2283,00:00:09.132,-0.01026320224627853
2284,00:00:09.136,0.0034437407157383894
2285,00:00:09.14,0.021395744290202863
2286,00:00:09.144,-0.005211269948631527
2287,00:00:09.148,-0.014898431021720174
2288,00:00:09.152,-0.0004808559897355683
2289,00:00:09.156,-0.00742531893774866
2290,00:00:09.16,0.01206878270022572
2291,00:00:09.164,0.017149497056379907
2292,00:00:09.168,-0.005300395772792399
2293,00:00:09.172,-0.019567453298805056
2294,00:00:09.176,-0.01018733461387455
2295,00:00:09.18,0.00876587210223079
2296,00:00:09.184,0.005500217252119911
2297,00:00:09.188,0.01256101718172431
2298,00:00:09.192,0.027951510564889776
2299,00:00:09.196,-0.01877573458477855
2300,00:00:09.2,-0.037245464860461666
2301,00:00:09.204,-0.01526887086220082
2302,00:00:09.208,0.02310148952528834
2303,00:00:09.212,0.025939444079995173
2304,00:00:09.216,0.0035437662154436133
2305,00:00:09.22,-0.02042971772607412
2306,00:00:09.224,-0.01036315306555479
2307,00:00:09.228,0.03236263443250205
2308,00:00:09.232,0.012880432914243988
2309,00:00:09.236,-0.042790734441950945
2310,00:00:09.24,-0.026567035005427925
2311,00:00:09.244,0.011526191781740639
2312,00:00:09.248,0.026984795462340106
2313,00:00:09.252,0.016818564618006328
2314,00:00:09.256,0.00141933537088335
2315,00:00:09.26,-0.012624187045730671
2316,00:00:09.264,0.0018905084580182908
2317,00:00:09.268,-0.009268839814467363
2318,00:00:09.272,-0.00969914684537798
2319,00:00:09.276,0.0003451048978604359
2320,00:00:09.28,-0.0013852740812581006
2321,00:00:09.284,-0.003614331420976666
2322,00:00:09.288,0.02368015469983223
2323,00:00:09.292,0.02289709914475684
2324,00:00:09.296,-0.022190631367266192
2325,00:00:09.3,-0.01880377286579459
2326,00:00:09.304,-0.0036075774987693924
2327,00:00:09.308,0.002713271576794791
2328,00:00:09.312,0.00041148996388073815
2329,00:00:09.316,0.02455993080639023
2330,00:00:09.32,-0.001821694706450216
2331,00:00:09.324,-0.011636961557087488
2332,00:00:09.328,-0.0013194338389439517
2333,00:00:09.332,-0.00668716883228626
2334,00:00:09.336,-0.005602731227327245
2335,00:00:09.34,0.007567050110083071
2336,00:00:09.344,0.01868499530246482
2337,00:00:09.348,0.004227896220982071
2338,00:00:09.352,-0.02117060264572506
2339,00:00:09.356,-0.01054404256865379
2340,00:00:09.36,0.0016347318305633932
2341,00:00:09.364,0.007722764232312338
2342,00:00:09.368,0.00527034523838665
2343,00:00:09.372,0.0013153787003830153
2344,00:00:09.376,0.01957270572893326
2345,00:00:09.38,0.001336959598120299
2346,00:00:09.384,-0.0288233485771343
2347,00:00:09.388,-0.025604941183701213
2348,00:00:09.392,0.0032577032689005197
2349,00:00:09.396,0.02072438457980754
2350,00:00:09.4,0.034743343479931375
2351,00:00:09.404,0.01608527265489101
2352,00:00:09.408,-0.03601199225522575
2353,00:00:09.412,-0.03326967175235038
2354,00:00:09.416,-0.008342783825355582
2355,00:00:09.42,0.013890946691390127
2356,00:00:09.424,0.0329092285974184
2357,00:00:09.428,0.02307395800016823
2358,00:00:09.432,-0.011758648326576826
2359,00:00:09.436,-0.03436019713990391
2360,00:00:09.44,-0.014248070307075998
2361,00:00:09.444,0.009404935233760632
2362,00:00:09.448,0.016018947120755953
2363,00:00:09.452,0.010943351080641182
2364,00:00:09.456,-0.006155288370791828
2365,00:00:09.46,-0.00901367422193284
2366,00:00:09.464,0.0055536282598041015
2367,00:00:09.468,0.0009623080841265562
2368,00:00:09.472,-0.010347973438911136
2369,00:00:09.476,-0.011209455085918339
2370,00:00:09.48,0.014801020693994365
2371,00:00:09.484,0.03651302866637703
2372,00:00:09.488,0.0027606580406427383
2373,00:00:09.492,-0.04230993799865248
2374,00:00:09.496,-0.02984350221231575
2375,00:00:09.5,0.005843427643412728
2376,00:00:09.504,0.035542252007871915
2377,00:00:09.508,-0.00555584055837243
2378,00:00:09.512,0.01261559827253221
2379,00:00:09.516,0.0091443314449862
2380,00:00:09.52,-0.007304026279598469
2381,00:00:09.524,-0.021200885530561174
2382,00:00:09.528,-0.00995121791493147
2383,00:00:09.532,0.007592809619382019
2384,00:00:09.536,0.0037240020465105785
2385,00:00:09.54,0.007331435568630691
2386,00:00:09.544,0.011258603815804236
2387,00:00:09.548,0.011473117861896719
2388,00:00:09.552,-0.01067044935189183
2389,00:00:09.556,-0.030992989195510755
2390,00:00:09.56,-0.011429356032749634
2391,00:00:09.564,0.005128813209012177
2392,00:00:09.568,0.03154477779753502
2393,00:00:09.572,0.015020126011222597
2394,00:00:09.576,0.00517158256843686
2395,00:00:09.58,-0.02420057822018866
2396,00:00:09.584,-0.018286302220076343
2397,00:00:09.588,-0.0011955992085859206
2398,00:00:09.592,0.0012349929238553163
2399,00:00:09.596,0.018519965000450632
2400,00:00:09.6,0.00807316112332046
2401,00:00:09.604,-0.006070139352232218
2402,00:00:09.608,0.001555521506816128
2403,00:00:09.612,-0.0045893192582298105
2404,00:00:09.616,-0.01600249623879789
2405,00:00:09.62,-0.0015526688657700998
2406,00:00:09.624,0.01004231162369252
2407,00:00:09.628,0.009437855274882164
2408,00:00:09.632,0.0017290201503783404
2409,00:00:09.636,0.006675851996988059
2410,00:00:09.64,0.00202201493084431
2411,00:00:09.644,-0.01427087280899286
2412,00:00:09.648,-0.01343026850372549
2413,00:00:09.652,-0.00467514130286873
2414,00:00:09.656,0.00787833845242858
2415,00:00:09.66,0.007816257098056667
2416,00:00:09.664,-0.0003889398649334821
2417,00:00:09.668,0.0019662798149511296
2418,00:00:09.672,0.032655971590429586
2419,00:00:09.676,-0.008639229927212002
2420,00:00:09.68,-0.03473654715344313
2421,00:00:09.684,-0.0154196827206761
2422,00:00:09.688,0.002649815753102339
2423,00:00:09.692,0.0160890944534913
2424,00:00:09.696,0.01643402688205244
2425,00:00:09.7,0.008134509669616822
2426,00:00:09.704,-0.0013654438080265736
2427,00:00:09.708,-0.013266316062072332
2428,00:00:09.712,-0.018383299466222528
2429,00:00:09.716,-0.004983183796866795
2430,00:00:09.72,0.023829177080187964
2431,00:00:09.724,0.03289793292060498
2432,00:00:09.728,-0.0257215327292215
2433,00:00:09.732,-0.0337800945853815
2434,00:00:09.736,0.00493295297201257
2435,00:00:09.74,0.01880183268804105
2436,00:00:09.744,0.000156929061631666
2437,00:00:09.748,-0.001090208417736
2438,00:00:09.752,-0.0009151545673375899
2439,00:00:09.756,-0.00844705943018197
2440,00:00:09.76,0.01464561745524408
2441,00:00:09.764,0.038757851194532095
2442,00:00:09.768,-0.0018144482746720297
2443,00:00:09.772,-0.05630139540880922
2444,00:00:09.776,-0.03584558656439185
2445,00:00:09.78,0.01129115046933293
2446,00:00:09.784,0.026653066743165303
2447,00:00:09.788,0.02769737644121046
2448,00:00:09.792,0.00874607160221786
2449,00:00:09.796,-0.01165384449996054
2450,00:00:09.8,-0.01766666525509213
2451,00:00:09.804,0.007153661805205051
2452,00:00:09.808,0.02446693601086731
2453,00:00:09.812,0.012199236778542379
2454,00:00:09.816,-0.04951436771079901
2455,00:00:09.82,-0.03719071671366691
2456,00:00:09.824,0.006806464982219046
2457,00:00:09.828,0.029636555118486292
2458,00:00:09.832,0.025591902900487185
2459,00:00:09.836,0.01013687311206013
2460,00:00:09.84,-0.010305273317499086
2461,00:00:09.844,-0.004975632647983733
2462,00:00:09.848,0.00504646066110581
2463,00:00:09.852,-0.00650313554797321
2464,00:00:09.856,-0.02307583941728803
2465,00:00:09.86,0.006676735414657736
2466,00:00:09.864,0.0006057886057533237
2467,00:00:09.868,-0.0012702057138085105
2468,00:00:09.872,0.0024693924933671886
2469,00:00:09.876,0.002840974535502031
2470,00:00:09.88,0.02925863629207017
2471,00:00:09.884,0.006981473707128319
2472,00:00:09.888,-0.031462266226299135
2473,00:00:09.892,-0.017422458389774
2474,00:00:09.896,-0.00519246025942266
2475,00:00:09.9,0.012521804630523537
2476,00:00:09.904,0.013269266113638867
2477,00:00:09.908,0.00442541087977589
2478,00:00:09.912,-0.0028170675504952704
2479,00:00:09.916,0.0010397394253232103
2480,00:00:09.92,-0.0034211355959996603
2481,00:00:09.924,0.011123838288767727
2482,00:00:09.928,-0.01747143920511003
2483,00:00:09.932,-0.015498504973948017
2484,00:00:09.936,0.013737382832914556
2485,00:00:09.94,0.014564223180059323
2486,00:00:09.944,-0.0011424724943936218
2487,00:00:09.948,-0.005995981162413941
2488,00:00:09.952,-0.0068186058197170505
2489,00:00:09.956,-0.007811408955603831
2490,00:00:09.96,0.006546965043526142
2491,00:00:09.964,0.00664587784558535
2492,00:00:09.968,0.004644316155463461
2493,00:00:09.972,0.01587901101447642
2494,00:00:09.976,-0.01112927589565516
2495,00:00:09.98,-0.007768525159917771
2496,00:00:09.984,-0.0168149400851689
2497,00:00:09.988,-0.006025271490216254
2498,00:00:09.992,0.01401448619435541
2499,00:00:09.996,0.019367626948223922
2500,00:00:10,-0.0010940206120722013
2501,00:00:10.004,-0.011622639052802697
2502,00:00:10.008,0.003970445097365881
2503,00:00:10.012,-0.00292781693860888
2504,00:00:10.016,-0.003577972433049578
2505,00:00:10.02,-0.0097542570438236
2506,00:00:10.024,0.006629194525885398
2507,00:00:10.028,0.004221089591737842
2508,00:00:10.032,0.0038063910324126486
2509,00:00:10.036,0.012721385806798928
2510,00:00:10.04,-0.01796214119531218
2511,00:00:10.044,0.010699547827243801
2512,00:00:10.048,0.008405751781538129
2513,00:00:10.052,-0.01821743551408872
2514,00:00:10.056,-0.015075936855282624
2515,00:00:10.06,-0.00046390865463762955
2516,00:00:10.064,0.003152331570163364
2517,00:00:10.068,0.02074808950419539
2518,00:00:10.072,0.0092556735035032
2519,00:00:10.076,-0.00219620158895854
2520,00:00:10.08,-0.003650840295449598
2521,00:00:10.084,-0.0009993242565542477
2522,00:00:10.088,-0.025245276861824102
2523,00:00:10.092,-0.01092352392151952
2524,00:00:10.096,0.02174375252798201
2525,00:00:10.1,0.030506803886964896
2526,00:00:10.104,-0.011840956867672548
2527,00:00:10.108,-0.02670209249481563
2528,00:00:10.112,0.010952163080219183
2529,00:00:10.116,0.002285834285430599
2530,00:00:10.12,0.00669279345311224
2531,00:00:10.124,-0.0116274522151798
2532,00:00:10.128,0.009869193891063329
2533,00:00:10.132,0.013354513561353091
2534,00:00:10.136,-0.025710079004056727
2535,00:00:10.14,-0.011961327865719809
2536,00:00:10.144,0.01124265743419528
2537,00:00:10.148,0.006578239132068122
2538,00:00:10.152,0.009628345957025882
2539,00:00:10.156,0.0117513919249177
2540,00:00:10.16,-0.00452568207401783
2541,00:00:10.164,-0.013867654139176011
2542,00:00:10.168,-0.014219986158423141
2543,00:00:10.172,-0.004523847557720731
2544,00:00:10.176,0.004593097713950551
2545,00:00:10.18,0.02297071262728423
2546,00:00:10.184,0.0057897518854588305
2547,00:00:10.188,-0.005500106693943966
2548,00:00:10.192,-0.008713050061487596
2549,00:00:10.196,-0.014515536546241497
2550,00:00:10.2,-6.986514199524988e-05
2551,00:00:10.204,0.020498217316344398
2552,00:00:10.208,0.00492178660351783
2553,00:00:10.212,-0.01543591148220003
2554,00:00:10.216,0.00027346570277586276
2555,00:00:10.22,-0.0009951093234121778
2556,00:00:10.224,0.00548997835721821
2557,00:00:10.228,-0.0012812354834750338
2558,00:00:10.232,-0.00317156384699047
2559,00:00:10.236,0.0065171014284715004
2560,00:00:10.24,0.002935065509518612
2561,00:00:10.244,-0.006227995851077139
2562,00:00:10.248,-0.00849472312256694
2563,00:00:10.252,0.00796310207806527
2564,00:00:10.256,0.00801549362950032
2565,00:00:10.26,7.762596942484119e-05
2566,00:00:10.264,-0.00933035404887047
2567,00:00:10.268,-0.0036532644880935506
2568,00:00:10.272,-0.005824023392051459
2569,00:00:10.276,0.006169984058942645
2570,00:00:10.28,0.0009775362923392038
2571,00:00:10.284,0.0010931664146483005
2572,00:00:10.288,0.01848806021735071
2573,00:00:10.292,0.004673167328292033
2574,00:00:10.296,-0.00714569824049247
2575,00:00:10.3,-0.02345279650762681
2576,00:00:10.304,-0.01289999601431191
2577,00:00:10.308,0.008488512328312927
2578,00:00:10.312,0.01958584028761839
2579,00:00:10.316,-0.0032774763531051533
2580,00:00:10.32,0.0029179845296312098
2581,00:00:10.324,0.0013112077140249286
2582,00:00:10.328,0.004622742882929698
2583,00:00:10.332,-0.008913052093703296
2584,00:00:10.336,-0.01782673527486622
2585,00:00:10.34,0.0082534549292177
2586,00:00:10.344,0.01932312882854605
2587,00:00:10.348,-0.0008490487234666898
2588,00:00:10.352,-0.018144080997444734
2589,00:00:10.356,-0.004963870771462098
2590,00:00:10.36,0.01796495029702779
2591,00:00:10.364,0.009023268416058274
2592,00:00:10.368,-0.00572017696686088
2593,00:00:10.372,-0.017777527158614265
2594,00:00:10.376,-0.004579289059620348
2595,00:00:10.38,0.0010920769709628127
2596,00:00:10.384,0.0161964832514059
2597,00:00:10.388,0.015392902074381713
2598,00:00:10.392,-0.00514533801469952
2599,00:00:10.396,-0.026361142285168147
2600,00:00:10.4,-0.0034734650980681103
2601,00:00:10.404,0.02500478317961102
2602,00:00:10.408,-0.01422592136077583
2603,00:00:10.412,0.004439356300281356
2604,00:00:10.416,0.009649627667386083
2605,00:00:10.42,0.007545227708760654
2606,00:00:10.424,-0.019803709859843338
2607,00:00:10.428,-0.01428435835987333
2608,00:00:10.432,0.018074541520036305
2609,00:00:10.436,0.00532815372571349
2610,00:00:10.44,-0.01226213993504648
2611,00:00:10.444,-0.004377342527732249
2612,00:00:10.448,0.015406599108246148
2613,00:00:10.452,0.006491345586255191
2614,00:00:10.456,-0.008586016454501081
2615,00:00:10.46,-0.0003058297443203654
2616,00:00:10.464,-0.006671880229987436
2617,00:00:10.468,-0.006145741790533061
2618,00:00:10.472,0.023424165789037943
2619,00:00:10.476,0.0001507323468104039
2620,00:00:10.48,-0.0177027340978384
2621,00:00:10.484,-0.007023628335446121
2622,00:00:10.488,0.0027962266467511593
2623,00:00:10.492,0.013095738831907504
2624,00:00:10.496,0.0019044969812966916
2625,00:00:10.5,-0.004650947637856009
2626,00:00:10.504,-0.0031562318908981983
2627,00:00:10.508,0.010169658227823678
2628,00:00:10.512,-0.01253355288645253
2629,00:00:10.516,-0.0005939620314166002
2630,00:00:10.52,0.00740663369651884
2631,00:00:10.524,-0.00525913934689015
2632,00:00:10.528,-0.0024707401680643744
2633,00:00:10.532,0.012574396707350416
2634,00:00:10.536,-0.0038432860164903065
2635,00:00:10.54,-0.005287451873300597
2636,00:00:10.544,0.0022602193675993506
2637,00:00:10.548,-0.0027494501482578848
2638,00:00:10.552,0.0031804121681489085
2639,00:00:10.556,0.001588700557476844
2640,00:00:10.56,0.00117508112452924
2641,00:00:10.564,-0.012198944692499937
2642,00:00:10.568,0.0006568986573256606
2643,00:00:10.572,-0.0024614805006422137
2644,00:00:10.576,0.011033510963898147
2645,00:00:10.58,0.03133063903078432
2646,00:00:10.584,-0.0017476778011769004
2647,00:00:10.588,-0.03987239138223233
2648,00:00:10.592,-0.024257416487671477
2649,00:00:10.596,0.0016482991049997504
2650,00:00:10.6,0.02538883100100976
2651,00:00:10.604,0.026937872404232583
2652,00:00:10.608,0.006675207987427699
2653,00:00:10.612,-0.00798901938833291
2654,00:00:10.616,-0.02337959851138289
2655,00:00:10.62,-0.016970382188446844
2656,00:00:10.624,0.0032440212089568307
2657,00:00:10.628,0.022735491162165968
2658,00:00:10.632,-0.0007398898305837065
2659,00:00:10.636,0.007050594256725127
2660,00:00:10.64,-0.010424275882542132
2661,00:00:10.644,0.0015283568063750898
2662,00:00:10.648,0.01133781764656305
2663,00:00:10.652,-0.01773629500530657
2664,00:00:10.656,-0.01105286669917405
2665,00:00:10.66,1.3705634046344214e-05
2666,00:00:10.664,0.017469208338297928
2667,00:00:10.668,0.008688119123689829
2668,00:00:10.672,0.009921914606820783
2669,00:00:10.676,-0.015223329304717441
2670,00:00:10.68,-0.015898940881015754
2671,00:00:10.684,-0.006213073385879401
2672,00:00:10.688,0.009565086103975776
2673,00:00:10.692,0.0060704160132445395
2674,00:00:10.696,0.010732017137343057
2675,00:00:10.7,0.004574794205836958
2676,00:00:10.704,-0.008980671642348139
2677,00:00:10.708,-0.0005419309018179696
2678,00:00:10.712,-0.017691573011688888
2679,00:00:10.716,-0.007582200312754131
2680,00:00:10.72,0.015735520195448816
2681,00:00:10.724,0.019971435540355714
2682,00:00:10.728,0.002097616204991938
2683,00:00:10.732,-0.012948489747941508
2684,00:00:10.736,-0.018908375466708132
2685,00:00:10.74,-0.0013416124274954104
2686,00:00:10.744,0.02582095330581065
2687,00:00:10.748,0.009060390599188397
2688,00:00:10.752,-0.02132992795668543
2689,00:00:10.756,-0.0047111448366195015
2690,00:00:10.76,-0.0019642969564301893
2691,00:00:10.764,0.005452814715681594
2692,00:00:10.768,0.005606764461845161
2693,00:00:10.772,0.000525374402059241
2694,00:00:10.776,0.0015022163279354503
2695,00:00:10.78,-0.0025246883742511186
2696,00:00:10.784,3.757141530513937e-05
2697,00:00:10.788,0.0016815494745969798
2698,00:00:10.792,-0.013328412140253924
2699,00:00:10.796,0.00317542266566306
2700,00:00:10.8,0.02198446518741552
2701,00:00:10.804,-0.008829729922581462
2702,00:00:10.808,-0.0003674980252981201
2703,00:00:10.812,0.0011563749285414876
2704,00:00:10.816,-0.0212885608925717
2705,00:00:10.82,-0.0012706365669146102
2706,00:00:10.824,0.004346908623119818
2707,00:00:10.828,0.02142027171794325
2708,00:00:10.832,0.00031616073101758567
2709,00:00:10.836,-0.010326056042686119
2710,00:00:10.84,-0.00969802844338119
2711,00:00:10.844,0.00488285045139495
2712,00:00:10.848,0.0135152053553611
2713,00:00:10.852,0.002084032166749239
2714,00:00:10.856,0.001080629299394789
2715,00:00:10.86,-0.00622338475659489
2716,00:00:10.864,-0.019038859056308848
2717,00:00:10.868,-0.002056504345091525
2718,00:00:10.872,0.009235004195943478
2719,00:00:10.876,0.002399970660917461
2720,00:00:10.88,0.0095629480201751
2721,00:00:10.884,0.003983083297498526
2722,00:00:10.888,-0.010867992474231872
2723,00:00:10.892,-0.00582528463564813
2724,00:00:10.896,0.01409285806585103
2725,00:00:10.9,-0.0005680797039531362
2726,00:00:10.904,0.0008901898982003301
2727,00:00:10.908,-0.012321502945269456
2728,00:00:10.912,-0.014648631855379785
2729,00:00:10.916,0.01836807047948245
2730,00:00:10.92,0.0071037074085325
2731,00:00:10.924,-5.710357800126076e-05
2732,00:00:10.928,-0.007278521632542827
2733,00:00:10.932,-0.0033614903222769542
2734,00:00:10.936,0.007615496171638363
2735,00:00:10.94,0.016103202826343484
2736,00:00:10.944,-0.02422771556302903
2737,00:00:10.948,-0.014763431754545307
2738,00:00:10.952,0.013523220201022871
2739,00:00:10.956,0.008905399125069376
2740,00:00:10.96,0.01611042395234108
2741,00:00:10.964,-0.0040886367787606945
2742,00:00:10.968,-0.024556779535487322
2743,00:00:10.972,-0.00642946094740182
2744,00:00:10.976,0.008055686019361021
2745,00:00:10.98,0.007591323228552939
2746,00:00:10.984,-0.0010838322632480463
2747,00:00:10.988,0.015857380189117937
2748,00:00:10.992,0.006144863436929882
2749,00:00:10.996,-0.01846645539626478
2750,00:00:11,-0.013760367233771798
2751,00:00:11.004,0.00024134072009473389
2752,00:00:11.008,0.004352616451797076
2753,00:00:11.012,0.010515293513890352
2754,00:00:11.016,-0.001082542381482196
2755,00:00:11.02,0.00047150926548056283
2756,00:00:11.024,0.0064625200907357785
2757,00:00:11.028,-0.0023169910928118134
2758,00:00:11.032,-0.00990987235127249
2759,00:00:11.036,-0.0089617078192532
2760,00:00:11.04,0.017988649662584042
2761,00:00:11.044,0.00023746790247969893
2762,00:00:11.048,-0.007215171004645532
2763,00:00:11.052,-0.00826488147140481
2764,00:00:11.056,0.002479223032423756
2765,00:00:11.06,0.006320740736555308
2766,00:00:11.064,0.0028645013226196074
2767,00:00:11.068,0.011784808477386829
2768,00:00:11.072,-0.0035018586258956964
2769,00:00:11.076,-0.01293884229380638
2770,00:00:11.08,-0.0008315802551805906
2771,00:00:11.084,-0.007074016553815461
2772,00:00:11.088,0.006439391669118775
2773,00:00:11.092,0.0002872347831725996
2774,00:00:11.096,0.0019849195959977858
2775,00:00:11.1,0.005355264758691193
2776,00:00:11.104,0.021221161819994422
2777,00:00:11.108,-0.02092473069205876
2778,00:00:11.112,-0.0261236508376896
2779,00:00:11.116,0.0133810951374471
2780,00:00:11.12,0.0231446937250439
2781,00:00:11.124,-0.005299341806676242
2782,00:00:11.128,-0.012587688630446788
2783,00:00:11.132,-0.012131683062762019
2784,00:00:11.136,0.00982123939320446
2785,00:00:11.14,0.0021737483330071007
2786,00:00:11.144,-0.0027886625830433375
2787,00:00:11.148,0.01409663911908865
2788,00:00:11.152,0.026116044959053373
2789,00:00:11.156,-0.014375032857060429
2790,00:00:11.16,-0.02878487994894382
2791,00:00:11.164,-0.011833311000373221
2792,00:00:11.168,-0.0004407537635415801
2793,00:00:11.172,0.018944076786283452
2794,00:00:11.176,0.00923892552964389
2795,00:00:11.18,-0.006449488108046351
2796,00:00:11.184,0.00333544425666332
2797,00:00:11.188,0.0026874177856370807
2798,00:00:11.192,0.00555347441695631
2799,00:00:11.196,0.003657779656350611
2800,00:00:11.2,-0.017678442789474485
2801,00:00:11.204,-0.02235166332684456
2802,00:00:11.208,0.011739157373085611
2803,00:00:11.212,0.01976272603496906
2804,00:00:11.216,-0.0025274099316448017
2805,00:00:11.22,0.00376510934438556
2806,00:00:11.224,-0.0027762133395299203
2807,00:00:11.228,-0.004746543534565717
2808,00:00:11.232,-0.01170972204999998
2809,00:00:11.236,0.00284576567355544
2810,00:00:11.24,0.007441500783897938
2811,00:00:11.244,0.005616275360807809
2812,00:00:11.248,0.00987040542531754
2813,00:00:11.252,-0.005435489001683885
2814,00:00:11.256,-0.02174714673310519
2815,00:00:11.26,0.00773596577346326
2816,00:00:11.264,0.010907392366789281
2817,00:00:11.268,-0.00612965284381062
2818,00:00:11.272,0.001180938910692932
2819,00:00:11.276,-0.001609340193681424
2820,00:00:11.28,-0.005476640129927549
2821,00:00:11.284,-0.006523091986309743
2822,00:00:11.288,0.005689109500963236
2823,00:00:11.292,0.00713977811392397
2824,00:00:11.296,0.02674934722017493
2825,00:00:11.3,0.00958959967829287
2826,00:00:11.304,-0.0413922150619328
2827,00:00:11.308,-0.022262389771640266
2828,00:00:11.312,0.0076291983714327286
2829,00:00:11.316,0.00637423328589648
2830,00:00:11.32,0.011946528320549992
2831,00:00:11.324,0.0008743560174480098
2832,00:00:11.328,0.016983398701995576
2833,00:00:11.332,0.00017081206897273963
2834,00:00:11.336,-0.004833747865632179
2835,00:00:11.34,-0.00949734821915628
2836,00:00:11.344,-0.010578550165519111
2837,00:00:11.348,-0.0059057993348687905
2838,00:00:11.352,0.0026671979576349206
2839,00:00:11.356,0.0030868889880366615
2840,00:00:11.36,0.008561717433622123
2841,00:00:11.364,0.00848965533077716
2842,00:00:11.368,0.0036854048375971667
2843,00:00:11.372,-0.008021754125365993
2844,00:00:11.376,-0.003173754041199574
2845,00:00:11.38,-0.00656730541959405
2846,00:00:11.384,-0.00398999964818357
2847,00:00:11.388,0.008722852449864149
2848,00:00:11.392,0.0018139514431822924
2849,00:00:11.396,0.006150716682896024
2850,00:00:11.4,0.004154021793510761
2851,00:00:11.404,-0.012927447256515779
2852,00:00:11.408,-0.010875613777898249
2853,00:00:11.412,-0.00640652200672775
2854,00:00:11.416,0.010775964590720829
2855,00:00:11.42,0.014610974263632698
2856,00:00:11.424,0.02310765977017579
2857,00:00:11.428,-0.01804444892331954
2858,00:00:11.432,-0.01968957390636202
2859,00:00:11.436,-0.0033963200985453945
2860,00:00:11.44,-0.0003092426341027104
2861,00:00:11.444,-0.0011806228430941692
2862,00:00:11.448,0.01884429797064511
2863,00:00:11.452,0.007767807517666363
2864,00:00:11.456,-0.0009966469369828796
2865,00:00:11.46,-0.00975128565914929
2866,00:00:11.464,-0.008315121056512
2867,00:00:11.468,-0.007102902047336101
2868,00:00:11.472,0.00572124554309994
2869,00:00:11.476,-0.0011784327216446608
2870,00:00:11.48,0.00541972112841904
2871,00:00:11.484,0.014532438915921372
2872,00:00:11.488,0.0015045394829939999
2873,00:00:11.492,-0.01098484417889266
2874,00:00:11.496,-0.00423634995240718
2875,00:00:11.5,-0.00578865938587114
2876,00:00:11.504,-0.00039343278331216685
2877,00:00:11.508,0.005911586689762768
2878,00:00:11.512,0.0005593309178948402
2879,00:00:11.516,0.003166951020830318
2880,00:00:11.52,0.01013427018187941
2881,00:00:11.524,5.488384340423809e-05
2882,00:00:11.528,-0.020299994619563222
2883,00:00:11.532,-0.01133748132269829
2884,00:00:11.536,0.021176177542656632
2885,00:00:11.54,0.01515515218488869
2886,00:00:11.544,-0.014156024932162833
2887,00:00:11.548,-0.009786739246919779
2888,00:00:11.552,0.0005643019685521678
2889,00:00:11.556,-0.006345572270220146
2890,00:00:11.56,0.005078336165752265
2891,00:00:11.564,0.027971441857516807
2892,00:00:11.568,-0.01106626167893409
2893,00:00:11.572,-0.011254557641223076
2894,00:00:11.576,-0.00013685785233975194
2895,00:00:11.58,-0.00019696116214618542
2896,00:00:11.584,-0.0033486352767795307
2897,00:00:11.588,0.0011056974326493193
2898,00:00:11.592,0.01037206541514024
2899,00:00:11.596,0.01453968090936542
2900,00:00:11.6,-0.006696041673421856
2901,00:00:11.604,-0.02007051440887151
2902,00:00:11.608,-0.012541701318696103
2903,00:00:11.612,0.006197162030730401
2904,00:00:11.616,0.0022891084663569914
2905,00:00:11.62,0.004786943027284003
2906,00:00:11.624,0.01624147199618163
2907,00:00:11.628,0.015048571629449722
2908,00:00:11.632,-0.008098507765680548
2909,00:00:11.636,-0.017697099596262
2910,00:00:11.64,-0.01792635745368898
2911,00:00:11.644,1.0479707270860672e-05
2912,00:00:11.648,0.007802795153111221
2913,00:00:11.652,0.01672265108209101
2914,00:00:11.656,0.007721816262346699
2915,00:00:11.66,-0.004726813058368861
2916,00:00:11.664,-0.0035441958752926387
2917,00:00:11.668,-0.015472129744011867
2918,00:00:11.672,0.001256053772522136
2919,00:00:11.676,0.010236532107228429
2920,00:00:11.68,-0.00128735235193744
2921,00:00:11.684,-0.0018640975467860942
2922,00:00:11.688,0.004320914013078434
2923,00:00:11.692,-0.004601482829457382
2924,00:00:11.696,0.0020849223947152504
2925,00:00:11.7,0.012220452656038105
2926,00:00:11.704,-0.00581061118282377
2927,00:00:11.708,-0.02179373009130359
2928,00:00:11.712,-0.010122582083567979
2929,00:00:11.716,0.02155180438421667
2930,00:00:11.72,0.02989685581997038
2931,00:00:11.724,-0.004261536290869115
2932,00:00:11.728,-0.02068760828115048
2933,00:00:11.732,-0.0202003591693938
2934,00:00:11.736,0.0019072721479460502
2935,00:00:11.74,0.01718280941713602
2936,00:00:11.744,0.008224083489039911
2937,00:00:11.748,-0.0023454370675608494
2938,00:00:11.752,-0.006758015369996429
2939,00:00:11.756,-0.0011995240201940751
2940,00:00:11.76,0.0008442598627880302
2941,00:00:11.764,-0.0031160290818661503
2942,00:00:11.768,0.0023924403212731713
2943,00:00:11.772,0.011458258246420881
2944,00:00:11.776,-0.00631818186957389
2945,00:00:11.78,-0.008929948031436655
2946,00:00:11.784,0.012373938923701651
2947,00:00:11.788,-0.00409848371054977
2948,00:00:11.792,-0.0165828256867826
2949,00:00:11.796,0.013499038759619001
2950,00:00:11.8,-0.006840470246970652
2951,00:00:11.804,0.00888792099431157
2952,00:00:11.808,0.0020348817342892302
2953,00:00:11.812,0.00557813397608698
2954,00:00:11.816,-0.0031485902145504995
2955,00:00:11.82,-0.01007413980551063
2956,00:00:11.824,-0.00036128877400188534
2957,00:00:11.828,8.576961408834904e-05
2958,00:00:11.832,-0.0003993556019850021
2959,00:00:11.836,0.004219435446429996
2960,00:00:11.84,0.0053417238523252265
2961,00:00:11.844,0.0007711171710980125
2962,00:00:11.848,-0.009056274895556281
2963,00:00:11.852,0.006486478901933884
2964,00:00:11.856,-0.0033459393307566625
2965,00:00:11.86,-0.00523024401627481
2966,00:00:11.864,0.0017167149344459202
2967,00:00:11.868,0.00137423875275999
2968,00:00:11.872,0.00638030609115958
2969,00:00:11.876,0.00011560227721929984
2970,00:00:11.88,-0.0023620356805622196
2971,00:00:11.884,-0.0023158312542364
2972,00:00:11.888,-0.0032188650220632553
2973,00:00:11.892,0.0020357242901809553
2974,00:00:11.896,0.004445902945008133
2975,00:00:11.9,-0.005159141903277494
2976,00:00:11.904,0.0019423537887632769
2977,00:00:11.908,0.0021608690149150776
2978,00:00:11.912,0.012832994776545087
2979,00:00:11.916,-0.012857719324529171
2980,00:00:11.92,-0.013250077478005547
2981,00:00:11.924,-0.0020068435696884916
2982,00:00:11.928,0.00854274292942136
2983,00:00:11.932,0.0042176908173132644
2984,00:00:11.936,0.00761059974320233
2985,00:00:11.94,0.006466758728493005
2986,00:00:11.944,-0.01312590180896223
2987,00:00:11.948,-0.00018548732623460164
2988,00:00:11.952,0.0029434703756123833
2989,00:00:11.956,-0.00890232133679092
2990,00:00:11.96,-0.0013156178465578748
2991,00:00:11.964,0.0035740983439609296
2992,00:00:11.968,0.01484580070246011
2993,00:00:11.972,-0.00509070651605726
2994,00:00:11.976,-0.007815663935616569
2995,00:00:11.98,-0.005867167026735845
2996,00:00:11.984,-0.00148579617962241
2997,00:00:11.988,0.012696527293883271
2998,00:00:11.992,0.0023489077575504797
2999,00:00:11.996,-0.00028072623535990975
3000,00:00:12,-0.005150200871867131
3001,00:00:12.004,-0.01194239687174559
3002,00:00:12.008,0.0031758821569383205
3003,00:00:12.012,0.016204922925680917
3004,00:00:12.016,0.012451419606804851
3005,00:00:12.02,-0.00443460710812359
3006,00:00:12.024,-0.03428595955483615
3007,00:00:12.028,-0.00256047816947102
3008,00:00:12.032,0.013353274684050117
3009,00:00:12.036,0.009977438836358491
3010,00:00:12.04,0.002506803488358852
3011,00:00:12.044,-0.002456078058457933
3012,00:00:12.048,0.0005519259721040698
3013,00:00:12.052,7.437955355271697e-05
3014,00:00:12.056,0.003111337893642481
3015,00:00:12.06,0.0007641847259947111
3016,00:00:12.064,-0.01455844659358264
3017,00:00:12.068,0.00025664677377789996
3018,00:00:12.072,0.01092123973648996
3019,00:00:12.076,2.7684378437700056e-05
3020,00:00:12.08,-0.005485317902639512
3021,00:00:12.084,-0.0006998869357630699
3022,00:00:12.088,-0.007277779746800659
3023,00:00:12.092,0.0069950557081028845
3024,00:00:12.096,0.007149640121497214
3025,00:00:12.1,0.0003111885162070402
3026,00:00:12.104,0.0022040066396584674
3027,00:00:12.108,-0.005915875080972912
3028,00:00:12.112,-0.00234488118439912
3029,00:00:12.116,0.0057002771645784395
3030,00:00:12.12,-0.011757434520404777
3031,00:00:12.124,0.0017257573199458394
3032,00:00:12.128,0.005049249390140175
3033,00:00:12.132,0.00344161805696785
3034,00:00:12.136,0.00272446672897785
3035,00:00:12.14,-0.0032617930555716235
3036,00:00:12.144,0.000707546540070326
3037,00:00:12.148,-0.00747084442991763
3038,00:00:12.152,-0.007062627468258138
3039,00:00:12.156,0.01273045246489346
3040,00:00:12.16,0.004085264168679722
3041,00:00:12.164,-0.0009388276375830193
3042,00:00:12.168,-0.0006322234403342095
3043,00:00:12.172,-0.00012158474419266029
3044,00:00:12.176,-0.010736060154158622
3045,00:00:12.18,-0.0034567921538837237
3046,00:00:12.184,0.012680767202255076
3047,00:00:12.188,0.003199777886038642
3048,00:00:12.192,-0.005637168535031376
3049,00:00:12.196,-0.00291175977326929
3050,00:00:12.2,0.00732762413099408
3051,00:00:12.204,0.005161711684195332
3052,00:00:12.208,-0.008610220458649568
3053,00:00:12.212,-0.008572371210902943
3054,00:00:12.216,0.009675521927420055
3055,00:00:12.22,-0.0029456159099936503
3056,00:00:12.224,0.0017091085901483902
3057,00:00:12.228,0.00517077557742596
3058,00:00:12.232,-0.008589548990130431
3059,00:00:12.236,-0.01086263416800648
3060,00:00:12.24,0.005693027749657629
3061,00:00:12.244,0.013887616922147579
3062,00:00:12.248,0.014745266642421491
3063,00:00:12.252,-0.0040194916073232915
3064,00:00:12.256,-0.019047223206143826
3065,00:00:12.26,-0.00944996043108403
3066,00:00:12.264,-0.005969265766907481
3067,00:00:12.268,0.003258047101553533
3068,00:00:12.272,0.019009340787306428
3069,00:00:12.276,0.006678220350295299
3070,00:00:12.28,0.0006857836851850204
3071,00:00:12.284,0.0035495532210916302
3072,00:00:12.288,-0.018255176837556068
3073,00:00:12.292,-0.013137438800185912
3074,00:00:12.296,0.011474248312879354
3075,00:00:12.3,0.005964012583717709
3076,00:00:12.304,-0.004337177757406609
3077,00:00:12.308,0.0012180719349999007
3078,00:00:12.312,0.01779035059735179
3079,00:00:12.316,-0.007344728335738184
3080,00:00:12.32,-0.01515002967789769
3081,00:00:12.324,0.0066325573861831305
3082,00:00:12.328,-0.0018885097233578615
3083,00:00:12.332,-0.0103647542418912
3084,00:00:12.336,0.006037903483957061
3085,00:00:12.34,0.0062730635618208925
3086,00:00:12.344,0.0042469690088182705
3087,00:00:12.348,0.005310747335897764
3088,00:00:12.352,-0.0032091774919535973
3089,00:00:12.356,-0.005554845993174236
3090,00:00:12.36,-0.003947583221815884
3091,00:00:12.364,0.0010100940271513493
3092,00:00:12.368,0.0012643665686482572
3093,00:00:12.372,-0.003703515358211009
3094,00:00:12.376,-0.0003016767950612142
3095,00:00:12.38,0.0029078504303470297
3096,00:00:12.384,0.009675119072198826
