Elapsed Time,EMG1,EMG2,EMG3,BioRadio Event,
00:00:00,0.786720633506775,-0.03943981975317,3.1302764415741,0,
00:00:00.004,-0.74657142162323,0.0396069064736366,-2.98086190223694,0,
00:00:00.008,-0.624309599399567,0.0292234942317009,-2.4763011932373,0,
00:00:00.012,-0.0708153918385506,-0.000354092539055273,-0.263356626033783,0,
00:00:00.016,0.323270678520203,-0.0142136830836535,1.27266359329224,0,
00:00:00.02,0.387906581163406,-0.0191160291433334,1.55108058452606,0,
00:00:00.024,0.242597579956055,-0.00464916648343205,0.947045207023621,0,
00:00:00.028,0.0302293598651886,-0.00199666852131486,0.117778040468693,0,
00:00:00.032,-0.117718629539013,-0.00238533574156463,-0.454880267381668,0,
00:00:00.036,-0.151844665408134,0.0080497432500124,-0.60986191034317,0,
00:00:00.04,-0.117048598825932,0.00332602486014366,-0.454378426074982,0,
00:00:00.044,-0.0416543632745743,0.000762550218496472,-0.168558210134506,0,
00:00:00.048,0.0207184385508299,0.00827606394886971,0.0639335215091705,0,
00:00:00.052,0.0413421168923378,-0.00574296712875366,0.180722877383232,0,
00:00:00.056,0.0397259667515755,-0.00401434535160661,0.163779929280281,0,
00:00:00.06,0.0269271619617939,0.0128810210153461,0.0893836542963982,0,
00:00:00.064,0.00330713880248368,0.00951363891363144,0.0040526045486331,0,
00:00:00.068,-0.0151047306135297,-0.017000038176775,-0.0415950492024422,0,
00:00:00.072,-0.0170421898365021,-0.0230556204915047,-0.0546753257513046,0,
00:00:00.076,-0.0121991690248251,-0.00186580023728311,-0.0460624657571316,0,
00:00:00.08,0.0045242109335959,0.0220115650445223,-0.00597537076100707,0,
00:00:00.084,0.00170811789575964,0.00781435985118151,0.00415767263621092,0,
00:00:00.088,0.00239574140869081,-0.00635134615004063,0.0176656171679497,0,
00:00:00.092,-0.00347114307805896,0.00459643732756376,0.0195398889482021,0,
00:00:00.096,0.0079000536352396,0.00149532791692764,0.00737754162400961,0,
00:00:00.1,0.0117704514414072,-0.00517383869737387,0.00277753127738833,0,
00:00:00.104,-0.00800156593322754,-0.00891935266554356,0.00506420200690627,0,
00:00:00.108,-0.00859703868627548,0.00427816621959209,-0.0206035953015089,0,
00:00:00.112,0.00114486832171679,0.00226376764476299,-0.0171172246336937,0,
00:00:00.116,-1.05418612292851E-05,0.000838960171677172,-0.0018218649784103,0,
00:00:00.12,-0.00157587160356343,-0.00415627751499414,0.0110064269974828,0,
00:00:00.124,-0.00118073681369424,0.00152792688459158,0.00899354927241802,0,
00:00:00.128,0.00655213743448257,0.00283999275416136,0.00728248991072178,0,
00:00:00.132,0.00606127316132188,0.00379235995933414,0.000977658899500966,0,
00:00:00.136,-0.00036809517769143,0.00428040651604533,-0.00374679523520172,0,
00:00:00.14,-0.00455965613946319,0.00380417425185442,-0.00703750038519502,0,
00:00:00.144,-0.00685801170766354,-0.0161798372864723,0.000594329030718654,0,
00:00:00.148,-0.00258461316116154,-0.0186173748224974,-0.00133607268799096,0,
00:00:00.152,-0.000334066920913756,0.00653162924572825,-0.000541353248991072,0,
00:00:00.156,0.00553777860477567,0.0199774242937565,-0.00348375574685633,0,
00:00:00.16,0.00253648078069091,0.00815226696431637,0.0010404100175947,0,
00:00:00.164,0.00545416958630085,-0.0104571348056197,0.00829986110329628,0,
00:00:00.168,-0.00157707009930164,-0.00298200431279838,0.0124306390061975,0,
00:00:00.172,-0.00579310953617096,0.00859637744724751,-0.00515714567154646,0,
00:00:00.176,0.00119894417002797,-0.00276082661002874,-0.0167224034667015,0,
00:00:00.18,0.000794505816884339,-0.00791372731328011,-0.00574353383854032,0,
00:00:00.184,-0.00490582780912519,-0.00400676531717181,0.00298312632367015,0,
00:00:00.188,-0.00150832033250481,-0.00107576698064804,0.00635957811027765,0,
00:00:00.192,0.00433384347707033,0.00142331793904305,0.00316491606645286,0,
00:00:00.196,0.00771228922531009,0.00903122127056122,0.00201200810261071,0,
00:00:00.2,-0.00517304334789515,0.00518505368381739,-0.00127610156778246,0,
00:00:00.204,-0.00252921180799603,0.00147012178786099,0.00777395581826568,0,
00:00:00.208,-0.00471992697566748,-0.00588674191385508,0.000749935861676931,0,
00:00:00.212,0.0086088553071022,-0.00567092699930072,-0.00781787279993296,0,
00:00:00.216,0.0001203047359013,-0.00030667003011331,-0.0111446203663945,0,
00:00:00.22,-0.00236300774849951,-0.00121049873996526,-0.000563519075512886,0,
00:00:00.224,-0.00185607187449932,0.000650590925943106,0.00277702463790774,0,
00:00:00.228,-0.00256508379243314,-0.00215839268639684,0.00526313064619899,0,
00:00:00.232,0.000450988271040842,0.00592842977494001,0.00254133809357882,0,
00:00:00.236,0.00658281473442912,0.00433283159509301,0.00813806522637606,0,
00:00:00.24,0.00258784578181803,0.000333529431372881,0.00536287669092417,0,
00:00:00.244,-0.00613256031647325,-0.00444986764341593,-0.011011010967195,0,
00:00:00.248,0.000217787091969512,0.00118326465599239,-0.00771724851801991,0,
00:00:00.252,-0.0016314786626026,0.00200679269619286,-0.0069340062327683,0,
00:00:00.256,-0.000579040613956749,-0.00367006985470653,0.00106719031464309,0,
00:00:00.26,0.00279667577706277,-0.00762626016512513,0.00829285476356745,0,
00:00:00.264,-0.00281316717155278,-0.00537194963544607,0.00438493583351374,0,
00:00:00.268,-0.00492424611002207,-9.38029843382537E-05,0.0058354064822197,0,
00:00:00.272,0.0139651708304882,0.0353547222912312,-0.00430522160604596,0,
00:00:00.276,0.00396948959678411,-0.00325809489004314,-0.00269696256145835,0,
00:00:00.28,-0.0127691375091672,-0.0192612037062645,0.000165955367265269,0,
00:00:00.284,-0.00320983049459755,-0.00993009749799967,-0.000905598921235651,0,
00:00:00.288,-0.00254784105345607,-0.00660101184621453,-0.00577975576743484,0,
00:00:00.292,0.00886106491088867,0.0129595035687089,0.000692584144417197,0,
00:00:00.296,0.00540724908933043,0.0106368763372302,0.00510598812252283,0,
00:00:00.3,-0.00473908195272088,-0.00386161915957928,-0.00144691357854754,0,
00:00:00.304,-0.0020188526250422,-0.00403702771291137,0.00138968124520034,0,
00:00:00.308,-0.000646136875730008,0.00545904925093055,0.0031881108880043,0,
00:00:00.312,5.04522868141066E-05,0.0100439125671983,-0.0040608081035316,0,
00:00:00.316,0.000337806501192972,-0.00873696897178888,-0.000457403599284589,0,
00:00:00.32,0.000359319383278489,-0.0191378444433212,0.000550586904864758,0,
00:00:00.324,0.00231420062482357,-0.00351565075106919,-0.00162689294666052,0,
00:00:00.328,-0.00396684277802706,0.0115845026448369,-1.81832892849343E-05,0,
00:00:00.332,0.00237920065410435,-0.000225251686060801,0.00760173425078392,0,
00:00:00.336,-0.00266321492381394,0.00703264214098454,-0.000271062948741019,0,
00:00:00.34,0.00336039368994534,0.0160444974899292,-0.0102044474333525,0,
00:00:00.344,-0.000358036311808974,-0.000470871280413121,-0.00407430436462164,0,
00:00:00.348,-0.00309228617697954,-0.0125280963256955,0.0133870895951986,0,
00:00:00.352,0.00353254354558885,-0.0193947926163673,-7.77065451984527E-06,0,
00:00:00.356,-0.00232172780670226,-0.00460484810173512,-0.00368265900760889,0,
00:00:00.36,-0.00117970642168075,0.0144722471013665,0.00140609405934811,0,
00:00:00.364,0.00503081874921918,0.0204489082098007,-0.00456067640334368,0,
00:00:00.368,0.00189297017641366,-0.00449845334514976,-0.00235754810273647,0,
00:00:00.372,-0.00808124244213104,-0.0141892824321985,-0.003147401381284,0,
00:00:00.376,0.00273365550674498,-0.00253417994827032,0.0065960455685854,0,
00:00:00.38,0.00054439838277176,0.00435122055932879,0.00560938008129597,0,
00:00:00.384,0.00196265941485763,0.00307053164578974,-0.000734706525690854,0,
00:00:00.388,-0.00415819836780429,-0.00391452386975288,-0.00210922281257808,0,
00:00:00.392,0.00246401876211166,0.00459497980773449,0.000553082034457475,0,
00:00:00.396,-0.00243646930903196,-0.0064577772282064,0.00577993644401431,0,
00:00:00.4,-0.000586351845413446,-0.00440045772120357,-0.00733889965340495,0,
00:00:00.404,0.00576187623664737,0.0132180713117123,-0.0083616329357028,0,
00:00:00.408,-0.00180300197098404,0.0025374973192811,0.000838376698084176,0,
00:00:00.412,8.7109008745756E-05,-0.00513354782015085,0.00231118826195598,0,
00:00:00.416,0.00185737118590623,0.0040358635596931,0.00799293164163828,0,
00:00:00.42,-0.00267683528363705,-0.00279098725877702,0.00349411298520863,0,
00:00:00.424,-0.00444695819169283,-0.0195768550038338,-0.00379019556567073,0,
00:00:00.428,0.00349018163979054,0.0083128996193409,-0.00202223425731063,0,
00:00:00.432,0.00262167165055871,0.0109294299036264,-0.00585908768698573,0,
00:00:00.436,-0.00418493850156665,0.000430132611654699,0.000751767714973539,0,
00:00:00.44,0.000294372061034665,0.00021255380124785,0.00294480053707957,0,
00:00:00.444,-0.00047643855214119,-0.00535452319309115,0.00240520387887955,0,
00:00:00.448,0.00316532840952277,0.00206816080026329,-0.00121292180847377,0,
00:00:00.452,0.00191540515515953,0.00590484542772174,0.00151806324720383,0,
00:00:00.456,0.00183366180863231,-0.00423435540869832,0.000610349874477834,0,
00:00:00.46,0.000691935536451638,-0.000619554310105741,-0.000735687150154263,0,
00:00:00.464,-0.0112568782642484,-0.00572870532050729,-0.00128359987866133,0,
00:00:00.468,-0.00239262240938842,-0.00430534966289997,-0.000996678834781051,0,
00:00:00.472,0.00575276277959347,-0.000270969641860574,-0.000333478616084903,0,
00:00:00.476,0.00521590141579509,0.00920103397220373,-0.00390645116567612,0,
00:00:00.48,-0.000300899293506518,0.0125805418938398,-0.00177123548928648,0,
00:00:00.484,-0.00125511980149895,-0.00535195833072066,0.0117400931194425,0,
00:00:00.488,0.0137614943087101,-0.0102924099192023,0.00769169395789504,0,
00:00:00.492,-0.0160887911915779,-0.00674540037289262,0.00779187073931098,0,
00:00:00.496,-0.00734985945746303,0.0055223093368113,-0.0240747276693583,0,
00:00:00.5,-0.00147562811616808,0.0039323284290731,-0.0176775641739368,0,
00:00:00.504,0.00441667856648564,0.00226461258716881,0.00698634004220366,0,
00:00:00.508,0.00813265237957239,0.00675698928534985,0.0083239795640111,0,
00:00:00.512,0.00626177387312055,-0.00666233757510781,0.00805246084928513,0,
00:00:00.516,-0.00680503901094198,-0.00823167525231838,0.00480626011267304,0,
00:00:00.52,-0.0010085126850754,0.0045491699129343,0.00268304068595171,0,
00:00:00.524,0.00806880183517933,0.0142252743244171,-0.00230327364988625,0,
00:00:00.528,-0.010597113519907,-0.0117882462218404,-0.00280778389424086,0,
00:00:00.532,-0.00740016670897603,-0.0145667875185609,-0.00627022748813033,0,
00:00:00.536,0.00457796268165112,0.00240427441895008,-0.00360070494934917,0,
00:00:00.54,0.00119820679537952,0.00612655654549599,0.000203343515750021,0,
00:00:00.544,0.00623426260426641,0.00865499582141638,0.000436128786532208,0,
00:00:00.548,-0.00148640666157007,0.00609285198152065,0.000602961052209139,0,
00:00:00.552,-0.00173754885327071,-0.0052103535272181,0.00936821475625038,0,
00:00:00.556,0.00182283262256533,-0.0117777651175857,0.00801484752446413,0,
00:00:00.56,0.000798557652160525,0.00778045551851392,-0.00872543919831514,0,
00:00:00.564,-0.000809522287454456,0.00576532632112503,-0.0108536509796977,0,
00:00:00.568,-0.00147393473889679,-0.00482221879065037,-0.0011246504727751,0,
00:00:00.572,0.000932337658014148,-0.000402980629587546,0.00357649731449783,0,
00:00:00.576,-0.00441720942035317,-0.00298794312402606,0.00412986567243934,0,
00:00:00.58,0.000642656348645687,0.000468336686026305,0.000345919019309804,0,
00:00:00.584,0.00207243510521948,0.000554834550712258,0.000200300986762159,0,
00:00:00.588,0.003634117776528,-0.00823821779340506,0.00253360345959663,0,
00:00:00.592,0.000560069107450545,0.0160753708332777,0.000396186544094235,0,
00:00:00.596,-0.00608487334102392,-0.00757186580449343,0.0024837045930326,0,
00:00:00.6,-0.000546271912753582,-0.00181781325954944,-0.00406496552750468,0,
00:00:00.604,0.00382038974203169,0.00105140334926546,-0.00669740187004209,0,
00:00:00.608,-0.00223035574890673,-0.000463855511043221,-0.00434094946831465,0,
00:00:00.612,0.00122352631296963,0.000839679734781384,0.00616289209574461,0,
00:00:00.616,0.00137214222922921,0.00363634945824742,0.00345941912382841,0,
00:00:00.62,0.000384804705390707,0.00124922150280327,-0.000551744305994362,0,
00:00:00.624,-0.000487929122755304,0.000731162319425493,0.00204357388429344,0,
00:00:00.628,-0.0028714754153043,-0.00429577333852649,0.00087015563622117,0,
00:00:00.632,0.00136448710691184,-0.00342014152556658,-0.000792868377175182,0,
00:00:00.636,0.00349964434280992,-0.000762094394303858,-0.00155511987395585,0,
00:00:00.64,-0.00167850509751588,-0.000795147730968893,-0.00131346087437123,0,
00:00:00.644,-0.00221074954606593,-0.000259767286479473,0.00151453632861376,0,
00:00:00.648,-0.00303001655265689,0.00908957980573177,-0.00181824050378054,0,
00:00:00.652,0.00439401110634208,0.00404522335156798,-0.0031852915417403,0,
00:00:00.656,0.000617879733908921,-0.00440182955935597,0.00233362545259297,0,
00:00:00.66,-0.000603738706558943,-0.00309352343901992,0.00279737217351794,0,
00:00:00.664,-0.000613432377576828,0.00166291184723377,0.00125499267596751,0,
00:00:00.668,-0.000239747154409997,-0.0114791784435511,-0.00241185608319938,0,
00:00:00.672,8.49619464133866E-05,0.000643439532723278,-0.00121881905943155,0,
00:00:00.676,-0.00393643509596586,0.00133511226158589,0.00463487580418587,0,
00:00:00.68,0.004128014203161,0.00687947729602456,0.00345912971533835,0,
00:00:00.684,0.00750080123543739,0.00742059573531151,-0.00831418298184872,0,
00:00:00.688,-0.00155686540529132,0.00556548545137048,-0.0133873596787453,0,
00:00:00.692,-0.00910410843789577,-0.0115903252735734,0.0190475005656481,0,
00:00:00.696,-0.00215293117798865,-0.00418235966935754,0.00689388485625386,0,
00:00:00.7,0.00184877961874008,0.00785416085273027,-0.0075064254924655,0,
00:00:00.704,0.00290963891893625,-0.00676796771585941,-0.00725523941218853,0,
00:00:00.708,0.00206932984292507,-0.00931757688522339,-0.000226285745156929,0,
00:00:00.712,-0.00146584771573544,0.00215099449269474,-0.000109385378891602,0,
00:00:00.716,-0.000629168178420514,0.00485839648172259,0.00173170666676015,0,
00:00:00.72,0.00472275586798787,0.0120456898584962,-0.00170033611357212,0,
00:00:00.724,0.0011103143915534,0.00618149619549513,0.00780227733775973,0,
00:00:00.728,-0.00672320509329438,-0.0101568354293704,0.00180114211980253,0,
00:00:00.732,0.000416061317082495,-0.00679868925362825,-0.001860216492787,0,
00:00:00.736,-0.00104863976594061,-0.00027234191657044,-0.00287484028376639,0,
00:00:00.74,-1.79164762812434E-05,-0.00302457320503891,-0.00208081211894751,0,
00:00:00.744,-0.00104603078216314,0.000702866760548204,-0.00273594912141562,0,
00:00:00.748,0.00116658897604793,0.00354096991941333,0.00245101004838943,0,
00:00:00.752,0.00859182700514793,0.00777965039014816,0.00258277938701212,0,
00:00:00.756,-0.00197148788720369,0.0020591989159584,0.000985383638180792,0,
00:00:00.76,-0.0084332637488842,-0.00535657443106174,-0.000460431096144021,0,
00:00:00.764,0.00330427614971995,-0.000841030792798847,0.001015888992697,0,
00:00:00.768,0.00302053824998438,-0.00787657126784325,-0.00494326138868928,0,
00:00:00.772,-0.00416164938360453,-0.00451722647994757,-0.0021079177968204,0,
00:00:00.776,-1.30902471937588E-05,0.0115285338833928,0.0014905221760273,0,
00:00:00.78,0.00126321334391832,0.00512475846335292,0.00500971265137196,0,
00:00:00.784,0.00103346153628081,-0.00285392650403082,0.00444248132407665,0,
00:00:00.788,0.000328135880408809,-0.00774523802101612,-0.00283460482023656,0,
00:00:00.792,0.00183462956920266,0.00433742487803102,-0.00403762236237526,0,
00:00:00.796,-0.000355588825186715,-0.0025916094891727,0.00599372247233987,0,
00:00:00.8,-0.00398672139272094,0.00592773547396064,-0.00799831189215183,0,
00:00:00.804,-0.00611918419599533,-0.00150437350384891,-0.0115267690271139,0,
00:00:00.808,0.00674304878339171,0.00208391598425806,0.00464432500302792,0,
00:00:00.812,-0.000823472742922604,-0.00458746077492833,0.0112411146983504,0,
00:00:00.816,0.00446461094543338,-0.00273802899755538,0.0127339502796531,0,
00:00:00.82,0.00221329741179943,0.00259341089986265,-0.00607404531911016,0,
00:00:00.824,0.0030817233491689,0.0106429290026426,-0.0131808631122112,0,
00:00:00.828,-0.00869256723672152,-0.00942320842295885,0.000973910675384104,0,
00:00:00.832,-0.00158001657109708,-0.00745379412546754,-0.000915912271011621,0,
00:00:00.836,-0.00586463650688529,0.00384582742117345,0.00549873430281878,0,
00:00:00.84,0.00444754352793098,0.000376822106773034,0.000917726662009954,0,
00:00:00.844,0.0115169854834676,0.00362785765901208,-0.000789395708125085,0,
00:00:00.848,-0.00558699481189251,0.000349010806530714,-0.000959992059506476,0,
00:00:00.852,-0.00764619745314121,4.89346020913217E-05,-0.00259433640167117,0,
00:00:00.856,0.00512909004464746,0.00224639545194805,-0.000133068067952991,0,
00:00:00.86,0.00209476705640554,0.00223095947876573,0.0017826680559665,0,
00:00:00.864,0.00205191364511848,-0.00165094237308949,0.00614475132897496,0,
00:00:00.868,-0.00293804029934108,-0.00366372568532825,0.00538953160867095,0,
00:00:00.872,-0.00260648503899574,-0.00509007042273879,-0.0113197518512607,0,
00:00:00.876,-0.000673991395160556,-0.00111265538726002,-0.0077827307395637,0,
00:00:00.88,0.00085094862151891,0.000294853351078928,0.00208695139735937,0,
00:00:00.884,-0.00281966850161552,0.00538035575300455,0.000739178853109479,0,
00:00:00.888,0.00285170576535165,-0.000101184283266775,0.00137460546102375,0,
00:00:00.892,0.0159407742321491,0.0110182920470834,0.0248698778450489,0,
00:00:00.896,-0.00812998414039612,-0.00213376502506435,-0.00525512406602502,0,
00:00:00.9,-0.0143494047224522,-0.0109213283285499,-0.0203030854463577,0,
00:00:00.904,-0.000246596493525431,-0.00150365883018821,-0.0105559686198831,0,
00:00:00.908,0.00500840600579977,-0.000616240664385259,0.00215709744952619,0,
00:00:00.912,0.00263216439634562,-0.0005298558389768,0.00866647157818079,0,
00:00:00.916,0.00616701459512115,0.00446279440075159,0.00611777883023024,0,
00:00:00.92,-0.00694617116823792,-0.000545621151104569,0.010026560164988,0,
00:00:00.924,0.00694987829774618,0.00278408732265234,0.00538876606151462,0,
00:00:00.928,0.00244724960066378,0.00819368939846754,-0.0100102070719004,0,
00:00:00.932,-0.00988273322582245,-0.0038888193666935,-0.0150871025398374,0,
00:00:00.936,-0.00594383059069514,-0.00835194997489452,-0.00542004778981209,0,
00:00:00.94,0.00287466449663043,0.000250299257459119,0.00606704829260707,0,
00:00:00.944,0.00670502986758947,-0.000681184406857938,0.00984789617359638,0,
00:00:00.948,0.000939148012548685,0.000423969730036333,0.000516657193657011,0,
00:00:00.952,-0.00324198207817972,-0.000732871936634183,0.000836099789012223,0,
00:00:00.956,-0.00142704357858747,0.00545510184019804,-0.00478711351752281,0,
00:00:00.96,0.0028997918125242,0.000490746868308634,-0.00393522158265114,0,
00:00:00.964,0.00383212324231863,-0.00551958288997412,0.0137967942282557,0,
00:00:00.968,-0.000256542291026562,0.00668511865660548,0.00881981290876865,0,
00:00:00.972,-0.00720240315422416,-0.0013840583851561,-0.0180961042642593,0,
00:00:00.976,-0.00128541071899235,0.00330256065353751,-0.0150136779993773,0,
00:00:00.98,0.00162378884851933,-0.0137893054634333,0.00350784556940198,0,
00:00:00.984,0.00216772523708642,-0.00100353802554309,0.00913801696151495,0,
00:00:00.988,0.00346812722273171,0.0115771545097232,0.00289317290298641,0,
00:00:00.992,-0.00582750979810953,0.00188401865307242,-0.00203065760433674,0,
00:00:00.996,-0.000236056090216152,-0.0102055063471198,0.0179576426744461,0,
00:00:01,0.0106018632650375,0.00557350879535079,0.00214499514549971,0,
00:00:01.004,-0.00777415465563536,0.00525338761508465,-0.0119681553915143,0,
00:00:01.008,0.000420030788518488,0.00679297931492329,-0.01414795499295,0,
00:00:01.012,0.00067154283169657,-0.00458656577393413,-0.011775728315115,0,
00:00:01.016,-0.00272533274255693,-0.0123024331405759,0.0047440193593502,0,
00:00:01.02,-0.00131548126228154,-0.00590210361406207,0.013608924113214,0,
00:00:01.024,0.000719206058420241,0.00193383009172976,0.00763663649559021,0,
00:00:01.028,-0.000400566088501364,0.00373392389155924,0.00206801295280457,0,
00:00:01.032,0.00341178756207228,0.00731614138931036,-0.00188124924898148,0,
00:00:01.036,0.00223506498150527,0.00417221989482641,-0.00140342093072832,0,
00:00:01.04,-0.0041893906891346,-0.00433726748451591,0.00535415625199676,0,
00:00:01.044,0.00455468893051147,-0.00303289596922696,-0.0110256345942616,0,
00:00:01.048,-0.00033672057907097,-7.46943042031489E-05,-0.0104628531262279,0,
00:00:01.052,-0.0043476396240294,0.0118687888607383,-0.000902650237549096,0,
00:00:01.056,0.00620881654322147,0.00604137498885393,0.00393785303458571,0,
00:00:01.06,-0.00504705822095275,-0.0153710544109344,0.0112971942871809,0,
00:00:01.064,-0.00644908752292395,-0.0208617802709341,0.0165599230676889,0,
00:00:01.068,0.00151584832929075,-0.000879953382536769,-0.0127466721460223,0,
00:00:01.072,0.00398895191028714,0.0154948560521007,-0.0130009539425373,0,
00:00:01.076,0.00307343760505319,0.0169854704290628,-0.00413960451260209,0,
00:00:01.08,-0.00109167990740389,1.02135445558815E-05,0.00331129622645676,0,
00:00:01.084,-0.000823737413156778,-0.010719888843596,0.0142162516713142,0,
00:00:01.088,0.00220281374640763,-0.00657607987523079,0.000736984249670058,0,
00:00:01.092,0.00684627424925566,0.00404466269537807,-0.0111587587743998,0,
00:00:01.096,-0.00714024901390076,0.00993200205266476,-0.00107290269806981,0,
00:00:01.1,-0.00879714172333479,-0.00329320435412228,0.00252849492244422,0,
00:00:01.104,0.00019751931540668,-0.00440151477232575,0.00247886683791876,0,
00:00:01.108,0.00389136816374958,-0.0102425320073962,-0.00310089648701251,0,
00:00:01.112,0.00374004850164056,-0.0043040132150054,0.0098842941224575,0,
00:00:01.116,0.00180699129123241,0.00703796092420816,-0.00149618298746645,0,
00:00:01.12,-0.00224396353587508,0.0107574611902237,-0.0115675311535597,0,
00:00:01.124,0.000716671405825764,0.00290266703814268,-0.000342349288985133,0,
00:00:01.128,0.000294956233119592,-0.00364203308708966,0.00360094360075891,0,
00:00:01.132,0.0035178589168936,0.0050627919845283,0.00538014806807041,0,
00:00:01.136,-0.00701150251552463,0.00132681592367589,-0.00265926565043628,0,
00:00:01.14,-0.00409881584346294,-0.00983863323926926,-3.90229797631036E-05,0,
00:00:01.144,0.00515558524057269,-0.00985308270901442,0.000250211625825614,0,
00:00:01.148,-0.000294178636977449,-0.00791820883750916,-0.000128993488033302,0,
00:00:01.152,0.00214858422987163,0.00650947075337172,-0.000405424972996116,0,
00:00:01.156,0.00328929512761533,0.0194279439747334,-0.000391978013794869,0,
00:00:01.16,-0.00228008441627026,0.00630275160074234,0.00188568246085197,0,
00:00:01.164,-0.0027814747299999,-0.00843252055346966,0.00220854743383825,0,
00:00:01.168,-0.00335894292220473,-0.00415852060541511,-0.00958125852048397,0,
00:00:01.172,0.00432839244604111,-0.00722039770334959,-0.00140902434941381,0,
00:00:01.176,0.000721937045454979,0.00412300461903214,0.00586123531684279,0,
00:00:01.18,-0.000451944535598159,0.000918555248063058,0.00473788287490606,0,
00:00:01.184,-0.00257795862853527,-0.00666249915957451,-0.000930894166231155,0,
00:00:01.188,-0.000301826104987413,-0.000783520983532071,0.00451750261709094,0,
00:00:01.192,0.00575688388198614,0.0108417300507426,-0.00270280451513827,0,
00:00:01.196,1.17859890451655E-05,0.0100141419097781,-0.00898160040378571,0,
00:00:01.2,-9.65981089393608E-05,-0.00749408034607768,0.000616276520304382,0,
00:00:01.204,-0.00397853692993522,-0.0106781041249633,-0.00151132862083614,0,
00:00:01.208,-0.00249321153387427,-0.00166266516316682,0.00570373609662056,0,
00:00:01.212,-0.00200816337019205,0.00285130669362843,0.00160149089060724,0,
00:00:01.216,0.00360554270446301,-0.000541054992936552,-0.0022609094157815,0,
00:00:01.22,0.00135417096316814,0.0062000541947782,-0.000843214453198016,0,
00:00:01.224,0.0052691800519824,0.00369190541096032,0.00293887313455343,0,
00:00:01.228,0.00100592745002359,-0.000503935909364372,0.00351730221882463,0,
00:00:01.232,-0.00290782726369798,0.00331779872067273,-0.00479733711108565,0,
00:00:01.236,-0.00594036234542727,-0.00473388843238354,0.00271180854178965,0,
00:00:01.24,-0.00464360602200031,-0.0146122211590409,-0.00192641234025359,0,
00:00:01.244,0.00109705387149006,-0.00401999615132809,-0.00693007372319698,0,
00:00:01.248,0.00653465464711189,0.0103856073692441,-0.00166660582181066,0,
00:00:01.252,0.000210783400689252,0.0054132929071784,0.00540966959670186,0,
00:00:01.256,0.00854820664972067,0.0114970402792096,0.00275463494472206,0,
00:00:01.26,-0.000743178825359792,0.001478026737459,0.0015150064136833,0,
00:00:01.264,-0.00965873245149851,-0.00905217044055462,0.00870942603796721,0,
00:00:01.268,-0.00137651991099119,-0.0150574911385775,-0.00634056376293302,0,
00:00:01.272,-0.00334370788186789,-0.0062258830294013,-0.00744840782135725,0,
00:00:01.276,0.0027569632511586,0.0160053167492151,-0.00111577485222369,0,
00:00:01.28,0.00369744817726314,0.0129045667126775,-0.000902490632142872,0,
00:00:01.284,0.00213688891381025,-0.00800909288227558,0.00144069804809988,0,
00:00:01.288,0.000164745666552335,-0.00607240479439497,0.000569537922274321,0,
00:00:01.292,-0.00314401485957205,-0.00630443170666695,0.00210552266798913,0,
00:00:01.296,0.00274461461231112,0.00275886431336403,0.00658585643395782,0,
00:00:01.3,-0.00119450711645186,0.01564178802073,0.00156531087122858,0,
00:00:01.304,-0.00168039137497544,-0.00415903888642788,-0.00942669343203306,0,
00:00:01.308,-0.000756356748752296,-0.00735421804711223,0.00136524147819728,0,
00:00:01.312,0.000249560456722975,-0.00798349361866713,0.00390979601070285,0,
00:00:01.316,0.000746733567211777,0.000180744827957824,-0.0041634002700448,0,
00:00:01.32,0.000699439726304263,0.0140191130340099,-0.00719242170453072,0,
00:00:01.324,-0.00172351067885756,0.00442357128486037,0.00204191543161869,0,
00:00:01.328,0.00196010316722095,-0.0155662866309285,0.0115813137963414,0,
00:00:01.332,0.00141100224573165,0.00412461906671524,0.00242825597524643,0,
00:00:01.336,0.00199111364781857,0.0159001685678959,-0.00758415227755904,0,
00:00:01.34,-0.000911120267119259,-0.00439526420086622,0.00123981607612222,0,
00:00:01.344,-0.00676340237259865,-0.0143288746476173,-0.005950634367764,0,
00:00:01.348,-0.00250078644603491,-0.00728248571977019,3.11752919515129E-05,0,
00:00:01.352,0.006359051913023,0.00178897415753454,0.00053774134721607,0,
00:00:01.356,0.00208088289946318,0.000217249660636298,0.00452793389558792,0,
00:00:01.36,-0.000212526545510627,0.0140966344624758,0.00286522996611893,0,
00:00:01.364,-0.00103877671062946,0.0100762769579887,-0.00205371645279229,0,
00:00:01.368,-0.00302137504331768,-0.00953993294388056,0.000215404579648748,0,
00:00:01.372,-0.000564507092349231,-0.00841671228408813,0.00586936855688691,0,
00:00:01.376,0.00569937750697136,0.00220603006891906,-0.00904016941785812,0,
00:00:01.38,0.00218389974907041,0.00500198407098651,-0.00397962145507336,0,
00:00:01.384,-0.00606737937778234,-0.00122212246060371,0.00475916219875216,0,
00:00:01.388,-0.00153800914995372,-0.00265422812663019,-0.00322269811294973,0,
00:00:01.392,0.000679514952935278,-0.0037143190857023,-0.000683876103721559,0,
00:00:01.396,-0.0028861197642982,-0.000183215452125296,0.00670669041574001,0,
00:00:01.4,0.00903836265206337,0.00870139803737402,-0.000605433713644743,0,
00:00:01.404,0.00173037790227681,0.00314994319342077,-0.00332427909597754,0,
00:00:01.408,-0.00714680552482605,-0.00507647404447198,-0.000356721167918295,0,
00:00:01.412,4.45704790763557E-06,-0.0155950374901295,0.0185655076056719,0,
00:00:01.416,-0.00327048660255969,0.00778473634272814,-0.00742620788514614,0,
00:00:01.42,0.00200319802388549,0.00914540980011225,-0.016034385189414,0,
00:00:01.424,0.00276834075339139,0.00324078788980842,-0.0045939008705318,0,
00:00:01.428,-0.00057835306506604,-0.00621237745508552,0.00148759630974382,0,
00:00:01.432,-0.000133783600176685,-0.00841204449534416,0.00824323017150164,0,
00:00:01.436,0.00476921908557415,0.0100725861266255,0.00435940455645323,0,
00:00:01.44,0.00297124194912612,0.0080046784132719,0.00589530263096094,0,
00:00:01.444,-0.00687768217176199,-0.0037671138998121,-0.0063054752536118,0,
00:00:01.448,-0.00750823738053441,-0.0155463209375739,-0.00276646995916963,0,
00:00:01.452,-0.00101581402122974,-0.00336373480968177,0.00583362253382802,0,
00:00:01.456,0.00597514677792788,0.00528645236045122,0.000955954426899552,0,
00:00:01.46,0.00498972553759813,0.00535601424053311,-0.00181727798189968,0,
00:00:01.464,0.00148564542178065,0.0110288495197892,-0.0109333163127303,0,
00:00:01.468,-0.00133785954676569,0.00277562253177166,-0.0107657928019762,0,
00:00:01.472,-0.000283575849607587,-0.006981011480093,0.000687996915075928,0,
00:00:01.476,-0.00799034722149372,-0.0197909623384476,0.0253768917173147,0,
00:00:01.48,0.00159449281636626,0.014552891254425,0.0125941745936871,0,
00:00:01.484,0.00755804823711514,0.01061434391886,-0.0106818694621325,0,
00:00:01.488,-0.0019725919701159,-0.00509645603597164,-0.0107806986197829,0,
00:00:01.492,-0.00320650357753038,-0.00976870954036713,-0.0125031163915992,0,
00:00:01.496,-0.00345867872238159,-0.0104621844366193,0.00291010364890099,0,
00:00:01.5,0.00458538811653852,0.00985782872885466,0.00742998952046037,0,
00:00:01.504,-0.00101677258498967,0.0117317056283355,0.00564799690619111,0,
00:00:01.508,0.00171843101270497,-0.00310030323453248,0.00180828152224422,0,
00:00:01.512,0.00113281572703272,-0.00433664582669735,-0.00126800872385502,0,
00:00:01.516,-0.000168118393048644,0.00263242097571492,-0.00663857720792294,0,
00:00:01.52,-0.000952318252529949,0.00525721022859216,-0.00228876899927855,0,
00:00:01.524,0.0010947702685371,-0.0115948878228664,0.0104598375037313,0,
00:00:01.528,-0.0045873443596065,-0.00589344184845686,0.00815930590033531,0,
00:00:01.532,0.000318660022458062,0.00682267546653748,-0.0117710707709193,0,
00:00:01.536,0.00593208149075508,0.00676229409873486,-0.0140476748347282,0,
00:00:01.54,-0.00462381914258003,0.00442884163931012,-0.00416436744853854,0,
00:00:01.544,-0.000861614942550659,-0.00972297322005033,0.0132852969691157,0,
00:00:01.548,-0.00940710678696632,0.00330434809438884,0.0171388499438763,0,
00:00:01.552,0.0111309178173542,-0.00180983718018979,0.000926784006878734,0,
00:00:01.556,0.019303297623992,0.00277380086481571,-0.00834545493125916,0,
00:00:01.56,-0.011040604673326,-0.00372528564184904,-0.0154441408813,0,
00:00:01.564,-0.0108560100197792,-0.00213613174855709,-0.00534218503162265,0,
00:00:01.568,-0.00279548135586083,0.0131973102688789,0.00462269550189376,0,
00:00:01.572,-0.00106384977698326,-0.00344916619360447,0.0124746486544609,0,
00:00:01.576,0.00215649115853012,-0.0159464813768864,0.00243806932121515,0,
00:00:01.58,0.00146739953197539,-0.00117421627510339,0.00294518400914967,0,
00:00:01.584,0.00272129173390567,0.00177034654188901,-0.00591179588809609,0,
00:00:01.588,0.00677483854815364,0.00622072676196694,-0.000662879378069192,0,
00:00:01.592,0.00142657372634858,0.0148145575076342,-0.000940873695071787,0,
00:00:01.596,-0.00761959562078118,-0.000329167698509991,-0.00779562955722213,0,
00:00:01.6,-0.00291392183862627,-0.00671904161572456,0.00263040489517152,0,
00:00:01.604,-1.42273365781875E-05,-0.00653620203956962,0.00664241937920451,0,
00:00:01.608,0.00126372743397951,-0.00322203407995403,0.000710158725269139,0,
00:00:01.612,0.00133820134215057,0.00230016303248703,-0.00561877992004156,0,
00:00:01.616,0.000786225078627467,0.0001891806605272,-0.00589073961600661,0,
00:00:01.62,0.00013648382446263,-0.00135768763720989,0.0145692452788353,0,
00:00:01.624,-0.00236361171118915,-0.000905491411685944,0.0133695984259248,0,
00:00:01.628,0.00572487479075789,0.0150213614106178,-0.00954381562769413,0,
00:00:01.632,-0.00675024930387735,-0.0101654166355729,-0.0174677241593599,0,
00:00:01.636,0.00282239331863821,0.00080008857185021,-0.0138122737407684,0,
00:00:01.64,-0.00190485711209476,-0.00513007119297981,0.00502972863614559,0,
00:00:01.644,0.00147057545837015,-0.00323183787986636,0.0212556309998035,0,
00:00:01.648,-0.000761010800488293,0.0151719227433205,0.0133144538849592,0,
00:00:01.652,0.0125525938346982,0.0100775361061096,-0.0123481266200542,0,
00:00:01.656,-0.0129998410120606,-0.017456965520978,-0.0110136950388551,0,
00:00:01.66,-0.00486992998048663,-0.0129618141800165,0.0036494517698884,0,
00:00:01.664,-0.00309589598327875,0.00110939366277307,0.00181499985046685,0,
00:00:01.668,0.00740945897996426,0.00493197469040751,0.00453524244949222,0,
00:00:01.672,0.00632619671523571,0.0105951707810163,-0.00427756458520889,0,
00:00:01.676,0.00168239662889391,0.00273962924256921,-0.00372084090486169,0,
00:00:01.68,-0.00200015888549387,-0.00811352301388979,-0.000585399684496224,0,
00:00:01.684,-0.00322154257446527,-0.00157019030302763,0.00170972023624927,0,
00:00:01.688,-0.00243179174140096,0.0145511981099844,0.000156520953169093,0,
00:00:01.692,0.00124135776422918,-0.00307146622799337,-0.000720618816558272,0,
00:00:01.696,-0.00146299123298377,-0.00834259111434221,0.010029349476099,0,
00:00:01.7,-0.000534275488462299,-0.0102186352014542,-0.00314073311164975,0,
00:00:01.704,0.000815837411209941,0.000493012368679047,0.00357109261676669,0,
00:00:01.708,0.00134701246861368,0.00332839717157185,-0.0142464376986027,0,
00:00:01.712,-0.00104455486871302,0.00316449766978621,-0.00632514804601669,0,
00:00:01.716,0.00231546838767827,0.0124621968716383,0.0206417851150036,0,
00:00:01.72,0.00138602661900222,0.00148072734009475,0.000799270696006715,0,
00:00:01.724,-0.000344363594194874,-0.0137302791699767,-0.0103926723822951,0,
00:00:01.728,-0.0033846739679575,0.00131558068096638,-0.00577652547508478,0,
00:00:01.732,-0.00136776536237448,0.00466703111305833,0.00729150790721178,0,
00:00:01.736,0.0112832840532064,-0.00587697792798281,0.00280765839852393,0,
00:00:01.74,-0.0143352448940277,-0.00949354935437441,-0.00252635194920003,0,
00:00:01.744,0.00527592562139034,0.00938649196177721,-0.00388024747371674,0,
00:00:01.748,0.00470263138413429,0.0169689264148474,0.00209295284003019,0,
00:00:01.752,-0.00448341853916645,-0.00371355074457824,0.00286000547930598,0,
00:00:01.756,-0.00352616119198501,-0.00950766168534756,-0.000699738855473697,0,
00:00:01.76,-0.00220802519470453,-0.00474629504606128,-0.000400735239963979,0,
00:00:01.764,0.00407161330804229,-0.0118817817419767,0.00450586667284369,0,
00:00:01.768,0.00193523243069649,0.00443804217502475,0.000740632065571845,0,
00:00:01.772,0.00350488093681633,0.00983082503080368,-0.00907892361283302,0,
00:00:01.776,0.00294008501805365,0.0136706046760082,0.000223272145376541,0,
00:00:01.78,-0.00360629358328879,0.00040316884405911,0.00471026636660099,0,
00:00:01.784,-0.00823881477117538,-0.0172448493540287,-0.00419131387025118,0,
00:00:01.788,-9.22920007724315E-05,-0.00175555737223476,0.00694302842020988,0,
00:00:01.792,0.00970044080168009,0.0121500855311751,0.000688307627569884,0,
00:00:01.796,-0.000461642950540408,-0.00203085574321449,-0.00489844800904393,0,
00:00:01.8,-0.00119284051470459,-0.00488285394385457,-0.00116569339297712,0,
00:00:01.804,-0.00644567515701056,-0.00275106611661613,-0.00412051193416119,0,
00:00:01.808,-0.00226600095629692,-0.0019068339606747,-0.00191373820416629,0,
00:00:01.812,0.00843313056975603,0.00591092929244041,0.0117050753906369,0,
00:00:01.816,-4.46485319116618E-05,0.0058072111569345,-0.000478600733913481,0,
00:00:01.82,-0.00201725703664124,-0.00842404365539551,-0.000659817655105144,0,
00:00:01.824,-0.005456218495965,-0.00231756735593081,0.00271309516392648,0,
00:00:01.828,0.00592390913516283,0.00830608978867531,-0.00552197592332959,0,
00:00:01.832,-0.000146611695527099,-0.000603850989136845,-0.00638247327879071,0,
00:00:01.836,0.00554338004440069,-0.000632797076832503,-0.00276959105394781,0,
00:00:01.84,-0.00585493817925453,-0.00583453802391887,0.00970717519521713,0,
00:00:01.844,-0.00233992445282638,0.00217826897278428,0.00411211745813489,0,
00:00:01.848,0.00204400112852454,-0.00181392591912299,-0.00663032615557313,0,
00:00:01.852,-0.00304187368601561,0.000245289120357484,0.00133527768775821,0,
00:00:01.856,0.00139924103859812,-0.00406292686238885,0.0210376158356667,0,
00:00:01.86,0.00207298924215138,0.0144289862364531,-0.0149139882996678,0,
00:00:01.864,0.00109573942609131,0.00633338931947947,-0.0154841607436538,0,
00:00:01.868,-7.81165872467682E-05,-0.00643421616405249,-0.00664648320525885,0,
00:00:01.872,-0.000740394054446369,-0.0109439566731453,0.00461589265614748,0,
00:00:01.876,-0.000788367877248675,-0.00958740059286356,0.0115450276061893,0,
00:00:01.88,-0.000456650857813656,0.00295238546095788,0.00575844245031476,0,
00:00:01.884,-0.00212820433080196,0.00976252183318138,0.00332209072075784,0,
00:00:01.888,0.00218963506631553,0.00434782262891531,0.000473045220132917,0,
00:00:01.892,0.00399988517165184,0.00487702433019876,-0.00839155726134777,0,
00:00:01.896,-0.0036718943156302,0.00300479121506214,0.000386827916372567,0,
00:00:01.9,0.00163554027676582,-0.0110899601131678,-0.00457729818299413,0,
00:00:01.904,0.000499732908792794,-0.00632532639428973,-0.0042620706371963,0,
00:00:01.908,-0.00331262941472232,-0.00742881838232279,0.00110767350997776,0,
00:00:01.912,-0.00594274513423443,0.00396608002483845,0.00648637535050511,0,
00:00:01.916,0.00655838614329696,0.0141659751534462,-0.00601597130298615,0,
00:00:01.92,0.000963890284765512,-0.0040246369317174,0.0165981408208609,0,
00:00:01.924,0.000212113009183668,0.00918653327971697,0.0105692027136683,0,
00:00:01.928,0.00457330094650388,-0.013026780448854,-0.0186331477016211,0,
00:00:01.932,-0.00151106587145478,-0.00295088300481439,-0.00856675487011671,0,
00:00:01.936,-0.00317614106461406,0.0132111646234989,-0.0103582013398409,0,
00:00:01.94,-0.00224830908700824,-0.00173936586361378,0.00557449832558632,0,
00:00:01.944,-0.000540188048034906,-0.00565497716888785,0.00964077655225992,0,
00:00:01.948,0.000748223508708179,-0.00388190895318985,0.00665605207905173,0,
00:00:01.952,0.00118663732428104,-0.000637031916994601,-0.000472114625154063,0,
00:00:01.956,0.000926028878893703,-0.00042666814988479,-0.000189483223948628,0,
00:00:01.96,0.000367913657100871,0.00838548224419355,-0.00388326519168913,0,
00:00:01.964,-0.000121968347229995,0.00344488467089832,-0.00054822867969051,0,
00:00:01.968,-0.000359152618329972,-0.0107135148718953,0.00386728276498616,0,
00:00:01.972,-0.000345116655807942,-0.00299090915359557,-0.00446092849597335,0,
00:00:01.976,-0.000189333150046878,0.00896930508315563,-0.00579915521666408,0,
00:00:01.98,-1.71526389749488E-05,0.00259030680172145,0.00358678167685866,0,
00:00:01.984,9.08360743778758E-05,-0.00591567158699036,0.00157361198216677,0,
00:00:01.988,0.000114963033411186,-0.00324929389171302,-0.00110543775372207,0,
00:00:01.992,-0.00199608039110899,0.00508523778989911,0.000483229145174846,0,
00:00:01.996,-0.00422716606408358,-0.00102335261180997,0.00586055126041174,0,
00:00:02,0.013777457177639,-0.000770867220126092,0.00173944630660117,0,
00:00:02.004,0.00536933774128556,0.00471251923590899,-0.0129344845190644,0,
00:00:02.008,-0.0132696982473135,-0.00492792669683695,0.0101115377619863,0,
00:00:02.012,-0.009127845056355,-0.00056017329916358,0.00568444328382611,0,
00:00:02.016,0.00190212996676564,0.00549016147851944,-0.0111014703288674,0,
00:00:02.02,0.00754228606820107,0.00157404399942607,-0.00698859058320522,0,
00:00:02.024,0.00240007787942886,-0.00252526695840061,-0.00113152211997658,0,
00:00:02.028,-0.00420892424881458,-0.00370230968110263,0.00734625570476055,0,
00:00:02.032,0.00298784463666379,-0.00865148566663265,0.0172773115336895,0,
00:00:02.036,0.00230228621512651,-0.000631260918453336,-0.00301391421817243,0,
00:00:02.04,-0.000244692724663764,0.0100010260939598,-0.0113399904221296,0,
00:00:02.044,0.000226278047193773,0.0112153934314847,-0.0113540356978774,0,
00:00:02.048,-0.00390520226210356,-0.00310400128364563,0.00544966710731387,0,
00:00:02.052,-0.00268343673087657,-0.00872734468430281,0.00491676386445761,0,
00:00:02.056,-0.000170702493051067,-0.00262593314982951,0.000946881074924022,0,
00:00:02.06,0.00150726642459631,0.000562064466066659,0.00279466644860804,0,
00:00:02.064,0.00181648600846529,0.00164362951181829,0.000882745662238449,0,
00:00:02.068,0.00116461142897606,0.00142618792597204,-0.00116975011769682,0,
00:00:02.072,-0.00183394993655384,-0.00347181083634496,-0.00195996579714119,0,
00:00:02.076,0.00154853484127671,0.00600411603227258,-0.00361344357952476,0,
00:00:02.08,0.00307023664936423,0.00713792582973838,-0.000671862566377968,0,
00:00:02.084,-0.00437866477295756,-0.0159475300461054,0.0101267667487264,0,
00:00:02.088,0.00135963794309646,0.00708460109308362,-0.00134596694260836,0,
00:00:02.092,0.000593322387430817,0.000935427786316723,-0.0110793793573976,0,
00:00:02.096,-0.00304335705004632,-0.00586808566004038,-0.00182500341907144,0,
00:00:02.1,-0.00361056975089014,0.00012758289813064,0.00182619690895081,0,
00:00:02.104,0.000570319942198694,0.00256498763337731,0.00483766570687294,0,
00:00:02.108,0.00535876303911209,0.00445608468726277,0.0128043126314878,0,
00:00:02.112,0.00335059338249266,-0.00510269636288285,0.0106844343245029,0,
00:00:02.116,0.00206688954494894,0.00201267749071121,-0.0189099498093128,0,
00:00:02.12,-0.00404679868370295,0.00421501230448484,-0.0199709888547659,0,
00:00:02.124,-0.0018770971801132,0.0024235351011157,-0.00770966848358512,0,
00:00:02.128,-0.0118219321593642,-0.0171583071351051,0.027620580047369,0,
00:00:02.132,0.00693937670439482,0.00286216055974364,0.00782267097383738,0,
00:00:02.136,0.014294421300292,0.00974507629871368,-0.00503734964877367,0,
00:00:02.14,-0.00288189947605133,0.00302158016711473,-0.00832684338092804,0,
00:00:02.144,-0.00656214356422424,0.00311883422546089,-0.00321949296630919,0,
00:00:02.148,-0.00616639573127031,-0.000231571975746192,0.00169416959397495,0,
00:00:02.152,0.00362075562588871,-0.00513760838657618,0.00769957108423114,0,
00:00:02.156,0.00156424392480403,-0.0101307099685073,0.000849990115966648,0,
00:00:02.16,-0.00119785382412374,-0.0077296425588429,-0.00238719349727035,0,
00:00:02.164,-0.00168966059572995,0.00506319757550955,-0.0027298319619149,0,
00:00:02.168,0.00779536133632064,0.0111302863806486,-0.00361967366188765,0,
00:00:02.172,0.0034062834456563,0.00668415520340204,0.00186082057189196,0,
00:00:02.176,-0.00439273612573743,0.00232324097305536,0.00242943689227104,0,
00:00:02.18,-0.00272246403619647,-0.00158558983821422,0.00115228199865669,0,
00:00:02.184,-0.00415060948580503,-0.00376251991838217,-0.00225733174011111,0,
00:00:02.188,-0.00114614714402705,-0.0183796491473913,0.00321281095966697,0,
00:00:02.192,0.00166926521342248,-0.00112888077273965,-0.00113437091931701,0,
00:00:02.196,0.00264116493053734,0.0101218074560165,-0.00600734958425164,0,
00:00:02.2,-0.00216607609763741,-0.00352758634835482,0.00712538231164217,0,
00:00:02.204,0.00461026607081294,0.0171844735741615,0.00151562655810267,0,
00:00:02.208,0.00490093789994717,0.0144777493551373,-0.00626672245562077,0,
00:00:02.212,-0.00257046078331769,-0.0123142814263701,0.0011169541394338,0,
00:00:02.216,-0.00417196983471513,-0.0172212906181812,0.00369863514788449,0,
00:00:02.22,-0.000583996996283531,0.000620929640717804,-0.00581117812544107,0,
00:00:02.224,-0.00239631254225969,-0.00553693110123277,-0.00248606572858989,0,
00:00:02.228,-0.0046830540522933,-0.00358071597293019,0.00420581921935081,0,
00:00:02.232,0.00529207522049546,0.00976823177188635,0.0040084826759994,0,
00:00:02.236,0.00313691329210997,0.0097353495657444,-0.000715239497367293,0,
00:00:02.24,0.00786056835204363,0.00610560225322843,0.00307342922315001,0,
00:00:02.244,-0.00152481370605528,0.00684238504618406,-0.00433497270569205,0,
00:00:02.248,-0.00754020130261779,-0.00958028435707092,-0.00109734700527042,0,
00:00:02.252,-0.0048237987793982,-0.0142006445676088,0.00200790842063725,0,
00:00:02.256,-0.000297550257528201,-0.0110454931855202,-0.00388983986340463,0,
00:00:02.26,0.000500156078487635,-0.000716437178198248,-0.00157494226004928,0,
00:00:02.264,0.00501844706013799,0.0131778316572309,0.00357793550938368,0,
00:00:02.268,0.00353362783789635,0.0132373236119747,-0.00138135778252035,0,
00:00:02.272,-0.00157411489635706,-0.00664046453312039,0.00854258239269257,0,
00:00:02.276,0.000355518684955314,-0.00266804569400847,0.00851919781416655,0,
00:00:02.28,0.00365566462278366,0.0195388086140156,-0.018516918644309,0,
00:00:02.284,-0.00316662550903857,-0.00559307774528861,-0.0114662861451507,0,
00:00:02.288,-0.00858243834227324,-0.0195953790098429,0.00785446260124445,0,
00:00:02.292,-0.000631335424259305,-0.00797120854258537,0.00499105174094439,0,
00:00:02.296,0.00117581360973418,0.000358492397936061,0.00583028793334961,0,
00:00:02.3,0.00557617517188191,0.00704722432419658,0.00210269982926548,0,
00:00:02.304,-0.00048612747923471,0.00804279372096062,-0.00148428371176124,0,
00:00:02.308,0.00841925758868456,0.00690127490088344,-0.000932716473471373,0,
00:00:02.312,-0.00255986116826534,0.00271447864361107,-0.00452667893841863,0,
00:00:02.316,-0.00525847589597106,-0.00593688478693366,-0.0048412517644465,0,
00:00:02.32,-0.00355670251883566,-0.0045167007483542,0.00411337427794933,0,
00:00:02.324,0.00136364263016731,0.000821854860987514,0.00146864971611649,0,
00:00:02.328,0.00141504511702806,-0.00953088328242302,-0.00153215252794325,0,
00:00:02.332,-0.00585499312728643,-0.000955388764850795,0.00216413661837578,0,
00:00:02.336,0.00146622862666845,-0.00184737436939031,0.00163504190277308,0,
00:00:02.34,0.00848734192550182,0.00909192208200693,4.69053120468743E-05,0,
00:00:02.344,0.00161431427113712,0.014230695553124,-0.00309603428468108,0,
00:00:02.348,-0.00210376619361341,-0.00344539992511272,0.00286917667835951,0,
00:00:02.352,-0.00291058304719627,-0.00307670491747558,-0.00312962406314909,0,
00:00:02.356,-0.00194185262080282,-0.00662542320787907,0.00455826753750443,0,
00:00:02.36,-0.000475655688205734,-0.00624724011868238,-0.00300392415374517,0,
00:00:02.364,0.00267759431153536,0.00575526989996433,-0.00492045376449823,0,
00:00:02.368,-0.00307840877212584,-0.0063930694013834,0.00358379376120865,0,
00:00:02.372,0.00317664002068341,0.0117286639288068,-0.00315341958776116,0,
00:00:02.376,-0.00434754509478807,-0.000390204280847684,0.00631914939731359,0,
00:00:02.38,0.00739192217588425,-0.0011758899781853,0.00144627084955573,0,
00:00:02.384,-0.00302119925618172,-0.00827743485569954,0.000839415937662125,0,
00:00:02.388,-0.000789362355135381,0.00411833124235272,-0.00388778536580503,0,
00:00:02.392,-7.52001360524446E-05,0.00205474975518882,-0.00298289465717971,0,
00:00:02.396,3.82957623514812E-05,-0.00139477930497378,-0.000559112173505127,0,
00:00:02.4,-2.84765997093928E-06,0.0018224180676043,-0.00295548373833299,0,
00:00:02.404,-3.1261530239135E-05,-0.00301156938076019,0.00768423685804009,0,
00:00:02.408,-1.89246384252328E-05,0.00571895018219948,0.00660857884213328,0,
00:00:02.412,1.15409693535184E-05,0.00434047402814031,-0.00700616277754307,0,
00:00:02.416,3.44103027600795E-05,-0.00631420593708754,-0.00351510057225823,0,
00:00:02.42,0.00211431924253702,-0.00360223022289574,0.00155936717055738,0,
00:00:02.424,-0.00194823346100748,-0.00140941049903631,-0.00498698279261589,0,
00:00:02.428,-0.00163213058840483,-0.00384031794965267,0.00791847053915262,0,
00:00:02.432,-0.000181002571480349,0.00312117417342961,0.000102951460576151,0,
00:00:02.436,-0.00331908115185797,0.000383325357688591,-0.00395013438537717,0,
00:00:02.44,0.0049687591381371,0.00467212172225118,-0.00558019289746881,0,
00:00:02.444,0.0059854150749743,0.00766061525791883,0.00733738578855991,0,
00:00:02.448,-0.00153982324991375,-0.00340305012650788,0.0138999652117491,0,
00:00:02.452,-0.0057016434147954,-0.000868584436830133,-0.00549352308735251,0,
00:00:02.456,0.00348886544816196,0.00156410911586136,-0.0137715563178062,0,
00:00:02.46,-0.00510300323367119,-0.0113224582746625,-0.00403043674305081,0,
00:00:02.464,0.00169644190464169,-0.00347154145129025,0.00475227925926447,0,
00:00:02.468,-0.00232777395285666,0.00262597226537764,0.00502994051203132,0,
00:00:02.472,0.00218556658364832,0.00270775612443686,-0.00186528242193162,0,
00:00:02.476,0.0024603761266917,0.0057120923884213,-0.000532683276105672,0,
00:00:02.48,0.00312130432575941,0.0113010965287685,0.00357836834155023,0,
00:00:02.484,-0.00442434335127473,-0.0105078341439366,-0.00418971758335829,0,
00:00:02.488,0.00135618273634464,-0.0112404432147741,0.00748962489888072,0,
00:00:02.492,-0.00356129975989461,0.0023427892010659,0.0072462554089725,0,
00:00:02.496,0.000864913803525269,0.00748843932524323,-0.00892783515155315,0,
00:00:02.5,0.00167144904844463,-0.000538487453013659,-0.0106914369389415,0,
00:00:02.504,0.00094149517826736,-0.00120299472473562,0.00337795470841229,0,
00:00:02.508,-4.19922571381903E-06,0.00200254516676068,-0.00208676559850574,0,
00:00:02.512,-0.000548717915080488,0.00283446512185037,-0.00107953452970833,0,
00:00:02.516,0.00147608912084252,-0.000828297750558704,0.0119103053584695,0,
00:00:02.52,-0.00232036807574332,-0.00519187608733773,0.00147412205114961,0,
00:00:02.524,-0.00374889653176069,-0.00507958373054862,-0.00288029154762626,0,
00:00:02.528,-0.000102613259514328,0.00228755129501224,-0.00122951762750745,0,
00:00:02.532,0.00676033040508628,0.00386071321554482,-0.00385594344697893,0,
00:00:02.536,0.00103018013760448,0.00455584656447172,-0.0039301966316998,0,
00:00:02.54,-0.00370015599764884,-0.00362279824912548,0.00262004160322249,0,
00:00:02.544,-2.21269201574614E-05,-0.00478914519771934,0.00352297979407012,0,
00:00:02.548,0.00668541947379708,0.0123733328655362,-0.000176491113961674,0,
00:00:02.552,-0.00797769241034985,-0.00040518632158637,0.00194479920901358,0,
00:00:02.556,-0.00535106984898448,-0.0102829365059733,0.00464450800791383,0,
00:00:02.56,0.00481438916176558,-0.00585366133600473,-0.00297323917038739,0,
00:00:02.564,0.0022159880027175,0.000850432435981929,-0.00687228748574853,0,
00:00:02.568,0.000838882697280496,0.00245500542223454,-0.00314735411666334,0,
00:00:02.572,3.28113565046806E-05,0.00231221178546548,-0.000879276602063328,0,
00:00:02.576,-0.00245369598269463,0.00995407626032829,0.00523735117167234,0,
00:00:02.58,-0.000570437638089061,0.00548551138490438,0.00456259585916996,0,
00:00:02.584,0.00741746928542852,-0.00768667226657271,0.00150216394104064,0,
00:00:02.588,-0.00436167977750301,-0.0121371438726783,-0.00318838143721223,0,
00:00:02.592,0.000114518894406501,0.00265576248057187,-0.000190089427633211,0,
00:00:02.596,-0.00245953979901969,0.0065269130282104,0.00813326518982649,0,
00:00:02.6,-0.00341117917560041,-0.00623339042067528,-0.00851585995405912,0,
00:00:02.604,0.00235801609233022,0.00172016094438732,-0.009318882599473,0,
00:00:02.608,0.00294594769366086,0.00107932474929839,0.000908680027350783,0,
00:00:02.612,0.00142211467027664,0.00576067250221968,0.00713901733979583,0,
00:00:02.616,-0.000218558925553225,-0.000475691369501874,0.00262828101404011,0,
00:00:02.62,-0.0010724033927545,-0.00266321399249136,0.000400662276661024,0,
00:00:02.624,-0.00106937217060477,-0.000213937921216711,0.00144618167541921,0,
00:00:02.628,-0.00264941365458071,-0.00496704922989011,-0.00496230134740472,0,
00:00:02.632,0.00403531733900309,-0.00142271758522838,-0.000406230159569532,0,
00:00:02.636,-4.60847559224931E-06,0.0105688134208322,-0.000992732821032405,0,
00:00:02.64,-0.00107070163358003,-0.00242238002829254,0.000868882285431027,0,
00:00:02.644,0.00132153858430684,-0.00412880908697844,0.0101711442694068,0,
00:00:02.648,-0.00208328338339925,0.000309321068925783,-0.00432261452078819,0,
00:00:02.652,-0.00338697130791843,-0.0054279831238091,-0.00601911963894963,0,
00:00:02.656,0.00430146185681224,0.00823365896940231,-0.0027516488917172,0,
00:00:02.66,-0.0012853565858677,0.002739317715168,-0.00342362560331821,0,
00:00:02.664,0.00159939669538289,-0.00553811434656382,0.00636929459869862,0,
00:00:02.668,-0.000923717278055847,-0.00715659698471427,0.0117646791040897,0,
00:00:02.672,-0.000182678020792082,0.000751179934013635,-0.00240328931249678,0,
00:00:02.676,0.00482356129214168,0.0162530150264502,-0.00870180781930685,0,
00:00:02.68,0.00305631035007536,0.0104324975982308,-0.00295617245137692,0,
00:00:02.684,-0.00887207500636578,-0.0111861163750291,-0.00383705529384315,0,
00:00:02.688,-0.00339814089238644,-0.0170552376657724,0.00354733550921083,0,
00:00:02.692,0.000757036381401122,-0.00415927870199084,0.0069388709962368,0,
00:00:02.696,0.00254081306047738,0.00446290336549282,-0.00116021814756095,0,
00:00:02.7,0.00231972965411842,0.00700636440888047,0.000579024897888303,0,
00:00:02.704,0.0011118947295472,0.00512355007231236,-1.80400420504157E-05,0,
00:00:02.708,-0.000106498569948599,0.0016304834280163,0.00122665043454617,0,
00:00:02.712,-0.00286132982000709,0.000873554730787873,-0.00307561876252294,0,
00:00:02.716,-0.000948898901697248,-0.00643046852201223,-0.00242233159951866,0,
00:00:02.72,0.00724805286154151,-0.00172527763061225,0.00166489509865642,0,
00:00:02.724,-0.00223649083636701,0.00255095632746816,-0.000923574960324913,0,
00:00:02.728,-0.00376579235307872,-0.000895088654942811,-0.000221216163481586,0,
00:00:02.732,-0.00195013487245888,0.00126815226394683,0.00079376419307664,0,
00:00:02.736,-0.00183899258263409,-0.00390950543805957,0.00109149876516312,0,
00:00:02.74,0.00547586334869266,0.00315031851641834,0.000722405849955976,0,
00:00:02.744,-0.000956679810769856,-0.00184255256317556,-0.00818345230072737,0,
00:00:02.748,0.00130332843400538,0.00172802782617509,0.00341384974308312,0,
00:00:02.752,-0.00142047449480742,-0.00254166754893959,0.0307897087186575,0,
00:00:02.756,0.00567492516711354,0.00843650102615356,-0.0140654593706131,0,
00:00:02.76,-0.00537134893238544,-0.0055037192068994,-0.0236490909010172,0,
00:00:02.764,9.58794116741046E-05,0.0083357710391283,-0.00719867506995797,0,
00:00:02.768,-0.00188962905667722,-0.00321667129173875,0.00337213976308703,0,
00:00:02.772,-0.00069421308580786,-0.0149042932316661,0.0118171656504273,0,
00:00:02.776,-0.00131096784025431,-0.00282802665606141,0.00509816128760576,0,
00:00:02.78,0.00332940486259758,0.00766418734565377,0.010946805588901,0,
00:00:02.784,0.002712766174227,0.00344241969287395,-0.0051493002101779,0,
00:00:02.788,-0.00150957319419831,0.00306439120322466,-0.00129141926299781,0,
00:00:02.792,0.000916492659598589,0.0104576079174876,-0.0060253394767642,0,
00:00:02.796,0.00219024810940027,0.00500694289803505,-0.0092069199308753,0,
00:00:02.8,-0.000815639272332191,-0.0112116355448961,0.00228448025882244,0,
00:00:02.804,-0.00478883739560843,-0.0181813053786755,0.0046376003883779,0,
00:00:02.808,-0.00256258435547352,-0.00574937695637345,0.000957452633883804,0,
00:00:02.812,0.000568444957025349,0.00812576245516539,-0.00150460284203291,0,
00:00:02.816,0.00016877701273188,0.00825712736696005,0.0047097192145884,0,
00:00:02.82,0.00415163720026612,0.00814665015786886,0.000102308120403904,0,
00:00:02.824,0.00274821906350553,0.00236736214719713,0.000610834336839616,0,
00:00:02.828,0.000115996750537306,-0.00268861022777855,-0.00335711962543428,0,
00:00:02.832,-0.00367362098768353,-0.00665632914751768,-0.00439030257984996,0,
00:00:02.836,-0.00405926257371902,-0.00582760525867343,-0.00234550982713699,0,
00:00:02.84,0.00440726336091757,0.00205844221636653,0.0109531860798597,0,
00:00:02.844,0.0115386657416821,0.0142471231520176,0.00508127920329571,0,
00:00:02.848,-0.00793167389929295,0.00510304560884833,-0.00479471869766712,0,
00:00:02.852,-0.00860664620995522,-0.019636444747448,-0.00822525564581156,0,
00:00:02.856,-0.00495230499655008,-0.0159118715673685,-0.00340847577899694,0,
00:00:02.86,0.00420918269082904,0.00776486238464713,0.0016707880422473,0,
00:00:02.864,0.00582607742398977,0.0125692104920745,0.00804727803915739,0,
00:00:02.868,0.00559170311316848,0.00988427177071571,-0.00478328904137015,0,
00:00:02.872,-0.00570971332490444,-0.00303519447334111,-0.00625706650316715,0,
00:00:02.876,-0.00345971970818937,-0.0135340373963118,0.0165998134762049,0,
00:00:02.88,0.0111887464299798,0.0150825511664152,0.00958814192563295,0,
00:00:02.884,-0.000822151487227529,0.00647823559120297,-0.0151989087462425,0,
00:00:02.888,-0.00971607025712729,-0.0163956210017204,-0.0100710205733776,0,
00:00:02.892,-0.00295068160630763,-0.0111750653013587,0.000225297146243975,0,
00:00:02.896,0.00350679224357009,0.00208590109832585,0.00377957103773952,0,
00:00:02.9,-0.00110350188333541,0.0090973973274231,0.00144853885285556,0,
00:00:02.904,0.000630419526714832,0.0019811091478914,-0.000415759801398963,0,
00:00:02.908,0.00438038492575288,0.000785170064773411,0.00355964223854244,0,
00:00:02.912,0.00233490066602826,0.000651495298370719,0.0045414324849844,0,
00:00:02.916,-0.000570576579775661,0.000240552122704685,-0.00399684254080057,0,
00:00:02.92,-0.0042005586437881,0.00379786593839526,-0.00125682400539517,0,
00:00:02.924,0.00199970416724682,0.00151550851296633,0.00371995847672224,0,
00:00:02.928,0.0006999098113738,-0.0058638472110033,-0.00416946411132813,0,
00:00:02.932,-0.00338510633446276,-0.00355967134237289,-0.00339447846636176,0,
00:00:02.936,-0.00402955804020166,-0.010336434468627,-0.00242516957223415,0,
00:00:02.94,0.00241638883017004,0.00135317875538021,0.00375933456234634,0,
00:00:02.944,0.00132737448439002,0.00526580866426229,0.00590874720364809,0,
00:00:02.948,0.00386450230143964,0.0131299709901214,0.00580477761104703,0,
00:00:02.952,0.00374102266505361,0.00508630694821477,-0.0164891667664051,0,
00:00:02.956,-0.000809873919934034,-0.0035944958217442,0.00532788317650557,0,
00:00:02.96,-0.00570015236735344,-0.00299926521256566,0.00975868664681911,0,
00:00:02.964,-0.00361474417150021,-0.0159546434879303,-0.0117924576625228,0,
00:00:02.968,-0.000108042913780082,-0.00157873402349651,-0.00672804703935981,0,
00:00:02.972,-0.00206867326050997,0.00144416396506131,0.0107199307531118,0,
00:00:02.976,0.0063384915702045,0.00830776151269674,0.00930789206176996,0,
00:00:02.98,0.00680634332820773,0.0110718319192529,-0.00854059029370546,0,
00:00:02.984,-0.00141222996171564,0.00248888926580548,-0.00460618827491999,0,
00:00:02.988,-0.00396939646452665,-0.00275621726177633,-0.000288776936940849,0,
00:00:02.992,-0.00311474897898734,-0.0109638702124357,-1.60865365614882E-05,0,
00:00:02.996,-0.0031464877538383,-0.0106651755049825,9.52581758610904E-05,0,
00:00:03,0.00467471918091178,-0.00413770694285631,0.0130600305274129,0,
00:00:03.004,0.00100173626560718,0.0216336995363235,-0.000383043923648074,0,
00:00:03.008,-0.00238232500851154,0.00974574405699968,-0.00815551169216633,0,
00:00:03.012,0.00149865262210369,-0.0113357165828347,-0.00786985736340284,0,
00:00:03.016,0.00347423367202282,-0.00293986988253891,0.00103222473990172,0,
00:00:03.02,0.000284689827822149,-0.00320091284811497,0.00820245686918497,0,
00:00:03.024,-0.0043293246999383,0.00323549075983465,-0.000561933673452586,0,
00:00:03.028,-0.00479568960145116,-0.00489085773006082,-0.00611114781349897,0,
00:00:03.032,0.00206704554148018,0.000587131711654365,0.00517782336100936,0,
00:00:03.036,0.00341449328698218,0.00070898630656302,0.00373562821187079,0,
00:00:03.04,0.00208070501685143,0.00234539830125868,-0.00244045024737716,0,
00:00:03.044,0.000222179849515669,0.00460192887112498,-0.00287161627784371,0,
00:00:03.048,-0.000977654475718737,0.00350849237293005,0.00292944768443704,0,
00:00:03.052,-0.00123342615552247,-0.00577455526217818,-0.00564230838790536,0,
00:00:03.056,-0.000826060422696173,-0.000468111393274739,-0.00227235909551382,0,
00:00:03.06,0.0018611759878695,-0.000638864119537175,0.00633170828223228,0,
00:00:03.064,-0.00380561384372413,-0.00127516919746995,0.00405139848589897,0,
00:00:03.068,0.000747467391192913,-0.00311705120839179,-0.002322006970644,0,
00:00:03.072,0.00180214911233634,-0.000323035521432757,-0.00488900812342763,0,
00:00:03.076,-0.000907907320652157,-0.00206172117032111,0.000749792496208102,0,
00:00:03.08,0.00213438901118934,0.00240387208759785,0.00611427426338196,0,
00:00:03.084,0.00112854933831841,0.0130305886268616,-0.00275500002317131,0,
00:00:03.088,-0.000491283717565238,0.00201172032393515,-0.00529515650123358,0,
00:00:03.092,0.000780476082582027,-0.00942326057702303,0.000988647690974176,0,
00:00:03.096,-0.00312181306071579,-0.00482548680156469,0.00466537056490779,0,
00:00:03.1,-0.00421362463384867,-0.00304960343055427,-0.000196277484064922,0,
00:00:03.104,-0.000130308471852913,0.00330579956062138,-0.00544805964455009,0,
00:00:03.108,0.00909982528537512,0.00985350739210844,0.00517658982425928,0,
00:00:03.112,-0.00268780835904181,-0.0104889879003167,0.00326370541006327,0,
00:00:03.116,-0.00105492793954909,-0.00135721638798714,-0.00293418602086604,0,
00:00:03.12,0.0016235652146861,0.0113581428304315,-0.00102630257606506,0,
00:00:03.124,-0.00218422617763281,0.00173068384174258,-0.00312925432808697,0,
00:00:03.128,0.000367217056918889,-0.0108275450766087,-0.00101797142997384,0,
00:00:03.132,-0.00419456139206886,-0.00592195335775614,0.0053373440168798,0,
00:00:03.136,0.00126340729184449,-0.000633093586657196,-0.00403589522466064,0,
00:00:03.14,0.000509486941155046,0.0050619007088244,-0.00187555176671594,0,
00:00:03.144,0.00368947652168572,0.0124785611405969,0.00375002296641469,0,
00:00:03.148,0.00193268328439444,0.00406785542145371,0.00312366150319576,0,
00:00:03.152,0.00154751003719866,-0.00230314093641937,0.00270725693553686,0,
00:00:03.156,-0.00172153196763247,-0.00726424995809793,-0.00532956188544631,0,
00:00:03.16,-0.00742596387863159,-0.0174016151577234,-0.00149828300345689,0,
00:00:03.164,-0.000705377897247672,-0.00177033699583262,0.00015065583284013,0,
00:00:03.168,0.00237824930809438,0.0168157964944839,0.00269312295131385,0,
00:00:03.172,0.00266285007819533,0.00221323617734015,-0.00145875231828541,0,
00:00:03.176,-0.000575496698729694,0.00145390257239342,-0.00140574248507619,0,
00:00:03.18,0.00209781853482127,0.00606499193236232,-0.000181217852514237,0,
00:00:03.184,0.000900113664101809,-0.00111576856579632,-0.00135392788797617,0,
00:00:03.188,0.00133067858405411,-0.0105340201407671,0.00287990574724972,0,
00:00:03.192,-0.00136642216239125,-0.0108172269538045,0.00428458675742149,0,
00:00:03.196,-0.00689753470942378,0.00387491029687226,-0.00379048730246723,0,
00:00:03.2,0.00176510948222131,0.00731036718934774,-0.000769386999309063,0,
00:00:03.204,-0.00153118523303419,0.00491262134164572,7.53416316001676E-05,0,
00:00:03.208,0.00292605813592672,0.0010551642626524,0.00219290889799595,0,
00:00:03.212,0.00487586297094822,0.000398850330384448,9.87554376479238E-05,0,
00:00:03.216,-0.0030593101400882,-0.00654830597341061,-0.00782787520438433,0,
00:00:03.22,-0.00237697828561068,-0.00566628994420171,0.00209567230194807,0,
00:00:03.224,0.00419536838307977,0.00685424916446209,0.00396808004006743,0,
00:00:03.228,-0.000443026801804081,0.00476966425776482,0.0043579088523984,0,
00:00:03.232,-0.00178833515383303,-0.0022735889069736,-0.0019384560873732,0,
00:00:03.236,-0.00132740975823253,-0.00733272777870297,-0.00294089340604842,0,
00:00:03.24,-0.000324420398101211,0.000299664447084069,-0.00164238782599568,0,
00:00:03.244,0.00251511624082923,0.0096363453194499,-3.83417136617936E-05,0,
00:00:03.248,-0.00335678481496871,-0.000781367998570204,-0.00325098820030689,0,
00:00:03.252,0.000867308059241623,-0.00154234562069178,0.000816618092358112,0,
00:00:03.256,-0.000409184402087703,-0.00667449831962585,0.0119982110336423,0,
00:00:03.26,0.0049856579862535,0.0018188264220953,0.00600392697378993,0,
00:00:03.264,-0.00244359252974391,-0.00376725080423057,-0.0170357935130596,0,
00:00:03.268,-9.18666773941368E-05,0.00674757547676563,-0.00138537539169192,0,
00:00:03.272,0.00203991495072842,-0.00392294488847256,0.00259534735232592,0,
00:00:03.276,-0.00237228930927813,0.0137135582044721,-0.00417644809931517,0,
00:00:03.28,-0.00421501835808158,-0.00457550352439284,0.00443046260625124,0,
00:00:03.284,0.00564655428752303,-0.00745117012411356,0.0106774726882577,0,
00:00:03.288,-0.00355305685661733,-0.00389234907925129,-0.00857987999916077,0,
00:00:03.292,0.00217015785165131,0.0003645216638688,-0.00208737072534859,0,
00:00:03.296,-0.000643802632112056,0.00061218929477036,0.00061559648020193,0,
00:00:03.3,-0.000536204548552632,0.00266984035260975,0.00113777548540384,0,
00:00:03.304,0.000177495399839245,0.00721490988507867,-0.00138240098021924,0,
00:00:03.308,-0.00151413038838655,-0.00423774728551507,0.00205663195811212,0,
00:00:03.312,0.00246412283740938,-0.00335428235121071,0.00134071998763829,0,
00:00:03.316,0.00181834830436856,0.00622779550030828,0.0018785399151966,0,
00:00:03.32,0.00212978036142886,0.00429010717198253,-0.00513322046026587,0,
00:00:03.324,-0.00308630638755858,-0.00267314584925771,-0.00489339744672179,0,
00:00:03.328,-0.00291896285489202,-0.0101383263245225,0.00487553933635354,0,
00:00:03.332,-0.00301944999955595,-0.0112314857542515,0.0105842556804419,0,
00:00:03.336,0.00272311712615192,0.00754006626084447,-0.00705804536119103,0,
00:00:03.34,0.00303435348905623,0.00986837316304445,-0.00665883487090468,0,
00:00:03.344,0.00129776855465025,0.00717731844633818,-0.00130410469137132,0,
00:00:03.348,-0.00247778696939349,-0.00439794594421983,0.00060080538969487,0,
00:00:03.352,-0.00129852071404457,-0.0071961646899581,0.00350339780561626,0,
00:00:03.356,0.00251952977851033,0.010130513459444,0.00177468417678028,0,
00:00:03.36,0.00544297881424427,-0.00359363574534655,0.00820346642285585,0,
00:00:03.364,-0.000408141291700304,-0.0103130647912621,0.0182732157409191,0,
00:00:03.368,-0.0128700248897076,-0.00355662847869098,-0.0120392674580216,0,
00:00:03.372,-0.000926355074625462,0.00341171841137111,-0.0355252586305141,0,
00:00:03.376,0.00416396604850888,0.00801873207092285,-0.00831763353198767,0,
00:00:03.38,0.00437087658792734,0.00456550065428019,0.00958073977380991,0,
00:00:03.384,0.00432984530925751,-0.000203253672225401,0.0315669737756252,0,
00:00:03.388,-0.0041040675714612,-0.00300009804777801,0.00782186631113291,0,
00:00:03.392,-0.00313086458481848,-0.00325471814721823,-0.0148436864838004,0,
00:00:03.396,0.00395785039290786,-0.00190163287334144,-0.00476802885532379,0,
00:00:03.4,-0.000286621041595936,-0.00229721423238516,-0.00329811661504209,0,
00:00:03.404,-0.00148279312998056,0.00494835106655955,0.00183623831253499,0,
00:00:03.408,-0.00107617641333491,0.00292892497964203,-0.000243424146901816,0,
00:00:03.412,-0.00229466357268393,-0.00466123223304749,0.00039403248229064,0,
00:00:03.416,0.00238659465685487,-0.00454086996614933,0.00312651414424181,0,
00:00:03.42,0.00224083918146789,0.0029993811622262,0.00109479087404907,0,
00:00:03.424,0.000616582867223769,0.00424706982448697,-0.00109966401942074,0,
00:00:03.428,-0.000694610294885933,0.00438785506412387,-0.00395027361810207,0,
00:00:03.432,-0.00111939595080912,0.00411064922809601,-0.00146990828216076,0,
00:00:03.436,-0.000826278002932668,-0.00296047888696194,0.00118424056563526,0,
00:00:03.44,-0.000255539227509871,-0.00660962890833616,0.000111220833787229,0,
00:00:03.444,0.00228976830840111,-0.00752380350604653,0.0119472267106175,0,
00:00:03.448,-0.00156545150093734,-0.00402011116966605,-0.00782452896237373,0,
00:00:03.452,-0.00128772517200559,-0.00538668315857649,-0.00696417689323425,0,
00:00:03.456,-0.0041566276922822,0.00173246394842863,0.0115548437461257,0,
00:00:03.46,0.00270980806089938,0.0258455909788609,-0.00233673676848412,0,
00:00:03.464,0.00410182727500796,0.0190806295722723,-0.0118047995492816,0,
00:00:03.468,0.0127832135185599,-0.0106040639802814,0.00253557623364031,0,
00:00:03.472,-0.00361136510036886,-0.014035671018064,0.000752287392970175,0,
00:00:03.476,-0.0156341604888439,-0.0205276813358068,0.00247260835021734,0,
00:00:03.48,-0.00553270801901817,-0.00832567922770977,0.00306616770103574,0,
00:00:03.484,0.00257372227497399,0.01116759236902,0.00405722111463547,0,
00:00:03.488,0.00578059675171971,0.0136174047365785,-0.00172816612757742,0,
00:00:03.492,0.0027546260971576,0.00766582740470767,-0.00271166162565351,0,
00:00:03.496,0.00604139594361186,-0.00161917670629919,0.000399134878534824,0,
00:00:03.5,-0.00096888467669487,-0.00409971876069903,-0.00230189878493547,0,
00:00:03.504,-0.00341435871087015,-0.00121076579671353,0.000958654680289328,0,
00:00:03.508,-0.00292095867916942,0.00279432651586831,-0.00143043964635581,0,
00:00:03.512,0.000827390467748046,-0.00334383407607675,-0.00032205821480602,0,
00:00:03.516,-0.00169668486341834,-0.00202464195899665,-0.00735083408653736,0,
00:00:03.52,-0.00268366700038314,-0.00809749308973551,0.0133512010797858,0,
00:00:03.524,0.000735517125576735,-0.00961487740278244,0.0117626469582319,0,
00:00:03.528,0.00501286424696445,0.0106811784207821,-0.00828046351671219,0,
00:00:03.532,0.00288571300916374,0.0148366009816527,-0.00852943863719702,0,
00:00:03.536,-0.000316875957651064,0.0104893362149596,-0.00515424972400069,0,
00:00:03.54,-6.27602057647891E-05,0.00585972052067518,-0.00910376105457544,0,
00:00:03.544,-0.00209870003163815,-0.0137200821191072,0.00186776695773005,0,
00:00:03.548,-0.00896286591887474,-0.0264155771583319,0.015607594512403,0,
00:00:03.552,0.00418050680309534,-0.00487864809110761,0.0137829398736358,0,
00:00:03.556,0.00267936545424163,0.00639388104900718,-0.00408007297664881,0,
00:00:03.56,-0.00272040627896786,0.00737224332988262,-0.00932208634912968,0,
00:00:03.564,0.00432284874841571,0.0133651802316308,-0.00907893013209105,0,
00:00:03.568,0.00918391905725002,0.0132169900462031,-0.00228374963626266,0,
00:00:03.572,-0.00823708344250917,-0.00299469474703074,0.00528671592473984,0,
00:00:03.576,-0.0030618766322732,-0.0126873916015029,0.00293194083496928,0,
00:00:03.58,-0.00524216052144766,-0.00981585867702961,0.00190473766997457,0,
00:00:03.584,0.00385317695327103,-0.000822890782728791,0.00293891271576285,0,
00:00:03.588,0.00170623476151377,0.000632983457762748,-0.0021174952853471,0,
00:00:03.592,0.00100295036099851,0.00510567240417004,-0.00241871131584048,0,
00:00:03.596,0.00054131104843691,0.00163819070439786,-0.00315735791809857,0,
00:00:03.6,-0.00406232383102179,-0.00336848245933652,0.00217076041735709,0,
00:00:03.604,0.00369652803055942,0.000221691516344436,0.00449652876704931,0,
00:00:03.608,0.00496645364910364,0.00519182300195098,0.0051364260725677,0,
00:00:03.612,-0.00196053832769394,0.00945102237164974,-0.00602486031129956,0,
00:00:03.616,-0.00143273954745382,3.53266805177554E-05,-0.0123417340219021,0,
00:00:03.62,-0.00215207436122,-0.00707395793870091,0.00377305527217686,0,
00:00:03.624,-0.00395748903974891,-0.00991990976035595,0.00846283696591854,0,
00:00:03.628,-0.00292992894537747,-0.0105838356539607,-0.000553014921024442,0,
00:00:03.632,0.00394354993477464,0.00558133283630013,-0.00383904809132218,0,
00:00:03.636,0.00443379860371351,0.0116410208866,-0.00279630813747644,0,
00:00:03.64,4.76282257295679E-05,-0.00378806563094258,0.00394722726196051,0,
00:00:03.644,0.00163020077161491,0.00354616390541196,0.0123804584145546,0,
00:00:03.648,-0.00210165348835289,0.00808373745530844,0.00810458790510893,0,
00:00:03.652,0.00460060313344002,0.0117579223588109,-0.0193503070622683,0,
00:00:03.656,-0.00204232870601118,-0.0145153077319264,-0.0163358747959137,0,
00:00:03.66,-0.00828856602311134,-0.0164696611464024,0.00273632211610675,0,
00:00:03.664,-0.00103716203011572,-0.0009426663746126,0.00910567678511143,0,
00:00:03.668,0.00471009500324726,0.00511808320879936,0.00545430323109031,0,
00:00:03.672,0.00119043455924839,0.0012449094792828,0.00284555018879473,0,
00:00:03.676,0.0002707616367843,0.00285793049260974,0.000471698265755549,0,
00:00:03.68,-0.00196751742623746,0.00353847863152623,-0.00120604608673602,0,
00:00:03.684,0.00408539734780788,0.00643618078902364,0.000244799972278997,0,
00:00:03.688,-0.000407329353038222,-0.00579150998964906,-0.0055860229767859,0,
00:00:03.692,-0.00370657676830888,-0.000567253504414111,0.00163143663667142,0,
00:00:03.696,0.00284068286418915,0.00784739758819342,0.00360153894871473,0,
00:00:03.7,0.00140998198185116,-0.00901750009506941,-0.0041819061152637,0,
00:00:03.704,-0.00311448588036001,-0.00354492012411356,-0.00696004647761583,0,
00:00:03.708,-3.84934210160282E-05,0.00103126128669828,0.000199970279936679,0,
00:00:03.712,-0.00399237079545856,-0.0181296113878489,0.0219368692487478,0,
00:00:03.716,0.00172505783848464,0.00919649563729763,-0.00391945103183389,0,
00:00:03.72,0.00296357087790966,0.022365914657712,-0.0120703689754009,0,
00:00:03.724,0.00185043504461646,-0.00412689801305532,-0.00244392268359661,0,
00:00:03.728,0.000207631819648668,-0.000623893167357892,-0.00118516269139946,0,
00:00:03.732,-0.000891133153345436,-0.00644905166700482,-0.00270316423848271,0,
00:00:03.736,-0.00115019676741213,0.000446682242909446,0.00255021965131164,0,
00:00:03.74,-0.0007959880749695,0.00662068743258715,0.00959700532257557,0,
00:00:03.744,0.00183909852057695,-0.00260365149006248,0.00469938013702631,0,
00:00:03.748,-0.00177671504206955,-0.0101011376827955,-0.00362231326289475,0,
00:00:03.752,-0.00127065426204354,-0.00454693986102939,-0.00475035281851888,0,
00:00:03.756,0.000137547322083265,-0.00192193652037531,-0.000645831634756178,0,
00:00:03.76,0.000989677384495735,0.0134831601753831,-0.00225418689660728,0,
00:00:03.764,-0.00106211425736547,0.0019459119066596,-0.000440519361291081,0,
00:00:03.768,-0.00164768006652594,-0.00514591298997402,0.0012937969295308,0,
00:00:03.772,0.00971623882651329,0.00705693149939179,-0.00236873305402696,0,
00:00:03.776,0.00536976661533117,0.004998120944947,0.00102027493994683,0,
00:00:03.78,-0.0142725175246596,-0.0153449587523937,0.0179018527269363,0,
00:00:03.784,-0.00224545295350254,0.00707683898508549,0.00370625825598836,0,
00:00:03.788,-0.000299934879876673,0.00422415649518371,-0.0201177168637514,0,
00:00:03.792,0.00410145381465554,-0.0149701675400138,-0.0113288080319762,0,
00:00:03.796,-0.00337838404811919,0.00232550990767777,-0.00636855559423566,0,
00:00:03.8,0.0063445377163589,0.00979931000620127,0.010272990912199,0,
00:00:03.804,0.00378499715588987,-0.00478285131976008,0.0161787606775761,0,
00:00:03.808,-0.00711557595059276,-0.00744830491021276,0.00242549739778042,0,
00:00:03.812,0.000468664598884061,0.00506462482735515,-0.00349813839420676,0,
00:00:03.816,0.0016609966987744,0.00660518044605851,-0.00447822036221623,0,
00:00:03.82,0.00270061497576535,0.00938292220234871,0.00326437270268798,0,
00:00:03.824,-0.000375147676095366,-0.00045651278924197,-0.00887962803244591,0,
00:00:03.828,-0.00450448878109455,-0.0116394264623523,-0.000259422260569409,0,
00:00:03.832,-0.00249012280255556,-0.0103022065013647,-0.00179095636121929,0,
00:00:03.836,-0.00160516146570444,0.00289315823465586,0.00603782292455435,0,
00:00:03.84,0.00612629530951381,0.00339906825684011,0.00417801784351468,0,
00:00:03.844,-0.000380240933736786,0.00133322575129569,-0.00392930023372173,0,
00:00:03.848,0.0015402112621814,0.00424250261858106,0.00167097605299205,0,
00:00:03.852,0.00263277138583362,0.0022860593162477,-0.00139672821387649,0,
00:00:03.856,-0.00685113435611129,-0.00461123092100024,0.00289144297130406,0,
00:00:03.86,0.0031301632989198,0.00401834957301617,-0.00213453685864806,0,
00:00:03.864,0.00428106216713786,0.00965099688619375,-0.00685912510380149,0,
00:00:03.868,-0.00477885082364082,-0.0122987283393741,0.000630584952887148,0,
00:00:03.872,-0.00394354667514563,-0.0101554747670889,0.00564649142324924,0,
00:00:03.876,-0.000490389298647642,-0.00358329387381673,0.00116750632878393,0,
00:00:03.88,0.0019557592459023,0.0025461190380156,0.00169161567464471,0,
00:00:03.884,0.0024530531372875,0.0158674735575914,0.00357402628287673,0,
00:00:03.888,0.00363410147838295,0.00558921508491039,-0.0122308470308781,0,
00:00:03.892,-0.00378220365382731,-0.0090841893106699,0.00067035312531516,0,
00:00:03.896,0.00175160740036517,0.00393572635948658,0.00156409584451467,0,
00:00:03.9,-0.00145602016709745,-0.00613564113155007,0.00645916443318129,0,
00:00:03.904,-0.00134335900656879,-0.00897878780961037,0.00418214919045568,0,
00:00:03.908,-0.000277261628070846,0.00341145461425185,-0.010497285053134,0,
00:00:03.912,-0.00153944338671863,0.00782707985490561,-0.00775102246552706,0,
00:00:03.916,0.00480102049186826,0.00145658559631556,0.0121056688949466,0,
00:00:03.92,0.000174985223566182,-0.00135320983827114,0.00332356966100633,0,
00:00:03.924,-0.00342468451708555,-0.00393118895590305,-0.00148846488445997,0,
00:00:03.928,0.000773393665440381,0.00077605020487681,-0.00490498729050159,0,
00:00:03.932,0.0032449048012495,0.00342789548449218,-0.0042237276211381,0,
00:00:03.936,-0.00163179123774171,0.00477041816338897,0.00500712869688869,0,
00:00:03.94,-0.004111313726753,-0.00994733441621065,0.0060908030718565,0,
00:00:03.944,0.00532403821125627,-0.00167286652140319,-0.00563194928690791,0,
00:00:03.948,0.000167582111316733,0.00779644586145878,-0.00582577055320144,0,
00:00:03.952,-0.0083128847181797,-0.0163452420383692,0.00669727148488164,0,
00:00:03.956,0.00190085917711258,0.00197877734899521,0.015088215470314,0,
00:00:03.96,0.0061796335503459,0.0155689287930727,-0.0122301513329148,0,
00:00:03.964,0.000555173784960061,0.0102794598788023,-0.0115458276122808,0,
00:00:03.968,-0.00143505074083805,-0.00599338999018073,-0.00265605375170708,0,
00:00:03.972,-0.00352873583324254,-0.0130608659237623,0.00426810560747981,0,
00:00:03.976,0.00333858281373978,0.000656559888739139,0.00621120585128665,0,
00:00:03.98,-0.00238849502056837,0.000675116782076657,0.00638000713661313,0,
00:00:03.984,0.000916868564672768,0.00527399219572544,-0.00506054749712348,0,
00:00:03.988,-0.00102478754706681,-0.00273707835003734,-0.00743983825668693,0,
00:00:03.992,0.00428257370367646,-0.00865105912089348,0.0231641549617052,0,
00:00:03.996,-0.000762924377340823,0.00588846765458584,-0.00592117058113217,0,
00:00:04,0.0020817571785301,0.00855298340320587,-0.00597687903791666,0,
00:00:04.004,-0.00537525350227952,0.00234185857698321,-0.0154457157477736,0,
00:00:04.008,-0.0035509888548404,-0.00313338148407638,-0.00755623122677207,0,
00:00:04.012,-0.00187178980559111,-0.00689058564603329,0.00907270796597004,0,
00:00:04.016,0.00445339502766728,-0.00763752358034253,0.0108242416754365,0,
00:00:04.02,0.00219600927084684,0.00466515682637692,0.00365972425788641,0,
00:00:04.024,0.00567802879959345,0.00826500169932842,-0.00226973346434534,0,
00:00:04.028,0.00508992094546556,0.00742078246548772,-0.00411511911079288,0,
00:00:04.032,-0.011354404501617,-0.00574464816600084,0.00549226440489292,0,
00:00:04.036,-0.00979728531092405,-0.0133549040183425,0.00826852954924107,0,
00:00:04.04,0.00823010131716728,-0.00167883175890893,-0.00440243259072304,0,
00:00:04.044,-0.00163652596529573,0.00530704483389854,-0.0152559736743569,0,
00:00:04.048,0.00645573250949383,0.00842158030718565,-0.00494083855301142,0,
00:00:04.052,0.00113411550410092,0.00376972230151296,0.000989319523796439,0,
00:00:04.056,-0.00362806906923652,-0.00341535243205726,0.00599665427580476,0,
00:00:04.06,-0.000102233760117088,-0.00182112527545542,0.00652862992137671,0,
00:00:04.064,0.00235843285918236,0.00232480559498072,0.00582913728430867,0,
00:00:04.068,-0.00212035281583667,-0.00335558550432324,0.000326226727338508,0,
00:00:04.072,-0.00206195353530347,-0.00590320443734527,-0.00574916321784258,0,
00:00:04.076,-0.000535445287823677,-0.00385299674235284,-0.00452458113431931,0,
00:00:04.08,0.000731264182832092,0.00835142191499472,-0.00126751535572112,0,
00:00:04.084,0.00322572817094624,0.0054959082044661,-0.00503173610195518,0,
00:00:04.088,-0.00318982102908194,-0.0125884795561433,0.0162294898182154,0,
00:00:04.092,0.00062224455177784,0.000194306674529798,0.00890335068106651,0,
00:00:04.096,0.0012740952661261,0.012253338471055,-0.0174995679408312,0,
00:00:04.1,0.000618979276623577,0.0100168101489544,-0.00982198771089315,0,
00:00:04.104,0.0019039906328544,-0.00854306574910879,0.00240991124883294,0,
00:00:04.108,-0.00462805666029453,-0.00978023745119572,0.0060859052464366,0,
00:00:04.112,-0.000215611114981584,-0.0063783866353333,0.000571256969124079,0,
00:00:04.116,0.00118736340664327,0.00109574804082513,0.00351910362951458,0,
00:00:04.12,0.00103318283800036,0.0033130943775177,0.00644933898001909,0,
00:00:04.124,-0.00170555931981653,0.0114444568753242,-0.00400396250188351,0,
00:00:04.128,-0.000287568283965811,0.00658334605395794,-0.00287127424962819,0,
00:00:04.132,0.00735583249479532,-0.00514493463560939,-0.00430313963443041,0,
00:00:04.136,-0.000403718033339828,-0.00999408215284348,-0.00128103198949248,0,
00:00:04.14,-0.00607213750481606,-0.00320034055039287,0.00358204613439739,0,
00:00:04.144,-0.00382542936131358,0.00280733313411474,0.000480634975247085,0,
00:00:04.148,-1.27004241221584E-05,-0.00587631249800324,0.00433037849143147,0,
00:00:04.152,0.00232168403454125,0.00443801702931523,0.00265340274199843,0,
00:00:04.156,0.0025855319108814,0.00384969497099519,-0.00886337086558342,0,
00:00:04.16,0.00358972419053316,0.00719896517693996,-0.0072630331851542,0,
00:00:04.164,-0.00596947176381946,-0.000552389246877283,0.00502855004742742,0,
00:00:04.168,0.00155998335685581,-0.0036595887504518,0.006014050450176,0,
00:00:04.172,0.00212776986882091,-0.00965619273483753,0.000617665646132082,0,
00:00:04.176,0.000493466854095459,0.000110764267446939,0.00130691158119589,0,
00:00:04.18,-0.000901423569303006,0.0172966383397579,-0.00272018578834832,0,
00:00:04.184,0.000779880967456847,0.00116770970635116,-0.00621193461120129,0,
00:00:04.188,-0.00701524503529072,-0.00942455139011145,-0.000545911374501884,0,
00:00:04.192,0.00418114382773638,-0.0162399988621473,0.0204770136624575,0,
00:00:04.196,0.00353210233151913,0.00763746118173003,-0.00306740449741483,0,
00:00:04.2,-0.00190577376633883,0.00689052464440465,-0.0124699808657169,0,
00:00:04.204,-0.00413810694590211,-0.00311472453176975,-0.00587580306455493,0,
00:00:04.208,0.00139819178730249,0.00149797345511615,-0.00246854056604207,0,
00:00:04.212,0.00230195210315287,0.00696347327902913,0.000563889276236296,0,
00:00:04.216,0.0012290506856516,-0.00014255617861636,0.00482196314260364,0,
00:00:04.22,-0.00215899129398167,-0.0094592347741127,0.00768096791580319,0,
00:00:04.224,0.00115824956446886,0.00274379551410675,-0.000684218306560069,0,
00:00:04.228,0.00285592814907432,0.0137106440961361,0.000605077424552292,0,
00:00:04.232,-0.000210082172998227,-0.00510897999629378,0.00579877896234393,0,
00:00:04.236,-0.00242400076240301,-0.0115670254454017,-0.00323770823888481,0,
00:00:04.24,-0.00664787134155631,-0.0122208585962653,-0.012597119435668,0,
00:00:04.244,0.000685475533828139,0.00292261876165867,-0.000852732104249299,0,
00:00:04.248,0.00347598851658404,0.0118140112608671,0.00570288300514221,0,
00:00:04.252,0.00305111170746386,0.00870220921933651,-0.000329399743350223,0,
00:00:04.256,-0.000816184037830681,-3.72891445294954E-05,0.0022680361289531,0,
00:00:04.26,0.00156546733342111,-0.00516930548474193,-0.000551929697394371,0,
00:00:04.264,0.000412183202570304,0.00303629878908396,0.0019866181537509,0,
00:00:04.268,0.00107223098166287,0.00418630335479975,-0.00347500713542104,0,
00:00:04.272,-0.00345778069458902,-0.00728411041200161,0.00509861903265119,0,
00:00:04.276,-0.00271401391364634,-0.0133472513407469,-0.00436228699982166,0,
00:00:04.28,-0.00255776150152087,-0.00482162227854133,0.00567830493673682,0,
00:00:04.284,0.00521574774757028,0.0209102351218462,-0.00287237530574203,0,
00:00:04.288,-0.00287970923818648,-0.00343859009444714,-0.00174457824323326,0,
00:00:04.292,0.00776037620380521,0.00639946106821299,-0.00572060327976942,0,
00:00:04.296,-0.00136719876900315,-0.000926348613575101,0.000954578747041523,0,
00:00:04.3,-0.00342728663235903,-0.00874903053045273,-0.000949990993831307,0,
00:00:04.304,-0.00220267847180367,-0.00452800374478102,0.00658007152378559,0,
00:00:04.308,-0.00236705108545721,0.00111964088864625,0.00427378015592694,0,
00:00:04.312,0.00708549376577139,0.0142883704975247,0.00406941724941134,0,
00:00:04.316,0.000995095120742917,-9.40836107474752E-05,-0.0108682466670871,0,
00:00:04.32,-0.00634629931300879,-0.0125818559899926,-0.00237058871425688,0,
00:00:04.324,-0.00274947099387646,-0.00626385165378451,-0.000899640028364956,0,
00:00:04.328,-0.000325239700032398,0.00215978315100074,0.00593836326152086,0,
00:00:04.332,0.00967998430132866,0.0102801630273461,0.000942673243116587,0,
00:00:04.336,0.00458138203248382,0.00138099677860737,-0.0031706397421658,0,
00:00:04.34,-0.00626062462106347,0.000940158031880856,0.000685513892676681,0,
00:00:04.344,-0.0136453220620751,-0.00116159534081817,-0.00110366032458842,0,
00:00:04.348,-0.00165561190806329,0.00184321228880435,-0.00405248953029513,0,
00:00:04.352,0.0452994927763939,-0.00598587701097131,0.00921595189720392,0,
00:00:04.356,-0.0115733658894897,-0.00631002243608236,0.00670589180663228,0,
00:00:04.36,-0.0319092981517315,0.00177022709976882,-0.00833877362310886,0,
00:00:04.364,-0.0104608181864023,0.0082457484677434,-0.0050811143592,0,
00:00:04.368,0.00571542838588357,0.0032538422383368,-0.00554695911705494,0,
00:00:04.372,0.0116824777796865,-0.0104573043063283,0.000967232510447502,0,
00:00:04.376,0.00111749023199081,-0.00874019134789705,0.0196988750249147,0,
00:00:04.38,0.0156828295439482,0.0131957810372114,0.00168608280364424,0,
00:00:04.384,-0.00098514067940414,0.00960768945515156,-0.0168096534907818,0,
00:00:04.388,-0.00250543700531125,0.000293792720185593,-0.0097977127879858,0,
00:00:04.392,-0.00572444498538971,-0.00976924132555723,0.00131237134337425,0,
00:00:04.396,-0.00994738657027483,-0.00646943692117929,0.00528319226577878,0,
00:00:04.4,-0.00128470605704933,0.00162983464542776,0.0091796824708581,0,
00:00:04.404,0.00323713151738048,0.00341976946219802,0.0113901300355792,0,
00:00:04.408,0.00611920328810811,0.0106066074222326,-0.00414501549676061,0,
00:00:04.412,-0.00142600375693291,-0.00735417380928993,-0.0105272717773914,0,
00:00:04.416,-0.00111034815199673,-0.0113804042339325,-0.00207491451874375,0,
00:00:04.42,0.00471360376104712,0.00223352503962815,-0.00413481146097183,0,
00:00:04.424,-0.000600096944253892,0.00592984305694699,0.000115359573101159,0,
00:00:04.428,-0.00228856829926372,0.00217268499545753,0.00761448172852397,0,
00:00:04.432,-0.00389987789094448,0.00300253601744771,-3.16969781124499E-05,0,
00:00:04.436,0.00343945133499801,0.00234283437021077,0.00315180514007807,0,
00:00:04.44,6.17684418102726E-05,-0.00188760797027498,-0.00414903415367007,0,
00:00:04.444,-0.002730926964432,0.000108977968920954,-0.0049523925408721,0,
00:00:04.448,0.00164848181884736,-0.0176960304379463,0.00411900877952576,0,
00:00:04.452,-0.000301174906780943,-0.00709792086854577,0.00351830036379397,0,
00:00:04.456,0.00250512408092618,0.0246141217648983,0.00459505524486303,0,
00:00:04.46,0.00318407244049013,0.0122678214684129,-0.00564713543280959,0,
00:00:04.464,-0.00269594858400524,-0.00267026550136507,-0.00744130648672581,0,
00:00:04.468,-0.00523541867733002,-0.0140980640426278,-0.00378563906997442,0,
00:00:04.472,0.00470574339851737,-0.00514803826808929,0.00507874321192503,0,
00:00:04.476,-0.00400475785136223,-0.00489060021936893,0.00399373099207878,0,
00:00:04.48,-0.00192967487964779,-0.0029124456923455,0.00307196308858693,0,
00:00:04.484,0.00779453618451953,0.00502157025039196,0.0158639848232269,0,
00:00:04.488,-0.000839041953440756,0.0145773366093636,-0.00184280599933118,0,
00:00:04.492,-0.00460238056257367,0.00237043225206435,-0.0248877890408039,0,
00:00:04.496,-0.00152930023614317,-0.00314969988539815,-0.00651694973930717,0,
00:00:04.5,0.00573687860742211,0.00200277101248503,-0.000103099147963803,0,
00:00:04.504,0.000698535528499633,-0.00676753465086222,0.00709155667573214,0,
00:00:04.508,-0.00349842570722103,-0.00579739175736904,0.0108185363933444,0,
00:00:04.512,0.000388992397347465,-0.00365653610788286,0.00364965479820967,0,
00:00:04.516,0.000803946633823216,0.00385594600811601,-0.000659856130369008,0,
00:00:04.52,0.000176847635884769,0.00476075988262892,-0.000542493653483689,0,
00:00:04.524,0.0017223748145625,0.00470403442159295,-0.00261644413694739,0,
00:00:04.528,-0.00244713434949517,0.00229018344543874,-0.00535724125802517,0,
00:00:04.532,-0.00192509475164115,-0.00698270788416266,0.00181072461418808,0,
00:00:04.536,-0.000187669924343936,-0.00924030691385269,0.00122129532974213,0,
00:00:04.54,-0.00105612946208566,-0.000743087031878531,-0.0046804565936327,0,
00:00:04.544,0.0032255866099149,0.00973140727728605,0.00274012028239667,0,
00:00:04.548,0.00450753746554255,0.0087645361199975,-0.00165583996567875,0,
00:00:04.552,-0.00373660773038864,0.00274119339883327,-0.00188262667506933,0,
00:00:04.556,-0.00291416724212468,-0.011118377558887,0.00402942486107349,0,
00:00:04.56,0.00609057582914829,-0.00356521527282894,0.00798905361443758,0,
00:00:04.564,-0.0022802900057286,-0.00451662065461278,0.00146105908788741,0,
00:00:04.568,-0.00729769328609109,0.000708792766090482,-0.00624482939019799,0,
00:00:04.572,0.00270361709408462,0.00844504404813051,-0.00145935756154358,0,
00:00:04.576,0.00393798248842359,0.00254992768168449,-0.0080027561634779,0,
00:00:04.58,0.008056222461164,0.00119753659237176,-0.00217734067700803,0,
00:00:04.584,-0.0188109092414379,-0.00403210613876581,0.0058082127943635,0,
00:00:04.588,-0.00705341063439846,-0.0033544956240803,0.00568664167076349,0,
00:00:04.592,0.015603550709784,-0.00299539277330041,-0.00177460489794612,0,
00:00:04.596,-0.00611441163346171,-0.00327005935832858,0.00525308446958661,0,
00:00:04.6,-0.013168266043067,0.00917943753302097,0.00110722158569843,0,
00:00:04.604,0.163487672805786,0.0166965313255787,-0.00746859284117818,0,
00:00:04.608,-0.0919153019785881,-0.00770323630422354,-0.00676664849743247,0,
00:00:04.612,-0.13562485575676,-0.0223115012049675,0.00214516324922442,0,
00:00:04.616,-0.022463059052825,-0.000977758667431772,0.0108673330396414,0,
00:00:04.62,0.0771198496222496,0.0163337793201208,0.00154395308345556,0,
00:00:04.624,0.0575862713158131,0.0105126891285181,-0.00805583503097296,0,
00:00:04.628,-0.00511360913515091,-0.016755124554038,-0.00489726383239031,0,
00:00:04.632,-0.00341793289408088,-0.0117133613675833,0.00250684446655214,0,
00:00:04.636,-0.0062718759290874,0.0108646843582392,0.00349664152599871,0,
00:00:04.64,-0.0056815929710865,0.0168797895312309,0.00185019569471478,0,
00:00:04.644,-0.0062392195686698,0.00138004042673856,-0.00211958261206746,0,
00:00:04.648,-0.00884918123483658,-0.0244460422545671,0.00918686389923096,0,
00:00:04.652,0.00427552638575435,0.00482702488079667,-0.00742733059450984,0,
00:00:04.656,0.00431636394932866,0.014329263009131,-0.0091270636767149,0,
00:00:04.66,-0.00721113476902246,-0.0113023230805993,-0.00377634190954268,0,
00:00:04.664,0.0108504602685571,0.00519581558182836,0.0103566022589803,0,
00:00:04.668,-0.00319391465745866,-0.00363145628944039,0.00332426163367927,0,
00:00:04.672,-0.00160058436449617,-0.00490493467077613,0.00258809560909867,0,
00:00:04.676,-0.00248718075454235,0.00427061319351196,-0.000523563532624394,0,
00:00:04.68,0.00638004206120968,-0.00235008378513157,-0.000450351973995566,0,
00:00:04.684,-0.00186410383321345,0.00264294049702585,-0.00459825852885842,0,
00:00:04.688,-0.00277393567375839,0.00750218192115426,-0.00518849771469831,0,
00:00:04.692,-0.00108088180422783,0.00602276483550668,-0.00451829610392451,0,
00:00:04.696,0.000596244120970368,-0.0157092474400997,0.0112927472218871,0,
00:00:04.7,0.00128712446894497,-0.0045369234867394,0.0113933142274618,0,
00:00:04.704,-0.00101784593425691,0.00883375573903322,-0.00654022255912423,0,
00:00:04.708,0.00238063838332891,-0.00116402260027826,-0.0083438940346241,0,
00:00:04.712,0.00352816632948816,0.00062226940644905,-0.00592147465795279,0,
00:00:04.716,-0.00227500055916607,0.00262472406029701,-0.00130368501413614,0,
00:00:04.72,-0.000858368934132159,0.00215637171640992,0.0108713693916798,0,
00:00:04.724,-0.00550002045929432,-0.00600425060838461,0.00452925963327289,0,
00:00:04.728,-0.00362680666148663,-0.0101473443210125,-0.00268221250735223,0,
00:00:04.732,0.00440445868298411,0.00614484027028084,-0.00100673129782081,0,
00:00:04.736,0.0156630259007216,0.00553657580167055,0.00291442195884883,0,
00:00:04.74,-0.00720243528485298,0.00740503054112196,-0.00524991564452648,0,
00:00:04.744,-0.00646508717909455,-0.00133925955742598,-0.0041014738380909,0,
00:00:04.748,-0.000756992492824793,-0.00248003099113703,-0.000470851227873936,0,
00:00:04.752,-0.00356864673085511,-0.00792742148041725,2.22494636545889E-05,0,
00:00:04.756,0.00242877844721079,-0.00123911607079208,0.00254649785347283,0,
00:00:04.76,0.00350368651561439,0.00199517258442938,0.00119536719284952,0,
00:00:04.764,0.00208685384131968,0.00879604835063219,0.00821679178625345,0,
00:00:04.768,-0.00603538379073143,-0.00634034490212798,1.29376785480417E-05,0,
00:00:04.772,0.00489723403006792,-0.0087816771119833,-0.00205241027288139,0,
00:00:04.776,0.01193992421031,0.00653620855882764,-0.00833513587713242,0,
00:00:04.78,-0.0123926792293787,0.00268569472245872,0.000165039687999524,0,
00:00:04.784,-0.00330952950753272,0.0102604143321514,-0.000448451261036098,0,
00:00:04.788,-0.00224229996092618,0.00158367573749274,0.000829065742436796,0,
00:00:04.792,0.000612441683188081,-0.0061096684075892,0.00167513557244092,0,
00:00:04.796,0.00235094712115824,-0.0139846419915557,-0.00261980085633695,0,
00:00:04.8,0.000293237884761766,-0.00297487806528807,0.00263501866720617,0,
00:00:04.804,0.00327253271825612,0.000143539684358984,0.00727263279259205,0,
00:00:04.808,0.0016948472475633,0.0101659558713436,-0.00260523520410061,0,
00:00:04.812,-0.000559941050596535,0.00761868851259351,-0.00594556145370007,0,
00:00:04.816,0.000329201109707356,0.00361395627260208,0.0062659652903676,0,
00:00:04.82,-0.00362652796320617,-0.00284539209678769,0.00210749660618603,0,
00:00:04.824,-0.00454461900517344,-0.00786211341619492,-0.00738100660964847,0,
00:00:04.828,0.00392876658588648,-0.00488808238878846,-0.00708777643740177,0,
00:00:04.832,-0.00306925037875772,-0.00446197250857949,-0.000100450954050757,0,
00:00:04.836,0.00208068871870637,0.00654064957052469,0.00679569132626057,0,
00:00:04.84,0.00943587720394135,0.00222024857066572,0.00537988543510437,0,
00:00:04.844,-0.00195308565162122,0.00626015104353428,0.00143443013075739,0,
00:00:04.848,-0.00689270067960024,0.00198458274826407,-0.00371564854867756,0,
00:00:04.852,-0.00133700645528734,0.00379018625244498,-0.00071111269062385,0,
00:00:04.856,0.00303390505723655,-0.00789178814738989,-0.00665396265685558,0,
00:00:04.86,0.00146539404522628,-0.0141146164387465,0.00326563371345401,0,
00:00:04.864,-0.00272458884865046,0.00285739591345191,0.014725798740983,0,
00:00:04.868,-0.00365428975783288,0.000265869137365371,-0.00172083172947168,0,
00:00:04.872,0.00243131653405726,0.0122623890638351,-0.0147606693208218,0,
00:00:04.876,0.00315858377143741,0.0017377674812451,-0.00767112476751208,0,
00:00:04.88,-0.000508423428982496,-0.00673861755058169,0.00195960537530482,0,
00:00:04.884,0.00382779212668538,0.000858749088365585,0.0109714362770319,0,
00:00:04.888,0.000549582822714001,0.00768778612837195,0.00650304229930043,0,
00:00:04.892,-0.00466216634958982,-0.00379008380696177,-0.0043428223580122,0,
00:00:04.896,-0.00334864435717463,-0.00998467858880758,-0.00424345768988132,0,
00:00:04.9,-0.00249822624027729,-0.00341833289712667,-0.00120177515782416,0,
00:00:04.904,0.00563301658257842,0.00740969646722078,0.00525106675922871,0,
00:00:04.908,-0.000396815710701048,0.00378159107640386,0.00191816582810134,0,
00:00:04.912,0.00182905490510166,-0.00103339238557965,-0.00612371414899826,0,
00:00:04.916,0.000910822418518364,0.00131765566766262,-0.0014308406971395,0,
00:00:04.92,-0.000479467154946178,0.00243396102450788,0.000853908073622733,0,
00:00:04.924,-0.00117629917804152,-0.00497499573975801,0.0014161984436214,0,
00:00:04.928,-0.00105463701765984,-0.00520340772345662,0.00101504614576697,0,
00:00:04.932,-0.00256469426676631,0.00646250089630485,-0.00174835266079754,0,
00:00:04.936,0.00413478165864944,0.00407771579921246,0.00177217263262719,0,
00:00:04.94,6.83090183883905E-05,-0.00696601346135139,0.00123058771714568,0,
00:00:04.944,-0.00104018207639456,0.00264430162496865,-0.00224487599916756,0,
00:00:04.948,-0.00283513497561216,-0.00017173940432258,-0.00524802878499031,0,
00:00:04.952,0.00392041262239218,0.00747254816815257,0.00864450540393591,0,
00:00:04.956,0.00412627076730132,-0.00837580487132072,0.00677256053313613,0,
00:00:04.96,-0.00915279984474182,-0.0147961303591728,0.000368232402252033,0,
00:00:04.964,-0.00214963592588902,0.00759379426017404,-0.0146433496847749,0,
00:00:04.968,0.00686339009553194,0.00620791735127568,-0.00783074274659157,0,
00:00:04.972,-6.56647462164983E-05,0.00693799182772636,0.00409842329099774,0,
00:00:04.976,0.00127834465820342,0.0065165888518095,0.00716014765202999,0,
00:00:04.98,0.00216541229747236,0.000276060309261084,0.00499533349648118,0,
00:00:04.984,-0.00302553200162947,-0.00682557979598641,-0.000792893173638731,0,
00:00:04.988,-0.00502527598291636,-0.0123804686591029,0.000465550401713699,0,
00:00:04.992,-0.00319539639167488,-0.0051278225146234,-0.00292345369234681,0,
00:00:04.996,0.0145880673080683,0.00276984483934939,-0.00189667288213968,0,
00:00:05,-0.000978692318312824,0.0104814702644944,0.00196791440248489,0,
00:00:05.004,-0.012029298581183,0.00153210619464517,0.00102403969503939,0,
00:00:05.008,-0.000624252774287015,-0.00709645124152303,0.00360143114812672,0,
00:00:05.012,0.003659478854388,0.00293291988782585,-0.00309827807359397,0,
00:00:05.016,0.00143824832048267,0.00436603603884578,-0.00828588847070932,0,
00:00:05.02,0.00560483103618026,0.00401459960266948,-0.00235601188614964,0,
00:00:05.024,-0.000677192234434187,0.00133570306934416,0.00546055380254984,0,
00:00:05.028,-0.00276347505860031,-0.00162803253624588,0.0052978522144258,0,
00:00:05.032,-0.00436895061284304,-0.0115317925810814,0.00211835815571249,0,
00:00:05.036,0.00109982118010521,-0.00557625666260719,-0.00291125732474029,0,
00:00:05.04,0.0019991195295006,0.00213964958675206,-0.0064387652091682,0,
00:00:05.044,0.00316636567004025,0.00999612268060446,0.00351154152303934,0,
00:00:05.048,-0.00198747147805989,0.00123597995843738,0.0123434588313103,0,
00:00:05.052,-0.00225618784315884,0.00105995184276253,-0.000368277833331376,0,
00:00:05.056,-0.000822601781692356,0.00120706623420119,-0.00951405428349972,0,
00:00:05.06,0.0025741548743099,-0.00190465210471302,-0.00961463805288076,0,
00:00:05.064,-0.00301879784092307,-0.00960960332304239,-0.00823683943599463,0,
00:00:05.068,-0.000892372627276927,-0.0029167418833822,0.0100463619455695,0,
00:00:05.072,0.00377871003001928,0.0121507486328483,0.0149488905444741,0,
00:00:05.076,0.00460707535967231,0.00638717459514737,-0.0013639034004882,0,
00:00:05.08,-0.0019747344776988,-0.00408505601808429,-0.00477491784840822,0,
00:00:05.084,-0.00322882016189396,-0.0123160844668746,-0.00104676175396889,0,
00:00:05.088,0.00013031589332968,0.00229939329437912,-0.00261279894039035,0,
00:00:05.092,-0.00424116104841232,0.000522696005646139,-0.00282906088978052,0,
00:00:05.096,-0.000815011211670935,0.00641904352232814,0.00505425781011581,0,
00:00:05.1,0.00459320284426212,-0.000999269308522344,0.0115813408046961,0,
00:00:05.104,0.00549837620928884,0.000767251651268452,-0.0102887935936451,0,
00:00:05.108,-0.00350340781733394,-0.00201313779689372,-0.00694197788834572,0,
00:00:05.112,-0.00114728696644306,-0.000936607364565134,-0.00140446145087481,0,
00:00:05.116,-0.000503376708365977,0.00459691975265741,0.00240912009030581,0,
00:00:05.12,-0.000307514274027199,-0.00091375398915261,0.00344470096752048,0,
00:00:05.124,-0.000139150753966533,-0.00457867840304971,0.00243424321524799,0,
00:00:05.128,3.8553149352083E-05,-0.00190007616765797,-0.00136395695153624,0,
00:00:05.132,0.00223671155981719,0.00737211527302861,0.00132810021750629,0,
00:00:05.136,-0.00178506120573729,0.00060786004178226,-0.0016194807831198,0,
00:00:05.14,-0.00150022516027093,-0.002837591804564,-0.00507539045065641,0,
00:00:05.144,-0.00219189748167992,-0.00506517523899674,0.00833555869758129,0,
00:00:05.148,0.00696088653057814,-0.001492835348472,0.00422246661037207,0,
00:00:05.152,-0.00132514722645283,0.00397076271474361,-8.2067730545532E-05,0,
00:00:05.156,-0.00252190441824496,-0.00723682716488838,-0.00698191998526454,0,
00:00:05.16,-0.00736901257187128,-0.00188044318929315,-0.00779282534494996,0,
00:00:05.164,0.00835449621081352,0.021083377301693,0.000427746213972569,0,
00:00:05.168,0.00605312921106815,0.0155558427795768,-0.000602119660470635,0,
00:00:05.172,-0.00427015731111169,-0.0157880559563637,0.00317966984584928,0,
00:00:05.176,6.63928367430344E-05,-0.0172614697366953,0.00275570596568286,0,
00:00:05.18,-0.00289366114884615,-0.00518797198310494,0.00756417587399483,0,
00:00:05.184,0.00019103470549453,0.00053596158977598,0.00675884913653135,0,
00:00:05.188,-0.00196805573068559,0.00960481073707342,-0.00665244506672025,0,
00:00:05.192,-0.000428719911724329,0.000294806057354435,-0.0122164273634553,0,
00:00:05.196,-0.000874498044140637,-0.00145315087866038,-0.00225201179273427,0,
00:00:05.2,0.00573637150228024,0.00392501661553979,0.00348876183852553,0,
00:00:05.204,-0.00124575919471681,0.00553071685135365,0.0109145827591419,0,
00:00:05.208,-0.00129008304793388,-0.001227330067195,0.00332374963909388,0,
00:00:05.212,0.00425534369423985,-0.00321067054755986,-0.00611611781641841,0,
00:00:05.216,-0.00309209991246462,0.00364592298865318,-0.0105692567303777,0,
00:00:05.22,0.00158959603868425,-0.00491318292915821,-0.00299469917081296,0,
00:00:05.224,-4.1430612327531E-06,-0.00252345064654946,0.00603303033858538,0,
00:00:05.228,-0.00799169205129147,-0.00322339381091297,0.00625762855634093,0,
00:00:05.232,0.00189466204028577,-0.0042037176899612,0.000755140965338796,0,
00:00:05.236,0.00385698000900447,0.00430156895890832,0.00136378454044461,0,
00:00:05.24,0.00438592303544283,0.00813649781048298,-0.00072279287269339,0,
00:00:05.244,-0.0038879367057234,0.00380371510982513,-0.00422552088275552,0,
00:00:05.248,-0.000818915956187993,0.00295243365690112,-0.000129324122099206,0,
00:00:05.252,0.00217977538704872,-0.00761266937479377,0.00262091099284589,0,
00:00:05.256,-0.00179787015076727,-0.00874784588813782,-0.00175575050525367,0,
00:00:05.26,-0.00367465405724943,-1.31318520288914E-05,-0.00174105609767139,0,
00:00:05.264,0.00174908735789359,0.00143640313763171,-0.000340699101798236,0,
00:00:05.268,0.00242964760400355,0.00335162365809083,0.000789872952736914,0,
00:00:05.272,0.00119276240002364,0.00951311085373163,0.00111439311876893,0,
00:00:05.276,-0.000179204973392189,0.00406036432832479,-0.0033609326928854,0,
00:00:05.28,0.00118261738680303,-0.0109221432358027,2.90205025521573E-05,0,
00:00:05.284,-0.00286148791201413,-0.0124701913446188,0.00701749837026,0,
00:00:05.288,-0.00210952665656805,0.00479978788644075,0.0136204678565264,0,
00:00:05.292,-0.00225353124551475,0.0029608893673867,-0.011544493958354,0,
00:00:05.296,0.0031018431764096,0.0013606280554086,-0.0141857974231243,0,
00:00:05.3,0.000927426852285862,0.0048071900382638,-0.00428984267637134,0,
00:00:05.304,0.00508023705333471,0.00694993836805224,0.00651348009705544,0,
00:00:05.308,0.0010430634720251,0.00398134300485253,0.00543646281585097,0,
00:00:05.312,-0.00482711894437671,-0.0114416647702456,0.00595415942370892,0,
00:00:05.316,-0.00380452955141664,-0.00935869477689266,0.0016176289645955,0,
00:00:05.32,-0.00290705519728363,-0.00627611996605992,-0.00425673695281148,0,
00:00:05.324,0.003365388372913,0.00528295570984483,0.00054721103515476,0,
00:00:05.328,0.0036792999599129,0.00826175697147846,-0.000936348456889391,0,
00:00:05.332,0.00371628231368959,0.00974228233098984,-0.0023179491981864,0,
00:00:05.336,-0.00237539014779031,0.00347235659137368,-0.00618639262393117,0,
00:00:05.34,-0.00512309884652495,-0.011289113201201,-0.000904584070667624,0,
00:00:05.344,0.000455665169283748,-0.00845460221171379,0.0078507075086236,0,
00:00:05.348,0.00179372949060053,0.00283202226273716,0.000757468107622117,0,
00:00:05.352,0.00121508445590734,0.00170347013045102,-0.000346201588399708,0,
00:00:05.356,0.00229223142378032,0.00352364033460617,0.00208179280161858,0,
00:00:05.36,-0.00242638611234725,-0.00296932412311435,0.000309290015138686,0,
00:00:05.364,-0.00225012563169003,0.00914560165256262,-0.00149551429785788,0,
00:00:05.368,-0.000582512118853629,-0.0106286527588964,0.000117196199425962,0,
00:00:05.372,-0.00132509018294513,-0.0102665331214666,-0.00534077035263181,0,
00:00:05.376,0.00314481440000236,0.00816845335066319,8.79445506143384E-05,0,
00:00:05.38,0.0004197517700959,0.0136657124385238,0.00200220919214189,0,
00:00:05.384,0.00448654498904943,0.00423909816890955,-0.000254924641922116,0,
00:00:05.388,-0.00347821833565831,-0.000439617695519701,0.00278960098512471,0,
00:00:05.392,0.00320831895805895,-0.0115457279607654,-0.0047159306704998,0,
00:00:05.396,-0.0064003630541265,-0.0192474219948053,0.00757252844050527,0,
00:00:05.4,0.000501783099025488,0.0120729515329003,0.009807288646698,0,
00:00:05.404,-0.00082196097355336,0.00553669221699238,-0.0103697245940566,0,
00:00:05.408,0.00026486799470149,0.00047529730363749,-0.00992458965629339,0,
00:00:05.412,0.00121606991160661,0.000681291392538697,-0.00493311043828726,0,
00:00:05.416,0.00129395129624754,0.00326251308433712,0.00499623036012053,0,
00:00:05.42,0.000726262805983424,-0.00115640088915825,0.00461696274578571,0,
00:00:05.424,-0.00205466407351196,-0.00167979404795915,0.0080812918022275,0,
00:00:05.428,-0.000542517984285951,-0.000923811050597578,-0.00192139239516109,0,
00:00:05.432,0.00307082873769104,0.00401862664148211,-0.00133472890593112,0,
00:00:05.436,0.00143462617415935,0.000468014215584844,-0.00178321765270084,0,
00:00:05.44,0.00335628422908485,-0.000717061397153884,-0.00376197416335344,0,
00:00:05.444,-0.00367199932225049,-0.00114060449413955,-0.00313725974410772,0,
00:00:05.448,-0.0109093422070146,-0.00948183797299862,0.00343446037732065,0,
00:00:05.452,0.00761137204244733,-0.00756558729335666,0.0121803684160113,0,
00:00:05.456,-0.0029195686802268,0.00531973131000996,-0.00201669172383845,0,
00:00:05.46,-0.00106618227437139,0.00718342838808894,-0.0130853354930878,0,
00:00:05.464,0.0022821300663054,0.00647299038246274,0.000518993765581399,0,
00:00:05.468,0.00750328553840518,0.00933907832950354,0.00537538947537541,0,
00:00:05.472,0.000337825011229143,0.00174945720937103,-0.00406944612041116,0,
00:00:05.476,-0.00497407978400588,-0.0115739749744534,-0.00157652096822858,0,
00:00:05.48,0.000986617174930871,-0.0100963972508907,0.00425172876566648,0,
00:00:05.484,-0.00407199934124947,-0.00545289972797036,0.00356934126466513,0,
00:00:05.488,0.00043585486127995,0.00436673732474446,-0.00121701788157225,0,
00:00:05.492,0.00359217263758183,0.0105363391339779,0.000694764778017998,0,
00:00:05.496,0.00116364366840571,0.0022998049389571,-0.000329775968566537,0,
00:00:05.5,-0.00335517665371299,-0.0022568991407752,0.000774183718021959,0,
00:00:05.504,-0.00211108359508216,-0.00949285086244345,-0.00125447975005955,0,
00:00:05.508,-0.00185891496948898,-0.000345896172802895,-0.0043450677767396,0,
00:00:05.512,0.00352925737388432,0.00432763667777181,-0.0038649751804769,0,
00:00:05.516,0.00321571249514818,0.00859871972352266,0.00315374787896872,0,
00:00:05.52,0.000986192841082811,-0.00183230184484273,0.00204089353792369,0,
00:00:05.524,-0.00504788523539901,-0.00370393414050341,0.00214741844683886,0,
00:00:05.528,0.00650118803605437,0.00402148393914104,0.0056922142393887,0,
00:00:05.532,-0.0019470457918942,3.88093467336148E-05,-0.00149249192327261,0,
00:00:05.536,-0.00343540497124195,-0.0120598236098886,-0.00590223260223866,0,
00:00:05.54,-0.00392686622217298,-0.00245843431912363,0.00105712900403887,0,
00:00:05.544,0.00420709885656834,0.0104492409154773,-0.00133595417719334,0,
00:00:05.548,0.000963956874329597,0.00196042330935597,-0.00287783821113408,0,
00:00:05.552,-9.10512462724E-05,-0.00103461311664432,0.00439728237688541,0,
00:00:05.556,-0.00230457587167621,-0.00345768337137997,0.000668545078951865,0,
00:00:05.56,0.00187459995504469,-0.00294343521818519,-0.000502103881444782,0,
00:00:05.564,-0.000416840426623821,0.00342288077808917,0.0015597416786477,0,
00:00:05.568,0.0063570118509233,0.0119391782209277,-0.0063151060603559,0,
00:00:05.572,-0.0031223869882524,-0.00237783044576645,0.000316797202685848,0,
00:00:05.576,-0.0041466779075563,-0.0113396728411317,0.0135665209963918,0,
00:00:05.58,0.000209824313060381,-0.00165459152776748,-0.00700137903913856,0,
00:00:05.584,-0.00144042132887989,-0.00254291831515729,-0.00503628235310316,0,
00:00:05.588,-0.0020188121125102,0.00588524201884866,-0.00137844262644649,0,
00:00:05.592,0.00337939523160458,0.000331168906996027,0.00126332975924015,0,
00:00:05.596,0.00118276278953999,-0.00155389378778636,3.21717634506058E-05,0,
00:00:05.6,0.00518761994317174,0.00322255212813616,0.00355109036900103,0,
00:00:05.604,-0.00317254802212119,0.00271980627439916,0.00215743668377399,0,
00:00:05.608,-0.00311799650080502,0.00460389023646712,0.00188931135926396,0,
00:00:05.612,0.00543530005961657,0.00507157715037465,-0.00770810153335333,0,
00:00:05.616,-0.00289535499177873,-0.0109175089746714,0.000633531075436622,0,
00:00:05.62,-0.00550869107246399,-0.016005327925086,0.00215811375528574,0,
00:00:05.624,-0.00128797593060881,-0.00101244100369513,-0.000950292276684195,0,
00:00:05.628,0.00867793988436461,0.0098912613466382,0.00181669113226235,0,
00:00:05.632,-0.000387173116905615,0.00896454602479935,0.00500092701986432,0,
00:00:05.636,-0.000452125648735091,0.00768810603767633,-0.00450871046632528,0,
00:00:05.64,-0.00570815242826939,-0.00326875643804669,-0.00652076955884695,0,
00:00:05.644,0.000149189974763431,-0.0109922578558326,-0.00345511129125953,0,
00:00:05.648,0.000137116221594624,-0.00543377315625548,0.0111250067129731,0,
00:00:05.652,0.00390246137976646,0.0013933286536485,0.0101131238043308,0,
00:00:05.656,0.00238228961825371,0.00469158310443163,-0.0140736466273665,0,
00:00:05.66,-0.000144207675475627,0.00631564948707819,-0.00715827150270343,0,
00:00:05.664,0.000428105209721252,0.00195021321997046,0.00317517761141062,0,
00:00:05.668,-0.00373469199985266,-0.00207407772541046,0.00526875304058194,0,
00:00:05.672,-0.00471357814967632,0.000634980387985706,0.00119679979979992,0,
00:00:05.676,0.00172874820418656,-0.00456392671912909,0.00240193726494908,0,
00:00:05.68,0.00509245507419109,-0.00617052987217903,0.000192901250557043,0,
00:00:05.684,-0.000100489836768247,-0.0034639579243958,-0.00171030487399548,0,
00:00:05.688,-0.00138438493013382,0.0026904062833637,-6.11063442192972E-05,0,
00:00:05.692,-0.00096956838387996,0.005588015075773,-0.00336785009130836,0,
00:00:05.696,-0.0001855240407167,0.0066692903637886,-0.0039981952868402,0,
00:00:05.7,-0.00174003501888365,0.00800641346722841,-0.0018096228595823,0,
00:00:05.704,0.00450420426204801,-0.00847133435308933,0.00518146203830838,0,
00:00:05.708,-4.10065840696916E-05,-0.0130857918411493,0.0133375329896808,0,
00:00:05.712,0.000662079895846546,0.0024869532790035,-0.00179406383540481,0,
00:00:05.716,-0.00311799463815987,0.0028308667242527,-0.00941689312458038,0,
00:00:05.72,-0.00407993653789163,-0.0037534786388278,-0.00623171590268612,0,
00:00:05.724,0.00413613440468907,0.00944860186427832,-0.000656938645988703,0,
00:00:05.728,-0.00107048091012985,0.00739727215841413,0.00299990456551313,0,
00:00:05.732,-0.00428924756124616,-0.00971096660941839,0.00164322904311121,0,
00:00:05.736,0.0114895096048713,-0.00279528228566051,0.00229894230142236,0,
00:00:05.74,0.00514333369210362,0.0104760620743036,0.00411641830578446,0,
00:00:05.744,-0.00761341350153089,-0.0110258227214217,0.00301281013526022,0,
00:00:05.748,-0.00721041392534971,-0.00957581773400307,-0.00190351193305105,0,
00:00:05.752,-0.00238765613175929,0.00095400185091421,-0.00860575120896101,0,
00:00:05.756,-0.000320922903483734,0.00958423689007759,-0.00400370731949806,0,
00:00:05.76,0.00532833719626069,0.0097588412463665,0.0057626636698842,0,
00:00:05.764,0.00435954611748457,0.00642103143036366,0.00231645395979285,0,
00:00:05.768,0.00125550164375454,-0.00575053924694657,0.000435091380495578,0,
00:00:05.772,-0.00124622217845172,-0.0130803314968944,-0.00664214324206114,0,
00:00:05.776,-7.98963010311127E-05,-0.00416028359904885,0.00117703643627465,0,
00:00:05.78,-0.00368743832223117,0.00192116515245289,0.0167556218802929,0,
00:00:05.784,-0.00439503835514188,0.00419609621167183,-8.52284356369637E-05,0,
00:00:05.788,0.00411762623116374,0.00559992343187332,-0.0147087853401899,0,
00:00:05.792,-0.000875894504133612,-0.000433769571827725,-0.00663825357332826,0,
00:00:05.796,0.00219920719973743,-0.00609639752656221,0.000840687076561153,0,
00:00:05.8,0.0016154726035893,0.00251904013566673,0.00452656019479036,0,
00:00:05.804,0.0021826708689332,0.00493254652246833,0.00239086616784334,0,
00:00:05.808,-0.00497141620144248,-0.00340023450553417,0.0043197413906455,0,
00:00:05.812,-0.0028501192573458,-0.00497282203286886,-0.000426986516686156,0,
00:00:05.816,-0.00141414417885244,-0.000396087765693665,-0.00340446643531322,0,
00:00:05.82,0.0106300124898553,0.0154164284467697,0.0010293930536136,0,
00:00:05.824,-2.99717212328687E-05,0.00395589508116245,0.00540020409971476,0,
00:00:05.828,0.000387022504583001,-0.0240971744060516,0.00655826460570097,0,
00:00:05.832,-0.0031031402759254,0.00113530515227467,-0.00978882145136595,0,
00:00:05.836,-0.010568268597126,0.00210543046705425,-0.0135100474581122,0,
00:00:05.84,-0.00317122135311365,0.00360405491665006,-0.00107309629675001,0,
00:00:05.844,0.00633802823722363,0.0034146576654166,0.00378282507881522,0,
00:00:05.848,0.00681152334436774,0.00185454648453742,0.00874645076692104,0,
00:00:05.852,0.00118974677752703,-0.00409907195717096,0.00566107174381614,0,
00:00:05.856,0.00357154081575572,0.00283966446295381,-0.00141183647792786,0,
00:00:05.86,-0.00491077918559313,0.0039888946339488,-0.000745692173950374,0,
00:00:05.864,-0.00414859037846327,-0.0067380485124886,0.000198978770640679,0,
00:00:05.868,0.00526028173044324,0.00237056170590222,-0.00422069896012545,0,
00:00:05.872,-0.00250298366881907,0.00340679078362882,-0.00525812339037657,0,
00:00:05.876,-0.0028843202162534,-0.00733655318617821,-0.000667428481392562,0,
00:00:05.88,-0.000787682889495045,-0.00195440487004817,0.0049885343760252,0,
00:00:05.884,0.00104770180769265,-0.000592261552810669,0.0058135874569416,0,
00:00:05.888,-0.00040614276076667,0.0024247276596725,0.000815103354398161,0,
00:00:05.892,0.00115347164683044,0.00134293700102717,-0.00919817294925451,0,
00:00:05.896,0.00611006049439311,0.00845788512378931,0.000155392219312489,0,
00:00:05.9,0.0016325053293258,0.00644798157736659,0.00467692129313946,0,
00:00:05.904,-0.00487762317061424,-0.0037139009218663,-0.0042377095669508,0,
00:00:05.908,-0.00629337783902884,-0.0213455092161894,0.0130993369966745,0,
00:00:05.912,0.00279231276363134,0.000260074186371639,-0.005314860958606,0,
00:00:05.916,0.000824716698843986,0.00287912948988378,-0.0140353627502918,0,
00:00:05.92,0.000567721319384873,0.00581230130046606,-0.00192632083781064,0,
00:00:05.924,-0.00149406003765762,0.00546587444841862,0.00771765457466245,0,
00:00:05.928,0.00239889160729945,0.000633975432720035,0.00699893105775118,0,
00:00:05.932,0.00384966470301151,0.00370343448594213,0.00253904517740011,0,
00:00:05.936,-0.00192794040776789,0.00370246125385165,-0.00347308255732059,0,
00:00:05.94,-0.000662593636661768,-0.00568787241354585,-0.00110330467578024,0,
00:00:05.944,-0.0034132762812078,-0.00527701713144779,-0.00102564331609756,0,
00:00:05.948,-0.00155946717131883,-0.00622741039842367,-0.00312069407664239,0,
00:00:05.952,-0.00132400845177472,-0.00589924352243543,0.0033937890548259,0,
00:00:05.956,0.00380401872098446,0.0043087275698781,-0.000412429741118103,0,
00:00:05.96,0.00323260645382106,0.0030587452929467,0.00512831006199121,0,
00:00:05.964,0.00086064194329083,0.00698867114260793,-0.00642701610922813,0,
00:00:05.968,-0.00104007089976221,0.00660280417650938,-0.00677367532625794,0,
00:00:05.972,-0.00168718921486288,0.000403644429752603,0.00202892883680761,0,
00:00:05.976,-0.00129271356854588,-0.00211712857708335,0.00262453150935471,0,
00:00:05.98,-0.0025434501003474,-0.00706145726144314,0.00548866484314203,0,
00:00:05.984,0.00221508368849754,-0.00281587149947882,-0.00149029341991991,0,
00:00:05.988,0.00635677622631192,-0.00692668417468667,0.00315517350099981,0,
00:00:05.992,-0.00325729232281446,0.0065090642310679,0.00485367421060801,0,
00:00:05.996,-0.00593304866924882,0.00821097102016211,-0.00606084801256657,0,
00:00:06,0.000603900349233299,-0.00852102972567081,-0.00623478228226304,0,
00:00:06.004,0.00255138985812664,0.00248869950883091,-0.000302060274407268,0,
00:00:06.008,0.00197644717991352,0.00560142518952489,-0.00489589106291533,0,
00:00:06.012,-0.00147256511263549,-0.0008581408765167,0.00512938480824232,0,
00:00:06.016,0.0014875401975587,-0.00277778366580606,0.00350260548293591,0,
00:00:06.02,0.000742362288292497,-0.00835754070430994,0.00223964615724981,0,
00:00:06.024,0.0015200269408524,0.00942107383161783,0.0027947616763413,0,
00:00:06.028,-0.00312317721545696,0.00979685224592686,0.00366496597416699,0,
00:00:06.032,0.00156680878717452,-0.00760882999747992,-0.000500451133120805,0,
00:00:06.036,-0.00655299797654152,-0.0127029614523053,-0.0141865089535713,0,
00:00:06.04,-0.000270692456979305,-0.00558197218924761,-0.00488045113161206,0,
00:00:06.044,0.00277302996255457,0.00679431948810816,0.00280256010591984,0,
00:00:06.048,0.00292095146141946,0.013185097835958,0.00369530241005123,0,
00:00:06.052,-0.000548741489183158,0.00142088485881686,0.00668449327349663,0,
00:00:06.056,0.00192890840116888,-0.00286772637628019,0.0014189041685313,0,
00:00:06.06,-0.00142097438219935,-0.0032208941411227,-0.000655278679914773,0,
00:00:06.064,0.00310155702754855,0.00428694859147072,-0.00128775183111429,0,
00:00:06.068,-0.00190282193943858,-0.000172046158695593,0.000874827150255442,0,
00:00:06.072,-0.00267284200526774,-0.0145421521738172,0.00553997606039047,0,
00:00:06.076,-0.00143232848495245,0.00129234953783453,-0.00571494549512863,0,
00:00:06.08,9.15682612685487E-05,0.00797384697943926,-0.0106769446283579,0,
00:00:06.084,0.000984836486168206,0.00467343116179109,-0.0029738328885287,0,
00:00:06.088,0.00107993569690734,-0.00426275841891766,0.00629616901278496,0,
00:00:06.092,0.000658533885143697,-0.00504305213689804,0.0086969044059515,0,
00:00:06.096,0.00011844501568703,0.000127602470456623,0.00114604260306805,0,
00:00:06.1,-0.00233073509298265,0.00975040905177593,-0.00420075515285134,0,
00:00:06.104,-0.000467800186015666,0.00804999005049467,0.00148749130312353,0,
00:00:06.108,0.0074919955804944,-0.00485625071451068,-0.00399510422721505,0,
00:00:06.112,-0.00223734346218407,-0.0130100101232529,0.000169517355971038,0,
00:00:06.116,-0.00391026679426432,-0.0106149921193719,0.00111927569378167,0,
00:00:06.12,-4.12059562222566E-05,0.00566131947562099,0.00281026074662805,0,
00:00:06.124,-0.00392279122024775,0.00707662245258689,-0.00187356653623283,0,
00:00:06.128,0.00173021224327385,0.00993103347718716,-0.0019329187925905,0,
00:00:06.132,0.00294864480383694,0.000681809848174453,-0.00468453951179981,0,
00:00:06.136,0.00186516612302512,-0.00587533367797732,0.00250712386332452,0,
00:00:06.14,0.00026016851188615,-0.0043763886205852,0.0124978180974722,0,
00:00:06.144,-0.000823006383143365,-0.000993496854789555,-0.00318575883284211,0,
00:00:06.148,0.000981864286586642,0.00756575865671039,-0.00413187965750694,0,
00:00:06.152,-0.00274233287200332,0.0022221973631531,-0.00767804216593504,0,
00:00:06.156,-0.00187663710676134,-0.00750785460695624,-0.00395289435982704,0,
00:00:06.16,-0.00206824066117406,-0.00926972646266222,0.00945811532437801,0,
00:00:06.164,0.00317212590016425,0.00596116902306676,0.00873614195734262,0,
00:00:06.168,0.00504822004586458,0.00235881330445409,-0.00575816445052624,0,
00:00:06.172,-0.00102434528525919,0.0062702395953238,-0.0054337102919817,0,
00:00:06.176,-0.00241431756876409,-0.000146059377584606,0.000913416792172939,0,
00:00:06.18,-0.0036781900562346,-0.00248384638689458,0.00207140878774226,0,
00:00:06.184,-0.000402412639232352,-0.00645075226202607,0.00114321184810251,0,
00:00:06.188,0.00419596582651138,0.00495153153315187,-0.00211891299113631,0,
00:00:06.192,0.00262454967014492,0.00349312927573919,-0.00286966841667891,0,
00:00:06.196,0.00196908717043698,-0.00668460456654429,0.00694921938702464,0,
00:00:06.2,-0.00161586806643754,0.00327942962758243,0.00940848048776388,0,
00:00:06.204,-0.00543554779142141,0.00450408039614558,-0.0141750331968069,0,
00:00:06.208,-0.00281141675077379,-0.00042837078217417,-0.00733676552772522,0,
00:00:06.212,-0.0014229480875656,-0.0119541743770242,0.007146374322474,0,
00:00:06.216,0.00445039570331573,-0.00399932824075222,0.00129085872322321,0,
00:00:06.22,0.00402558641508222,0.00666920840740204,-0.00193722278345376,0,
00:00:06.224,0.00345771317370236,0.00757850334048271,0.00643937755376101,0,
00:00:06.228,-0.00288930232636631,0.00376119511201978,-0.00393048161640763,0,
