,Elapsed Time,EMG
0,00:00:00,-2.8791071176529
1,00:00:00.004,2.7397720813751203
2,00:00:00.008,2.2733620405197144
3,00:00:00.012,0.24535140395164523
4,00:00:00.016,-1.157487332820895
5,00:00:00.02,-1.4256394505500762
6,00:00:00.024,-0.8771322965621919
7,00:00:00.028,-0.1214182451367377
8,00:00:00.032,0.4203248620033261
9,00:00:00.036,0.565285727381706
10,00:00:00.04,0.42088532447814897
11,00:00:00.044,0.15756851062178578
12,00:00:00.048,-0.0716918148100376
13,00:00:00.052,-0.16142251715064043
14,00:00:00.056,-0.14320534467697105
15,00:00:00.06,-0.0770302955061198
16,00:00:00.064,-0.01089790835976602
17,00:00:00.068,0.0432871636003256
18,00:00:00.072,0.0403414778411388
19,00:00:00.076,0.0356627497822047
20,00:00:00.08,0.01952523749787365
21,00:00:00.084,-0.00397460395470261
22,00:00:00.088,-0.01735953241586685
23,00:00:00.092,-0.02180914091877635
24,00:00:00.096,-0.012154842726886269
25,00:00:00.1,0.00636199009750271
26,00:00:00.104,0.01026115543209016
27,00:00:00.108,0.01304178556893023
28,00:00:00.112,-0.004287707852199669
29,00:00:00.116,-0.00485430588014424
30,00:00:00.12,-0.009799518622457929
31,00:00:00.124,-0.0016744597523938904
32,00:00:00.128,0.0072335043514613045
33,00:00:00.132,0.01294853305444117
34,00:00:00.136,-0.0013490708224708219
35,00:00:00.14,-0.0020495562348514795
36,00:00:00.144,-0.011216684099053957
37,00:00:00.148,-0.005355755623895677
38,00:00:00.152,0.0020346771925687747
39,00:00:00.156,0.005525481479708102
40,00:00:00.16,0.01316051295725628
41,00:00:00.164,-0.007906700775492938
42,00:00:00.168,-0.0010912024517892827
43,00:00:00.172,-0.0030124109034659354
44,00:00:00.176,-0.0017014521581586398
45,00:00:00.18,0.00017454894987167704
46,00:00:00.184,-0.0028736452113662407
47,00:00:00.188,0.0011606697808019847
48,00:00:00.192,0.010106552072102197
49,00:00:00.196,0.007989946054294709
50,00:00:00.2,-0.00926409917883576
51,00:00:00.204,-0.01140691153705123
52,00:00:00.208,-0.0034583385568112196
53,00:00:00.212,0.00562431919388473
54,00:00:00.216,0.010185025399550799
55,00:00:00.22,-0.003154387799440887
56,00:00:00.224,-0.0016819583252072408
57,00:00:00.228,-0.00286173075437546
58,00:00:00.232,-0.0003460993175394779
59,00:00:00.236,0.00781264784745872
60,00:00:00.24,9.271851740776929e-05
61,00:00:00.244,-0.009941706899553532
62,00:00:00.248,-0.00192212787806056
63,00:00:00.252,0.0071896489243954515
64,00:00:00.256,0.006324830697849384
65,00:00:00.26,-0.00255664042197168
66,00:00:00.264,-0.00893163634464145
67,00:00:00.268,-0.0012815532973036196
68,00:00:00.272,-0.00353870238177478
69,00:00:00.276,0.005066115787485614
70,00:00:00.28,0.01291676447726786
71,00:00:00.284,0.006224750133696952
72,00:00:00.288,-0.004533474879281134
73,00:00:00.292,-0.013387299666646847
74,00:00:00.296,-0.00967584457248449
75,00:00:00.3,0.00046973419375718204
76,00:00:00.304,0.013056806303211481
77,00:00:00.308,0.0034661880927160356
78,00:00:00.312,-0.007002936370554387
79,00:00:00.316,0.003956016851589082
80,00:00:00.32,0.0012363495188765236
81,00:00:00.324,0.0017652683309279376
82,00:00:00.328,-0.0008709661778993939
83,00:00:00.332,-0.0025131107540801237
84,00:00:00.336,-0.006476857466623191
85,00:00:00.34,0.007053758250549441
86,00:00:00.344,0.005844178842380637
87,00:00:00.348,-0.005757149308919908
88,00:00:00.352,-0.014108841831330167
89,00:00:00.356,-0.00012271084415261093
90,00:00:00.36,0.01008101494517177
91,00:00:00.364,0.012670470372540876
92,00:00:00.368,0.002921568404417486
93,00:00:00.372,-0.00944781803991646
94,00:00:00.376,-0.007844238774850968
95,00:00:00.38,0.00610181374941022
96,00:00:00.384,-0.0015885343309491803
97,00:00:00.388,-0.009006830776343122
98,00:00:00.392,0.0006623307708650797
99,00:00:00.396,0.00967160402797163
100,00:00:00.4,0.009677489055320627
101,00:00:00.404,-0.01081590284593403
102,00:00:00.408,-0.00551372847985477
103,00:00:00.412,-0.0016814675182104106
104,00:00:00.416,0.009428343037143358
105,00:00:00.42,0.004989498207578432
106,00:00:00.424,-0.0056583406403660705
107,00:00:00.428,-0.0028026739601045908
108,00:00:00.432,-0.0030359794036485307
109,00:00:00.436,8.604605682193994e-05
110,00:00:00.44,0.008471610723063353
111,00:00:00.444,0.0006578530883416479
112,00:00:00.448,-0.003409343305975198
113,00:00:00.452,-0.009881230071187016
114,00:00:00.456,-0.002107519481796772
115,00:00:00.46,0.011127842983114544
116,00:00:00.464,0.006938612699741491
117,00:00:00.468,-0.002478363167028873
118,00:00:00.472,-0.006795935609261503
119,00:00:00.476,-0.00539242053901034
120,00:00:00.48,0.00692111810349161
121,00:00:00.484,0.0025115676398854703
122,00:00:00.488,0.005679354049789249
123,00:00:00.492,-0.007624571269843728
124,00:00:00.496,-0.004266714269760992
125,00:00:00.5,-0.009266080916859211
126,00:00:00.504,0.009149288496701047
127,00:00:00.508,0.0064879138953983706
128,00:00:00.512,0.00220515276305377
129,00:00:00.516,-0.0011291696282569293
130,00:00:00.52,-0.0025027855008374865
131,00:00:00.524,-0.004251718171872195
132,00:00:00.528,-0.0031977077014744273
133,00:00:00.532,0.00777411609306
134,00:00:00.536,0.0063621275985497015
135,00:00:00.54,-0.007379811155260546
136,00:00:00.544,-0.0037243488477542975
137,00:00:00.548,-0.0025373039970872976
138,00:00:00.552,0.0033531423487147575
139,00:00:00.556,0.00544787000399082
140,00:00:00.56,-0.0006628036499023398
141,00:00:00.564,-0.00013062602374702714
142,00:00:00.568,-0.007680424052523446
143,00:00:00.572,-0.004273261176422238
144,00:00:00.576,0.009529000497423109
145,00:00:00.58,0.01724575879052284
146,00:00:00.584,-0.00946581712923944
147,00:00:00.588,-0.020300569711253012
148,00:00:00.592,0.004695648211054507
149,00:00:00.596,0.012421115068718801
150,00:00:00.6,-0.001994100981391969
151,00:00:00.604,-0.004008243093267084
152,00:00:00.608,-0.00374042685143649
153,00:00:00.612,-0.0013996524721733255
154,00:00:00.616,0.00945151853375136
155,00:00:00.62,0.00708477268926799
156,00:00:00.624,-0.005573641246883197
157,00:00:00.628,-0.00858297932427376
158,00:00:00.632,-0.003017051482856913
159,00:00:00.636,0.006409707479178914
160,00:00:00.64,0.0023257496650330714
161,00:00:00.644,-0.00204436259809881
162,00:00:00.648,-0.0030586959328502404
163,00:00:00.652,0.00262714526616036
164,00:00:00.656,0.011184826958924532
165,00:00:00.66,-0.0027337577193975496
166,00:00:00.664,-0.007135276449844239
167,00:00:00.668,-0.007402696181088688
168,00:00:00.672,-0.005633824330288912
169,00:00:00.676,0.0010225003934465383
170,00:00:00.68,0.011769754230044779
171,00:00:00.684,0.014640983426943428
172,00:00:00.688,0.0015519426669925501
173,00:00:00.692,-0.014712079195305731
174,00:00:00.696,-0.012709754926618222
175,00:00:00.7,0.0024240465136244893
176,00:00:00.704,0.00835524965077638
177,00:00:00.708,0.0025671733310446147
178,00:00:00.712,0.00381920626387
179,00:00:00.716,0.0010102214291691802
180,00:00:00.72,-0.014435293618589678
181,00:00:00.724,-0.005945962417172268
182,00:00:00.728,0.006391440285369761
183,00:00:00.732,0.00638826494105161
184,00:00:00.736,0.006865636969450863
185,00:00:00.74,0.014308949932456017
186,00:00:00.744,-0.014466105261817578
187,00:00:00.748,-0.01201576192397625
188,00:00:00.752,-0.01051131682470441
189,00:00:00.756,0.008153857314027851
190,00:00:00.76,0.01611052872613072
191,00:00:00.764,-0.007341182790696621
192,00:00:00.768,-0.00165748292056378
193,00:00:00.772,0.0029755042123724715
194,00:00:00.776,0.005433814716525371
195,00:00:00.78,-0.00713451043702662
196,00:00:00.784,-0.00339378730859607
197,00:00:00.788,0.0017451214371249093
198,00:00:00.792,-0.000624088919721539
199,00:00:00.796,0.004170422369497826
200,00:00:00.8,-0.003026000398676844
201,00:00:00.804,-0.004218679794576023
202,00:00:00.808,0.0023527875346189826
203,00:00:00.812,-0.0027821654075523873
204,00:00:00.816,0.007823097635991875
205,00:00:00.82,0.009014921670313928
206,00:00:00.824,-0.0005048236926086272
207,00:00:00.828,-0.017377510899677873
208,00:00:00.832,-0.001657604938372971
209,00:00:00.836,0.0041945566190406715
210,00:00:00.84,0.00226623704656959
211,00:00:00.844,0.00828688094043172
212,00:00:00.848,0.003846466512186456
213,00:00:00.852,-0.018617403897223998
214,00:00:00.856,0.0004052213625982391
215,00:00:00.86,0.007976811670232559
216,00:00:00.864,-0.0015559581806883199
217,00:00:00.868,0.0056476190220564595
218,00:00:00.872,-0.00221126549877226
219,00:00:00.876,0.0014829334279795575
220,00:00:00.88,-0.002796335960738359
221,00:00:00.884,0.00152156862895935
222,00:00:00.888,-0.011039287783205499
223,00:00:00.892,0.0012624551891349265
224,00:00:00.896,0.00994631019420922
225,00:00:00.9,0.0029835185268893855
226,00:00:00.904,-0.00353875139262528
227,00:00:00.908,-0.000976052222540603
228,00:00:00.912,0.0013914087321609302
229,00:00:00.916,-0.002665459061972801
230,00:00:00.92,-1.7186859622589888e-05
231,00:00:00.924,-0.004287679883418601
232,00:00:00.928,-0.0027168715605512296
233,00:00:00.932,0.00266930297948419
234,00:00:00.936,0.01334643410518765
235,00:00:00.94,0.002179281000280752
236,00:00:00.944,-0.00521623529493809
237,00:00:00.948,-0.010834730695933105
238,00:00:00.952,-0.004335811740020292
239,00:00:00.956,0.006705436549964356
240,00:00:00.96,0.00770303013268858
241,00:00:00.964,-0.00476425711531192
242,00:00:00.968,-0.0015226267278194401
243,00:00:00.972,0.00042108248453586903
244,00:00:00.976,0.0010005894582718602
245,00:00:00.98,0.0007100555812939982
246,00:00:00.984,0.00014157500118017023
247,00:00:00.988,-0.0002903157146647569
248,00:00:00.992,-0.0004316145787015529
249,00:00:00.996,-0.00240792473778129
250,00:00:01,0.001844103549956339
251,00:00:01.004,0.0016855103276611784
252,00:00:01.008,-0.0017710741376504332
253,00:00:01.012,0.005406669457443057
254,00:00:01.016,-0.009496448095887901
255,00:00:01.02,0.004270147008355705
256,00:00:01.024,0.003715842729434375
257,00:00:01.028,-0.0063197582494467506
258,00:00:01.032,0.0014087254094192758
259,00:00:01.036,0.002339935395866628
260,00:00:01.04,0.00091596483252943
261,00:00:01.044,0.0015768117737025114
262,00:00:01.048,0.0011124993907287804
263,00:00:01.052,-0.010595648374874117
264,00:00:01.056,-0.003957892724429261
265,00:00:01.06,0.016221973986830562
266,00:00:01.064,-0.00113083142787218
267,00:00:01.068,-0.00898600256186906
268,00:00:01.072,0.001041326380800456
269,00:00:01.076,-0.0009438290726393505
270,00:00:01.08,0.007948685204610218
271,00:00:01.084,0.00756375771015882
272,00:00:01.088,-0.010400724189821629
273,00:00:01.092,-0.010209940082859255
274,00:00:01.096,0.003113414335530246
275,00:00:01.1,0.007744959904812275
276,00:00:01.104,0.0014356248648255097
277,00:00:01.108,-0.0013159784721210601
278,00:00:01.112,-0.0038413267466239683
279,00:00:01.116,-0.003265595907578248
280,00:00:01.12,0.007470072312571576
281,00:00:01.124,0.003953408508095892
282,00:00:01.128,-0.005633655011479278
283,00:00:01.132,-9.170304838335293e-05
284,00:00:01.136,-0.004308457409933909
285,00:00:01.14,0.005096909507756216
286,00:00:01.144,-0.0017119688873208352
287,00:00:01.148,-0.0037985580311214982
288,00:00:01.152,-7.250096859934513e-05
289,00:00:01.156,0.0027611622269887465
290,00:00:01.16,0.00927011187468452
291,00:00:01.164,-0.00018360901049163203
292,00:00:01.168,-0.011128113139420748
293,00:00:01.172,-0.00311220844741911
294,00:00:01.176,0.0044530900195240905
295,00:00:01.18,0.006170805194415152
296,00:00:01.184,-0.000682709331158546
297,00:00:01.188,-0.004718106007203461
298,00:00:01.192,0.0020620981231331903
299,00:00:01.196,-0.0008877025684341745
300,00:00:01.2,-0.002990704349940641
301,00:00:01.204,0.003970905963797127
302,00:00:01.208,0.0002214279957115598
303,00:00:01.212,-0.000780019472585992
304,00:00:01.216,-0.0026563571591395837
305,00:00:01.22,0.0018730623996816532
306,00:00:01.224,-0.00228916371634114
307,00:00:01.228,0.0044158419259474595
308,00:00:01.232,0.0046979886974440905
309,00:00:01.236,0.0015283016182365832
310,00:00:01.24,-0.005917112041061039
311,00:00:01.244,-0.00976519495225149
312,00:00:01.248,-0.004376194301585198
313,00:00:01.252,0.010417529369078683
314,00:00:01.256,0.010083038127049809
315,00:00:01.26,-0.0068983742967248214
316,00:00:01.264,-0.0011404590622987563
317,00:00:01.268,0.002356342389248309
318,00:00:01.272,-0.003949665115214879
319,00:00:01.276,-0.002035409997915842
320,00:00:01.28,0.007174766098614784
321,00:00:01.284,-0.00156135624274611
322,00:00:01.288,-0.005030468513723467
323,00:00:01.292,-0.003622634263592769
324,00:00:01.296,0.007981133334396881
325,00:00:01.3,0.00475973082939163
326,00:00:01.304,-0.0029702472820645224
327,00:00:01.308,-0.006053075121599245
328,00:00:01.312,-0.00010372710676165601
329,00:00:01.316,0.0017578483057150074
330,00:00:01.32,0.0035983269917778645
331,00:00:01.324,0.0006975680589675984
332,00:00:01.328,-0.0038093827606644473
333,00:00:01.332,-0.00442811171524226
334,00:00:01.336,-0.006134040071628981
335,00:00:01.34,0.011200246401131153
336,00:00:01.344,0.012594986968906612
337,00:00:01.348,-0.0011211463133804483
338,00:00:01.352,-0.009695222950540481
339,00:00:01.356,-0.009414769170689398
340,00:00:01.36,0.0064145099895540625
341,00:00:01.364,-0.001868218692834487
342,00:00:01.368,-0.0030488021857308896
343,00:00:01.372,0.001378640256007205
344,00:00:01.376,0.004057024378198545
345,00:00:01.38,0.005707512103981572
346,00:00:01.384,0.005699241704860471
347,00:00:01.388,-0.010375337791629136
348,00:00:01.392,-0.004984439506188213
349,00:00:01.396,0.002227894799034398
350,00:00:01.4,0.006951098073841417
351,00:00:01.404,-0.0027774032059824103
352,00:00:01.408,-0.0077889843378216115
353,00:00:01.412,0.00468481192365288
354,00:00:01.416,0.0021714890608563993
355,00:00:01.42,0.002545644601923411
356,00:00:01.424,-0.002396808355115357
357,00:00:01.428,-0.008515981957316399
358,00:00:01.432,0.0052824232261627895
359,00:00:01.436,0.011839853832498203
360,00:00:01.44,-0.0022029264364391505
361,00:00:01.444,-0.012761248042806981
362,00:00:01.448,-0.0031354763195849933
363,00:00:01.452,0.0034191528102383104
364,00:00:01.456,0.007235382974613463
365,00:00:01.46,0.009826443591009596
366,00:00:01.464,-0.008791443193331363
367,00:00:01.468,-0.008061955741140988
368,00:00:01.472,-0.0018893929081969048
369,00:00:01.476,0.00488122229853616
370,00:00:01.48,0.0021008545445511135
371,00:00:01.484,0.005275382136460396
372,00:00:01.488,0.0006259032525122101
373,00:00:01.492,-0.005357217334676537
374,00:00:01.496,-0.002048108377493924
375,00:00:01.5,0.00131501699797809
376,00:00:01.504,-0.006111389957368369
377,00:00:01.508,-0.005458700587041681
378,00:00:01.512,0.003448694304097448
379,00:00:01.516,0.01631464716047049
380,00:00:01.52,0.009070272906683389
381,00:00:01.524,-0.00182404066435993
382,00:00:01.528,-0.018509648914914616
383,00:00:01.532,-0.010924940586846786
384,00:00:01.536,0.004939070378895853
385,00:00:01.54,0.003541388665325937
386,00:00:01.544,0.006577165098860862
387,00:00:01.548,-0.00435295549686999
388,00:00:01.552,0.01222694222815335
389,00:00:01.556,0.0045302453218027915
390,00:00:01.56,-0.0050570091698318685
391,00:00:01.564,-0.014789785258471959
392,00:00:01.568,-0.008667901638546024
393,00:00:01.572,0.0049309756723232515
394,00:00:01.576,0.015158795344177635
395,00:00:01.58,0.004680136305978521
396,00:00:01.584,-0.0050297772686462815
397,00:00:01.588,-0.009787025177502072
398,00:00:01.592,-0.0008149963832693179
399,00:00:01.596,0.005577046089456413
400,00:00:01.6,0.0038538267326657643
401,00:00:01.604,-0.00795382843352854
402,00:00:01.608,0.008065657922998067
403,00:00:01.612,0.00854254141449928
404,00:00:01.616,-0.004087583627551802
405,00:00:01.62,-0.01259669708088038
406,00:00:01.624,-0.0064252851298078895
407,00:00:01.628,-0.00466318124745158
408,00:00:01.632,0.00957029702840377
409,00:00:01.636,0.01652055140584707
410,00:00:01.64,0.0009569259709678578
411,00:00:01.644,-0.003758679609745734
412,00:00:01.648,-0.006098715995904059
413,00:00:01.652,-0.01737549784593284
414,00:00:01.656,0.0057861741224769486
415,00:00:01.66,0.018819581484422088
416,00:00:01.664,0.00472194247413427
417,00:00:01.668,-0.009870761714410042
418,00:00:01.672,-0.012876979832071802
419,00:00:01.676,0.001322268741205333
420,00:00:01.68,0.007701198570430262
421,00:00:01.684,-0.0016632552724331602
422,00:00:01.688,-0.0003302549012005286
423,00:00:01.692,0.008238475769758221
424,00:00:01.696,0.006865295814350251
425,00:00:01.7,-0.00945317570585758
426,00:00:01.704,-0.00891240185592323
427,00:00:01.708,-0.006937460682820529
428,00:00:01.712,0.0063581841532141
429,00:00:01.716,0.01176965050399303
430,00:00:01.72,-0.0022349753417074698
431,00:00:01.724,-0.0037606195910484534
432,00:00:01.728,-0.0035182124702259907
433,00:00:01.732,0.004724116079160014
434,00:00:01.736,0.00520537381817121
435,00:00:01.74,-0.00029573729261756507
436,00:00:01.744,-0.003957571636419742
437,00:00:01.748,-0.0061869478959124535
438,00:00:01.752,-0.002149598358300867
439,00:00:01.756,0.00185840646736324
440,00:00:01.76,0.00344606989528984
441,00:00:01.764,0.0006931162206456004
442,00:00:01.768,0.0009615654125809698
443,00:00:01.772,0.005220501392614089
444,00:00:01.776,0.000708072911947966
445,00:00:01.78,-0.005427755153505132
446,00:00:01.784,-0.00431263563223183
447,00:00:01.788,-0.005197974438488022
448,00:00:01.792,0.005409993696957825
449,00:00:01.796,0.007616811257321393
450,00:00:01.8,0.0042147570929955734
451,00:00:01.804,-0.0067049185236101125
452,00:00:01.808,-0.010022355359978969
453,00:00:01.812,-0.0017343522195005794
454,00:00:01.816,0.009105194301810116
455,00:00:01.82,0.010734796465840198
456,00:00:01.824,-0.0031211087571136847
457,00:00:01.828,-0.010508690807910167
458,00:00:01.832,-0.0023498390801250904
459,00:00:01.836,0.004458371549844743
460,00:00:01.84,0.01187631604261696
461,00:00:01.844,-0.01132393442094326
462,00:00:01.848,-0.01013498532120138
463,00:00:01.852,0.008801232062978667
464,00:00:01.856,0.009664451004937288
465,00:00:01.86,-0.002852245932444933
466,00:00:01.864,-0.007118235953385014
467,00:00:01.868,-0.0008490524924127467
468,00:00:01.872,0.001639398076804348
469,00:00:01.876,0.003879460098687553
470,00:00:01.88,0.0010486887185834392
471,00:00:01.884,-0.009829811286181208
472,00:00:01.888,0.0015105712082004123
473,00:00:01.892,0.009053659450728445
474,00:00:01.896,-0.00036912778159603867
475,00:00:01.9,0.0016515477909706572
476,00:00:01.904,0.0026447894342709337
477,00:00:01.908,-0.013635697716381403
478,00:00:01.912,-0.004476445668842646
479,00:00:01.916,0.005341736119589768
480,00:00:01.92,0.006093475927627875
481,00:00:01.924,-0.001139259238698289
482,00:00:01.928,-0.000484360411064698
483,00:00:01.932,0.01139782671816647
484,00:00:01.936,-0.00028803595341742115
485,00:00:01.94,-0.005205089983064679
486,00:00:01.944,-0.01983170537278052
487,00:00:01.948,0.00044973054173169636
488,00:00:01.952,0.0022755351965315623
489,00:00:01.956,0.01391053758561611
490,00:00:01.96,0.008584548513681515
491,00:00:01.964,0.0019886861555278297
492,00:00:01.968,-0.005304327234625821
493,00:00:01.972,-0.011718726134858998
494,00:00:01.976,-0.00550641841255129
495,00:00:01.98,0.005891872919164595
496,00:00:01.984,0.0012851241044700007
497,00:00:01.988,0.0014702405314892609
498,00:00:01.992,0.00805561849847436
499,00:00:01.996,-0.00258333329111338
500,00:00:02,-0.0025410216767340916
501,00:00:02.004,-0.004716533323517064
502,00:00:02.008,-0.00391181903978577
503,00:00:02.012,0.001101650763303039
504,00:00:02.016,0.006105548061896116
505,00:00:02.02,0.0018105422495864323
506,00:00:02.024,-0.00408353897364577
507,00:00:02.028,0.00538750737905502
508,00:00:02.032,0.017093626200221507
509,00:00:02.036,-0.013629933469928808
510,00:00:02.04,-0.023512462561484378
511,00:00:02.044,-1.5186145901685847e-05
512,00:00:02.048,0.0096005043014884
513,00:00:02.052,0.00724286225158721
514,00:00:02.056,0.004389986565001893
515,00:00:02.06,0.0031664451817050594
516,00:00:02.064,0.0028036211151629704
517,00:00:02.068,-0.005910955117542467
518,00:00:02.072,-0.013296383083797967
519,00:00:02.076,-4.2367581045252897e-05
520,00:00:02.08,0.0028019131277687848
521,00:00:02.084,0.0065710933849914
522,00:00:02.088,0.0017142782162409263
523,00:00:02.092,0.003985781047958884
524,00:00:02.096,0.0014765301311854238
525,00:00:02.1,-0.01006774441339076
526,00:00:02.104,-0.007994593295734384
527,00:00:02.108,0.00487276923377067
528,00:00:02.112,0.00833072769455611
529,00:00:02.116,0.00108468206599354
530,00:00:02.12,0.00212272530188784
531,00:00:02.124,-0.010454947128891938
532,00:00:02.128,-0.00274018407799303
533,00:00:02.132,0.004781966097652908
534,00:00:02.136,0.008458077500108675
535,00:00:02.14,-0.006779649062082173
536,00:00:02.144,-0.0025293545331805996
537,00:00:02.148,0.00706645008176566
538,00:00:02.152,-0.0038912645868549585
539,00:00:02.156,0.0007615268696099502
540,00:00:02.16,5.846377462148189e-05
541,00:00:02.164,-0.00733378843870015
542,00:00:02.168,0.0046600997447967495
543,00:00:02.172,-0.0019109018612653
544,00:00:02.176,0.004590444965288042
545,00:00:02.18,0.003004023456014688
546,00:00:02.184,-0.0002584406756795931
547,00:00:02.188,-0.00014299910981208
548,00:00:02.192,-0.00844983151182532
549,00:00:02.196,0.0031147946137934906
550,00:00:02.2,0.0052590124978451076
551,00:00:02.204,-0.009860025485977525
552,00:00:02.208,-0.0014240223681554103
553,00:00:02.212,0.010644678375683718
554,00:00:02.216,0.00979252171237026
555,00:00:02.22,-0.005589441425399851
556,00:00:02.224,-0.01058987231226638
557,00:00:02.228,-0.01344044727738947
558,00:00:02.232,0.00914362305775284
559,00:00:02.236,0.01310067740269005
560,00:00:02.24,0.0071002459153533
561,00:00:02.244,-0.01103924843482674
562,00:00:02.248,-0.0058856175746768696
563,00:00:02.252,0.0038031513104215295
564,00:00:02.256,0.0069821071811020305
565,00:00:02.26,-0.01038442342542111
566,00:00:02.264,-0.00339504680596292
567,00:00:02.268,0.0005275247385725401
568,00:00:02.272,0.01074361032806336
569,00:00:02.276,0.00936767912935466
570,00:00:02.28,-0.010117802594322704
571,00:00:02.284,-0.0068081691424595235
572,00:00:02.288,-0.006002314272336661
573,00:00:02.292,0.0035486418055370402
574,00:00:02.296,0.010177772661080596
575,00:00:02.3,0.00843653513584286
576,00:00:02.304,-0.012427392066456402
577,00:00:02.308,-0.010664710076525852
578,00:00:02.312,0.004228142017382192
579,00:00:02.316,0.017468398029450327
580,00:00:02.32,0.002604780311230571
581,00:00:02.324,-0.01797326368978247
582,00:00:02.328,-0.007744783688394813
583,00:00:02.332,0.0024458993721054793
584,00:00:02.336,0.009019959557917906
585,00:00:02.34,0.006126961030531673
586,00:00:02.344,0.0030227721272240186
587,00:00:02.348,-0.006660338731308
588,00:00:02.352,-0.005225177941611037
589,00:00:02.356,-0.0010295369756931907
590,00:00:02.36,0.00605696369893849
591,00:00:02.364,0.0027887712931260406
592,00:00:02.368,-0.0034848410869017304
593,00:00:02.372,-0.0053240888519212595
594,00:00:02.376,0.0010485141538083605
595,00:00:02.38,0.0005565758910961431
596,00:00:02.384,0.0038051749579608505
597,00:00:02.388,0.002063547173747798
598,00:00:02.392,0.0016676213126629604
599,00:00:02.396,-0.007859534351155151
600,00:00:02.4,-0.0014510580804199
601,00:00:02.404,0.010460542805958574
602,00:00:02.408,-0.007178705902333605
603,00:00:02.412,-0.002934621996246288
604,00:00:02.416,0.0072830776916816805
605,00:00:02.42,0.0050260871648788435
606,00:00:02.424,-0.01277244649827481
607,00:00:02.428,-0.00857718684710563
608,00:00:02.432,0.006852433783933521
609,00:00:02.436,0.01710254093632102
610,00:00:02.44,0.0007765549235045897
611,00:00:02.444,-0.008886996656656274
612,00:00:02.448,-0.009230727853719152
613,00:00:02.452,0.00204263930208981
614,00:00:02.456,-0.00040110386908055
615,00:00:02.46,0.0018187114037573403
616,00:00:02.464,0.0031263784039765596
617,00:00:02.468,0.006623126100748784
618,00:00:02.472,0.000981389370281246
619,00:00:02.476,-0.0059056116733699985
620,00:00:02.48,-0.00498245935887098
621,00:00:02.484,-0.005660773720592261
622,00:00:02.488,0.0011342247016727898
623,00:00:02.492,0.01378001272678376
624,00:00:02.496,0.0036827689473284417
625,00:00:02.5,-0.005824289051815867
626,00:00:02.504,-0.003929076887288824
627,00:00:02.508,-0.008708906112588014
628,00:00:02.512,0.0009613716392777947
629,00:00:02.516,0.00947454723063857
630,00:00:02.52,0.007188602437963708
631,00:00:02.524,-0.007053318462567403
632,00:00:02.528,-0.003794936943450009
633,00:00:02.532,-0.0007846934022381919
634,00:00:02.536,0.0009924797923304102
635,00:00:02.54,0.0014377029656316162
636,00:00:02.544,-0.0031487669330090297
637,00:00:02.548,-0.0019906349480152117
638,00:00:02.552,0.008943313972849856
639,00:00:02.556,0.008953824290074408
640,00:00:02.56,-0.0013493999140337105
641,00:00:02.564,-0.00991961488034577
642,00:00:02.568,-0.012005815980955953
643,00:00:02.572,-0.0002545995521359189
644,00:00:02.576,0.003627906902693213
645,00:00:02.58,0.00604003493208439
646,00:00:02.584,0.00707227573730051
647,00:00:02.588,7.170834578578908e-06
648,00:00:02.592,0.0036919909180142003
649,00:00:02.596,-0.002242734655737871
650,00:00:02.6,-0.01024375512497499
651,00:00:02.604,-0.00773746357299387
652,00:00:02.608,-0.0033751092851162
653,00:00:02.612,0.00792051397729665
654,00:00:02.616,0.011508033261634458
655,00:00:02.62,0.015666283899918202
656,00:00:02.624,-0.005296409828588372
657,00:00:02.628,-0.02136281086131926
658,00:00:02.632,-0.006655843695625659
659,00:00:02.636,0.0028986150282435167
660,00:00:02.64,0.00425424193963409
661,00:00:02.644,0.00720835174433887
662,00:00:02.648,0.0017714689020067505
663,00:00:02.652,0.0016025461372919428
664,00:00:02.656,0.00509988330304623
665,00:00:02.66,-0.01075012417277322
666,00:00:02.664,-0.00755918573122472
667,00:00:02.668,-0.0002085645683109771
668,00:00:02.672,0.002336514182388791
669,00:00:02.676,0.00897432968486101
670,00:00:02.68,0.010760264704003921
671,00:00:02.684,-0.0009349947795271795
672,00:00:02.688,-0.01709491899237039
673,00:00:02.692,-0.00945133296772838
674,00:00:02.696,0.003749279305338863
675,00:00:02.7,0.0076831466831208655
676,00:00:02.704,-0.00046284019481390975
677,00:00:02.708,0.007761375192785642
678,00:00:02.712,0.00151090929284692
679,00:00:02.716,0.004032521712360904
680,00:00:02.72,-0.00499505561310798
681,00:00:02.724,-0.01127137613366362
682,00:00:02.728,-0.002629040041938424
683,00:00:02.732,0.0026316904695704497
684,00:00:02.736,0.004147226762142965
685,00:00:02.74,0.003075305605307221
686,00:00:02.744,0.0010664713336154914
687,00:00:02.748,0.00149469391908497
688,00:00:02.752,-0.003269695618655537
689,00:00:02.756,-0.0027937028207816192
690,00:00:02.76,-0.0028230133466422506
691,00:00:02.764,0.0028349315980449596
692,00:00:02.768,-0.0011278025340288904
693,00:00:02.772,0.005157975479960441
694,00:00:02.776,0.00692952307872474
695,00:00:02.78,-0.0027885684394277715
696,00:00:02.784,-0.012214691145345569
697,00:00:02.788,-0.000611376657616354
698,00:00:02.792,0.0015438915579579792
699,00:00:02.796,0.0034015814308077205
700,00:00:02.8,0.0052543388446792995
701,00:00:02.804,-0.0004408532986417413
702,00:00:02.808,0.0064082850003615004
703,00:00:02.812,-0.00315586128272116
704,00:00:02.816,-0.011000855127349501
705,00:00:02.82,-0.00749796617310494
706,00:00:02.824,-0.00256225909106434
707,00:00:02.828,0.01282386598177254
708,00:00:02.832,0.012038907618261865
709,00:00:02.836,0.0020999277585360705
710,00:00:02.84,-0.00542451988440007
711,00:00:02.844,-0.01347544975578785
712,00:00:02.848,-0.0050997853977605735
713,00:00:02.852,0.009851634735241541
714,00:00:02.856,0.011440206057159227
715,00:00:02.86,-0.007305260165594521
716,00:00:02.864,-0.008972589857876299
717,00:00:02.868,0.0006535404827445802
718,00:00:02.872,0.00856613519135863
719,00:00:02.876,0.00820881570689381
720,00:00:02.88,-0.01179967541247607
721,00:00:02.884,-0.005687708617188039
722,00:00:02.888,0.0008462521946057699
723,00:00:02.892,0.008122858125716441
724,00:00:02.896,0.00595636572688818
725,00:00:02.9,-0.005500031053088611
726,00:00:02.904,-0.01184081239625812
727,00:00:02.908,0.00192077329847962
728,00:00:02.912,0.01027605938725173
729,00:00:02.916,0.004819738387595856
730,00:00:02.92,-0.003915695051546208
731,00:00:02.924,-0.0028830044902861127
732,00:00:02.928,-0.006654563127085567
733,00:00:02.932,-0.003716641018399972
734,00:00:02.936,0.00913031419622712
735,00:00:02.94,0.008265905958978735
736,00:00:02.944,-0.003991792225860991
737,00:00:02.948,-0.009540123188344298
738,00:00:02.952,0.0034542754292488102
739,00:00:02.956,0.0038285451591946193
740,00:00:02.96,-0.00338281481526792
741,00:00:02.964,0.00035721203312276927
742,00:00:02.968,0.0011997579131275398
743,00:00:02.972,-0.001351325539872042
744,00:00:02.976,0.0019745428580790793
745,00:00:02.98,0.0011978568509221016
746,00:00:02.984,-0.0023983173305168696
747,00:00:02.988,0.0008313482758239843
748,00:00:02.992,0.0005700179608538808
749,00:00:02.996,0.0017537426901981191
750,00:00:03,-0.006870101031381643
751,00:00:03.004,-0.004511487364652569
752,00:00:03.008,0.00886064441874623
753,00:00:03.012,0.012549798004329211
754,00:00:03.016,0.0005348860286176196
755,00:00:03.02,-0.01033982215449213
756,00:00:03.024,-0.017664057784713808
757,00:00:03.028,-0.003842822305159643
758,00:00:03.032,0.0144252881873399
759,00:00:03.036,0.007560592610388994
760,00:00:03.04,0.0027684879314620043
761,00:00:03.044,0.003538914068485608
762,00:00:03.048,-0.004212589119561016
763,00:00:03.052,-0.003597476723371073
764,00:00:03.056,-0.0075848356063943365
765,00:00:03.06,0.001857396557170433
766,00:00:03.064,-0.0031677889855927753
767,00:00:03.068,0.005387029130361038
768,00:00:03.072,0.004790770741237802
769,00:00:03.076,0.0033957893974729775
770,00:00:03.08,-0.003462831209617435
771,00:00:03.084,-0.006156880084745353
772,00:00:03.088,-5.621956006507346e-05
773,00:00:03.092,-0.00023524397875007702
774,00:00:03.096,0.005639170712726129
775,00:00:03.1,-0.0038549681194126584
776,00:00:03.104,-0.0018530631205067097
777,00:00:03.108,0.007747510680928831
778,00:00:03.112,0.00722093624062836
779,00:00:03.116,-0.00664755073376
780,00:00:03.12,-0.01230713236145675
781,00:00:03.124,-3.363320138305407e-05
782,00:00:03.128,-0.004311760654672977
783,00:00:03.132,0.01361221732804548
784,00:00:03.136,0.004206353798508641
785,00:00:03.14,-0.003217539750039621
786,00:00:03.144,0.0010320859546482084
787,00:00:03.148,-0.004991568624973289
788,00:00:03.152,-0.0027423338033258906
789,00:00:03.156,0.002731470827711743
790,00:00:03.16,0.00037707330193369974
791,00:00:03.164,0.0025563130620867005
792,00:00:03.168,0.00288861524313689
793,00:00:03.172,-0.0009315807837993002
794,00:00:03.176,-0.005277947057038551
795,00:00:03.18,-0.005096217966638513
796,00:00:03.184,-0.003903280943632121
797,00:00:03.188,0.00983835465740412
798,00:00:03.192,0.01367046381346884
799,00:00:03.196,0.003347798774484543
800,00:00:03.2,-0.02048744191415611
801,00:00:03.204,-0.01382214704062789
802,00:00:03.208,0.008163798156601839
803,00:00:03.212,0.011178621207363907
804,00:00:03.216,0.0018208445981144862
805,00:00:03.22,0.007955216802656649
806,00:00:03.224,0.0019313879311084687
807,00:00:03.228,-0.012818647956009947
808,00:00:03.232,-0.013451247024931992
809,00:00:03.236,0.0006709414301440126
810,00:00:03.24,0.007561398699181148
811,00:00:03.244,0.013719295413466202
812,00:00:03.248,0.0019418424490140736
813,00:00:03.252,-0.009235012272256428
814,00:00:03.256,-0.004451454893569462
815,00:00:03.26,-0.0027755157861974974
816,00:00:03.264,0.005410627374658361
817,00:00:03.268,-0.004753936475026425
818,00:00:03.272,0.003620699746534227
819,00:00:03.276,0.0041650896891951604
820,00:00:03.28,0.0057341706706211006
821,00:00:03.284,-0.004921054467558859
822,00:00:03.288,-0.001252980247954835
823,00:00:03.292,0.0042077720863744695
824,00:00:03.296,-0.01028484944254159
825,00:00:03.3,-0.01046760380268097
826,00:00:03.304,0.0071853647241368925
827,00:00:03.308,0.00256260833702981
828,00:00:03.312,0.00801295530982316
829,00:00:03.316,0.00623974250629544
830,00:00:03.32,-0.00091777672059834
831,00:00:03.324,-0.01159158721566201
832,00:00:03.328,-0.003696269093779846
833,00:00:03.332,0.006010702403727917
834,00:00:03.336,0.006019599968567491
835,00:00:03.34,-0.010484528029337518
836,00:00:03.344,-0.00038838724140078133
837,00:00:03.348,0.00997848703991622
838,00:00:03.352,-0.00237143062986433
839,00:00:03.356,0.0006744384008925399
840,00:00:03.36,-0.00299834564793855
841,00:00:03.364,-0.00017454399494454048
842,00:00:03.368,-0.004374145530164239
843,00:00:03.372,0.001381337875500318
844,00:00:03.376,0.000765119562856848
845,00:00:03.38,0.0018509554211050237
846,00:00:03.384,0.006114886840805413
847,00:00:03.388,0.0012302851828280828
848,00:00:03.392,-0.0011673511617118551
849,00:00:03.396,-0.008419441233854744
850,00:00:03.4,-0.006635799130890527
851,00:00:03.404,-0.0033128786599263558
852,00:00:03.408,0.011456326043116855
853,00:00:03.412,0.008879017759682037
854,00:00:03.416,0.003672435719636265
855,00:00:03.42,-0.0056578588992124415
856,00:00:03.424,-0.004611528216628357
857,00:00:03.428,-0.0077003023279758115
858,00:00:03.432,0.00441590184345842
859,00:00:03.436,-0.004544755676761264
860,00:00:03.44,0.0020489846938289737
861,00:00:03.444,0.00458207598421722
862,00:00:03.448,0.003550403285771612
863,00:00:03.452,0.0072624308522790705
864,00:00:03.456,-0.004953607101924722
865,00:00:03.46,-0.00889349938370287
866,00:00:03.464,0.0002725400263443598
867,00:00:03.468,-0.0003487122012302271
868,00:00:03.472,-0.0012952570104971502
869,00:00:03.476,0.0035249642678536535
870,00:00:03.48,-0.0010815296409418783
871,00:00:03.484,0.000703728641383345
872,00:00:03.488,0.014665215043351049
873,00:00:03.492,-0.0016272863140329697
874,00:00:03.496,-0.017195787280798
875,00:00:03.5,-0.00423842947930097
876,00:00:03.504,0.0011025790299754614
877,00:00:03.508,0.009279086138121744
878,00:00:03.512,0.005545655905734745
879,00:00:03.516,-0.004309572948841378
880,00:00:03.52,-0.0036233579085092086
881,00:00:03.524,-0.0025948315742425673
882,00:00:03.528,0.00763487070798874
883,00:00:03.532,0.00154454220319166
884,00:00:03.536,-0.004148016974795612
885,00:00:03.54,-0.0008744157967157662
886,00:00:03.544,0.0019001963883056305
887,00:00:03.548,-2.190176746808296e-05
888,00:00:03.552,-0.00368258263915777
889,00:00:03.556,-0.0017495516221970402
890,00:00:03.56,0.0008556188258808032
891,00:00:03.564,2.0648469217130275e-05
892,00:00:03.568,0.0038097759243100908
893,00:00:03.572,0.002438408529997105
894,00:00:03.576,-0.00211847928585485
895,00:00:03.58,-0.0017007465357892142
896,00:00:03.584,-0.0023273412371054335
897,00:00:03.588,0.008841102659062025
898,00:00:03.592,0.004738524949061683
899,00:00:03.596,-0.00817409486626274
900,00:00:03.6,-0.01617124564654658
901,00:00:03.604,-0.005147858842974527
902,00:00:03.608,0.01637097075581551
903,00:00:03.612,0.02105990852578545
904,00:00:03.616,-0.0013659372925758397
905,00:00:03.62,-0.013568183290772109
906,00:00:03.624,-0.017182199764647504
907,00:00:03.628,-0.001593515655258667
908,00:00:03.632,0.005490680079674344
909,00:00:03.636,0.01082774286624044
910,00:00:03.64,0.0110067918431014
911,00:00:03.644,0.000882500782608992
912,00:00:03.648,-0.00448806141503156
913,00:00:03.652,-0.00985968951135875
914,00:00:03.656,-0.012689370196312673
915,00:00:03.66,-0.001082354981917896
916,00:00:03.664,0.014030385762453058
917,00:00:03.668,0.009648219798691569
918,00:00:03.672,0.000973806891124706
919,00:00:03.676,-0.01088209077715874
920,00:00:03.68,-0.0038522830000147228
921,00:00:03.684,0.005415604682639241
922,00:00:03.688,0.0012424417654983701
923,00:00:03.692,-0.0007074708119034724
924,00:00:03.696,0.0030829460374661682
925,00:00:03.7,-0.004577573359711097
926,00:00:03.704,-0.007468844443792479
927,00:00:03.708,-0.0002112934016622598
928,00:00:03.712,0.009335557711892765
929,00:00:03.716,0.012195143353892483
930,00:00:03.72,-0.00592590872838627
931,00:00:03.724,-0.01273664533800911
932,00:00:03.728,-0.0027112120515084812
933,00:00:03.732,0.007510445894695295
934,00:00:03.736,0.004965158539562257
935,00:00:03.74,-0.0020304370882513506
936,00:00:03.744,-0.004994627413907447
937,00:00:03.748,-0.0015196019819541135
938,00:00:03.752,0.010071118013001971
939,00:00:03.756,0.0011057624360546504
940,00:00:03.76,-0.012663545436225832
941,00:00:03.764,-0.0012143527274019955
942,00:00:03.768,0.001693064230494198
943,00:00:03.772,0.00395368970930577
944,00:00:03.776,0.005697843094822027
945,00:00:03.78,0.0037984325754223413
946,00:00:03.784,-0.003994494356447833
947,00:00:03.788,-0.00501326587982476
948,00:00:03.792,-0.0027661763597279787
949,00:00:03.796,-5.849311128259204e-05
950,00:00:03.8,0.001578305164002816
951,00:00:03.804,-0.00023927260190249097
952,00:00:03.808,0.0010730200447142202
953,00:00:03.812,0.001805509207770232
954,00:00:03.816,0.00755441482760944
955,00:00:03.82,0.002641246886923905
956,00:00:03.824,-0.013459231646265833
957,00:00:03.828,-0.010155067895539126
958,00:00:03.832,0.0029834971096533956
959,00:00:03.836,0.011860217367939189
960,00:00:03.84,0.004322916967794299
961,00:00:03.844,-0.00931730377487838
962,00:00:03.848,0.0025974349191528754
963,00:00:03.852,0.011847032001242047
964,00:00:03.856,0.0033208864333573746
965,00:00:03.86,-0.01798530155792836
966,00:00:03.864,-0.013272004376631228
967,00:00:03.868,0.0049013537354767305
968,00:00:03.872,0.009595480398274962
969,00:00:03.876,0.006763420708011834
970,00:00:03.88,0.0038398009492084566
971,00:00:03.884,-0.00810776848811656
972,00:00:03.888,0.0011062282137572783
973,00:00:03.892,0.0006305472925305361
974,00:00:03.896,-0.007595296483486882
975,00:00:03.9,-0.00025584688410162275
976,00:00:03.904,-0.0007179299664130654
977,00:00:03.908,0.01788407680578528
978,00:00:03.912,0.00346763629931956
979,00:00:03.916,-0.01598469621967527
980,00:00:03.92,-0.016738741309382
981,00:00:03.924,0.005889961845241488
982,00:00:03.928,0.01747577567584814
983,00:00:03.932,0.007729720789939159
984,00:00:03.936,-0.005388842677348293
985,00:00:03.94,-0.010301036294549707
986,00:00:03.944,-0.009504456917056817
987,00:00:03.948,0.0025722372811287624
988,00:00:03.952,0.013348015723749993
989,00:00:03.956,0.0019938187324442013
990,00:00:03.96,-0.006856981432065371
991,00:00:03.964,-0.0013853459386155
992,00:00:03.968,0.00751794310053811
993,00:00:03.972,-0.0022069568512961203
994,00:00:03.976,-0.00401771836914122
995,00:00:03.98,-0.008479269512463363
996,00:00:03.984,0.0059961233772582966
997,00:00:03.988,0.010515957052120937
998,00:00:03.992,0.00646757672075183
999,00:00:03.996,-0.01691806619055573
1000,00:00:04,-0.014218881027773023
1001,00:00:04.004,0.005709309873054737
1002,00:00:04.008,0.017566688125953068
1003,00:00:04.012,0.00619165156967939
1004,00:00:04.016,0.0011988783662673116
1005,00:00:04.02,-0.01256108516827227
1006,00:00:04.024,-0.004648940055631101
1007,00:00:04.028,-0.004947328590787939
1008,00:00:04.032,0.00297256279736757
1009,00:00:04.036,0.013217438769061122
1010,00:00:04.04,-0.01072002068394795
1011,00:00:04.044,0.00026617180992616275
1012,00:00:04.048,0.0032544917048653544
1013,00:00:04.052,0.0064268973073922046
1014,00:00:04.056,-0.003664047661004589
1015,00:00:04.06,-0.004376310913357884
1016,00:00:04.064,-0.0059190347674302765
1017,00:00:04.068,0.002601410102215593
1018,00:00:04.072,0.00706125280976266
1019,00:00:04.076,-0.000609359114605468
1020,00:00:04.08,0.0010160275269299798
1021,00:00:04.084,0.012537546455860131
1022,00:00:04.088,-0.008732774673262602
1023,00:00:04.092,-0.01311928656650703
1024,00:00:04.096,-0.0073408335447311505
1025,00:00:04.1,0.0027179414901183935
1026,00:00:04.104,0.005820984137244531
1027,00:00:04.108,0.009128943725954738
1028,00:00:04.112,0.011071950430050497
1029,00:00:04.116,-0.002391839137999341
1030,00:00:04.12,-0.01476369268493729
1031,00:00:04.124,-0.0038451284781331183
1032,00:00:04.128,0.007682664319872849
1033,00:00:04.132,-0.007099731214111673
1034,00:00:04.136,-0.00484800559934229
1035,00:00:04.14,0.009663107106462121
1036,00:00:04.144,0.0076256162719801
1037,00:00:04.148,0.0011918653617613018
1038,00:00:04.152,-0.0013283693697303594
1039,00:00:04.156,-0.00022204359993339019
1040,00:00:04.16,-0.012610304518602788
1041,00:00:04.164,-0.0037846635968890063
1042,00:00:04.168,-0.0011320630437694564
1043,00:00:04.172,0.013496079656761143
1044,00:00:04.176,0.007671782484976573
1045,00:00:04.18,-0.01160523155704141
1046,00:00:04.184,-0.006435134331695729
1047,00:00:04.188,0.01034241006709635
1048,00:00:04.192,0.006340617081150411
1049,00:00:04.196,-0.0012642175424843998
1050,00:00:04.2,-0.0074037557933479495
1051,00:00:04.204,-0.00716236245352775
1052,00:00:04.208,-0.004935107659548521
1053,00:00:04.212,0.01198642572853715
1054,00:00:04.216,0.00825535861076787
1055,00:00:04.22,0.00021864706650376905
1056,00:00:04.224,-0.008879769127815958
1057,00:00:04.228,-0.0033321339869871692
1058,00:00:04.232,0.00030999290174804064
1059,00:00:04.236,-0.002280394604895261
1060,00:00:04.24,0.0036989101790822956
1061,00:00:04.244,0.010382376611232768
1062,00:00:04.248,0.0022506164386868486
1063,00:00:04.252,-0.005090162390843081
1064,00:00:04.256,-0.013162644580006601
1065,00:00:04.26,-0.00681459449697286
1066,00:00:04.264,0.003928900317987428
1067,00:00:04.268,0.01719759963452816
1068,00:00:04.272,0.005710520083084709
1069,00:00:04.276,-0.005626514088362448
1070,00:00:04.28,-0.01117992738727481
1071,00:00:04.284,-0.004107187385670848
1072,00:00:04.288,0.00702351401560009
1073,00:00:04.292,0.013944770762464028
1074,00:00:04.296,-0.006870655188436107
1075,00:00:04.3,-0.015038761892355937
1076,00:00:04.304,0.0022139365319162546
1077,00:00:04.308,0.008414820811594843
1078,00:00:04.312,0.0022970833088038563
1079,00:00:04.316,-0.000853034987812862
1080,00:00:04.32,-0.001761308405548332
1081,00:00:04.324,-0.003423266971367407
1082,00:00:04.328,-0.004738181178254307
1083,00:00:04.332,0.0057123676378978356
1084,00:00:04.336,0.020057110916241076
1085,00:00:04.34,-0.00798089685849845
1086,00:00:04.344,-0.021210277453064908
1087,00:00:04.348,-0.0013519687345251536
1088,00:00:04.352,0.00872769474517554
1089,00:00:04.356,0.00482296210248024
1090,00:00:04.36,0.0017672782596491784
1091,00:00:04.364,-0.004483193217311059
1092,00:00:04.368,0.006792351719923321
1093,00:00:04.372,-0.004066941328346731
1094,00:00:04.376,-0.003823505408945487
1095,00:00:04.38,0.0014117832761257904
1096,00:00:04.384,0.0017058481462299798
1097,00:00:04.388,0.0005137024272698887
1098,00:00:04.392,-0.002557203493779521
1099,00:00:04.396,-0.0008839139482006405
1100,00:00:04.4,0.00930387097469066
1101,00:00:04.404,-0.008367660222575062
1102,00:00:04.408,-0.00141840660944581
1103,00:00:04.412,0.005371636769268663
1104,00:00:04.416,-0.0086871578823775
1105,00:00:04.42,-0.004862514440901577
1106,00:00:04.424,0.010429293848574162
1107,00:00:04.428,0.022814503929112148
1108,00:00:04.432,-0.0021212432766333253
1109,00:00:04.436,-0.02510929713025685
1110,00:00:04.44,-0.016518779331818268
1111,00:00:04.444,0.003593423491111027
1112,00:00:04.448,0.01634183153510094
1113,00:00:04.452,0.011010325863026091
1114,00:00:04.456,-0.0046335922088474
1115,00:00:04.46,-0.000850529875606301
1116,00:00:04.464,0.0008001988753676397
1117,00:00:04.468,-0.006021298293489961
1118,00:00:04.472,-0.003484226763248449
1119,00:00:04.476,0.004690974979894232
1120,00:00:04.48,0.0008305931696668268
1121,00:00:04.484,-0.002644357824465265
1122,00:00:04.488,-0.0028172517195344
1123,00:00:04.492,0.011586354696191853
1124,00:00:04.496,-0.0043929188977926996
1125,00:00:04.5,-0.00520899635739624
1126,00:00:04.504,0.0006299986416706772
1127,00:00:04.508,0.005921447154833011
1128,00:00:04.512,-0.011210144497454168
1129,00:00:04.516,0.006749837426468727
1130,00:00:04.52,0.012038099810524722
1131,00:00:04.524,-0.005627098900731655
1132,00:00:04.528,-0.012410158989950999
1133,00:00:04.532,-0.0065267300233245
1134,00:00:04.536,0.013878380181267847
1135,00:00:04.54,0.00034331879578531135
1136,00:00:04.544,-0.0034209879813715803
1137,00:00:04.548,0.0020028113503940456
1138,00:00:04.552,0.000541267312655698
1139,00:00:04.556,0.00507695344276726
1140,00:00:04.56,0.003117145504802469
1141,00:00:04.564,-0.00280573684722185
1142,00:00:04.568,-0.005511454772204159
1143,00:00:04.572,-0.0022758487612008996
1144,00:00:04.576,-0.003344046068377797
1145,00:00:04.58,-0.006601224245969206
1146,00:00:04.584,-0.0021905216854065605
1147,00:00:04.588,0.01780883804894981
1148,00:00:04.592,0.012955710728419993
1149,00:00:04.596,-0.00710634735878557
1150,00:00:04.6,-0.00758921378292144
1151,00:00:04.604,-0.0008926917216740568
1152,00:00:04.608,-0.005496087367646399
1153,00:00:04.612,-0.006313228048384181
1154,00:00:04.616,-0.0004327139540691832
1155,00:00:04.62,0.01486155577003952
1156,00:00:04.624,0.016644411021843507
1157,00:00:04.628,-0.013542515851440843
1158,00:00:04.632,-0.013498125132173293
1159,00:00:04.636,-0.00201970664784312
1160,00:00:04.64,0.0037839832948520858
1161,00:00:04.644,0.004768554121255883
1162,00:00:04.648,0.002995739225298167
1163,00:00:04.652,0.0005804987595183727
1164,00:00:04.656,-0.003171368676703426
1165,00:00:04.66,0.002453809458529578
1166,00:00:04.664,-0.005679162713931875
1167,00:00:04.668,0.002047393085376825
1168,00:00:04.672,0.0024607784580439294
1169,00:00:04.676,-0.0014211572342901452
1170,00:00:04.68,-0.0030177398002706485
1171,00:00:04.684,0.004319093786762101
1172,00:00:04.688,0.00674189336132258
1173,00:00:04.692,0.0016053740400820962
1174,00:00:04.696,-0.01780655409675087
1175,00:00:04.7,-0.001512745337095116
1176,00:00:04.704,0.00515612901654094
1177,00:00:04.708,0.005431324068922544
1178,00:00:04.712,0.00279015977866948
1179,00:00:04.716,0.0020213553216308295
1180,00:00:04.72,-0.00573073956184089
1181,00:00:04.724,0.0005366699770092903
1182,00:00:04.728,-0.00373795395717025
1183,00:00:04.732,0.007362429052591324
1184,00:00:04.736,-0.00592070713173598
1185,00:00:04.74,-0.005849777953699261
1186,00:00:04.744,0.0010233335196971908
1187,00:00:04.748,0.0072681413221289395
1188,00:00:04.752,0.005054245964856815
1189,00:00:04.756,0.010992413794156162
1190,00:00:04.76,-0.00822504091775045
1191,00:00:04.764,-0.015414214925840497
1192,00:00:04.768,-0.0064144988427869715
1193,00:00:04.772,0.005291381996357814
1194,00:00:04.776,0.009599574492312992
1195,00:00:04.78,0.0007015828305156858
1196,00:00:04.784,0.001196293815155517
1197,00:00:04.788,-0.002406264035016642
1198,00:00:04.792,-0.0016200887184823001
1199,00:00:04.796,-0.00219467515125871
1200,00:00:04.8,0.008902688510715961
1201,00:00:04.804,0.0005697800661437192
1202,00:00:04.808,-0.00635467667598277
1203,00:00:04.812,-0.0026599259581416915
1204,00:00:04.816,-0.00485001842025667
1205,00:00:04.82,-0.0017798044718801993
1206,00:00:04.824,0.00819406984373928
1207,00:00:04.828,0.01039078179746868
1208,00:00:04.832,-0.0007885704981163196
1209,00:00:04.836,-0.009955604895367282
1210,00:00:04.84,-0.0035863501707353814
1211,00:00:04.844,-0.0013743455056101162
1212,00:00:04.848,-0.0018199588012066657
1213,00:00:04.852,0.018065913347527336
1214,00:00:04.856,-0.0017605881366762337
1215,00:00:04.86,-0.00906203665363136
1216,00:00:04.864,-0.003020636620931329
1217,00:00:04.868,0.002594825869891791
1218,00:00:04.872,0.0019441488111624572
1219,00:00:04.876,-0.008194240042939789
1220,00:00:04.88,0.00282010831870139
1221,00:00:04.884,0.013745103264227513
1222,00:00:04.888,-0.002388163004070519
1223,00:00:04.892,-0.006164047867059709
1224,00:00:04.896,-0.0019961147918365917
1225,00:00:04.9,-0.008869216006132769
1226,00:00:04.904,-0.0003177452017553155
1227,00:00:04.908,0.01285839383490384
1228,00:00:04.912,0.014020170434378088
1229,00:00:04.916,-0.006498951916000808
1230,00:00:04.92,-0.008274008054286252
1231,00:00:04.924,-0.01230825926177204
1232,00:00:04.928,-0.0002982144942507096
1233,00:00:04.932,0.010212847882939972
1234,00:00:04.936,0.006700906727928663
1235,00:00:04.94,-0.0036963491584174374
1236,00:00:04.944,-0.005655667104292663
1237,00:00:04.948,0.009499965897703081
1238,00:00:04.952,-0.0008834817272145266
1239,00:00:04.956,-0.0066388643463142286
1240,00:00:04.96,-0.005869716784218331
1241,00:00:04.964,0.0024131931277224807
1242,00:00:04.968,0.006524198062834325
1243,00:00:04.972,0.003125279341475111
1244,00:00:04.976,-0.00918060156982392
1245,00:00:04.98,-0.0010925506867351974
1246,00:00:04.984,0.00587805896066129
1247,00:00:04.988,0.014761141967028373
1248,00:00:04.992,-0.007220562576549126
1249,00:00:04.996,-0.01024918956682086
1250,00:00:05,-0.0072988779284060105
1251,00:00:05.004,-0.0036675896844826604
1252,00:00:05.008,0.01339218998327851
1253,00:00:05.012,0.011144076590426256
1254,00:00:05.016,-0.0037466214853338975
1255,00:00:05.02,-0.006859125845949167
1256,00:00:05.024,-0.006420986726880072
1257,00:00:05.028,0.001308696504565891
1258,00:00:05.032,0.0034059723730024407
1259,00:00:05.036,0.002521395494113681
1260,00:00:05.04,-0.003390320649486969
1261,00:00:05.044,0.00543451308476506
1262,00:00:05.048,0.01059749443084001
1263,00:00:05.052,-0.009968115948140649
1264,00:00:05.056,-0.02070787409320471
1265,00:00:05.06,0.0001237510005012198
1266,00:00:05.064,0.012591780221555389
1267,00:00:05.068,0.010674955905415121
1268,00:00:05.072,0.001498821307905021
1269,00:00:05.076,0.009851453782175668
1270,00:00:05.08,-0.004947340053490734
1271,00:00:05.084,-0.01813242211937904
1272,00:00:05.088,-0.0101407181937248
1273,00:00:05.092,-0.0008475232025375538
1274,00:00:05.096,0.011708024423569434
1275,00:00:05.1,0.005466340982820839
1276,00:00:05.104,0.0027604346032603644
1277,00:00:05.108,-0.001368278579320756
1278,00:00:05.112,0.0031515787122771135
1279,00:00:05.116,0.0021126976935192995
1280,00:00:05.12,-0.0008352049626410007
1281,00:00:05.124,-0.00918320991331711
1282,00:00:05.128,-0.009807176189497118
1283,00:00:05.132,0.0021201752824708863
1284,00:00:05.136,0.011178782886418062
1285,00:00:05.14,0.006302039371803405
1286,00:00:05.144,-0.0026537509402260206
1287,00:00:05.148,-0.006499615381471811
1288,00:00:05.152,0.0012601385842572169
1289,00:00:05.156,-0.0008087772876024203
1290,00:00:05.16,-0.00456215278245509
1291,00:00:05.164,0.0022894806606927947
1292,00:00:05.168,0.00814195338170975
1293,00:00:05.172,0.0027707534609362405
1294,00:00:05.176,0.0013751126825809403
1295,00:00:05.18,-0.014899270143359901
1296,00:00:05.184,-0.00704708491684869
1297,00:00:05.188,0.007489798794267697
1298,00:00:05.192,0.00610352680087089
1299,00:00:05.196,0.009686313336715099
1300,00:00:05.2,-0.0032937279902398595
1301,00:00:05.204,-0.010418688994832299
1302,00:00:05.208,0.0018788934685289894
1303,00:00:05.212,-0.0015727363061159788
1304,00:00:05.216,0.0042816365603357606
1305,00:00:05.22,-0.002097052001772678
1306,00:00:05.224,-0.0012047541586070979
1307,00:00:05.228,0.002875951206078757
1308,00:00:05.232,0.00175379717256873
1309,00:00:05.236,0.0038564168498851337
1310,00:00:05.24,-0.009527991729555648
1311,00:00:05.244,-0.0007168906049628261
1312,00:00:05.248,0.006411838287021968
1313,00:00:05.252,0.00026409854763187495
1314,00:00:05.256,-0.010574526080745269
1315,00:00:05.26,0.003721860197401836
1316,00:00:05.264,0.007780157946399418
1317,00:00:05.268,0.0028490382683230516
1318,00:00:05.272,-0.006264614748943133
1319,00:00:05.276,-0.004179194002063015
1320,00:00:05.28,0.0021063626682007435
1321,00:00:05.284,0.004659214453567986
1322,00:00:05.288,-0.003007937008078442
1323,00:00:05.292,-8.961654202721157e-05
1324,00:00:05.296,0.00042147436454342563
1325,00:00:05.3,-0.0019386587619010286
1326,00:00:05.304,0.003881683220242854
1327,00:00:05.308,0.0014844945990262208
1328,00:00:05.312,-0.005680782522631493
1329,00:00:05.316,-0.006926579501850939
1330,00:00:05.32,0.009379478668051902
1331,00:00:05.324,0.010723562593511813
1332,00:00:05.328,-0.004132041837351594
1333,00:00:05.332,-0.013736241981277396
1334,00:00:05.336,-0.005068347187489053
1335,00:00:05.34,0.008196298287316512
1336,00:00:05.344,0.009693049211023212
1337,00:00:05.348,-0.0015490698860958206
1338,00:00:05.352,-0.00564199220389128
1339,00:00:05.356,-0.00012325851912464697
1340,00:00:05.36,0.007650417494005524
1341,00:00:05.364,0.0033844350837171104
1342,00:00:05.368,-0.004435491049662231
1343,00:00:05.372,-0.01554415904683991
1344,00:00:05.376,-0.00957596907392144
1345,00:00:05.38,0.00717325240839272
1346,00:00:05.384,0.01867645536549385
1347,00:00:05.388,0.009220508392900234
1348,00:00:05.392,-0.004485615529119965
1349,00:00:05.396,-0.010426105814985931
1350,00:00:05.4,-0.002112734422553328
1351,00:00:05.404,-0.0023036305792629797
1352,00:00:05.408,0.00198422581888736
1353,00:00:05.412,-0.00235179977244115
1354,00:00:05.416,-0.0016930596902966493
1355,00:00:05.42,0.00687089748680592
1356,00:00:05.424,0.0047122394898906385
1357,00:00:05.428,0.00013433588901534525
1358,00:00:05.432,-0.0028047543310094603
1359,00:00:05.436,-0.0011346021201461601
1360,00:00:05.44,-0.003901098403730429
1361,00:00:05.444,-0.0018861983262468155
1362,00:00:05.448,0.000727102196833584
1363,00:00:05.452,0.002060395316220821
1364,00:00:05.456,0.0039949792553670704
1365,00:00:05.46,-0.00102156074717641
1366,00:00:05.464,-0.005858286051079631
1367,00:00:05.468,0.0051906099542975495
1368,00:00:05.472,0.0014147355686873202
1369,00:00:05.476,-0.00280817179009318
1370,00:00:05.48,-0.0014493410562863543
1371,00:00:05.484,0.00677823077421636
1372,00:00:05.488,-0.0003601090138545273
1373,00:00:05.492,-0.0036070360802114105
1374,00:00:05.496,-0.00953410065267235
1375,00:00:05.5,-0.0016058637702371973
1376,00:00:05.504,0.00941967754624783
1377,00:00:05.508,0.006964873737160821
1378,00:00:05.512,0.005219869137363278
1379,00:00:05.516,-0.0049325563013553585
1380,00:00:05.52,-0.013432718871626977
1381,00:00:05.524,-0.0028090276828152162
1382,00:00:05.528,0.00821206643013283
1383,00:00:05.532,0.005907068611122672
1384,00:00:05.536,-0.0055297025246545655
1385,00:00:05.54,0.003270794055424634
1386,00:00:05.544,-0.00033283754601142796
1387,00:00:05.548,-0.0014314927393570562
1388,00:00:05.552,0.0009681084193289393
1389,00:00:05.556,-0.002298894512932745
1390,00:00:05.56,0.0028105788223911137
1391,00:00:05.564,-0.0077447867952287
1392,00:00:05.568,0.0019422644982114501
1393,00:00:05.572,0.00413835316430777
1394,00:00:05.576,-0.0036059636622667417
1395,00:00:05.58,0.008288946526590735
1396,00:00:05.584,0.003769124508835377
1397,00:00:05.588,-0.00260907947085798
1398,00:00:05.592,-0.007401686103548859
1399,00:00:05.596,-0.01057437248528004
1400,00:00:05.6,0.010191859095357358
1401,00:00:05.604,0.0016923918992688346
1402,00:00:05.608,0.00230567308608443
1403,00:00:05.612,0.00059396572760306
1404,00:00:05.616,-0.005123535578604782
1405,00:00:05.62,0.004522673087194571
1406,00:00:05.624,0.006407126667909321
1407,00:00:05.628,-0.005519882353837602
1408,00:00:05.632,-0.012666722817812117
1409,00:00:05.636,-0.0009834687516558941
1410,00:00:05.64,0.005773286073235793
1411,00:00:05.644,0.0127563404385
1412,00:00:05.648,0.00809220608789473
1413,00:00:05.652,-0.010574776824796574
1414,00:00:05.656,-0.021117251366376877
1415,00:00:05.66,0.00162970484234393
1416,00:00:05.664,0.010058433981612321
1417,00:00:05.668,0.00869893154595047
1418,00:00:05.672,0.007500808336772025
1419,00:00:05.676,-0.003380328300409019
1420,00:00:05.68,-0.0048783392994664575
1421,00:00:05.684,-0.005270814290270197
1422,00:00:05.688,-0.011671809479594189
1423,00:00:05.692,0.007336708134971558
1424,00:00:05.696,0.00398281775414944
1425,00:00:05.7,0.00488933268934489
1426,00:00:05.704,0.0037299340619938465
1427,00:00:05.708,-0.0033660712651908415
1428,00:00:05.712,-0.0021605138317681875
1429,00:00:05.716,-0.0063302847847808135
1430,00:00:05.72,-0.001733730256091803
1431,00:00:05.724,0.006860438559670002
1432,00:00:05.728,0.00427435788151343
1433,00:00:05.732,-0.006478628769400528
1434,00:00:05.736,0.0010591784957796396
1435,00:00:05.74,0.00823978392872959
1436,00:00:05.744,-0.009386456658830868
1437,00:00:05.748,-0.0036603145999833902
1438,00:00:05.752,0.0036430564941838314
1439,00:00:05.756,0.003698793472722179
1440,00:00:05.76,0.005466239526867859
1441,00:00:05.764,-0.004737581126391889
1442,00:00:05.768,-0.004903036169707769
1443,00:00:05.772,-0.003755140583962198
1444,00:00:05.776,0.0010632190387696002
1445,00:00:05.78,0.00380579358898103
1446,00:00:05.784,0.007696570013649762
1447,00:00:05.788,-0.0002963556908071102
1448,00:00:05.792,-0.003641566960141061
1449,00:00:05.796,-0.00761992903426289
1450,00:00:05.8,0.0023076708894222914
1451,00:00:05.804,0.00972367508802563
1452,00:00:05.808,-0.0001938206842169209
1453,00:00:05.812,-0.01134537672623992
1454,00:00:05.816,-0.00519962012185715
1455,00:00:05.82,0.0005096835666336179
1456,00:00:05.824,0.012147965375334024
1457,00:00:05.828,0.00268866040278225
1458,00:00:05.832,-0.0012525647034635809
1459,00:00:05.836,0.0019202557159587767
1460,00:00:05.84,-0.003634438791777941
1461,00:00:05.844,0.0022148919524625
1462,00:00:05.848,-0.009935324778780329
1463,00:00:05.852,-0.008845398435369134
1464,00:00:05.856,0.01069459540303796
1465,00:00:05.86,0.013526391470804821
1466,00:00:05.864,-0.005905584723223002
1467,00:00:05.868,-0.010870797501411294
1468,00:00:05.872,0.00816335366107523
1469,00:00:05.876,0.0012806013692170301
1470,00:00:05.88,-0.005609606450889257
1471,00:00:05.884,0.0022726458264514787
1472,00:00:05.888,0.004535107233095915
1473,00:00:05.892,0.002621933643240481
1474,00:00:05.896,-0.006692394439596687
1475,00:00:05.9,-0.00283384206704795
1476,00:00:05.904,-0.004479230963625019
1477,00:00:05.908,0.0029171193018555598
1478,00:00:05.912,0.00251024460885673
1479,00:00:05.916,0.004940816201269631
1480,00:00:05.92,0.002142370707588267
1481,00:00:05.924,-0.0031315160449594303
1482,00:00:05.928,0.005629651481285701
1483,00:00:05.932,-0.008660140767460692
1484,00:00:05.936,-0.008006755553651601
1485,00:00:05.94,0.00021479162387550007
1486,00:00:05.944,0.011820909101515998
1487,00:00:05.948,0.0041633986402303
1488,00:00:05.952,0.0004337797445259613
1489,00:00:05.956,-0.007937567017506812
1490,00:00:05.96,0.0033248421386815608
1491,00:00:05.964,-0.0036883051725453654
1492,00:00:05.968,-0.009567643370246499
1493,00:00:05.972,0.0032961475953925384
1494,00:00:05.976,0.00859498811769299
1495,00:00:05.98,-0.0037684164708480243
1496,00:00:05.984,0.00104738003574311
1497,00:00:05.988,0.013301308499649167
1498,00:00:05.992,0.00255491060670465
1499,00:00:05.996,-0.01587317488156259
1500,00:00:06,-0.01034433476161212
1501,00:00:06.004,-9.877432603385122e-06
1502,00:00:06.008,0.0062755751423537775
1503,00:00:06.012,0.0110209786798805
1504,00:00:06.016,0.004068353911861781
1505,00:00:06.02,-0.00705312332138418
1506,00:00:06.024,-0.0016890564002096696
1507,00:00:06.028,-0.003267979889642455
1508,00:00:06.032,-0.001334484026301653
1509,00:00:06.036,-0.0033347966673318253
1510,00:00:06.04,0.003671170339657691
1511,00:00:06.044,0.010972384829074141
1512,00:00:06.048,0.0008260370559582874
1513,00:00:06.052,-0.00897779362276197
1514,00:00:06.056,-0.005582299785601209
1515,00:00:06.06,0.00015032989904284976
1516,00:00:06.064,0.005531757138669491
1517,00:00:06.068,0.007868735818192363
1518,00:00:06.072,0.0005553336231969373
1519,00:00:06.076,-0.009046510909683999
1520,00:00:06.08,-0.012049465462041557
1521,00:00:06.084,0.003832704387605189
1522,00:00:06.088,0.014588827441912184
1523,00:00:06.092,0.004209028818877419
1524,00:00:06.096,-0.005359078237233919
1525,00:00:06.1,-0.00574366845830809
1526,00:00:06.104,-0.004674342577345673
1527,00:00:06.108,0.00663520093075931
1528,00:00:06.112,-0.00649709859862924
1529,00:00:06.116,0.002706394298002122
1530,00:00:06.12,0.008786736347246915
1531,00:00:06.124,-0.00124632945517078
1532,00:00:06.128,0.0008431134483544113
1533,00:00:06.132,-0.0019134650647174571
1534,00:00:06.136,-0.0055288080475293065
1535,00:00:06.14,-0.006977187469601632
1536,00:00:06.144,0.0025857698783511287
1537,00:00:06.148,0.011997389046882752
1538,00:00:06.152,0.0005513046198757344
1539,00:00:06.156,-0.00972224015276879
1540,00:00:06.16,0.0047226082533598
1541,00:00:06.164,0.007749569631414483
1542,00:00:06.168,-0.004655079334042959
1543,00:00:06.172,-0.01260575966443867
1544,00:00:06.176,0.0006484607583843218
1545,00:00:06.18,0.005352163163479423
1546,00:00:06.184,0.0025945315137505553
1547,00:00:06.188,0.01007908536121252
1548,00:00:06.192,-0.0090911864535883
1549,00:00:06.196,-0.006799648384912858
1550,00:00:06.2,0.008284502546302969
1551,00:00:06.204,0.002370879985392089
1552,00:00:06.208,-0.008297624182887379
1553,00:00:06.212,0.0026202848239336137
1554,00:00:06.216,0.002731966262217606
1555,00:00:06.22,-0.003958669520216063
1556,00:00:06.224,0.0003811368151218613
1557,00:00:06.228,0.0057127393083646885
1558,00:00:06.232,-0.00906343455426395
1559,00:00:06.236,0.0028690603794530004
1560,00:00:06.24,0.0041559821984264965
1561,00:00:06.244,-0.00253917323425412
1562,00:00:06.248,0.005113148334203283
1563,00:00:06.252,0.0014181284932419601
1564,00:00:06.256,-0.004894890240393579
1565,00:00:06.26,-0.002076125994790348
1566,00:00:06.264,0.0010473511647433
1567,00:00:06.268,-0.006350650568492709
1568,00:00:06.272,0.0027645000081975013
1569,00:00:06.276,-0.0023055977071635486
1570,00:00:06.28,-0.000390851404517889
1571,00:00:06.284,0.01267245272174478
1572,00:00:06.288,0.0037522314160014507
1573,00:00:06.292,-0.00527720642276108
1574,00:00:06.296,0.00054941268172115
1575,00:00:06.3,-0.002418383701296983
1576,00:00:06.304,-0.006437339587137111
1577,00:00:06.308,-0.00968306232243776
1578,00:00:06.312,0.0004357766010798527
1579,00:00:06.316,0.016084171365946517
1580,00:00:06.32,0.004657588098780247
1581,00:00:06.324,-0.003936516819521791
1582,00:00:06.328,0.002113036549417307
1583,00:00:06.332,-0.007652937900274989
1584,00:00:06.336,-0.002503603871446108
1585,00:00:06.34,0.0007594901544507628
1586,00:00:06.344,-9.937363211064989e-05
1587,00:00:06.348,0.0036737896734848592
1588,00:00:06.352,0.0003292097244411607
1589,00:00:06.356,0.00410915387328714
1590,00:00:06.36,0.000319542828947307
1591,00:00:06.364,-0.0009124721400439696
1592,00:00:06.368,-0.011740496731363237
1593,00:00:06.372,0.0022496893070638084
1594,00:00:06.376,0.0026421203510835814
1595,00:00:06.38,-0.003645860240794721
1596,00:00:06.384,0.007578102755360305
1597,00:00:06.388,0.0032511022873222806
1598,00:00:06.392,0.004032176264445297
1599,00:00:06.396,-0.003773522970732297
1600,00:00:06.4,-0.007382828269328459
1601,00:00:06.404,0.0028570206486620087
1602,00:00:06.408,0.00766325998120009
1603,00:00:06.412,-0.01767793693579734
1604,00:00:06.416,-0.005602258839644483
1605,00:00:06.42,0.010096921003423631
1606,00:00:06.424,0.00993227434810251
1607,00:00:06.428,0.005920607669395399
1608,00:00:06.432,-0.0058305526035837794
1609,00:00:06.436,-0.00810280733276159
1610,00:00:06.44,-0.002534489729441702
1611,00:00:06.444,0.008541871487977911
1612,00:00:06.448,0.008289804944070054
1613,00:00:06.452,-0.007970724953338509
1614,00:00:06.456,-0.00797175324987619
1615,00:00:06.46,-0.0004390156391309581
1616,00:00:06.464,0.0023032018798403433
1617,00:00:06.468,-0.00381294847466052
1618,00:00:06.472,-0.0009673064341768633
1619,00:00:06.476,0.00690113590098917
1620,00:00:06.48,0.012631133300601461
1621,00:00:06.484,0.0046052503748796846
1622,00:00:06.488,-2.491287887096405e-07
1623,00:00:06.492,-0.018190057366155133
1624,00:00:06.496,-0.022865228820592193
1625,00:00:06.5,0.006816348410211498
1626,00:00:06.504,0.012781912082573444
1627,00:00:06.508,0.010587440396193411
1628,00:00:06.512,0.006490010579000234
1629,00:00:06.516,-0.001253752503544092
1630,00:00:06.52,-0.0037689236050937316
1631,00:00:06.524,-0.003802997991442709
1632,00:00:06.528,-0.010987209272570912
1633,00:00:06.532,-0.0037552383728325315
1634,00:00:06.536,0.005912990309298049
1635,00:00:06.54,0.00678087293636054
1636,00:00:06.544,0.0015080008924996998
1637,00:00:06.548,0.004024238791316745
1638,00:00:06.552,-0.004537643864750867
1639,00:00:06.556,-0.003964982897741719
1640,00:00:06.56,0.003185667723300864
1641,00:00:06.564,0.005596246221102774
1642,00:00:06.568,-0.005211955751292401
1643,00:00:06.572,-0.005513845651876186
1644,00:00:06.576,-0.0101906720083207
1645,00:00:06.58,0.0010720792924985344
1646,00:00:06.584,0.01318557746708394
1647,00:00:06.588,0.017787208722438667
1648,00:00:06.592,-0.004351045325165613
1649,00:00:06.596,-0.012815117253921919
1650,00:00:06.6,-0.006055589939933269
1651,00:00:06.604,0.001300234813243149
1652,00:00:06.608,0.004362382431281733
1653,00:00:06.612,-0.0068884049542248214
1654,00:00:06.616,0.00042781210504471995
1655,00:00:06.62,0.00227492139674724
1656,00:00:06.624,0.010362474597059185
1657,00:00:06.628,0.005823650804813953
1658,00:00:06.632,-0.005432665406260638
1659,00:00:06.636,-0.009894150192849331
1660,00:00:06.64,-0.009144983603619036
1661,00:00:06.644,0.00485166860744357
1662,00:00:06.648,0.007300352677702911
1663,00:00:06.652,0.006393079413101083
1664,00:00:06.656,-0.003652895655250177
1665,00:00:06.66,-0.005880919517949223
1666,00:00:06.664,0.0007980715781741236
1667,00:00:06.668,0.010841922601684931
1668,00:00:06.672,0.0020877521019429025
1669,00:00:06.676,-0.014293110318249085
1670,00:00:06.68,-0.006063046166673298
1671,00:00:06.684,0.001656523672863841
1672,00:00:06.688,0.0010258473921567297
1673,00:00:06.692,0.008643216016935188
1674,00:00:06.696,-0.0007721732836216688
1675,00:00:06.7,0.00799322396051139
1676,00:00:06.704,0.003665372671093795
1677,00:00:06.708,-0.0006528793601319203
1678,00:00:06.712,-0.02041430748067795
1679,00:00:06.716,-0.0076620217732852325
1680,00:00:06.72,0.004304195324948519
1681,00:00:06.724,0.01119305542670191
1682,00:00:06.728,0.0054661515168845706
1683,00:00:06.732,-0.0008900974644347969
1684,00:00:06.736,0.0004519245703704629
1685,00:00:06.74,0.011595455580390995
1686,00:00:06.744,-0.009633209323510528
1687,00:00:06.748,-0.011557230900507408
1688,00:00:06.752,-0.005221348015766126
1689,00:00:06.756,-0.00677686708513648
1690,00:00:06.76,0.006642590451519935
1691,00:00:06.764,0.013145761098712681
1692,00:00:06.768,0.0100785408867523
1693,00:00:06.772,0.0004471901338547469
1694,00:00:06.776,-0.006159642478451131
1695,00:00:06.78,-0.0010588582954369503
1696,00:00:06.784,-0.0063319287728518196
1697,00:00:06.788,-0.01174697908572852
1698,00:00:06.792,-0.004114664799999444
1699,00:00:06.796,0.012543596094474202
1700,00:00:06.8,0.0020814782474190105
1701,00:00:06.804,0.010625144466757771
1702,00:00:06.808,0.0013021508248129972
1703,00:00:06.812,-0.00031879803282208687
1704,00:00:06.816,-0.0053907593828625994
1705,00:00:06.82,-0.019138639006996545
1706,00:00:06.824,0.003516701355692929
1707,00:00:06.828,0.011291761155007409
1708,00:00:06.832,0.006539557594805952
1709,00:00:06.836,-0.004205389181151982
1710,00:00:06.84,-0.003983598828199314
1711,00:00:06.844,-0.0009362126975247566
1712,00:00:06.848,0.005419163375336216
1713,00:00:06.852,-0.0001171678013633928
1714,00:00:06.856,-5.001151112082869e-05
1715,00:00:06.86,-0.0059020933986175805
1716,00:00:06.864,-0.0003483048312773486
1717,00:00:06.868,-0.002321456366189526
1718,00:00:06.872,0.003729474055944596
1719,00:00:06.876,0.00826816668268293
1720,00:00:06.88,0.0062212636694312096
1721,00:00:06.884,-0.009639704672736112
1722,00:00:06.888,-0.008619674015790219
1723,00:00:06.892,-0.0023505587596446297
1724,00:00:06.896,-0.0014525516162393639
1725,00:00:06.9,0.008333491627126937
1726,00:00:06.904,0.008662544947583228
1727,00:00:06.908,-0.0025827629724517395
1728,00:00:06.912,-0.00207866029813886
1729,00:00:06.916,0.002027980939601545
1730,00:00:06.92,-0.0034821145236492218
1731,00:00:06.924,-0.008002619841135988
1732,00:00:06.928,0.00018439504492562202
1733,00:00:06.932,-0.0024052269291132706
1734,00:00:06.936,0.009688286692835389
1735,00:00:06.94,0.00886717974208295
1736,00:00:06.944,-0.003662268485641113
1737,00:00:06.948,-0.0055570926051586814
1738,00:00:06.952,0.0031000493327155805
1739,00:00:06.956,-0.00405428232625127
1740,00:00:06.96,-0.0012740006204694496
1741,00:00:06.964,-0.0023640723084099573
1742,00:00:06.968,0.00015077239368111285
1743,00:00:06.972,-0.0020273423288017494
1744,00:00:06.976,0.0042664286447689
1745,00:00:06.98,0.008750974433496601
1746,00:00:06.984,0.00638569786679
1747,00:00:06.988,-0.00565914157778024
1748,00:00:06.992,-0.01706793939229098
1749,00:00:06.996,-0.006164404738228764
1750,00:00:07,0.007312199351872551
1751,00:00:07.004,0.009570786089170728
1752,00:00:07.008,0.009788828465389088
1753,00:00:07.012,-0.0014217596035450597
1754,00:00:07.016,-0.004036658909171819
1755,00:00:07.02,-0.0054785526008345195
1756,00:00:07.024,-0.00618902046699077
1757,00:00:07.028,-0.0014069044264033428
1758,00:00:07.032,-0.0035412551369517994
1759,00:00:07.036,0.009898229269310832
1760,00:00:07.04,-0.00047326635103673046
1761,00:00:07.044,0.009351287793833766
1762,00:00:07.048,0.007480074535124003
1763,00:00:07.052,-0.003574631031369798
1764,00:00:07.056,-0.015795588027685863
1765,00:00:07.06,-0.0045443356502801145
1766,00:00:07.064,-0.006832001061411575
1767,00:00:07.068,0.013623364960949359
1768,00:00:07.072,0.009952499560313298
1769,00:00:07.076,-0.003224558284273371
1770,00:00:07.08,-0.0029975322540849382
1771,00:00:07.084,-0.002511005150154239
1772,00:00:07.088,-0.00760785362217574
1773,00:00:07.092,0.0037263058766257066
1774,00:00:07.096,0.0034687502193264685
1775,00:00:07.1,0.0029233943932922522
1776,00:00:07.104,0.005592770932707932
1777,00:00:07.108,-0.002083555096760394
1778,00:00:07.112,-0.006510676932521159
1779,00:00:07.116,-0.0075837032636627616
1780,00:00:07.12,0.00862059509381652
1781,00:00:07.124,0.0122756315395236
1782,00:00:07.128,-0.008263089926913368
1783,00:00:07.132,-0.01310941041447222
1784,00:00:07.136,-0.0031646293355152002
1785,00:00:07.14,0.007504697670810861
1786,00:00:07.144,0.012031917314743621
1787,00:00:07.148,0.0017710775136947675
1788,00:00:07.152,-0.006016310362610966
1789,00:00:07.156,-0.0009323556441813703
1790,00:00:07.16,0.0006691925809718621
1791,00:00:07.164,-0.003928428894141684
1792,00:00:07.168,-0.007140984525904051
1793,00:00:07.172,-0.0005185167538002086
1794,00:00:07.176,0.0047765970230102565
1795,00:00:07.18,0.007745040522422645
1796,00:00:07.184,0.0013747158227488316
1797,00:00:07.188,0.004811615603102833
1798,00:00:07.192,-0.005926818299485605
1799,00:00:07.196,-0.008491990171023643
1800,00:00:07.2,-0.0008194644324248674
1801,00:00:07.204,0.0024635232257423914
1802,00:00:07.208,0.0027673007971316093
1803,00:00:07.212,-0.0004674871670431388
1804,00:00:07.216,0.004284213508071841
1805,00:00:07.22,-0.0030528385541401856
1806,00:00:07.224,-0.0003437439318076949
1807,00:00:07.228,0.004180690952580338
1808,00:00:07.232,-0.006210682440723758
1809,00:00:07.236,-0.0036825874703936227
1810,00:00:07.24,0.00513597712324554
1811,00:00:07.244,-0.0005616355417714661
1812,00:00:07.248,-0.00021871827539143526
1813,00:00:07.252,0.003014131240888677
1814,00:00:07.256,-0.006993471644818779
1815,00:00:07.26,0.009086965816095497
1816,00:00:07.264,0.015199331333860748
1817,00:00:07.268,-0.01222868473269045
1818,00:00:07.272,-0.01595125882886354
1819,00:00:07.276,-0.01191055565141141
1820,00:00:07.28,0.010017848078859977
1821,00:00:07.284,0.014980339794419695
1822,00:00:07.288,0.0050161019898951106
1823,00:00:07.292,-0.005833082832396032
1824,00:00:07.296,-0.00040608210440496416
1825,00:00:07.3,-0.000591030402574688
1826,00:00:07.304,0.0005400310910772537
1827,00:00:07.308,-0.001506442364188842
1828,00:00:07.312,-0.006565163239429235
1829,00:00:07.316,-0.003945795098843515
1830,00:00:07.32,0.006910824980877809
1831,00:00:07.324,0.008181811768736221
1832,00:00:07.328,0.0018084811381413597
1833,00:00:07.332,-0.007513549645409509
1834,00:00:07.336,-0.0028508978884929054
1835,00:00:07.34,3.3105428883571306e-05
1836,00:00:07.344,-0.0007984889325598488
1837,00:00:07.348,0.0012136994744196242
1838,00:00:07.352,0.006433873291825876
1839,00:00:07.356,0.004087270237505431
1840,00:00:07.36,-0.00657423940720036
1841,00:00:07.364,-0.00781709607690572
1842,00:00:07.368,-0.0015533339465037
1843,00:00:07.372,0.007609192369272938
1844,00:00:07.376,0.0028179315850138673
1845,00:00:07.38,-0.002200955001171675
1846,00:00:07.384,0.0026871696463786066
1847,00:00:07.388,-0.0016937286127358682
1848,00:00:07.392,0.004018660918518431
1849,00:00:07.396,-0.011165696792886592
1850,00:00:07.4,-0.004967220666003419
1851,00:00:07.404,0.00545426376629621
1852,00:00:07.408,0.00897959584835916
1853,00:00:07.412,0.005931928288191561
1854,00:00:07.416,-0.005693177605280656
1855,00:00:07.42,-0.007976323831826452
1856,00:00:07.424,0.00383322965353728
1857,00:00:07.428,0.006928058748599139
1858,00:00:07.432,-0.00666302125318907
1859,00:00:07.436,-0.009904219681629918
1860,00:00:07.44,0.0010516918555367812
1861,00:00:07.444,0.014270025072619319
1862,00:00:07.448,-0.0024119892332237244
1863,00:00:07.452,-0.00418659564456902
1864,00:00:07.456,-0.00140960258431733
1865,00:00:07.46,0.007284405932296067
1866,00:00:07.464,2.891871554311018e-05
1867,00:00:07.468,-0.005605593498330562
1868,00:00:07.472,-0.009802064218092717
1869,00:00:07.476,0.005915453948546199
1870,00:00:07.48,0.009174400525807874
1871,00:00:07.484,0.0030421986884903145
1872,00:00:07.488,-0.004746424878248941
1873,00:00:07.492,-0.00269882430438884
1874,00:00:07.496,-0.005993014041450804
1875,00:00:07.5,0.0010348840150982207
1876,00:00:07.504,0.0012921434827149
1877,00:00:07.508,0.004710114881163458
1878,00:00:07.512,0.0026398834306746695
1879,00:00:07.516,-0.0065443079220131
1880,00:00:07.52,0.00808138470165431
1881,00:00:07.524,0.005143041722476482
1882,00:00:07.528,-0.011893130140379071
1883,00:00:07.532,-0.012118790880776938
1884,00:00:07.536,0.00419204507488758
1885,00:00:07.54,0.010545380820985877
1886,00:00:07.544,0.010115685698110607
1887,00:00:07.548,-0.002128696709405635
1888,00:00:07.552,-0.01529222156386822
1889,00:00:07.556,0.0019559671636670897
1890,00:00:07.56,0.008416171127464622
1891,00:00:07.564,-0.0042751074070110796
1892,00:00:07.568,-0.008259096008259801
1893,00:00:07.572,-0.0006406935863196798
1894,00:00:07.576,0.01567317056469622
1895,00:00:07.58,0.000400426593841984
1896,00:00:07.584,-0.0067023312440142
1897,00:00:07.588,-0.002118839183822277
1898,00:00:07.592,2.6154477382076165e-05
1899,00:00:07.596,-0.0013408782833721445
1900,00:00:07.6,0.0026572234055493075
1901,00:00:07.604,-9.099134149437337e-05
1902,00:00:07.608,0.00424587642191909
1903,00:00:07.612,-0.00133417486358667
1904,00:00:07.616,-0.0005951127241132759
1905,00:00:07.62,-0.005806535998999612
1906,00:00:07.624,-0.006173681875225156
1907,00:00:07.628,0.006061421358026561
1908,00:00:07.632,0.013094543945044293
1909,00:00:07.636,0.0053656924283132
1910,00:00:07.64,-0.0054948537726886605
1911,00:00:07.644,-0.017917903140187312
1912,00:00:07.648,-0.009578108496498317
1913,00:00:07.652,0.006299457745626569
1914,00:00:07.656,0.011021143116522558
1915,00:00:07.66,0.00999011041130871
1916,00:00:07.664,0.002203748386818924
1917,00:00:07.668,-0.0019400690216571123
1918,00:00:07.672,-0.005819029931444678
1919,00:00:07.676,-0.007937684007629281
1920,00:00:07.68,0.0009528342634439499
1921,00:00:07.684,-0.0043325179722160205
1922,00:00:07.688,0.0005321069620549679
1923,00:00:07.692,0.0025571909500285996
1924,00:00:07.696,0.00904582487419247
1925,00:00:07.7,0.006503356358734883
1926,00:00:07.704,-0.00140824797563255
1927,00:00:07.708,-0.00812135508749634
1928,00:00:07.712,-0.00806894619017839
1929,00:00:07.716,0.0006227299745660295
1930,00:00:07.72,0.00374049309175461
1931,00:00:07.724,0.0012710314772448339
1932,00:00:07.728,-0.0006600593915209131
1933,00:00:07.732,0.003303241013782106
1934,00:00:07.736,0.008483984973281629
1935,00:00:07.74,-0.003919595794286575
1936,00:00:07.744,-0.004376819051685745
1937,00:00:07.748,-0.00592206191504374
1938,00:00:07.752,-0.006177805822517257
1939,00:00:07.756,0.0057230193342547855
1940,00:00:07.76,0.006589203898329295
1941,00:00:07.764,0.005130115227075295
1942,00:00:07.768,0.0015882390653132424
1943,00:00:07.772,-0.012172087182989344
1944,00:00:07.776,-0.0018785228312481208
1945,00:00:07.78,0.004607125389156865
1946,00:00:07.784,0.003163979828968877
1947,00:00:07.788,-0.003947039393096935
1948,00:00:07.792,-0.003832964972389166
1949,00:00:07.796,0.005438690237497219
1950,00:00:07.8,0.0063920096745277944
1951,00:00:07.804,-0.0014786378337703341
1952,00:00:07.808,-0.00588981029795832
1953,00:00:07.812,-0.0009045702190633124
1954,00:00:07.816,-0.0013069183914922156
1955,00:00:07.82,0.0028783442082840355
1956,00:00:07.824,0.00629507194685175
1957,00:00:07.828,0.00046269053837022305
1958,00:00:07.832,-0.012373734311040607
1959,00:00:07.836,-0.007121518598182776
1960,00:00:07.84,0.005659392460074738
1961,00:00:07.844,0.014966350203053482
1962,00:00:07.848,0.00383615096359335
1963,00:00:07.852,0.0022652830476772583
1964,00:00:07.856,-0.0059905940461462085
1965,00:00:07.86,-0.01333671063184735
1966,00:00:07.864,-0.01294238156697245
1967,00:00:07.868,-0.0007059812778607002
1968,00:00:07.872,0.012744635227136319
1969,00:00:07.876,0.019035864854231522
1970,00:00:07.88,0.010444616829772707
1971,00:00:07.884,-0.005676185479387651
1972,00:00:07.888,-0.02179917762987317
1973,00:00:07.892,-0.01607869903091342
1974,00:00:07.896,0.0055488171274191735
1975,00:00:07.9,0.012215903785545379
1976,00:00:07.904,0.011320516874548048
1977,00:00:07.908,0.009224466368323185
1978,00:00:07.912,-0.013884877436794334
1979,00:00:07.916,-0.0111970375728561
1980,00:00:07.92,0.004212351952446626
1981,00:00:07.924,0.00264187634456903
1982,00:00:07.928,0.001099616434657948
1983,00:00:07.932,8.124520536511963e-05
1984,00:00:07.936,0.0038051491137594097
1985,00:00:07.94,-0.00429736811202019
1986,00:00:07.944,-0.009664865967351943
1987,00:00:07.948,0.003538650344125931
1988,00:00:07.952,0.008730989065952603
1989,00:00:07.956,0.010598121676594019
1990,00:00:07.96,-0.004860473331063989
1991,00:00:07.964,-0.01273123617284001
1992,00:00:07.968,-0.003756618447368966
1993,00:00:07.972,-0.0019001066102646265
1994,00:00:07.976,0.00823577959090471
1995,00:00:07.98,0.006652168347500261
1996,00:00:07.984,-0.0025343177840113588
1997,00:00:07.988,0.0037815183168277188
1998,00:00:07.992,0.0020036834466736686
1999,00:00:07.996,-0.003643544972874226
2000,00:00:08,-0.00993702374398711
2001,00:00:08.004,-0.0063471722532995115
2002,00:00:08.008,0.00010987126734107895
2003,00:00:08.012,0.008771409746259461
2004,00:00:08.016,0.009955626941518867
2005,00:00:08.02,0.003083986230194567
2006,00:00:08.024,-0.0030944947002353737
2007,00:00:08.028,-0.0074599142535589575
2008,00:00:08.032,-0.00225204473827035
2009,00:00:08.036,0.00422334857285022
2010,00:00:08.04,-0.003009480191394691
2011,00:00:08.044,-0.00226819165982305
2012,00:00:08.048,-0.00172960595227778
2013,00:00:08.052,0.003951074904762201
2014,00:00:08.056,0.001597372815012929
2015,00:00:08.06,0.00739506096579135
2016,00:00:08.064,-0.003156796941766512
2017,00:00:08.068,-0.004826457443414253
2018,00:00:08.072,-0.006799619179219009
2019,00:00:08.076,0.001896102912724016
2020,00:00:08.08,0.00889512558933348
2021,00:00:08.084,-0.00241090741474182
2022,00:00:08.088,0.008042699540965257
2023,00:00:08.092,-0.0014356966712512002
2024,00:00:08.096,-0.01043261145241558
2025,00:00:08.1,-0.012115462799556581
2026,00:00:08.104,0.006745425067492762
2027,00:00:08.108,0.013627083797473448
2028,00:00:08.112,-0.0050705065950751305
2029,00:00:08.116,0.0025253932690247898
2030,00:00:08.12,-0.0006234348984435199
2031,00:00:08.124,0.00906773377209901
2032,00:00:08.128,-0.008770509157329801
2033,00:00:08.132,-0.01265305676497519
2034,00:00:08.136,-0.004663787607569246
2035,00:00:08.14,0.009846057510003451
2036,00:00:08.144,0.01586140156723559
2037,00:00:08.148,0.006145777966594322
2038,00:00:08.152,-0.00830624217633158
2039,00:00:08.156,-0.02137117215897884
2040,00:00:08.16,-0.0008488628081977402
2041,00:00:08.164,0.009556098171742633
2042,00:00:08.168,-0.0007171427132561707
2043,00:00:08.172,0.007990070967935019
2044,00:00:08.176,0.0045186971547082
2045,00:00:08.18,-0.0010520564392208984
2046,00:00:08.184,-0.004131313718971799
2047,00:00:08.188,-0.001965649222256611
2048,00:00:08.192,-0.00198718730825931
2049,00:00:08.196,-0.005619990173727279
2050,00:00:08.2,-0.002618635306134821
2051,00:00:08.204,0.009918141877278679
2052,00:00:08.208,0.00232158682774753
2053,00:00:08.212,-0.0002899864921346298
2054,00:00:08.216,0.00738686334807426
2055,00:00:08.22,-0.008733578870305795
2056,00:00:08.224,-0.00711808423511684
2057,00:00:08.228,0.005246915388852351
2058,00:00:08.232,-0.0005547064356505793
2059,00:00:08.236,-0.0027647037059068697
2060,00:00:08.24,0.00040115672163665316
2061,00:00:08.244,0.0068645575956907175
2062,00:00:08.248,0.000853410310810434
2063,00:00:08.252,-0.0060654242988675815
2064,00:00:08.256,-0.00037478341255337
2065,00:00:08.26,0.003939979964343362
2066,00:00:08.264,0.0059784780605696124
2067,00:00:08.268,-0.004883760469965634
2068,00:00:08.272,-0.007503897286369464
2069,00:00:08.276,-0.0001413437239534722
2070,00:00:08.28,0.002695203183975538
2071,00:00:08.284,0.002628693015140016
2072,00:00:08.288,0.0012981406907783782
2073,00:00:08.292,-5.4937479944785e-05
2074,00:00:08.296,-0.004953102335093722
2075,00:00:08.3,0.00515530235497863
2076,00:00:08.304,0.004938263666190323
2077,00:00:08.308,-0.005323499024598275
2078,00:00:08.312,-0.00493501019221299
2079,00:00:08.316,-0.0012706242832791793
2080,00:00:08.32,-0.004556441543172695
2081,00:00:08.324,0.004376937211418409
2082,00:00:08.328,0.010786004597321172
2083,00:00:08.332,0.010634792502969462
2084,00:00:08.336,-0.0023596866521984295
2085,00:00:08.34,-0.014481757098110427
2086,00:00:08.344,-0.01634176331572235
2087,00:00:08.348,0.006557436252478534
2088,00:00:08.352,0.0013731658691540395
2089,00:00:08.356,0.004765270527059328
2090,00:00:08.36,0.01036321604624385
2091,00:00:08.364,0.004359165133791978
2092,00:00:08.368,-0.0024582521873526275
2093,00:00:08.372,-0.0118103597778827
2094,00:00:08.376,0.0052150223054923135
2095,00:00:08.38,0.005027765117119995
2096,00:00:08.384,-0.006147519219666721
2097,00:00:08.388,-0.007913855428341776
2098,00:00:08.392,-0.005792642155938664
2099,00:00:08.396,0.00761678186245263
2100,00:00:08.4,0.01050947676412761
2101,00:00:08.404,-0.00014277349691838004
2102,00:00:08.408,-0.0025473065907135597
2103,00:00:08.412,-0.001886439917143436
2104,00:00:08.416,0.00140759197529405
2105,00:00:08.42,0.00023184844758361448
2106,00:00:08.424,0.0008933992940001191
2107,00:00:08.428,-0.0013987764759804122
2108,00:00:08.432,-0.008666202542372055
2109,00:00:08.436,0.004174962108663745
2110,00:00:08.44,0.0025433577538933588
2111,00:00:08.444,-0.0007730564102530425
2112,00:00:08.448,0.00851888438046444
2113,00:00:08.452,-0.006671031711448455
2114,00:00:08.456,-0.0053852907876716935
2115,00:00:08.46,0.00179538200609386
2116,00:00:08.464,-0.0010483722435310487
2117,00:00:08.468,0.0057410501758568
2118,00:00:08.472,0.005425832991022621
2119,00:00:08.476,-0.004667800298193467
2120,00:00:08.48,-0.00039418290543835637
2121,00:00:08.484,-0.003251410933444276
2122,00:00:08.488,-0.0019978052150690945
2123,00:00:08.492,-0.004024997324449942
2124,00:00:08.496,0.003321516996948045
2125,00:00:08.5,0.00893038724461803
2126,00:00:08.504,0.005137631669640542
2127,00:00:08.508,-0.00487083815096412
2128,00:00:08.512,-0.010813925255206419
2129,00:00:08.516,-0.004108881689717239
2130,00:00:08.52,0.0028610950685106235
2131,00:00:08.524,0.009760040124092486
2132,00:00:08.528,0.002553025486122352
2133,00:00:08.532,-0.0037392625022221143
2134,00:00:08.536,-0.0009501573449597346
2135,00:00:08.54,-0.0005743363490182665
2136,00:00:08.544,0.0035389248787396324
2137,00:00:08.548,-0.006474591455116745
2138,00:00:08.552,-0.0055742690485658395
2139,00:00:08.556,0.003351130518240097
2140,00:00:08.56,0.009523280974462976
2141,00:00:08.564,0.003599085327095965
2142,00:00:08.568,-0.002659852976378824
2143,00:00:08.572,-0.007142836749494567
2144,00:00:08.576,-0.004018875772658251
2145,00:00:08.58,-0.0017833359468113503
2146,00:00:08.584,0.00473768113022289
2147,00:00:08.588,0.004557870366966201
2148,00:00:08.592,0.0018201601978944347
2149,00:00:08.596,-0.0028002112231888506
2150,00:00:08.6,0.004233015172516723
2151,00:00:08.604,-0.004029760532606723
2152,00:00:08.608,-0.00602684659214959
2153,00:00:08.612,-0.005394152949207862
2154,00:00:08.616,0.008795032177083328
2155,00:00:08.62,0.011310889454895447
2156,00:00:08.624,0.005619404546450824
2157,00:00:08.628,-0.01626004488207403
2158,00:00:08.632,-0.0172827581409365
2159,00:00:08.636,0.005756144470069554
2160,00:00:08.64,0.01770483877044169
2161,00:00:08.644,0.0039044308941811406
2162,00:00:08.648,-0.005376378889195629
2163,00:00:08.652,-0.003033291781321161
2164,00:00:08.656,-0.0018149840398109527
2165,00:00:08.66,0.005451156874187293
2166,00:00:08.664,-0.005838488985318697
2167,00:00:08.668,-0.0064138460147660226
2168,00:00:08.672,0.0021193575812503695
2169,00:00:08.676,-0.0015865479363128604
2170,00:00:08.68,0.013506447401596233
2171,00:00:08.684,0.006106331362389028
2172,00:00:08.688,-0.013888261106330901
2173,00:00:08.692,-0.0040089365211315505
2174,00:00:08.696,0.0037603761302307274
2175,00:00:08.7,0.005491299882123713
2176,00:00:08.704,0.003014608242665421
2177,00:00:08.708,-0.00877164117991924
2178,00:00:08.712,-0.00726392533397302
2179,00:00:08.716,0.0049875273075485945
2180,00:00:08.72,0.010107432030054046
2181,00:00:08.724,0.00283796642906964
2182,00:00:08.728,-0.01417082850821316
2183,00:00:08.732,-1.7542392015458888e-05
2184,00:00:08.736,0.0020439213549252578
2185,00:00:08.74,0.0031364382011815906
2186,00:00:08.744,0.00036093842936679705
2187,00:00:08.748,0.013170493562938625
2188,00:00:08.752,-0.0026381672942079543
2189,00:00:08.756,-0.013185592833906433
2190,00:00:08.76,-0.013968552113510694
2191,00:00:08.764,0.006403877952834593
2192,00:00:08.768,0.01434475109999768
2193,00:00:08.772,-0.0019830190576612906
2194,00:00:08.776,-0.0007983472314663223
2195,00:00:08.78,0.00409448822028935
2196,00:00:08.784,0.00018965272465720773
2197,00:00:08.788,-0.0075162198918405886
2198,00:00:08.792,-0.006209329250850718
2199,00:00:08.796,0.006960674792935608
2200,00:00:08.8,0.0031822607270442
2201,00:00:08.804,0.004360228776931762
2202,00:00:08.808,-0.007271852075064093
2203,00:00:08.812,-0.0026708712493928046
2204,00:00:08.816,-0.0015399110670841825
2205,00:00:08.82,0.003804000654781701
2206,00:00:08.824,0.0053444885197677676
2207,00:00:08.828,-0.0010632767762217563
2208,00:00:08.832,-0.0026148943798034495
2209,00:00:08.836,0.00028281974300625376
2210,00:00:08.84,-0.00029187469135649746
2211,00:00:08.844,-0.005100533348922914
2212,00:00:08.848,0.0010341841083345577
2213,00:00:08.852,0.000867991009727118
2214,00:00:08.856,0.002148155534541727
2215,00:00:08.86,0.004282446739352967
2216,00:00:08.864,0.0012071095835608544
2217,00:00:08.868,-0.00384820733006563
2218,00:00:08.872,0.0033409014828294
2219,00:00:08.876,-0.008521945709617285
2220,00:00:08.88,-0.003945900813562272
2221,00:00:08.884,0.01073362450580362
2222,00:00:08.888,0.0013885639236832516
2223,00:00:08.892,-0.004359505110130616
2224,00:00:08.896,0.0015821510787503705
2225,00:00:08.9,-0.0015114782210590167
2226,00:00:08.904,-0.0013008665134464057
2227,00:00:08.908,-0.00014464838864114394
2228,00:00:08.912,-0.001367139516275981
2229,00:00:08.916,0.002874491949121702
2230,00:00:08.92,0.006388414135358287
2231,00:00:08.924,0.0005137997202417912
2232,00:00:08.928,-0.012436041517304337
2233,00:00:08.932,-0.007269740068698738
2234,00:00:08.936,0.009649792189791562
2235,00:00:08.94,0.010903096321607464
2236,00:00:08.944,0.002586228933854068
2237,00:00:08.948,-0.006275880386485962
2238,00:00:08.952,-0.010358434297050682
2239,00:00:08.956,0.0013074033753079917
2240,00:00:08.96,0.006126138699581227
2241,00:00:08.964,0.0007865736485939117
2242,00:00:08.968,-0.005209070796016739
2243,00:00:08.972,0.0008053616620600202
2244,00:00:08.976,0.00897666416130959
2245,00:00:08.98,0.002346188179217279
2246,00:00:08.984,-0.01041109045036137
2247,00:00:08.988,-0.00835065194405616
2248,00:00:08.992,0.004799042901140639
2249,00:00:08.996,0.002224985410066437
2250,00:00:09,0.01338947564363479
2251,00:00:09.004,0.00119843299034983
2252,00:00:09.008,-0.010717806173488501
2253,00:00:09.012,-0.013978083501569928
2254,00:00:09.016,0.0027365122223272967
2255,00:00:09.02,0.012427342255250553
2256,00:00:09.024,0.0046630128053948335
2257,00:00:09.028,-0.001051888772053641
2258,00:00:09.032,-0.0034554297890281227
2259,00:00:09.036,0.003098695306107407
2260,00:00:09.04,-0.00948335550492629
2261,00:00:09.044,-0.009015925199491896
2262,00:00:09.048,0.006029249954735858
2263,00:00:09.052,0.014900152804329991
2264,00:00:09.056,-0.0009192930447170549
2265,00:00:09.06,-0.002663414867129173
2266,00:00:09.064,0.0008746157400310053
2267,00:00:09.068,-0.006363256492477374
2268,00:00:09.072,-0.00622932764235884
2269,00:00:09.076,0.002070466522127397
2270,00:00:09.08,0.004392843184177763
2271,00:00:09.084,0.007376105873845519
2272,00:00:09.088,-0.005071659514214843
2273,00:00:09.092,-0.004203233154839843
2274,00:00:09.096,-0.0003034036781173115
2275,00:00:09.1,0.006331964279524982
2276,00:00:09.104,-0.0015464494936168198
2277,00:00:09.108,-0.002059091864794034
2278,00:00:09.112,0.0015489502911805151
2279,00:00:09.116,0.006997246819082642
2280,00:00:09.12,-0.00653342751320452
2281,00:00:09.124,-0.00818112725391984
2282,00:00:09.128,0.0005459529929794358
2283,00:00:09.132,-0.0002261071931570803
2284,00:00:09.136,0.005445079877972596
2285,00:00:09.14,0.01099880796391516
2286,00:00:09.144,-0.00020225322805346013
2287,00:00:09.148,-0.006002620386425402
2288,00:00:09.152,-0.01441323501057924
2289,00:00:09.156,-0.003468800568953149
2290,00:00:09.16,0.01684633945114911
2291,00:00:09.164,0.013803443987853777
2292,00:00:09.168,-0.00564440619200468
2293,00:00:09.172,-0.01711959578096869
2294,00:00:09.176,-0.00778675870969892
2295,00:00:09.18,0.003118872875347728
2296,00:00:09.184,0.006002646754495799
2297,00:00:09.188,0.013092046137899162
2298,00:00:09.192,0.004697329597547649
2299,00:00:09.196,-0.008128961431793872
2300,00:00:09.2,-0.005470590898767119
2301,00:00:09.204,-0.002585836860816926
2302,00:00:09.208,-0.00427591218613088
2303,00:00:09.212,0.007324278529267755
2304,00:00:09.216,0.000817638880107554
2305,00:00:09.22,0.003861975390464069
2306,00:00:09.224,0.0023199002025649
2307,00:00:09.228,-0.004761352523928512
2308,00:00:09.232,-0.011111793312011288
2309,00:00:09.236,-0.004382196260849014
2310,00:00:09.24,0.01783701532986019
2311,00:00:09.244,0.00332850660197437
2312,00:00:09.248,-0.005165881564607851
2313,00:00:09.252,-0.00633027649018914
2314,00:00:09.256,0.007182006258517511
2315,00:00:09.26,0.0011325066443532733
2316,00:00:09.264,-0.011029150991817002
2317,00:00:09.268,0.0004571910285449146
2318,00:00:09.272,0.00458398880437016
2319,00:00:09.276,0.008072113152593369
2320,00:00:09.28,0.003674862906336789
2321,00:00:09.284,-0.012116160127334297
2322,00:00:09.288,-0.005116869928315283
2323,00:00:09.292,0.007419077970553191
2324,00:00:09.296,-0.006100496626459063
2325,00:00:09.3,0.004643721331376582
2326,00:00:09.304,0.01684786076657476
2327,00:00:09.308,-0.006777027068892501
2328,00:00:09.312,-0.01764184981584552
2329,00:00:09.316,-0.006933131080586461
2330,00:00:09.32,0.004542218870483338
2331,00:00:09.324,0.00916231574956328
2332,00:00:09.328,0.009376359637826681
2333,00:00:09.332,-0.0015046797343529722
2334,00:00:09.336,0.000749875733163208
2335,00:00:09.34,5.837890785187006e-05
2336,00:00:09.344,-0.005749315314460545
2337,00:00:09.348,-0.0048721802013460495
2338,00:00:09.352,-0.007747329233097841
2339,00:00:09.356,0.007279758923687034
2340,00:00:09.36,0.009519388899207119
2341,00:00:09.364,0.0006714637420372996
2342,00:00:09.368,0.000937797020924341
2343,00:00:09.372,-0.0052806460298597795
2344,00:00:09.376,-0.00912065152078869
2345,00:00:09.38,-0.006235746666789059
2346,00:00:09.384,0.01430019491817802
2347,00:00:09.388,0.0031996532343328016
2348,00:00:09.392,0.0014475364005192698
2349,00:00:09.396,0.0007791010430082709
2350,00:00:09.4,-0.008752786088734869
2351,00:00:09.404,0.006256535474676643
2352,00:00:09.408,-0.0017810986610129502
2353,00:00:09.412,-0.00551647547399625
2354,00:00:09.416,-0.0040473616681993
2355,00:00:09.42,-0.0003478979633655412
2356,00:00:09.424,0.00888730573933572
2357,00:00:09.428,0.008101943298242991
2358,00:00:09.432,-0.0015875637764111166
2359,00:00:09.436,-0.0028712850980809916
2360,00:00:09.44,-0.006091696282965127
2361,00:00:09.444,-0.0032716118148528005
2362,00:00:09.448,-0.0037468506925506556
2363,00:00:09.452,0.004341182939242573
2364,00:00:09.456,0.00988411333310069
2365,00:00:09.46,-0.0006287381766014693
2366,00:00:09.464,0.0010040201304946145
2367,00:00:09.468,-0.0041537530778441595
2368,00:00:09.472,-0.0038480942603200696
2369,00:00:09.476,-0.0035152756900060996
2370,00:00:09.48,0.002731758635491131
2371,00:00:09.484,0.00337883218890056
2372,00:00:09.488,0.001721876120427621
2373,00:00:09.492,0.001980108878342432
2374,00:00:09.496,-0.0030586078064516213
2375,00:00:09.5,-0.0027824958669953152
2376,00:00:09.504,-0.0028953316941624525
2377,00:00:09.508,0.004843178547162091
2378,00:00:09.512,-0.003127292671706529
2379,00:00:09.516,0.003532749222358687
2380,00:00:09.52,0.004712345755251594
2381,00:00:09.524,6.150616900413687e-05
2382,00:00:09.528,-0.0053771740022057184
2383,00:00:09.532,-0.007905924518127001
2384,00:00:09.536,0.00351564508673619
2385,00:00:09.54,0.007168134679432118
2386,00:00:09.544,0.004806044134056718
2387,00:00:09.548,-0.005792991727503249
2388,00:00:09.552,-0.00934500686798856
2389,00:00:09.556,0.0005710604432351794
2390,00:00:09.56,0.006988386152215752
2391,00:00:09.564,0.0067141224863007595
2392,00:00:09.568,-0.005743677727878089
2393,00:00:09.572,-0.00213226029882207
2394,00:00:09.576,0.00846829533111304
2395,00:00:09.58,-0.00278664298821241
2396,00:00:09.584,-0.007686506432946766
2397,00:00:09.588,-0.007857450982555749
2398,00:00:09.592,0.005145141389220952
2399,00:00:09.596,0.004833281273022292
2400,00:00:09.6,0.0077430808451026695
2401,00:00:09.604,0.0016405600326834264
2402,00:00:09.608,-0.00572056442615576
2403,00:00:09.612,-0.007241709481604628
2404,00:00:09.616,-0.001958022257895209
2405,00:00:09.62,0.004634845390683045
2406,00:00:09.624,0.0019599966544774357
2407,00:00:09.628,-0.0009484267793595695
2408,00:00:09.632,0.00248323590494692
2409,00:00:09.636,0.00568092800676823
2410,00:00:09.64,0.00398723524995148
2411,00:00:09.644,-0.006455087161157276
2412,00:00:09.648,-0.01644821022637189
2413,00:00:09.652,-0.004901381558738644
2414,00:00:09.656,0.01675413391785696
2415,00:00:09.66,0.00226573145482689
2416,00:00:09.664,-0.0009003975428640799
2417,00:00:09.668,0.0035856013128068263
2418,00:00:09.672,0.00026655057445168105
2419,00:00:09.676,-0.004984989849617703
2420,00:00:09.68,-0.005702293419744821
2421,00:00:09.684,-0.002762862193776528
2422,00:00:09.688,0.005058974797066184
2423,00:00:09.692,0.007494543708162385
2424,00:00:09.696,0.006699126679450265
2425,00:00:09.7,-0.004061845756950783
2426,00:00:09.704,-0.00508185959188268
2427,00:00:09.708,-0.011128507831017488
2428,00:00:09.712,-0.0071172813477460295
2429,00:00:09.716,0.019082180690020323
2430,00:00:09.72,0.0026425445685163175
2431,00:00:09.724,-0.00892639020457864
2432,00:00:09.728,-0.0010565635166131012
2433,00:00:09.732,0.005527997636818329
2434,00:00:09.736,0.01216448863851841
2435,00:00:09.74,-0.001521212252555408
2436,00:00:09.744,-0.014828630897682158
2437,00:00:09.748,-0.008404194901231685
2438,00:00:09.752,0.0031524046644335634
2439,00:00:09.756,0.002230775746284049
2440,00:00:09.76,0.010746561922132922
2441,00:00:09.764,0.0048715925804572215
2442,00:00:09.768,-0.006407802589819769
2443,00:00:09.772,-0.005680230189682337
2444,00:00:09.776,0.002563058478699532
2445,00:00:09.78,-0.0003221926453989
2446,00:00:09.784,-0.002753898555965857
2447,00:00:09.788,-0.0002184658942496736
2448,00:00:09.792,0.006110765350967995
2449,00:00:09.796,0.0025041745975613594
2450,00:00:09.8,-0.005933482840191571
2451,00:00:09.804,-0.003653074934845793
2452,00:00:09.808,0.002524180337786674
2453,00:00:09.812,0.002774794003926216
2454,00:00:09.816,0.0010336676932638498
2455,00:00:09.82,-0.0005371567676775161
2456,00:00:09.824,0.002986180421430615
2457,00:00:09.828,-0.002829298900905994
2458,00:00:09.832,-0.009776054095709696
2459,00:00:09.836,0.004199222195893521
2460,00:00:09.84,0.0011665041965898142
2461,00:00:09.844,0.006060801446437835
2462,00:00:09.848,-0.003842597652692351
2463,00:00:09.852,7.927184924477228e-06
2464,00:00:09.856,0.0013031874550506507
2465,00:00:09.86,0.003001709661475613
2466,00:00:09.864,0.004260693793185051
2467,00:00:09.868,-0.006161199766211216
2468,00:00:09.872,-0.007911903841886675
2469,00:00:09.876,0.004306716145947579
2470,00:00:09.88,0.00348160701105372
2471,00:00:09.884,-0.006179621123010294
2472,00:00:09.888,-0.00428018788807094
2473,00:00:09.892,0.0026952802436426265
2474,00:00:09.896,0.01226210501044988
2475,00:00:09.9,-0.0010637678788043533
2476,00:00:09.904,-0.0013328735367394988
2477,00:00:09.908,-0.0019104729872196995
2478,00:00:09.912,0.00647334661334753
2479,00:00:09.916,-0.002806182426866143
2480,00:00:09.92,-0.004459545365534725
2481,00:00:09.924,-0.013180405716411771
2482,00:00:09.928,-0.00522699591238051
2483,00:00:09.932,0.0042213851993437804
2484,00:00:09.936,0.021003110450692426
2485,00:00:09.94,0.003832653630524871
2486,00:00:09.944,0.004295536084100609
2487,00:00:09.948,-0.01351887325290591
2488,00:00:09.952,-0.012536753551103185
2489,00:00:09.956,0.0062265177257359
2490,00:00:09.96,0.001867455313913519
2491,00:00:09.964,-0.005292809510137882
2492,00:00:09.968,0.00262040831148624
2493,00:00:09.972,0.013681332173291594
2494,00:00:09.976,0.0042808697326108805
2495,00:00:09.98,-0.005378778558224441
2496,00:00:09.984,-0.01684566307812929
2497,00:00:09.988,-0.004370038921479133
2498,00:00:09.992,0.008999136800412089
2499,00:00:09.996,0.005706902709789581
2500,00:00:10,0.0022175846388563496
2501,00:00:10.004,0.0016483319923281648
2502,00:00:10.008,-0.007806484121829266
2503,00:00:10.012,0.0006390211638063279
2504,00:00:10.016,0.00422986515332013
2505,00:00:10.02,0.0011623374157352425
2506,00:00:10.024,-0.0018058413334074456
2507,00:00:10.028,-0.010917503881501039
2508,00:00:10.032,0.002072879811748867
2509,00:00:10.036,0.010333080310374495
2510,00:00:10.04,0.0028165921639811096
2511,00:00:10.044,0.0001766020977811421
2512,00:00:10.048,-0.0011653106976154948
2513,00:00:10.052,-0.010172253474593159
2514,00:00:10.056,-0.00231701077427715
2515,00:00:10.06,-0.0014765431405976402
2516,00:00:10.064,0.007967624405864626
2517,00:00:10.068,0.0019606459245551395
2518,00:00:10.072,0.00717334030196071
2519,00:00:10.076,0.0009051250526681486
2520,00:00:10.08,-0.00672123674303293
2521,00:00:10.084,-0.00800448528025299
2522,00:00:10.088,-0.00010209419997409214
2523,00:00:10.092,0.0029279251903062712
2524,00:00:10.096,0.0028833906108047805
2525,00:00:10.1,-0.0005879142263438549
2526,00:00:10.104,0.004092621587915353
2527,00:00:10.108,-0.0011180331166542536
2528,00:00:10.112,0.00178707984741777
2529,00:00:10.116,-0.00553098903037607
2530,00:00:10.12,0.0005714577855542332
2531,00:00:10.124,-0.007854825700633221
2532,00:00:10.128,-0.0009474804101046149
2533,00:00:10.132,0.0053984283003956106
2534,00:00:10.136,0.0128093296661973
2535,00:00:10.14,0.00620990223251284
2536,00:00:10.144,-0.00859877746552229
2537,00:00:10.148,-0.011436218395829182
2538,00:00:10.152,-0.004416653981024865
2539,00:00:10.156,0.00447026104666292
2540,00:00:10.16,0.0053239678964018804
2541,00:00:10.164,0.0007224895525723629
2542,00:00:10.168,0.001980974659090861
2543,00:00:10.172,0.006304187030764295
2544,00:00:10.176,-0.00747706514084711
2545,00:00:10.18,-0.006790068931877611
2546,00:00:10.184,-0.0037689198506996044
2547,00:00:10.188,-0.0018948792712762902
2548,00:00:10.192,0.013262305408716198
2549,00:00:10.196,0.00991954968776554
2550,00:00:10.2,-0.0030177239095792196
2551,00:00:10.204,-0.011748918797820808
2552,00:00:10.208,-0.006266022654017437
2553,00:00:10.212,0.005136300111189479
2554,00:00:10.216,0.0008117142133414756
2555,00:00:10.22,0.0013017460914852494
2556,00:00:10.224,0.003939667716622346
2557,00:00:10.228,-0.00267189519945532
2558,00:00:10.232,0.00894033012446016
2559,00:00:10.236,-0.00499117397703231
2560,00:00:10.24,-0.010617425665259354
2561,00:00:10.244,0.0030942206503823374
2562,00:00:10.248,5.284626968204975e-05
2563,00:00:10.252,0.0012895605614175968
2564,00:00:10.256,0.004287570398446404
2565,00:00:10.26,0.006041444255970422
2566,00:00:10.264,-0.004898377228528266
2567,00:00:10.268,-0.009672781714471054
2568,00:00:10.272,-0.00040209817234426726
2569,00:00:10.276,0.0061359670944511925
2570,00:00:10.28,0.008461893565254284
2571,00:00:10.284,-0.0013118549250066259
2572,00:00:10.288,-0.009266657303669485
2573,00:00:10.292,-0.006601123914151683
2574,00:00:10.296,0.01178367261309176
2575,00:00:10.3,-0.003994865342974659
2576,00:00:10.304,0.0035332334518898287
2577,00:00:10.308,0.0018508221255615293
2578,00:00:10.312,-0.00324210966937245
2579,00:00:10.316,-0.006759348325431352
2580,00:00:10.32,0.0055630335555179
2581,00:00:10.324,0.00445784867042676
2582,00:00:10.328,-0.005976343178190296
2583,00:00:10.332,-0.0006790374827687681
2584,00:00:10.336,0.0061443219310604
2585,00:00:10.34,0.004421937512233859
2586,00:00:10.344,-0.00823032739572227
2587,00:00:10.348,-0.007651563617400824
2588,00:00:10.352,0.006287447409704331
2589,00:00:10.356,0.005419235036242755
2590,00:00:10.36,-0.0033067309122998293
2591,00:00:10.364,-0.002524327810533581
2592,00:00:10.368,0.0043317609233781635
2593,00:00:10.372,0.0019183813128620503
2594,00:00:10.376,-0.005588275613263255
2595,00:00:10.38,0.0011961847776547103
2596,00:00:10.384,-0.002932965115178384
2597,00:00:10.388,-0.0024571921676397306
2598,00:00:10.392,0.0061919641448184804
2599,00:00:10.396,0.00022636679932475003
2600,00:00:10.4,0.004129266308154907
2601,00:00:10.404,0.006982515711570155
2602,00:00:10.408,-0.00847097754012793
2603,00:00:10.412,-0.008329091593623158
2604,00:00:10.416,-0.0027672286669258046
2605,00:00:10.42,4.874964361079167e-05
2606,00:00:10.424,-0.00020504952408373963
2607,00:00:10.428,0.015028021531179572
2608,00:00:10.432,0.006654157448792833
2609,00:00:10.436,-0.01006335252895952
2610,00:00:10.44,-0.00862904608948156
2611,00:00:10.444,-6.513809785246936e-05
2612,00:00:10.448,0.000781892274972048
2613,00:00:10.452,0.01082549279090017
2614,00:00:10.456,-0.0010134603362530392
2615,00:00:10.46,-0.00686338415835053
2616,00:00:10.464,-0.005900786723941563
2617,00:00:10.468,-0.0016647393931634733
2618,00:00:10.472,0.008448547392617908
2619,00:00:10.476,0.010431479735416365
2620,00:00:10.48,-0.0030212813144316845
2621,00:00:10.484,-0.008192733861505989
2622,00:00:10.488,-0.004167904728092254
2623,00:00:10.492,0.0007383681368082814
2624,00:00:10.496,0.005252159200608731
2625,00:00:10.5,0.0051404902478680015
2626,00:00:10.504,0.0019829644588753616
2627,00:00:10.508,-0.011772416473831985
2628,00:00:10.512,-0.0036784384719794646
2629,00:00:10.516,0.0025673417840153005
2630,00:00:10.52,0.010864617608604021
2631,00:00:10.524,-0.002483442294760609
2632,00:00:10.528,-0.0018463982360117344
2633,00:00:10.532,0.002727318220422603
2634,00:00:10.536,-0.0006138503886177265
2635,00:00:10.54,-0.009473998456087429
2636,00:00:10.544,-0.003444132913500657
2637,00:00:10.548,0.005403134430707727
2638,00:00:10.552,0.0038517653374583512
2639,00:00:10.556,0.004794356276761391
2640,00:00:10.56,-0.0008953559963629169
2641,00:00:10.564,-0.002134593045639125
2642,00:00:10.568,-0.003630902967415742
2643,00:00:10.572,0.011768293217755861
2644,00:00:10.576,-0.0018955307896248953
2645,00:00:10.58,-0.01151111104991287
2646,00:00:10.584,-0.010402036947198219
2647,00:00:10.588,0.003088062367169188
2648,00:00:10.592,0.010499406344024463
2649,00:00:10.596,0.005044643708970398
2650,00:00:10.6,0.003084857482463125
2651,00:00:10.604,-0.001390968216583141
2652,00:00:10.608,-0.0018147769151255501
2653,00:00:10.612,-0.0014818612253293464
2654,00:00:10.616,-0.009490692289546099
2655,00:00:10.62,-0.003417746978811911
2656,00:00:10.624,0.00540686926979106
2657,00:00:10.628,0.005987837095744901
2658,00:00:10.632,0.0050342803588137065
2659,00:00:10.636,-0.0043386359466239775
2660,00:00:10.64,-0.0017314834549324544
2661,00:00:10.644,-0.000708503626810847
2662,00:00:10.648,-0.006471474713180219
2663,00:00:10.652,0.005947328289039433
2664,00:00:10.656,0.00509316904935986
2665,00:00:10.66,0.0048877733643166695
2666,00:00:10.664,-0.002165959158446645
2667,00:00:10.668,-0.01438858092296869
2668,00:00:10.672,-0.001572748122271149
2669,00:00:10.676,0.006410256261005999
2670,00:00:10.68,0.0009028550703078513
2671,00:00:10.684,0.005237662116996951
2672,00:00:10.688,-0.004393342067487542
2673,00:00:10.692,-0.00010160892270504821
2674,00:00:10.696,0.0014838277129456407
2675,00:00:10.7,0.007402501534670599
2676,00:00:10.704,-0.003676869615446774
2677,00:00:10.708,-0.009612218098482117
2678,00:00:10.712,0.003057909023482349
2679,00:00:10.716,0.005585295541095549
2680,00:00:10.72,-0.003303713805507871
2681,00:00:10.724,-0.0030169544043019405
2682,00:00:10.728,-0.0065065905218944006
2683,00:00:10.732,0.00966588268056512
2684,00:00:10.736,0.004948381741996854
2685,00:00:10.74,-0.001981087436433884
2686,00:00:10.744,-0.000600581988692281
2687,00:00:10.748,-0.0012098288279958022
2688,00:00:10.752,-0.0014979728257458207
2689,00:00:10.756,0.0051780975190922635
2690,00:00:10.76,-0.014486939646303662
2691,00:00:10.764,0.0012909148135804658
2692,00:00:10.768,0.01074136886745691
2693,00:00:10.772,0.0055321806867141225
2694,00:00:10.776,0.00692118552979082
2695,00:00:10.78,-0.01683820132166147
2696,00:00:10.784,-0.01111198088619858
2697,00:00:10.788,0.00048288423568010287
2698,00:00:10.792,0.007368755992501977
2699,00:00:10.796,0.01187912200111896
2700,00:00:10.8,0.0063751863199286215
2701,00:00:10.804,-0.009345214304630641
2702,00:00:10.808,-0.005953800704446621
2703,00:00:10.812,-0.004014583291791501
2704,00:00:10.816,0.002893733821110797
2705,00:00:10.82,0.0015904846950434192
2706,00:00:10.824,0.0038742530900890415
2707,00:00:10.828,-0.0005036346046836109
2708,00:00:10.832,0.0009993432104238292
2709,00:00:10.836,-0.0004307686394895416
2710,00:00:10.84,0.0005243713803793073
2711,00:00:10.844,-0.0035115918617520964
2712,00:00:10.848,-0.006551772155944496
2713,00:00:10.852,0.0038928955254959896
2714,00:00:10.856,0.0026940288753394253
2715,00:00:10.86,0.006139276106978284
2716,00:00:10.864,0.0011436376480560267
2717,00:00:10.868,-0.009445091963243616
2718,00:00:10.872,0.0016772673620835165
2719,00:00:10.876,0.002235927290939797
2720,00:00:10.88,-0.003974139386400561
2721,00:00:10.884,0.0006762918319509451
2722,00:00:10.888,-0.00014545914018526803
2723,00:00:10.892,0.00543140387162567
2724,00:00:10.896,0.00414292083587498
2725,00:00:10.9,-0.007947352132759988
2726,00:00:10.904,-0.005110326921567319
2727,00:00:10.908,0.0025441673933528325
2728,00:00:10.912,0.005783938308013605
2729,00:00:10.916,-0.0020173723460175028
2730,00:00:10.92,0.00033311906736344023
2731,00:00:10.924,0.004436934599652892
2732,00:00:10.928,-0.006319725172033945
2733,00:00:10.932,-0.003984642360592252
2734,00:00:10.936,0.002753668348304922
2735,00:00:10.94,0.005374613756430338
2736,00:00:10.944,-0.0004994534610887067
2737,00:00:10.948,-0.004091123915713981
2738,00:00:10.952,0.0005339163835742494
2739,00:00:10.956,0.0013027802488068158
2740,00:00:10.96,0.0027015180348826146
2741,00:00:10.964,-0.004212306319004712
2742,00:00:10.968,-0.004351924135335134
2743,00:00:10.972,0.004937491044984197
2744,00:00:10.976,0.00825028971303254
2745,00:00:10.98,-0.0012717293575405988
2746,00:00:10.984,-0.009212353863404132
2747,00:00:10.988,-0.002419983793515716
2748,00:00:10.992,0.001625524600967757
2749,00:00:10.996,0.0007461548084393083
2750,00:00:11,0.004081489751115445
2751,00:00:11.004,0.0023494463530369094
2752,00:00:11.008,-0.0023348639369942244
2753,00:00:11.012,-0.003938854322768754
2754,00:00:11.016,-0.00039138235013070526
2755,00:00:11.02,0.012619671673746774
2756,00:00:11.024,0.003038656432181595
2757,00:00:11.028,-0.008502806900651198
2758,00:00:11.032,-0.015163766394834976
2759,00:00:11.036,-0.004306338261812925
2760,00:00:11.04,0.0037511394184548334
2761,00:00:11.044,0.011097425551270135
2762,00:00:11.048,0.00614731921814381
2763,00:00:11.052,0.010185623657889671
2764,00:00:11.056,0.0011250122915953398
2765,00:00:11.06,-0.01725823525339363
2766,00:00:11.064,-0.01573309861123562
2767,00:00:11.068,0.00532471435144544
2768,00:00:11.072,0.011701979674398899
2769,00:00:11.076,0.01035300409421325
2770,00:00:11.08,-0.00863794167526067
2771,00:00:11.084,-0.009624978352803739
2772,00:00:11.088,0.00275316170882434
2773,00:00:11.092,0.0048658474552212274
2774,00:00:11.096,-0.00149707403033972
2775,00:00:11.1,0.0038478401838801827
2776,00:00:11.104,0.005780762410722673
2777,00:00:11.108,-0.005360840819776062
2778,00:00:11.112,-0.010117087062099014
2779,00:00:11.116,0.0014692643599118998
2780,00:00:11.12,0.00838426858535967
2781,00:00:11.124,0.0031065696675796083
2782,00:00:11.128,-0.010748268185125153
2783,00:00:11.132,0.0014619579887948948
2784,00:00:11.136,-0.0007920263306004928
2785,00:00:11.14,0.005548072513192896
2786,00:00:11.144,-0.0053751786472275905
2787,00:00:11.148,0.002868284696887712
2788,00:00:11.152,0.007765956819639541
2789,00:00:11.156,-0.0005386874254327283
2790,00:00:11.16,-0.0041514853364788
2791,00:00:11.164,-0.0038888176495674954
2792,00:00:11.168,-0.0017638054341659838
2793,00:00:11.172,-0.0017037350844475475
2794,00:00:11.176,0.003489872979116628
2795,00:00:11.18,0.005267004380584693
2796,00:00:11.184,-0.0008910647229640818
2797,00:00:11.188,-0.0023436403062078223
2798,00:00:11.192,-0.0015737650974187991
2799,00:00:11.196,0.0017778034089133102
2800,00:00:11.2,-0.003479360369965429
2801,00:00:11.204,-0.0030210822587832795
2802,00:00:11.208,0.00181812542723492
2803,00:00:11.212,0.006331932439934461
2804,00:00:11.216,0.0118676105048507
2805,00:00:11.22,0.00201320485211909
2806,00:00:11.224,-0.02132193383295085
2807,00:00:11.228,-0.014022373594343631
2808,00:00:11.232,0.006407988374121479
2809,00:00:11.236,0.0220040665008128
2810,00:00:11.24,0.004349098890088493
2811,00:00:11.244,-0.010227300692349669
2812,00:00:11.248,-0.01466238684952259
2813,00:00:11.252,0.0038379951147362572
2814,00:00:11.256,0.00760974281001835
2815,00:00:11.26,0.00877219496760517
2816,00:00:11.264,-0.00771908136084676
2817,00:00:11.268,-0.0036858738749287927
2818,00:00:11.272,0.002149528678273784
2819,00:00:11.276,-0.00015473338135052602
2820,00:00:11.28,0.004235452564898882
2821,00:00:11.284,-0.0013265783200040351
2822,00:00:11.288,-0.006770714448066429
2823,00:00:11.292,0.002287438805069546
2824,00:00:11.296,0.003105408337432895
2825,00:00:11.3,0.001176697493065144
2826,00:00:11.304,0.0014479806304734668
2827,00:00:11.308,0.0050031762511935154
2828,00:00:11.312,-0.012664416048210147
2829,00:00:11.316,-0.005117576816701331
2830,00:00:11.32,-3.990327240899075e-05
2831,00:00:11.324,0.0029273344553075765
2832,00:00:11.328,-0.00041826753295026703
2833,00:00:11.332,0.02137950609903782
2834,00:00:11.336,0.011571491020731585
2835,00:00:11.34,-0.01846200716681777
2836,00:00:11.344,-0.019512853526976
2837,00:00:11.348,-0.00180402002297342
2838,00:00:11.352,0.0017435334157198592
2839,00:00:11.356,0.0065121956868097195
2840,00:00:11.36,0.01336204458493738
2841,00:00:11.364,-0.0017035798518918468
2842,00:00:11.368,-0.004551793637801891
2843,00:00:11.372,-0.002816114923916759
2844,00:00:11.376,-0.00047755934065207796
2845,00:00:11.38,0.0008712725248187902
2846,00:00:11.384,0.00313599535729736
2847,00:00:11.388,0.004816226311959329
2848,00:00:11.392,-0.007620373828103768
2849,00:00:11.396,-0.001383194234222171
2850,00:00:11.4,2.6765686925500848e-05
2851,00:00:11.404,-0.0019185355631634558
2852,00:00:11.408,9.35342904995239e-05
2853,00:00:11.412,-0.0022991309815552103
2854,00:00:11.416,0.00814399775117637
2855,00:00:11.42,0.004636211277102117
2856,00:00:11.424,-0.0052381763234734605
2857,00:00:11.428,-0.00221492105629295
2858,00:00:11.432,-0.004788965219631791
2859,00:00:11.436,0.00409111977205611
2860,00:00:11.44,0.005778300517704334
2861,00:00:11.444,-0.001229919027537111
2862,00:00:11.448,-0.005178522551432261
2863,00:00:11.452,0.0060189407668076395
2864,00:00:11.456,-0.006841471535153692
2865,00:00:11.46,-0.004080203245393928
2866,00:00:11.464,0.0013309090281836676
2867,00:00:11.468,0.006171248038299377
2868,00:00:11.472,0.0016709400224499352
2869,00:00:11.476,0.004014169389847661
2870,00:00:11.48,-0.0005804324173368559
2871,00:00:11.484,-0.008087418660579718
2872,00:00:11.488,-0.00427326047793031
2873,00:00:11.492,0.005159225198440249
2874,00:00:11.496,-0.0023433872847817764
2875,00:00:11.5,0.006252596795093262
2876,00:00:11.504,0.0030412763589993206
2877,00:00:11.508,-0.0036475792294368174
2878,00:00:11.512,-0.0016448616515845086
2879,00:00:11.516,-0.005473896861076353
2880,00:00:11.52,-0.003134590660920363
2881,00:00:11.524,0.004929956165142361
2882,00:00:11.528,0.00765378260985016
2883,00:00:11.532,0.004866225033765659
2884,00:00:11.536,-0.0019342968735145422
2885,00:00:11.54,-0.007585301296785466
2886,00:00:11.544,-0.009175461193080985
2887,00:00:11.548,0.001324392884271221
2888,00:00:11.552,0.0077044392637617455
2889,00:00:11.556,0.007162076435633939
2890,00:00:11.56,-0.0014262345648603499
2891,00:00:11.564,-0.006107077977503649
2892,00:00:11.568,0.003009600246969059
2893,00:00:11.572,-0.00125251134159043
2894,00:00:11.576,-0.006471951841376724
2895,00:00:11.58,0.0005118796761962607
2896,00:00:11.584,0.0012132588308304505
2897,00:00:11.588,0.00494659855030477
2898,00:00:11.592,0.00499921140726655
2899,00:00:11.596,-0.0021398772951215506
2900,00:00:11.6,-0.00365279638208449
2901,00:00:11.604,-0.00235674285795539
2902,00:00:11.608,-0.0025082778302021325
2903,00:00:11.612,0.002853698330000041
2904,00:00:11.616,0.000799084431491791
2905,00:00:11.62,0.0009560403414070589
2906,00:00:11.624,0.0009739659726619807
2907,00:00:11.628,0.0025594837497919785
2908,00:00:11.632,0.00201603781897575
2909,00:00:11.636,-0.002023980719968681
2910,00:00:11.64,-0.003908852246240709
2911,00:00:11.644,-0.01134186098352075
2912,00:00:11.648,0.002875339676393196
2913,00:00:11.652,0.0156840670388192
2914,00:00:11.656,-0.006437560805352412
2915,00:00:11.66,-0.003041813863092106
2916,00:00:11.664,0.00921586726326496
2917,00:00:11.668,0.0007715723477303899
2918,00:00:11.672,-0.002395043149590488
2919,00:00:11.676,-0.007018773409072311
2920,00:00:11.68,-0.00850012828595936
2921,00:00:11.684,-0.00023278174921870015
2922,00:00:11.688,0.00792641763109714
2923,00:00:11.692,0.00678700511343777
2924,00:00:11.696,0.004392429837025699
2925,00:00:11.7,-0.0034975183079950494
2926,00:00:11.704,-0.008911765762604777
2927,00:00:11.708,0.0031846379861235623
2928,00:00:11.712,0.0009399433620274072
2929,00:00:11.716,0.002002267690841105
2930,00:00:11.72,-0.004343343549408013
2931,00:00:11.724,-0.0018896373512689033
2932,00:00:11.728,0.0014201064186636398
2933,00:00:11.732,0.006878740576212288
2934,00:00:11.736,-0.001886427352474126
2935,00:00:11.74,0.0014329022960737322
2936,00:00:11.744,-0.005001493773306714
2937,00:00:11.748,-0.0028112678410252513
2938,00:00:11.752,0.000671098996463124
2939,00:00:11.756,0.006601934526770494
2940,00:00:11.76,0.00451896135200514
2941,00:00:11.764,-0.002007446550123863
2942,00:00:11.768,-0.009433535326934365
2943,00:00:11.772,-0.010884072614999291
2944,00:00:11.776,0.005368585409996743
2945,00:00:11.78,0.013547378983275845
2946,00:00:11.784,0.00436134077608586
2947,00:00:11.788,-4.9020163714798975e-06
2948,00:00:11.792,-0.008528524107532576
2949,00:00:11.796,-0.0013017390156164748
2950,00:00:11.8,-0.0020673613762483
2951,00:00:11.804,-0.004358102189144124
2952,00:00:11.808,0.005363931588362897
2953,00:00:11.812,0.007189068885054439
2954,00:00:11.816,0.0017091186018660652
2955,00:00:11.82,-0.00496894206298748
2956,00:00:11.824,-0.010483277896128126
2957,00:00:11.828,0.002598913808469662
2958,00:00:11.832,0.014291256840806461
2959,00:00:11.836,0.0003330350882606555
2960,00:00:11.84,-0.009770627173566035
2961,00:00:11.844,-0.005636098147078874
2962,00:00:11.848,0.004829143286769975
2963,00:00:11.852,-0.0040225457705673675
2964,00:00:11.856,0.010879383791234447
2965,00:00:11.86,0.00930526555748656
2966,00:00:11.864,-0.017214622232131698
2967,00:00:11.868,-0.008070235024206321
2968,00:00:11.872,0.00856814510188997
2969,00:00:11.876,0.0031893952982500096
2970,00:00:11.88,0.0053868327522650404
2971,00:00:11.884,-0.001603526819963015
2972,00:00:11.888,-0.0014598976122215303
2973,00:00:11.892,-0.008696882287040361
2974,00:00:11.896,-0.00048359762877226006
2975,00:00:11.9,0.009944506658939646
2976,00:00:11.904,0.0021937323035672385
2977,00:00:11.908,-0.008903634792659432
2978,00:00:11.912,-0.0019792057573795397
2979,00:00:11.916,0.004448237101314588
2980,00:00:11.92,0.007577367359772328
2981,00:00:11.924,-0.009653671208070596
2982,00:00:11.928,-0.0009283977560698995
2983,00:00:11.932,0.0066908980952575916
2984,00:00:11.936,0.00271274015540257
2985,00:00:11.94,-0.004145870916545392
2986,00:00:11.944,-0.003979628992965438
2987,00:00:11.948,-0.003426112059969451
2988,00:00:11.952,0.0050136021745856825
2989,00:00:11.956,0.003633212589193138
2990,00:00:11.96,-0.0060241938335821
2991,00:00:11.964,0.0019487081008264795
2992,00:00:11.968,0.0027391152689233388
2993,00:00:11.972,0.00513281242456287
2994,00:00:11.976,-0.0005159378051757804
2995,00:00:11.98,-0.016926920739933862
2996,00:00:11.984,0.0010693566582631311
2997,00:00:11.988,0.007377283560344953
2998,00:00:11.992,0.004117263582884332
2999,00:00:11.996,0.010366742906626309
3000,00:00:12,0.0006015170365571997
3001,00:00:12.004,-0.003156429971568283
3002,00:00:12.008,-0.02076209105143788
3003,00:00:12.012,-0.004397464916110028
3004,00:00:12.016,0.0038490715232910593
3005,00:00:12.02,0.008457277319394002
3006,00:00:12.024,0.0053763350006193
3007,00:00:12.028,0.007330213353270668
3008,00:00:12.032,0.0008446801220998211
3009,00:00:12.036,-0.004525884462054824
3010,00:00:12.04,0.0004283137386664744
3011,00:00:12.044,-0.00977329118177295
3012,00:00:12.048,-0.00785464502405376
3013,00:00:12.052,0.0028419939917512242
3014,00:00:12.056,0.00843312463257461
3015,00:00:12.06,-0.001121927751228208
3016,00:00:12.064,-4.170578904449853e-05
3017,00:00:12.068,0.00820510042831302
3018,00:00:12.072,0.0024410989135503804
3019,00:00:12.076,-0.0037692582700401506
3020,00:00:12.08,-0.00786719971802086
3021,00:00:12.084,-0.008343408218934206
3022,00:00:12.088,0.008658897248096759
3023,00:00:12.092,0.00253497919766232
3024,00:00:12.096,-0.0017169937491416977
3025,00:00:12.1,0.0017635442200116778
3026,00:00:12.104,0.0013906895183026762
3027,00:00:12.108,-0.002076641656458377
3028,00:00:12.112,0.0010181677935179332
3029,00:00:12.116,-0.0015368744570878378
3030,00:00:12.12,0.0014717720296175685
3031,00:00:12.124,0.002763913711532946
3032,00:00:12.128,-0.00046146730164765165
3033,00:00:12.132,-0.01090919472699169
3034,00:00:12.136,-0.0008456032956019066
3035,00:00:12.14,0.01763524580746889
3036,00:00:12.144,-0.0019303543667774647
3037,00:00:12.148,-0.01075021701399237
3038,00:00:12.152,0.0016718206461518994
3039,00:00:12.156,0.00486107771575916
3040,00:00:12.16,-0.0033547181228641473
3041,00:00:12.164,-0.004798036243300895
3042,00:00:12.168,-6.624648813158013e-05
3043,00:00:12.172,0.003360500370035875
3044,00:00:12.176,0.0057690000539878435
3045,00:00:12.18,0.00205628457479179
3046,00:00:12.184,0.004528054269030687
3047,00:00:12.188,-0.01119840782484972
3048,00:00:12.192,-0.0055198561749421025
3049,00:00:12.196,-0.0040158600895665595
3050,00:00:12.2,0.009188224517856721
3051,00:00:12.204,0.00261532550211996
3052,00:00:12.208,0.0005496274679899198
3053,00:00:12.212,0.0019512511789798771
3054,00:00:12.216,0.003821061109192671
3055,00:00:12.22,-0.008135761949233714
3056,00:00:12.224,-0.0035664486349560277
3057,00:00:12.228,3.274396294727835e-05
3058,00:00:12.232,0.001842580695665677
3059,00:00:12.236,0.00407059659482911
3060,00:00:12.24,-0.004939096659654751
3061,00:00:12.244,-0.00164653047977481
3062,00:00:12.248,0.006590598501134078
3063,00:00:12.252,0.007980579794093503
3064,00:00:12.256,0.0014952024794183663
3065,00:00:12.26,-0.010413749143481248
3066,00:00:12.264,-0.014557284128386517
3067,00:00:12.268,-0.0022170366719365215
3068,00:00:12.272,0.0076976683922112005
3069,00:00:12.276,0.013983820565044876
3070,00:00:12.28,0.010497587791178325
3071,00:00:12.284,-0.002088648732751608
3072,00:00:12.288,-0.01368481968529522
3073,00:00:12.292,-0.01158539974130687
3074,00:00:12.296,0.0005322382712620302
3075,00:00:12.3,0.0016166423447430095
3076,00:00:12.304,0.011674639303237191
