,Elapsed Time,EMG
0,00:00:00,4.77637019753456
1,00:00:00.004,-4.551444053649901
2,00:00:00.008,-3.772414803504947
3,00:00:00.012,-0.4065908864140505
4,00:00:00.016,1.935312055051329
5,00:00:00.02,2.385695323348047
6,00:00:00.024,1.440839983522889
7,00:00:00.028,0.16056392621248997
8,00:00:00.032,-0.6694084629416467
9,00:00:00.036,-0.9346719458699229
10,00:00:00.04,-0.6917993687093253
11,00:00:00.044,-0.27789207722526044
12,00:00:00.048,0.09494930505752555
13,00:00:00.052,0.2735676318407059
14,00:00:00.056,0.2591610737144942
15,00:00:00.06,0.12544175935909171
16,00:00:00.064,0.043455804698169224
17,00:00:00.068,-0.0458442904055118
18,00:00:00.072,-0.1016162373125553
19,00:00:00.076,-0.08339795656502261
20,00:00:00.08,-0.031496665906161105
21,00:00:00.084,0.011460188776254652
22,00:00:00.088,0.02546054078266027
23,00:00:00.092,0.03398992498114237
24,00:00:00.096,0.03584634569415352
25,00:00:00.1,-0.033035821281373515
26,00:00:00.104,-0.03364542534109207
27,00:00:00.108,0.03625538293272254
28,00:00:00.112,0.05999703076668087
29,00:00:00.116,-0.02812577225267888
30,00:00:00.12,-0.05643661739304661
31,00:00:00.124,-0.015405555255711082
32,00:00:00.128,0.01757095346692948
33,00:00:00.132,-0.00307380082085729
34,00:00:00.136,0.0023865578696131012
35,00:00:00.14,0.038781411014497266
36,00:00:00.144,0.012203460559248912
37,00:00:00.148,-0.021323861903510984
38,00:00:00.152,-0.02159552997909491
39,00:00:00.156,0.016085762297734618
40,00:00:00.16,-0.02237112773582335
41,00:00:00.164,-0.00443372456356885
42,00:00:00.168,0.03094442770816383
43,00:00:00.172,-0.004115929361432791
44,00:00:00.176,-0.020280173281207653
45,00:00:00.18,0.01781999040395015
46,00:00:00.184,0.0208917022682727
47,00:00:00.188,0.00710250413976608
48,00:00:00.192,-0.01146728405728936
49,00:00:00.196,-0.06408646609634161
50,00:00:00.2,-0.040922910440713126
51,00:00:00.204,0.0699666901491583
52,00:00:00.208,0.08702566102147098
53,00:00:00.212,-0.028151773847639498
54,00:00:00.216,-0.0436471831053496
55,00:00:00.22,-0.03887565666809684
56,00:00:00.224,0.021239665336906854
57,00:00:00.228,0.016162851825356504
58,00:00:00.232,0.033667797688394854
59,00:00:00.236,0.0028125387616455217
60,00:00:00.24,-0.0879136733710766
61,00:00:00.244,-0.005363831296563231
62,00:00:00.248,0.065666951239109
63,00:00:00.252,0.056551337242126395
64,00:00:00.256,-0.0018768860027193798
65,00:00:00.26,-0.0600648429244757
66,00:00:00.264,-0.04246314591728147
67,00:00:00.268,-0.03301293915137648
68,00:00:00.272,0.03648678911849856
69,00:00:00.276,0.04795323516009377
70,00:00:00.28,0.03777239378541706
71,00:00:00.284,0.0032670705113559996
72,00:00:00.288,-0.032236258499324294
73,00:00:00.292,-0.05296128429472448
74,00:00:00.296,0.004515105363680058
75,00:00:00.3,0.0167897259816528
76,00:00:00.304,-0.0028148822020739213
77,00:00:00.308,0.01533331070095307
78,00:00:00.312,0.01384723093360663
79,00:00:00.316,0.00401368527673185
80,00:00:00.32,-0.0235959780402482
81,00:00:00.324,0.007059575524181131
82,00:00:00.328,0.011493649799376728
83,00:00:00.332,-0.02298011339735243
84,00:00:00.336,0.010966157540678981
85,00:00:00.34,0.006425992585718631
86,00:00:00.344,-0.01822527719195937
87,00:00:00.348,-0.03133412962779407
88,00:00:00.352,0.041467040777206476
89,00:00:00.356,0.029983613640069996
90,00:00:00.36,-0.022541823796927898
91,00:00:00.364,0.003674362320452918
92,00:00:00.368,-0.01598747295793148
93,00:00:00.372,0.007398802787065499
94,00:00:00.376,-0.0222078412771225
95,00:00:00.38,-0.00983712123706937
96,00:00:00.384,0.005812555551528872
97,00:00:00.388,0.059416638396214694
98,00:00:00.392,0.008668992668390291
99,00:00:00.396,-0.021482681855559398
100,00:00:00.4,-0.047459371853619856
101,00:00:00.404,-0.0171745037660003
102,00:00:00.408,0.03843093803152438
103,00:00:00.412,0.026229522889479977
104,00:00:00.416,-0.003483866807073319
105,00:00:00.42,-0.01688670273870224
106,00:00:00.424,-0.03346948372200131
107,00:00:00.428,0.01033340021967886
108,00:00:00.432,0.026465055765584042
109,00:00:00.436,0.013290544738993009
110,00:00:00.44,0.005504337139427661
111,00:00:00.444,-0.012538689654320454
112,00:00:00.448,-0.04966568434610964
113,00:00:00.452,0.0007192036136984799
114,00:00:00.456,0.018061997368931812
115,00:00:00.46,0.0545102274045348
116,00:00:00.464,0.03152462345315142
117,00:00:00.468,-0.07367806229740378
118,00:00:00.472,-0.021330425050109545
119,00:00:00.476,0.005705246003344701
120,00:00:00.48,0.0223853047937155
121,00:00:00.484,0.009676280664280036
122,00:00:00.488,0.00662253529299053
123,00:00:00.492,-0.026932003675028664
124,00:00:00.496,-0.023301457986235702
125,00:00:00.5,0.024461969733238186
126,00:00:00.504,0.042018411681056
127,00:00:00.508,-0.023487688857130724
128,00:00:00.512,-0.03686764341546223
129,00:00:00.516,0.02645643451251094
130,00:00:00.52,0.019305166322737943
131,00:00:00.524,-0.01210274302866313
132,00:00:00.528,-0.0078067069407552385
133,00:00:00.532,0.011693432403262708
134,00:00:00.536,0.00763724278658629
135,00:00:00.54,-0.020786189823411422
136,00:00:00.544,-0.02778507256880405
137,00:00:00.548,-0.012119431979954201
138,00:00:00.552,0.06304942350834605
139,00:00:00.556,0.01414905255660417
140,00:00:00.56,-0.028615475050173728
141,00:00:00.564,-0.015065010462421926
142,00:00:00.568,-0.027281625196337714
143,00:00:00.572,-0.0067229191772639404
144,00:00:00.576,0.08450241759419441
145,00:00:00.58,0.03533990681171413
146,00:00:00.584,-0.06207949970848857
147,00:00:00.588,-0.05674778297543526
148,00:00:00.592,0.012543501448817586
149,00:00:00.596,0.010559272835962457
150,00:00:00.6,0.02664923621341583
151,00:00:00.604,0.0046844304306432605
152,00:00:00.608,0.0003361218841746545
153,00:00:00.612,-0.00923603028059005
154,00:00:00.616,0.009678913658717647
155,00:00:00.62,-0.01125976647017524
156,00:00:00.624,-0.021176697518967565
157,00:00:00.628,0.01105857267975807
158,00:00:00.632,0.016282388052786693
159,00:00:00.636,-0.016632021404802758
160,00:00:00.64,-0.0152523508295417
161,00:00:00.644,0.039734498044708744
162,00:00:00.648,0.017522012625704565
163,00:00:00.652,-0.036655461415648426
164,00:00:00.656,-0.011984958982793566
165,00:00:00.66,0.026529878377914408
166,00:00:00.664,-0.020995576865971102
167,00:00:00.668,-0.017540643864776898
168,00:00:00.672,0.02715119533240795
169,00:00:00.676,0.03686453065893146
170,00:00:00.68,-0.016590053681284158
171,00:00:00.684,-0.022279546479694587
172,00:00:00.688,0.006035451559000645
173,00:00:00.692,-0.04331757227191692
174,00:00:00.696,0.0032241297885775705
175,00:00:00.7,0.0317687476053835
176,00:00:00.704,0.0286001926288009
177,00:00:00.708,0.010375823825597711
178,00:00:00.712,-0.01114061661064629
179,00:00:00.716,-0.021660044381860647
180,00:00:00.72,-0.011194211780093593
181,00:00:00.724,-0.01387796874041669
182,00:00:00.728,0.01407313556410375
183,00:00:00.732,0.0048896181397139905
184,00:00:00.736,0.00584825070109218
185,00:00:00.74,-0.013248175731860103
186,00:00:00.744,0.013882671537430762
187,00:00:00.748,0.015253934601787478
188,00:00:00.752,-0.0013072676956653387
189,00:00:00.756,-0.02231695409864192
190,00:00:00.76,-0.012441221391782168
191,00:00:00.764,0.0229659052565694
192,00:00:00.768,0.01530373492278155
193,00:00:00.772,-0.0011397416237741709
194,00:00:00.776,-0.01921624783426521
195,00:00:00.78,-0.022085879929363735
196,00:00:00.784,-0.027285843156278126
197,00:00:00.788,0.038400535297114395
198,00:00:00.792,0.0726480754092335
199,00:00:00.796,-0.019234488252550322
200,00:00:00.8,-0.05860747303813701
201,00:00:00.804,-0.01415727398125456
202,00:00:00.808,0.01073515566531572
203,00:00:00.812,0.03380140103399755
204,00:00:00.816,0.00874298345297575
205,00:00:00.82,-0.029930442571639994
206,00:00:00.824,0.0015921659069135542
207,00:00:00.828,-0.01602714532054961
208,00:00:00.832,0.0102441075723618
209,00:00:00.836,0.02662866376340387
210,00:00:00.84,0.006322394605376761
211,00:00:00.844,0.00724481372162703
212,00:00:00.848,-0.029212373774498663
213,00:00:00.852,-0.0032407250255346238
214,00:00:00.856,-0.01234843465499578
215,00:00:00.86,-0.01199998660013079
216,00:00:00.864,0.011928172549232828
217,00:00:00.868,0.041451405733823735
218,00:00:00.872,0.015736677130917042
219,00:00:00.876,-0.029044870054349352
220,00:00:00.88,-0.04516174923628574
221,00:00:00.884,-0.005174878984689679
222,00:00:00.888,0.037401084322482334
223,00:00:00.892,0.031797925243154175
224,00:00:00.896,-0.003927956597181028
225,00:00:00.9,-0.03458965534809984
226,00:00:00.904,-0.008375593490200093
227,00:00:00.908,0.018531847279518836
228,00:00:00.912,0.00608169520273804
229,00:00:00.916,-0.002914785873144858
230,00:00:00.92,-0.009871970163658261
231,00:00:00.924,-0.00838344823569059
232,00:00:00.928,0.0041552928159944704
233,00:00:00.932,0.012460233410820365
234,00:00:00.936,0.014686504844576148
235,00:00:00.94,-0.023798372596502262
236,00:00:00.944,0.0019050904083997011
237,00:00:00.948,0.0243719392456114
238,00:00:00.952,-0.0384893193840981
239,00:00:00.956,-0.0194673780351877
240,00:00:00.96,0.047755142673850004
241,00:00:00.964,0.01732003455981613
242,00:00:00.968,-0.00244260276667774
243,00:00:00.972,-0.01565621327608832
244,00:00:00.976,-0.03276258381083612
245,00:00:00.98,-0.00510318775195633
246,00:00:00.984,0.017202110961079698
247,00:00:00.988,0.03351724240928885
248,00:00:00.992,0.0082342922687531
249,00:00:00.996,-0.030732884537428607
250,00:00:01,-0.031325265765190076
251,00:00:01.004,0.0131481561111286
252,00:00:01.008,0.01590473018586632
253,00:00:01.012,0.016960789089353053
254,00:00:01.016,0.0032556282531004455
255,00:00:01.02,-0.01593196799512953
256,00:00:01.024,-0.01084843906573955
257,00:00:01.028,0.01366264722310007
258,00:00:01.032,-0.012670452939346431
259,00:00:01.036,-0.0056135840713978195
260,00:00:01.04,0.01565303630195555
261,00:00:01.044,0.0016287236940115603
262,00:00:01.048,0.007071151630952958
263,00:00:01.052,0.014092616736888879
264,00:00:01.056,-0.024382946081459467
265,00:00:01.06,-0.029067607363685962
266,00:00:01.064,0.00999217505886918
267,00:00:01.068,0.01570626767352225
268,00:00:01.072,0.01914565835613756
269,00:00:01.076,0.0032541940454393604
270,00:00:01.08,0.0010591298341751107
271,00:00:01.084,-0.03242749581113457
272,00:00:01.088,0.004302386194467581
273,00:00:01.092,-0.0244724238291383
274,00:00:01.096,-0.0026098834350705286
275,00:00:01.1,0.04113598598632964
276,00:00:01.104,0.0465212704148144
277,00:00:01.108,-0.060244686494115705
278,00:00:01.112,-0.0042672762647271035
279,00:00:01.116,0.04601727053523063
280,00:00:01.12,-0.048704513814300354
281,00:00:01.124,-0.007636126130819199
282,00:00:01.128,0.02967373386491086
283,00:00:01.132,0.005770327377831605
284,00:00:01.136,-0.02786365570500486
285,00:00:01.14,0.02917226566933096
286,00:00:01.144,-0.002485210541635745
287,00:00:01.148,-0.033638300898019266
288,00:00:01.152,-0.014999070845078644
289,00:00:01.156,0.04620237415656445
290,00:00:01.16,0.004938767524436068
291,00:00:01.164,-0.015859725885093198
292,00:00:01.168,0.015224558301270001
293,00:00:01.172,0.01666086050681779
294,00:00:01.176,-0.058866477571427836
295,00:00:01.18,-0.006492679938673919
296,00:00:01.184,0.0667114024981857
297,00:00:01.188,-0.0387212410569191
298,00:00:01.192,0.005989162251353302
299,00:00:01.196,-0.0086675672791898
300,00:00:01.2,-0.01597251184284687
301,00:00:01.204,0.02001592889428141
302,00:00:01.208,0.048317510634660735
303,00:00:01.212,-0.026051748543977737
304,00:00:01.216,-0.031180140562355504
305,00:00:01.22,0.0047518792562186805
306,00:00:01.224,0.01135352859273553
307,00:00:01.228,0.00599317124579102
308,00:00:01.232,-0.0132651827298105
309,00:00:01.236,0.0011839522048830986
310,00:00:01.24,0.007217505015432798
311,00:00:01.244,-0.006867801770567978
312,00:00:01.248,-0.010157469077967069
313,00:00:01.252,0.001485432498157059
314,00:00:01.256,0.017502364935353443
315,00:00:01.26,0.0032390756532550205
316,00:00:01.264,0.0184147050604224
317,00:00:01.268,-0.012867982732132079
318,00:00:01.272,-0.03305985732004048
319,00:00:01.276,-0.009279903024435016
320,00:00:01.28,0.00447762280236938
321,00:00:01.284,0.035303122131153955
322,00:00:01.288,-0.0011131037026643718
323,00:00:01.292,0.02045579161494966
324,00:00:01.296,-0.005819255486130798
325,00:00:01.3,-0.03435720317065718
326,00:00:01.304,-0.00821903417818248
327,00:00:01.308,-0.010622794507071433
328,00:00:01.312,0.004625890695024277
329,00:00:01.316,0.020906505174934902
330,00:00:01.32,0.031227030325681002
331,00:00:01.324,0.007644711049579163
332,00:00:01.328,-0.015726265060948215
333,00:00:01.332,-0.05367415165528651
334,00:00:01.336,0.008070838637649968
335,00:00:01.34,0.02319739270024005
336,00:00:01.344,0.005181387532502388
337,00:00:01.348,-0.020804081112146423
338,00:00:01.352,0.029278993606567414
339,00:00:01.356,0.02871456369757655
340,00:00:01.36,-0.02659755916101858
341,00:00:01.364,-0.03190111089497807
342,00:00:01.368,-0.00397446670103818
343,00:00:01.372,-0.019645575783215463
344,00:00:01.376,0.03695421479642395
345,00:00:01.38,0.046545795165002346
346,00:00:01.384,0.0020554013317450955
347,00:00:01.388,-0.035485246684402214
348,00:00:01.392,-0.020010913722217073
349,00:00:01.396,-0.03620105423033241
350,00:00:01.4,0.0010909828706644163
351,00:00:01.404,0.04547005146741867
352,00:00:01.408,0.05298649240285159
353,00:00:01.412,0.001350861974060591
354,00:00:01.416,-0.038630938157439204
355,00:00:01.42,-0.0669059986248612
356,00:00:01.424,0.013286641798913503
357,00:00:01.428,0.0453104586340487
358,00:00:01.432,0.002397563774138688
359,00:00:01.436,-0.0012129286769777675
360,00:00:01.44,0.02057542745023964
361,00:00:01.444,-0.03651386452838781
362,00:00:01.448,-0.02677234879229221
363,00:00:01.452,0.04527537152171133
364,00:00:01.456,0.0028309187327977227
365,00:00:01.46,-0.00031818146817385977
366,00:00:01.464,0.01025138050317765
367,00:00:01.468,-0.01952601131051779
368,00:00:01.472,-0.03874176740646365
369,00:00:01.476,0.01033443387132138
370,00:00:01.48,0.02815225743688636
371,00:00:01.484,0.00466387905180448
372,00:00:01.488,-4.842015914618275e-05
373,00:00:01.492,-0.012931802775710818
374,00:00:01.496,0.010905875940807159
375,00:00:01.5,-0.00846515595912936
376,00:00:01.504,0.00850780587643382
377,00:00:01.508,0.012117712176404895
378,00:00:01.512,-0.01966506225289774
379,00:00:01.516,0.0012175575830042406
380,00:00:01.52,-0.0048205582424998145
381,00:00:01.524,-0.02287195180542766
382,00:00:01.528,0.01954009942710396
383,00:00:01.532,0.030476012383587683
384,00:00:01.536,0.005025519523769609
385,00:00:01.54,-0.027535285596968568
386,00:00:01.544,-0.01740133622661232
387,00:00:01.548,0.006685232976451473
388,00:00:01.552,0.01108237577136606
389,00:00:01.556,0.021156481001526162
390,00:00:01.56,-0.023522595874965142
391,00:00:01.564,-0.01085755857639011
392,00:00:01.568,0.015419558389112312
393,00:00:01.572,0.007558141602203248
394,00:00:01.576,0.002442420460283791
395,00:00:01.58,-0.0244837454520166
396,00:00:01.584,-0.0051003044354729285
397,00:00:01.588,0.012728582136333
398,00:00:01.592,0.015988150844350464
399,00:00:01.596,0.01269164215773346
400,00:00:01.6,-0.028106550220400112
401,00:00:01.604,-0.007841540500521705
402,00:00:01.608,0.0227709896862507
403,00:00:01.612,-0.00824367813766005
404,00:00:01.616,-0.009365537203848357
405,00:00:01.62,-0.0017579565756023312
406,00:00:01.624,0.00835119932889936
407,00:00:01.628,0.02448079641908401
408,00:00:01.632,-0.027650414442177897
409,00:00:01.636,-0.02646081103011967
410,00:00:01.64,0.021006347611546513
411,00:00:01.644,0.015011504292487998
412,00:00:01.648,0.014437147881835661
413,00:00:01.652,-0.0030637679155916
414,00:00:01.656,-0.0031286687590181515
415,00:00:01.66,-0.0288105075596832
416,00:00:01.664,-0.005656775087118107
417,00:00:01.668,0.004142658784985571
418,00:00:01.672,0.02168321819044646
419,00:00:01.676,0.013320029713213449
420,00:00:01.68,-0.008664891589432941
421,00:00:01.684,-0.02170989150181412
422,00:00:01.688,0.022646684665232862
423,00:00:01.692,-0.013493744656443606
424,00:00:01.696,-0.01046847191173583
425,00:00:01.7,0.0198359079658985
426,00:00:01.704,-0.022128458134830102
427,00:00:01.708,-0.00524420524016026
428,00:00:01.712,0.04068524297326803
429,00:00:01.716,0.01495011337101455
430,00:00:01.72,-0.026817127363756268
431,00:00:01.724,-0.03541219606995584
432,00:00:01.728,0.008102704770863002
433,00:00:01.732,0.01942796295043076
434,00:00:01.736,0.0006960730624996359
435,00:00:01.74,0.007783372537232941
436,00:00:01.744,0.00596207031048838
437,00:00:01.748,-0.00413628161186343
438,00:00:01.752,-0.011379451956599972
439,00:00:01.756,-0.0099756460404023
440,00:00:01.76,-0.0014212547321221843
441,00:00:01.764,0.02578466385602953
442,00:00:01.768,-0.029751708498224585
443,00:00:01.772,0.0017848146380856588
444,00:00:01.776,0.01238942440249955
445,00:00:01.78,0.02032628038432445
446,00:00:01.784,0.00752558140084147
447,00:00:01.788,-0.04992637503892186
448,00:00:01.792,0.0019322012085467009
449,00:00:01.796,0.03062259475700558
450,00:00:01.8,0.0149615432601422
451,00:00:01.804,-0.007288038264960051
452,00:00:01.808,-0.02293038601055741
453,00:00:01.812,0.0031875403365120795
454,00:00:01.816,0.012028681579977272
455,00:00:01.82,-0.03972883563255894
456,00:00:01.824,-0.006686734850518409
457,00:00:01.828,0.03940599388442932
458,00:00:01.832,0.033380059292539996
459,00:00:01.836,0.01863128505647183
460,00:00:01.84,-0.05802630842663345
461,00:00:01.844,-0.03883665171451868
462,00:00:01.848,0.01259221642976626
463,00:00:01.852,0.043239799793809666
464,00:00:01.856,0.011496919323690267
465,00:00:01.86,-0.009984822012484108
466,00:00:01.864,-0.0011502022389322502
467,00:00:01.868,-0.03048308473080398
468,00:00:01.872,-0.005300241522491001
469,00:00:01.876,0.02079180907458061
470,00:00:01.88,-0.0024846796877682617
471,00:00:01.884,0.01875664899125696
472,00:00:01.888,-0.00023405998945232953
473,00:00:01.892,-0.0023431300651282115
474,00:00:01.896,-0.02465368993580342
475,00:00:01.9,0.01135964016430078
476,00:00:01.904,0.0025241279508918402
477,00:00:01.908,-0.03058154229074717
478,00:00:01.912,0.0195707492530345
479,00:00:01.916,0.01386121148243541
480,00:00:01.92,0.024133564904332196
481,00:00:01.924,-0.0003457479178904897
482,00:00:01.928,-0.03273704840103159
483,00:00:01.932,-0.005772422533482343
484,00:00:01.936,0.011809498711954785
485,00:00:01.94,-0.00735340779647237
486,00:00:01.944,0.0003450532676651987
487,00:00:01.948,-0.008961931802332401
488,00:00:01.952,0.011062266305089
489,00:00:01.956,0.015494774561375381
490,00:00:01.96,0.01053482538554818
491,00:00:01.964,-0.01165335788391528
492,00:00:01.968,-0.02015184820629661
493,00:00:01.972,0.0009170102421194302
494,00:00:01.976,0.00980647909455006
495,00:00:01.98,0.00831707543693485
496,00:00:01.984,-0.030866143293678733
497,00:00:01.988,0.01203910494223237
498,00:00:01.992,-0.017063047736883098
499,00:00:01.996,0.06293318327516308
500,00:00:02,-0.015073125599883427
501,00:00:02.004,-0.03717449144460269
502,00:00:02.008,0.021783764415886288
503,00:00:02.012,0.00790132163092485
504,00:00:02.016,-0.003295031958259585
505,00:00:02.02,-0.0076655350476357575
506,00:00:02.024,-0.027077292470494247
507,00:00:02.028,0.0007018230389803605
508,00:00:02.032,0.022910674568265718
509,00:00:02.036,0.006778530543670132
510,00:00:02.04,0.0027883842121809188
511,00:00:02.044,0.017288266681134708
512,00:00:02.048,-0.006875327788293299
513,00:00:02.052,-0.048787089530378615
514,00:00:02.056,0.015146042685955801
515,00:00:02.06,0.01566272537456821
516,00:00:02.064,-0.014397923776414214
517,00:00:02.068,-0.02345859236083929
518,00:00:02.072,0.06552999187260874
519,00:00:02.076,0.010501302313059617
520,00:00:02.08,-0.01392718637362124
521,00:00:02.084,-0.02464389312081042
522,00:00:02.088,-0.027317712083458956
523,00:00:02.092,-0.010394023847766188
524,00:00:02.096,0.036483240313828
525,00:00:02.1,0.001018226921587477
526,00:00:02.104,0.009235574456397395
527,00:00:02.108,0.009593350114300845
528,00:00:02.112,-0.0034421952441335314
529,00:00:02.116,-0.01347611052915449
530,00:00:02.12,-0.01705031702294946
531,00:00:02.124,-0.01406224793754518
532,00:00:02.128,0.03817417693790051
533,00:00:02.132,0.01157371327280998
534,00:00:02.136,-0.01591896614991132
535,00:00:02.14,-0.01597655867226421
536,00:00:02.144,0.00477351387962699
537,00:00:02.148,-0.01629183022305372
538,00:00:02.152,0.005553464579861556
539,00:00:02.156,0.03684164746664461
540,00:00:02.16,0.03110419632866982
541,00:00:02.164,-0.03916576970368619
542,00:00:02.168,-0.038842617999762324
543,00:00:02.172,-0.0003989140968769498
544,00:00:02.176,0.02560305641964083
545,00:00:02.18,-0.0031914542196318915
546,00:00:02.184,0.0009287120774388296
547,00:00:02.188,0.009183711372315795
548,00:00:02.192,0.009157050983048998
549,00:00:02.196,-0.007389157079160177
550,00:00:02.2,-0.002104249433614313
551,00:00:02.204,0.0007239766418934007
552,00:00:02.208,-0.009931932261679316
553,00:00:02.212,-0.00574513152241706
554,00:00:02.216,0.005291969748213892
555,00:00:02.22,-0.00927870883606374
556,00:00:02.224,0.01995398674625902
557,00:00:02.228,0.01304149487987162
558,00:00:02.232,-0.02837261976674199
559,00:00:02.236,-0.0009541691979393388
560,00:00:02.24,0.024665927514433805
561,00:00:02.244,0.005532170645892601
562,00:00:02.248,-0.0497897579334676
563,00:00:02.252,0.015187647193670217
564,00:00:02.256,0.02840705821290612
565,00:00:02.26,0.0029851817525923183
566,00:00:02.264,-0.01738621015101671
567,00:00:02.268,-0.010506091173738213
568,00:00:02.272,0.015323452826123693
569,00:00:02.276,-0.027607484720647404
570,00:00:02.28,0.019311831332743206
571,00:00:02.284,0.018671484198421268
572,00:00:02.288,0.01434757560491562
573,00:00:02.292,-0.00493566648219719
574,00:00:02.296,-0.028620596975088113
575,00:00:02.3,-0.013783262576907861
576,00:00:02.304,-0.006181084085255872
577,00:00:02.308,-0.002792113926261659
578,00:00:02.312,0.027710004826076353
579,00:00:02.316,0.025669694878161002
580,00:00:02.32,-0.018506967928260506
581,00:00:02.324,-0.017471416853368258
582,00:00:02.328,0.01680941181257372
583,00:00:02.332,-0.007295933086425059
584,00:00:02.336,0.025893584825098525
585,00:00:02.34,-0.036388618871569606
586,00:00:02.344,-0.0014524468570016325
587,00:00:02.348,0.0001587858423590608
588,00:00:02.352,0.031316373962909
589,00:00:02.356,0.030147045850753788
590,00:00:02.36,-0.07241335860453546
591,00:00:02.364,-0.03199290717020624
592,00:00:02.368,0.041633115150034455
593,00:00:02.372,0.02545441128313546
594,00:00:02.376,0.016010382358217664
595,00:00:02.38,-0.01881331903859972
596,00:00:02.384,-0.014150712639093411
597,00:00:02.388,-0.00799441430717707
598,00:00:02.392,0.021919227205216843
599,00:00:02.396,0.01781602314440535
600,00:00:02.4,-0.014495380688458681
601,00:00:02.404,-0.05260549439117314
602,00:00:02.408,0.0067980410531163354
603,00:00:02.412,0.04730661585927007
604,00:00:02.416,0.00569039536640049
605,00:00:02.42,0.005274456925690157
606,00:00:02.424,-0.03620919724926354
607,00:00:02.428,-0.023388741072267256
608,00:00:02.432,0.024233618751168307
609,00:00:02.436,0.020099624060094308
610,00:00:02.44,0.0182948615401983
611,00:00:02.444,-0.000336478347890079
612,00:00:02.448,-0.00939412321895359
613,00:00:02.452,-0.01525837741792204
614,00:00:02.456,-0.045686496887356036
615,00:00:02.46,0.0040164967067539605
616,00:00:02.464,0.042230552062392276
617,00:00:02.468,0.022536036092788002
618,00:00:02.472,-0.022458225488662678
619,00:00:02.476,-0.00725295068696135
620,00:00:02.48,0.017820685636252127
621,00:00:02.484,-0.016344757750630302
622,00:00:02.488,-0.006746685714460911
623,00:00:02.492,-0.0020301262848078892
624,00:00:02.496,0.01181403803639115
625,00:00:02.5,0.028963844291865805
626,00:00:02.504,-0.03163031113217583
627,00:00:02.508,-0.017291149531956766
628,00:00:02.512,0.0294134868308902
629,00:00:02.516,0.00956395082175732
630,00:00:02.52,-0.037719439947977704
631,00:00:02.524,0.0030644398648292117
632,00:00:02.528,0.0025544797535985795
633,00:00:02.532,0.01863467425573615
634,00:00:02.536,0.0034669926390051772
635,00:00:02.54,-0.0007147465366870191
636,00:00:02.544,0.0063945986330509194
637,00:00:02.548,0.004295061458833541
638,00:00:02.552,-0.049662441946566174
639,00:00:02.556,-0.006979717873036801
640,00:00:02.56,0.02156710624694832
641,00:00:02.564,0.042518998496234486
642,00:00:02.568,0.0131638306193054
643,00:00:02.572,-0.01694585802033545
644,00:00:02.576,-0.02852817275561394
645,00:00:02.58,-0.028752691927365924
646,00:00:02.584,0.00563851045444608
647,00:00:02.588,0.021582472370937487
648,00:00:02.592,0.03376587503589694
649,00:00:02.596,-0.0018262881785630894
650,00:00:02.6,-0.031103938119485947
651,00:00:02.604,-0.03054440859705207
652,00:00:02.608,0.026208544499240788
653,00:00:02.612,0.040178067982196766
654,00:00:02.616,-0.002379587618634089
655,00:00:02.62,-0.03773876652121548
656,00:00:02.624,0.0007317190757021301
657,00:00:02.628,0.007806950248777929
658,00:00:02.632,0.006186873652040979
659,00:00:02.636,-0.021072937641292762
660,00:00:02.64,-0.00910865887999528
661,00:00:02.644,0.04264855990186341
662,00:00:02.648,0.005878874100744724
663,00:00:02.652,-0.006510153878480189
664,00:00:02.656,-0.010351417586207383
665,00:00:02.66,-0.0060780497151426615
666,00:00:02.664,-0.011707773664966201
667,00:00:02.668,-0.026257122808601673
668,00:00:02.672,0.020431682467460643
669,00:00:02.676,0.0403362852521241
670,00:00:02.68,-0.00514577166177333
671,00:00:02.684,-0.009341186378151132
672,00:00:02.688,0.01506167626939714
673,00:00:02.692,-0.01940288010519001
674,00:00:02.696,-0.032600868376903236
675,00:00:02.7,0.0006534268613904801
676,00:00:02.704,0.015156446082983147
677,00:00:02.708,0.023495919536799144
678,00:00:02.712,0.03954863175749783
679,00:00:02.716,-0.01691522100009027
680,00:00:02.72,-0.0724188098683954
681,00:00:02.724,-0.014609561301767871
682,00:00:02.728,0.04972258023917671
683,00:00:02.732,0.02865604253020133
684,00:00:02.736,0.0005138684064149779
685,00:00:02.74,-0.006745389197021722
686,00:00:02.744,-0.013419986760709424
687,00:00:02.748,-0.03919505185331217
688,00:00:02.752,0.01796390255913139
689,00:00:02.756,0.02464588265866035
690,00:00:02.76,0.0030286735855042605
691,00:00:02.764,-0.013744261639658324
692,00:00:02.768,-0.010586082469672011
693,00:00:02.772,0.008981216669781099
694,00:00:02.776,0.028817277052439794
695,00:00:02.78,-0.009652589797042305
696,00:00:02.784,-0.01668338268063968
697,00:00:02.788,-0.0033341362141072793
698,00:00:02.792,0.00839877547696234
699,00:00:02.796,-0.0133472715970129
700,00:00:02.8,0.002446046099066729
701,00:00:02.804,0.0033913855440914405
702,00:00:02.808,-0.013259154453407931
703,00:00:02.812,0.001401972025632841
704,00:00:02.816,0.00471441214904194
705,00:00:02.82,0.033617815235629636
706,00:00:02.824,0.03188586235046388
707,00:00:02.828,-0.024234535701907613
708,00:00:02.832,-0.03286698693409562
709,00:00:02.836,-0.03122871101368217
710,00:00:02.84,-0.00998937524855137
711,00:00:02.844,0.010377624072134488
712,00:00:02.848,0.05483737774193289
713,00:00:02.852,0.02516220486722881
714,00:00:02.856,-0.01718770849765858
715,00:00:02.86,-0.04623752064071601
716,00:00:02.864,-0.023604602683917657
717,00:00:02.868,0.0096674317028373
718,00:00:02.872,0.06049923878163095
719,00:00:02.876,0.012784991413354908
720,00:00:02.88,-0.03097409103065736
721,00:00:02.884,-0.02224835567176347
722,00:00:02.888,-0.01970135676674543
723,00:00:02.892,0.007914118468761453
724,00:00:02.896,0.03709182614693414
725,00:00:02.9,0.017780449787096593
726,00:00:02.904,-0.02933453861624006
727,00:00:02.908,-0.02749247220344844
728,00:00:02.912,0.027498152514453977
729,00:00:02.916,0.0027888227195944607
730,00:00:02.92,-0.02106591593474153
731,00:00:02.924,0.01628797373268755
732,00:00:02.928,0.004299259569961574
733,00:00:02.932,0.00970051367767155
734,00:00:02.936,0.01501582656055692
735,00:00:02.94,-0.058541121892631
736,00:00:02.944,-0.005621642805635929
737,00:00:02.948,0.02997261704877022
738,00:00:02.952,0.013588508707471188
739,00:00:02.956,-0.007452129386365369
740,00:00:02.96,0.015036713099107188
741,00:00:02.964,0.026302375132217976
742,00:00:02.968,-0.031255662965122576
743,00:00:02.972,-0.04575037502218039
744,00:00:02.976,0.00528495843173005
745,00:00:02.98,0.00489547438337468
746,00:00:02.984,0.0350379077717662
747,00:00:02.988,0.0064897052943706495
748,00:00:02.992,-0.010740309022366962
749,00:00:02.996,0.0011204981128685575
750,00:00:03,-0.027278158813714898
751,00:00:03.004,-0.0007734217215329383
752,00:00:03.008,0.03226524684578177
753,00:00:03.012,-0.007944902405142769
754,00:00:03.016,0.022772760130465072
755,00:00:03.02,-0.0005548767512663991
756,00:00:03.024,-0.012028670869767668
757,00:00:03.028,-0.04211704107001427
758,00:00:03.032,-0.042641632258892045
759,00:00:03.036,0.03900684835389255
760,00:00:03.04,0.06479467544704677
761,00:00:03.044,0.0040033932309597505
762,00:00:03.048,-0.018955717794597166
763,00:00:03.052,-0.0027164719067514723
764,00:00:03.056,-0.030022108927369104
765,00:00:03.06,-0.02410992630757391
766,00:00:03.064,-0.00410063285380597
767,00:00:03.068,0.05023685027845205
768,00:00:03.072,0.04987900378182527
769,00:00:03.076,0.0013095836620777871
770,00:00:03.08,-0.0534881576895714
771,00:00:03.084,-0.058806948014535045
772,00:00:03.088,-0.0005044229328632294
773,00:00:03.092,0.046570797916501816
774,00:00:03.096,0.032445518299937234
775,00:00:03.1,0.0004915473982691791
776,00:00:03.104,-0.013942410470917859
777,00:00:03.108,-0.014362252200953692
778,00:00:03.112,-0.01800737669691447
779,00:00:03.116,-0.0027258375193923686
780,00:00:03.12,0.02648360515013335
781,00:00:03.124,0.01800991315394638
782,00:00:03.128,-0.026177753694355488
783,00:00:03.132,0.01316763530485332
784,00:00:03.136,0.004835209576413039
785,00:00:03.14,-0.0164438274223357
786,00:00:03.144,-0.010156862204894439
787,00:00:03.148,0.0011511771008371995
788,00:00:03.152,-0.01527176378294828
789,00:00:03.156,0.03139189397916204
790,00:00:03.16,0.017864646390080438
791,00:00:03.164,0.01441882480867207
792,00:00:03.168,-0.016233952948823592
793,00:00:03.172,-0.04788984591141343
794,00:00:03.176,0.02376277558505529
795,00:00:03.18,0.02886751433834429
796,00:00:03.184,-0.034497567219659686
797,00:00:03.188,-0.03873568400740626
798,00:00:03.192,0.03686162270605563
799,00:00:03.196,0.02472210582345728
800,00:00:03.2,0.004726681392639879
801,00:00:03.204,-0.0019079602789133891
802,00:00:03.208,-0.025109328911639788
803,00:00:03.212,-0.0038854721933603295
804,00:00:03.216,0.01748972665518524
805,00:00:03.22,0.019435214097029502
806,00:00:03.224,-0.02119598770514129
807,00:00:03.228,-0.040107596316374866
808,00:00:03.232,0.032059499993920326
809,00:00:03.236,0.02491040935274207
810,00:00:03.24,-0.02000481961295017
811,00:00:03.244,0.012009361642412859
812,00:00:03.248,-0.01046896411571652
813,00:00:03.252,-0.01475310022942722
814,00:00:03.256,0.023925846791826168
815,00:00:03.26,0.00621127942576996
816,00:00:03.264,-0.03320486913435165
817,00:00:03.268,0.0014043257106095596
818,00:00:03.272,0.0263024307787418
819,00:00:03.276,-0.029477702919393774
820,00:00:03.28,0.019116833806037896
821,00:00:03.284,0.016283940523862898
822,00:00:03.288,0.00898280972614885
823,00:00:03.292,-0.021812684775795784
824,00:00:03.296,-0.01986481947824362
825,00:00:03.3,-0.01639027555938814
826,00:00:03.304,0.02627860102802509
827,00:00:03.308,0.025678452104330104
828,00:00:03.312,0.014749268710147593
829,00:00:03.316,-0.01719574723392726
830,00:00:03.32,-0.04575721360743044
831,00:00:03.324,-0.0040801840368658495
832,00:00:03.328,-0.005904641933739182
833,00:00:03.332,0.03660993883386256
834,00:00:03.336,0.04925972805358472
835,00:00:03.34,-0.012122627813369091
836,00:00:03.344,-0.034240689594298594
837,00:00:03.348,-0.012013431871309882
838,00:00:03.352,0.0017261733883060593
839,00:00:03.356,0.008770202985033372
840,00:00:03.36,0.005743085755966629
841,00:00:03.364,-0.03051708207931366
842,00:00:03.368,0.012425919529050563
843,00:00:03.372,0.02895181695930661
844,00:00:03.376,0.0180121745797806
845,00:00:03.38,-0.010989066213369321
846,00:00:03.384,-0.061652850126847576
847,00:00:03.388,0.0142475031316281
848,00:00:03.392,0.02174937631934879
849,00:00:03.396,-0.00564856454730034
850,00:00:03.4,0.019532623176928596
851,00:00:03.404,0.00328203872777521
852,00:00:03.408,-0.001247372943907971
853,00:00:03.412,-0.00295191048644484
854,00:00:03.416,-0.00998069636989385
855,00:00:03.42,-0.00811267900280654
856,00:00:03.424,0.001694675302132964
857,00:00:03.428,-0.01806832663714883
858,00:00:03.432,0.017107680119806873
859,00:00:03.436,0.01259370101615783
860,00:00:03.44,-0.003466106078121804
861,00:00:03.444,0.006227930774912232
862,00:00:03.448,0.0059843520866707
863,00:00:03.452,-0.005658343667164471
864,00:00:03.456,-0.02143457764759664
865,00:00:03.46,0.022271772846579503
866,00:00:03.464,-0.013526147624361325
867,00:00:03.468,-0.00794904842041434
868,00:00:03.472,-0.00018259603530167926
869,00:00:03.476,0.02150805294513698
870,00:00:03.48,-0.005712390178814558
871,00:00:03.484,-0.0005918694660067506
872,00:00:03.488,-0.0028994998428970194
873,00:00:03.492,-0.0017721208278089805
874,00:00:03.496,0.0040751423221081495
875,00:00:03.5,-0.00303405849263072
876,00:00:03.504,-0.0022705798037351006
877,00:00:03.508,-0.0060199506115167795
878,00:00:03.512,0.0180010190233588
879,00:00:03.516,-0.0011593480594455814
880,00:00:03.52,-0.0025760424323380006
881,00:00:03.524,-0.004870292323175818
882,00:00:03.528,-0.023039731488097473
883,00:00:03.532,0.00765556609258061
884,00:00:03.536,0.006901439046487278
885,00:00:03.54,0.03246979496907434
886,00:00:03.544,-0.005676834218320475
887,00:00:03.548,-0.01514443475753074
888,00:00:03.552,-0.01059984974563117
889,00:00:03.556,-0.00253730476833882
890,00:00:03.56,0.01360206818208104
891,00:00:03.564,0.02416028361767535
892,00:00:03.568,-0.007288482272997471
893,00:00:03.572,-0.08373910619411623
894,00:00:03.576,-0.008144181221723504
895,00:00:03.58,0.07676825113594533
896,00:00:03.584,0.04334128554910419
897,00:00:03.588,0.006014172919094509
898,00:00:03.592,-0.03542789391940459
899,00:00:03.596,-0.0245558200404049
900,00:00:03.6,-0.013036054559052006
901,00:00:03.604,0.0045418797526508604
902,00:00:03.608,0.002158653456717758
903,00:00:03.612,-0.019212916959077078
904,00:00:03.616,0.009681863244622939
905,00:00:03.62,0.021021039225161072
906,00:00:03.624,0.03274384536780413
907,00:00:03.628,0.0031732700299471894
908,00:00:03.632,-0.02202801126986741
909,00:00:03.636,-0.03226608014665542
910,00:00:03.64,-0.0086696248035878
911,00:00:03.644,0.019863377790898078
912,00:00:03.648,0.0094006648287177
913,00:00:03.652,0.005046908278018208
914,00:00:03.656,0.003480236046016211
915,00:00:03.66,0.002573407255113142
916,00:00:03.664,-0.02541261608712379
917,00:00:03.668,-0.0007659699767827693
918,00:00:03.672,0.00942680588923394
919,00:00:03.676,0.0004978564247721758
920,00:00:03.68,0.019617156591266432
921,00:00:03.684,-0.02590878540650006
922,00:00:03.688,0.01581096649169924
923,00:00:03.692,-0.02085445041302592
924,00:00:03.696,-0.0137384198606014
925,00:00:03.7,0.026050540152937222
926,00:00:03.704,0.0291289669694379
927,00:00:03.708,0.0016089788987301299
928,00:00:03.712,-0.01778252329677344
929,00:00:03.716,-0.013800370739772921
930,00:00:03.72,-0.01470004674047229
931,00:00:03.724,-0.01881980616599322
932,00:00:03.728,0.01535584975499659
933,00:00:03.732,0.04190177650889386
934,00:00:03.736,0.030229091178625916
935,00:00:03.74,-0.040199558250606095
936,00:00:03.744,-0.05536203272640702
937,00:00:03.748,0.01405872229952362
938,00:00:03.752,0.045509764924645396
939,00:00:03.756,0.05213844403624536
940,00:00:03.76,-0.08535147760994735
941,00:00:03.764,-0.050283784046769094
942,00:00:03.768,0.03710603085346517
943,00:00:03.772,0.047228786861523944
944,00:00:03.776,0.029357871040701828
945,00:00:03.78,0.004654299467802051
946,00:00:03.784,-0.03530310001224276
947,00:00:03.788,-0.055832143872976275
948,00:00:03.792,-0.0018267566338181895
949,00:00:03.796,0.02933788904920229
950,00:00:03.8,0.03687819116748871
951,00:00:03.804,-0.0016312298830598374
952,00:00:03.808,-0.029385426081717007
953,00:00:03.812,-0.005211704759858519
954,00:00:03.816,0.00410106393974278
955,00:00:03.82,0.00352502928581089
956,00:00:03.824,0.013989478349685698
957,00:00:03.828,0.026058748597279233
958,00:00:03.832,-0.03451809595571835
959,00:00:03.836,-0.027264164760708802
960,00:00:03.84,0.013819745392538621
961,00:00:03.844,0.02109813317656515
962,00:00:03.848,-0.0010986868292093624
963,00:00:03.852,-0.016326599681633476
964,00:00:03.856,0.014405152411200089
965,00:00:03.86,0.00819672667421401
966,00:00:03.864,-0.009916299022734202
967,00:00:03.868,-0.011609147535637021
968,00:00:03.872,0.00937904661986976
969,00:00:03.876,0.004770153085701183
970,00:00:03.88,-0.006977591663598999
971,00:00:03.884,-0.02874168381094936
972,00:00:03.888,0.0042171655222773
973,00:00:03.892,0.03888052189722658
974,00:00:03.896,0.01709324540570377
975,00:00:03.9,-0.021208352409303195
976,00:00:03.904,-0.028452580125304012
977,00:00:03.908,0.007715763524174761
978,00:00:03.912,0.03275713371112943
979,00:00:03.916,-0.0039449809119105304
980,00:00:03.92,0.0015688962303102225
981,00:00:03.924,-0.01264893286861482
982,00:00:03.928,-0.06733647780492907
983,00:00:03.932,0.013734536245465308
984,00:00:03.936,0.0673214280977846
985,00:00:03.94,0.03667430416680872
986,00:00:03.944,-0.006421236088499448
987,00:00:03.948,-0.09418221178930299
988,00:00:03.952,-0.01596072921529408
989,00:00:03.956,0.0644910950213671
990,00:00:03.96,0.0326070357114077
991,00:00:03.964,-0.012633196078240861
992,00:00:03.968,-0.033370821736753
993,00:00:03.972,-0.03844706621021038
994,00:00:03.976,0.018347406759858194
995,00:00:03.98,0.054885961115360204
996,00:00:03.984,0.04879634780809279
997,00:00:03.988,-0.08135294821113331
998,00:00:03.992,-0.031241994700394606
999,00:00:03.996,0.03998768888413906
1000,00:00:04,0.0133262393064797
1001,00:00:04.004,-0.02479546656832101
1002,00:00:04.008,0.0036583289038389886
1003,00:00:04.012,-0.0018746037967503088
1004,00:00:04.016,-0.02135466295294462
1005,00:00:04.02,0.02603496109077237
1006,00:00:04.024,0.02636292413808402
1007,00:00:04.028,0.00827098893932996
1008,00:00:04.032,-0.014657152554718752
1009,00:00:04.036,-0.03220948344096541
1010,00:00:04.04,-0.0131487688049674
1011,00:00:04.044,0.00530116457957776
1012,00:00:04.048,0.02633462764788422
1013,00:00:04.052,0.017375556577462696
1014,00:00:04.056,0.02202946599572897
1015,00:00:04.06,-0.056228340137749896
1016,00:00:04.064,-0.0169254811480642
1017,00:00:04.068,0.02986891707405442
1018,00:00:04.072,-0.010585771873593348
1019,00:00:04.076,-0.02441313629969954
1020,00:00:04.08,0.06151333637535571
1021,00:00:04.084,0.011371109634637801
1022,00:00:04.088,-0.00807230011560019
1023,00:00:04.092,-0.044255008688196554
1024,00:00:04.096,-0.021016921731643396
1025,00:00:04.1,0.02026493730954816
1026,00:00:04.104,0.04457956552505487
1027,00:00:04.108,-0.012670127209275987
1028,00:00:04.112,-0.03131397161632773
1029,00:00:04.116,0.003859290853142741
1030,00:00:04.12,0.008279497036710342
1031,00:00:04.124,-0.0026023019454442416
1032,00:00:04.128,-0.00928493216633796
1033,00:00:04.132,0.02080460946308448
1034,00:00:04.136,0.03583272360265252
1035,00:00:04.14,-0.01958323444705459
1036,00:00:04.144,-0.028411772102117587
1037,00:00:04.148,-0.03004550188779836
1038,00:00:04.152,-0.01472738385200503
1039,00:00:04.156,0.04288214142070499
1040,00:00:04.16,0.05575691536068922
1041,00:00:04.164,-0.00969845242798327
1042,00:00:04.168,-0.03932359907776115
1043,00:00:04.172,0.0022770413197577208
1044,00:00:04.176,-0.018796064192429202
1045,00:00:04.18,-0.01821656874381006
1046,00:00:04.184,0.0270969839766622
1047,00:00:04.188,0.02423098846338693
1048,00:00:04.192,0.02738932473585013
1049,00:00:04.196,-0.01889387518167496
1050,00:00:04.2,-0.04469532659277317
1051,00:00:04.204,-0.03021234401967375
1052,00:00:04.208,0.029027569107711298
1053,00:00:04.212,0.043181323329918045
1054,00:00:04.216,-0.0014460140373557906
1055,00:00:04.22,-0.010134876210940951
1056,00:00:04.224,-0.0026630184147506896
1057,00:00:04.228,-0.00190932699479163
1058,00:00:04.232,-0.0067458692938089405
1059,00:00:04.236,0.0117828621296212
1060,00:00:04.24,-0.01440158486366272
1061,00:00:04.244,-0.016788637265563
1062,00:00:04.248,-0.010212128981947902
1063,00:00:04.252,0.015864671207964372
1064,00:00:04.256,0.04421753622591492
1065,00:00:04.26,0.00783307699020953
1066,00:00:04.264,-0.028802517947042326
1067,00:00:04.268,-0.005629024002700999
1068,00:00:04.272,-0.02044948120601471
1069,00:00:04.276,-0.013573270640335991
1070,00:00:04.28,0.032082085032016
1071,00:00:04.284,0.0007285051979124902
1072,00:00:04.288,0.01543188747018576
1073,00:00:04.292,-0.015493801096454271
1074,00:00:04.296,0.008838064037263428
1075,00:00:04.3,-0.0015789143508300203
1076,00:00:04.304,-0.0046061928151175805
1077,00:00:04.308,0.006579768378287561
1078,00:00:04.312,-0.013650101958773992
1079,00:00:04.316,-0.022717685438692597
1080,00:00:04.32,-0.001108947908505839
1081,00:00:04.324,0.013492270372807959
1082,00:00:04.328,0.034459973685443394
1083,00:00:04.332,0.020876424154266698
1084,00:00:04.336,-0.02453226537909358
1085,00:00:04.34,-0.0240756613202393
1086,00:00:04.344,-0.01724581024609506
1087,00:00:04.348,-0.004624954599421475
1088,00:00:04.352,0.00875779846683145
1089,00:00:04.356,0.03689189744181934
1090,00:00:04.36,0.02487890142947439
1091,00:00:04.364,-0.015751023776829243
1092,00:00:04.368,-0.04414612101390955
1093,00:00:04.372,0.007159893284551796
1094,00:00:04.376,0.00149404408875853
1095,00:00:04.38,-0.0031543644145131996
1096,00:00:04.384,0.008429625071585158
1097,00:00:04.388,0.008772587752901018
1098,00:00:04.392,0.0018551036482676274
1099,00:00:04.396,0.009184263646602601
1100,00:00:04.4,-0.0037590586580336094
1101,00:00:04.404,-0.00978869642131031
1102,00:00:04.408,-0.033171022951137316
1103,00:00:04.412,0.014431432820856564
1104,00:00:04.416,0.03574818372726445
1105,00:00:04.42,-0.0174583801999688
1106,00:00:04.424,0.005391877784859391
1107,00:00:04.428,0.01114792458247394
1108,00:00:04.432,-0.0075385943055153014
1109,00:00:04.436,-0.02738057577516888
1110,00:00:04.44,0.001099076354876138
1111,00:00:04.444,0.007949993247166269
1112,00:00:04.448,0.006284170318394901
1113,00:00:04.452,0.0006199559429660505
1114,00:00:04.456,0.0019988240674138416
1115,00:00:04.46,0.01512580225244161
1116,00:00:04.464,-0.004176913702394826
1117,00:00:04.468,-0.01209855149500072
1118,00:00:04.472,0.0007095320615917453
1119,00:00:04.476,-0.0064329776796512314
1120,00:00:04.48,-0.004718439187854521
1121,00:00:04.484,-0.006047648406820378
1122,00:00:04.488,0.026463791056812645
1123,00:00:04.492,0.004380133934319011
1124,00:00:04.496,-0.02519696345552799
1125,00:00:04.5,0.0033376840874552796
1126,00:00:04.504,0.01374690653756263
1127,00:00:04.508,0.007947245379909852
1128,00:00:04.512,0.003117070882581179
1129,00:00:04.516,-0.006238628644496234
1130,00:00:04.52,-0.02656679088249799
1131,00:00:04.524,-0.0290819685906172
1132,00:00:04.528,0.03596167126670486
1133,00:00:04.532,0.018002508673816933
1134,00:00:04.536,0.00743205239996321
1135,00:00:04.54,0.01818596385419377
1136,00:00:04.544,-0.0231318464502692
1137,00:00:04.548,-0.013084076810628117
1138,00:00:04.552,-0.02076540421694514
1139,00:00:04.556,-0.01194656966254116
1140,00:00:04.56,0.00035530421882871066
1141,00:00:04.564,0.04557010252028705
1142,00:00:04.568,0.027956267411354842
1143,00:00:04.572,-0.00820750789716837
1144,00:00:04.576,-0.0223136888816952
1145,00:00:04.58,-0.02302049763966354
1146,00:00:04.584,-0.009933885743521425
1147,00:00:04.588,0.00774773047305639
1148,00:00:04.592,0.008713724790141009
1149,00:00:04.596,0.02374753728508949
1150,00:00:04.6,0.008829059544950762
1151,00:00:04.604,-0.009475833270698775
1152,00:00:04.608,-0.04937459481880073
1153,00:00:04.612,-0.0031012413091957604
1154,00:00:04.616,0.06147750979289408
1155,00:00:04.62,-0.00122870388440793
1156,00:00:04.624,-0.03279049345292148
1157,00:00:04.628,0.0022879885509610315
1158,00:00:04.632,-0.0020988613832741768
1159,00:00:04.636,0.00958329904824498
1160,00:00:04.64,0.000543204667337753
1161,00:00:04.644,0.01680705713806675
1162,00:00:04.648,-0.0023896163329482196
1163,00:00:04.652,-0.024232109542936135
1164,00:00:04.656,-0.001020086463540789
1165,00:00:04.66,0.011472778860479559
1166,00:00:04.664,-0.0015690631698817015
1167,00:00:04.668,-0.007421258254907979
1168,00:00:04.672,-0.005276482494082307
1169,00:00:04.676,0.008424725849181379
1170,00:00:04.68,0.0172236836515367
1171,00:00:04.684,-0.006220507668331248
1172,00:00:04.688,-0.014344157651066728
1173,00:00:04.692,0.01312348572537311
1174,00:00:04.696,0.00880171020980923
1175,00:00:04.7,-0.0206971553852782
1176,00:00:04.704,-0.0007824640488252
1177,00:00:04.708,-0.0039915302768349405
1178,00:00:04.712,0.01742720277979972
1179,00:00:04.716,-0.0025804149918257995
1180,00:00:04.72,-0.005114722414873535
1181,00:00:04.724,-0.006093511357903441
1182,00:00:04.728,-0.0032239819411189
1183,00:00:04.732,0.023790361825376687
1184,00:00:04.736,0.0007569262525066547
1185,00:00:04.74,-0.010773960879305334
1186,00:00:04.744,-0.008575915358960563
1187,00:00:04.748,-0.00026401846844238165
1188,00:00:04.752,0.0025729748886078596
1189,00:00:04.756,-0.009913582820445271
1190,00:00:04.76,0.023619840532774064
1191,00:00:04.764,0.014719147700816422
1192,00:00:04.768,-0.029750774207059322
1193,00:00:04.772,-0.020521380007267
1194,00:00:04.776,0.01493789581581947
1195,00:00:04.78,0.014117349637672232
1196,00:00:04.784,0.00794837996363641
1197,00:00:04.788,-0.003632553038187339
1198,00:00:04.792,0.0015292899915948406
1199,00:00:04.796,-0.02110513858497147
1200,00:00:04.8,-0.006345808040350648
1201,00:00:04.804,0.017168437130749198
1202,00:00:04.808,0.0031553355511277892
1203,00:00:04.812,-0.00866126269102097
1204,00:00:04.816,0.01147355278953914
1205,00:00:04.82,0.014753309078514609
1206,00:00:04.824,-0.023012997349724198
1207,00:00:04.828,0.00638226442970336
1208,00:00:04.832,0.011520863976329562
1209,00:00:04.836,-0.02055918064434078
1210,00:00:04.84,-0.015868360351305445
1211,00:00:04.844,-0.00514712091535327
1212,00:00:04.848,0.00938250171020627
1213,00:00:04.852,0.021065951324999298
1214,00:00:04.856,0.03016041673254227
1215,00:00:04.86,0.00401536235585808
1216,00:00:04.864,-0.030000851489603502
1217,00:00:04.868,-0.03349383291788406
1218,00:00:04.872,-0.0017285468056798016
1219,00:00:04.876,0.015463086310774133
1220,00:00:04.88,0.0022228352027013516
1221,00:00:04.884,0.004040923900902273
1222,00:00:04.888,0.01443419605493546
1223,00:00:04.892,0.02597902412526311
1224,00:00:04.896,-0.012015914078801839
1225,00:00:04.9,-0.011880635749548629
1226,00:00:04.904,-0.029446334112435586
1227,00:00:04.908,-0.02012210653629154
1228,00:00:04.912,0.0011506318114697899
1229,00:00:04.916,0.05530605860985814
1230,00:00:04.92,0.0058925151824951
1231,00:00:04.924,-0.009437863714993031
1232,00:00:04.928,-0.0036693001165985957
1233,00:00:04.932,-0.01148787839338182
1234,00:00:04.936,-0.018706799193751032
1235,00:00:04.94,0.010271991719491782
1236,00:00:04.944,-0.009056447073817229
1237,00:00:04.948,0.011679194867610921
1238,00:00:04.952,0.032422162126749816
1239,00:00:04.956,0.009478933177888458
1240,00:00:04.96,-0.03411880915518854
1241,00:00:04.964,-0.007470429874956629
1242,00:00:04.968,-0.01574049214832489
1243,00:00:04.972,-0.00283655058592552
1244,00:00:04.976,0.025979425292462152
1245,00:00:04.98,-0.0006347775924950491
1246,00:00:04.984,-0.0036283605732023807
1247,00:00:04.988,0.018589230487123153
1248,00:00:04.992,0.02216106699779633
1249,00:00:04.996,-0.05387155048083515
1250,00:00:05,-0.013672389555722428
1251,00:00:05.004,0.02798342355526983
1252,00:00:05.008,0.00629657367244363
1253,00:00:05.012,0.0013457986060530008
1254,00:00:05.016,-0.0017507108859717482
1255,00:00:05.02,-0.00689878655248321
1256,00:00:05.024,0.012150444672442973
1257,00:00:05.028,-0.013770765857771027
1258,00:00:05.032,0.012746905442327282
1259,00:00:05.036,-0.006611812277697009
1260,00:00:05.04,-0.012031408958137011
1261,00:00:05.044,-0.01313518465030939
1262,00:00:05.048,0.0174622824415564
1263,00:00:05.052,0.02028194209560754
1264,00:00:05.056,0.0027662371285259984
1265,00:00:05.06,-0.007992688100784962
1266,00:00:05.064,-0.007897038813098337
1267,00:00:05.068,-0.01234066393226385
1268,00:00:05.072,-0.0090488395653665
1269,00:00:05.076,0.0052941227913834085
1270,00:00:05.08,0.025121878832578704
1271,00:00:05.084,0.015495944768190398
1272,00:00:05.088,-0.01126919011585412
1273,00:00:05.092,-0.00983115378767251
1274,00:00:05.096,-0.04038479272276159
1275,00:00:05.1,0.01378342602401972
1276,00:00:05.104,0.03413228713907302
1277,00:00:05.108,-0.0023800572962500155
1278,00:00:05.112,0.00025744596496220153
1279,00:00:05.116,-0.00548589811660349
1280,00:00:05.12,0.0068411000247579155
1281,00:00:05.124,-0.014807854313403361
1282,00:00:05.128,-0.00366708217188716
1283,00:00:05.132,-0.013603421160951258
1284,00:00:05.136,0.016220419667661197
1285,00:00:05.14,0.011693893000483492
1286,00:00:05.144,0.006751776207238398
1287,00:00:05.148,-0.01605810550972821
1288,00:00:05.152,-0.00925389758776874
1289,00:00:05.156,0.00605983473360539
1290,00:00:05.16,0.00562414701562375
1291,00:00:05.164,0.009763941867277061
1292,00:00:05.168,0.0031472721602767697
1293,00:00:05.172,0.01489994488656521
1294,00:00:05.176,-0.0472561637870967
1295,00:00:05.18,-0.027579088928177932
1296,00:00:05.184,0.029332058969885066
1297,00:00:05.188,0.044956129975616946
1298,00:00:05.192,-0.012579974718391907
1299,00:00:05.196,-0.017636927543208003
1300,00:00:05.2,0.010052115307189502
1301,00:00:05.204,0.00409873528406024
1302,00:00:05.208,-0.02226131455972786
1303,00:00:05.212,0.008933162549510558
1304,00:00:05.216,0.0072122833080356975
1305,00:00:05.22,-0.00925833452492945
1306,00:00:05.224,-0.01609981840010733
1307,00:00:05.228,0.0051461737602949
1308,00:00:05.232,0.02992422552779321
1309,00:00:05.236,0.005152226425707321
1310,00:00:05.24,-0.023883150133769983
1311,00:00:05.244,-0.01076580327935517
1312,00:00:05.248,0.01164699322544039
1313,00:00:05.252,0.030547706410288783
1314,00:00:05.256,-0.02020220365375278
1315,00:00:05.26,-0.00823406130075455
1316,00:00:05.264,-0.03409427590668203
1317,00:00:05.268,0.010604253366182084
1318,00:00:05.272,0.020536015741527122
1319,00:00:05.276,0.01770044816657903
1320,00:00:05.28,0.01329710241407154
1321,00:00:05.284,0.007233330630697317
1322,00:00:05.288,-0.03589239390566946
1323,00:00:05.292,-0.024800388840958528
1324,00:00:05.296,-0.0015440201386809297
1325,00:00:05.3,0.009326544241048368
1326,00:00:05.304,0.034254861529916525
1327,00:00:05.308,0.01353202061727645
1328,00:00:05.312,-0.029946193099022002
1329,00:00:05.316,-0.025402205763384672
1330,00:00:05.32,0.021652689203619967
1331,00:00:05.324,0.014031175174750369
1332,00:00:05.328,0.0082176695286762
1333,00:00:05.332,0.0008986257016658798
1334,00:00:05.336,-0.02800071425735948
1335,00:00:05.34,-0.023292704485356783
1336,00:00:05.344,0.01385857164859775
1337,00:00:05.348,0.02227564714848998
1338,00:00:05.352,0.013869936112314438
1339,00:00:05.356,0.007522179599618503
1340,00:00:05.36,-0.025669303955510252
1341,00:00:05.364,-0.023227737634442778
1342,00:00:05.368,0.0245148264802992
1343,00:00:05.372,0.02002685028128327
1344,00:00:05.376,-0.03760434151627121
1345,00:00:05.38,-0.008642484433948971
1346,00:00:05.384,0.024557776749134085
1347,00:00:05.388,0.01132776169106363
1348,00:00:05.392,0.02183026820421214
1349,00:00:05.396,-0.02014243940357114
1350,00:00:05.4,-0.0426243664696812
1351,00:00:05.404,0.01311869127675892
1352,00:00:05.408,0.024468933232128627
1353,00:00:05.412,-0.006814196007326279
1354,00:00:05.416,0.014974537363741549
1355,00:00:05.42,-0.01201024604961272
1356,00:00:05.424,0.0015379925025627104
1357,00:00:05.428,-0.0036309047136455805
1358,00:00:05.432,-0.01748777797911312
1359,00:00:05.436,-0.009743384085595653
1360,00:00:05.44,0.029964752844534783
1361,00:00:05.444,0.02045270008966327
1362,00:00:05.448,-0.03314471850171686
1363,00:00:05.452,0.004272650927305199
1364,00:00:05.456,0.013354039168916643
1365,00:00:05.46,0.019918981939554204
1366,00:00:05.464,-0.03420756803825499
1367,00:00:05.468,-0.02214291645213962
1368,00:00:05.472,0.008638927713036528
1369,00:00:05.476,0.01040811045095325
1370,00:00:05.48,0.021648759488016322
1371,00:00:05.484,0.00994158047251404
1372,00:00:05.488,-0.01042616972699757
1373,00:00:05.492,-0.00749262748286124
1374,00:00:05.496,-0.030656944029033226
1375,00:00:05.5,0.0017329347319900998
1376,00:00:05.504,0.04099319409579036
1377,00:00:05.508,0.00173191307112577
1378,00:00:05.512,-0.012589913094416219
1379,00:00:05.516,-0.009587084874510762
1380,00:00:05.52,-0.017099350923672322
1381,00:00:05.524,0.02444671955890954
1382,00:00:05.528,-0.0010774494148791296
1383,00:00:05.532,-0.03651586920022969
1384,00:00:05.536,0.021217552945017898
1385,00:00:05.54,0.03607762418687341
1386,00:00:05.544,0.0167723353952169
1387,00:00:05.548,-0.02936300542205566
1388,00:00:05.552,-0.024087849073112018
1389,00:00:05.556,-0.005570465698838279
1390,00:00:05.56,-0.004683921113610261
1391,00:00:05.564,0.025124146486632557
1392,00:00:05.568,0.015312927775085
1393,00:00:05.572,-0.005383055657148401
1394,00:00:05.576,-0.018954836763441528
1395,00:00:05.58,-0.007784794317558412
1396,00:00:05.584,0.006508735939860299
1397,00:00:05.588,0.005245089530944827
1398,00:00:05.592,0.026297869626432692
1399,00:00:05.596,0.0005071777850389481
1400,00:00:05.6,-0.025467228610068608
1401,00:00:05.604,-0.01660898979753256
1402,00:00:05.608,0.011893102462636277
1403,00:00:05.612,-0.014860113617032749
1404,00:00:05.616,0.025196833594236513
1405,00:00:05.62,-0.0029351597913773687
1406,00:00:05.624,-0.007490937598049658
1407,00:00:05.628,0.02003645896911618
1408,00:00:05.632,0.0014818222261965205
1409,00:00:05.636,-0.0019781733863055784
1410,00:00:05.64,-0.021254239312838784
1411,00:00:05.644,-0.0019328671041876125
1412,00:00:05.648,-0.0039204877684824125
1413,00:00:05.652,0.0061446772888302794
1414,00:00:05.656,0.02109384723007678
1415,00:00:05.66,0.010396306868642551
1416,00:00:05.664,-0.03506408864632253
1417,00:00:05.668,-0.0005492621567100191
1418,00:00:05.672,0.01276620873250067
1419,00:00:05.676,-0.005794238299131371
1420,00:00:05.68,-5.7311495766000295e-05
1421,00:00:05.684,-0.00014233129331841891
1422,00:00:05.688,0.01850865874439478
1423,00:00:05.692,0.007756635197438301
1424,00:00:05.696,-0.02453149016946559
1425,00:00:05.7,-0.006444206926971717
1426,00:00:05.704,-0.0038264805916696804
1427,00:00:05.708,0.01287580141797666
1428,00:00:05.712,0.021231507998891223
1429,00:00:05.716,-0.013506068848073522
1430,00:00:05.72,-0.029206097591668378
1431,00:00:05.724,0.004875908489339069
1432,00:00:05.728,0.021354772092308846
1433,00:00:05.732,0.011613318696618122
1434,00:00:05.736,-0.0016539243588340495
1435,00:00:05.74,-0.01286193029955034
1436,00:00:05.744,-0.010798085480928421
1437,00:00:05.748,0.0008226078934967509
1438,00:00:05.752,0.01380266733031017
1439,00:00:05.756,0.007548381516244242
1440,00:00:05.76,-0.022424408380174985
1441,00:00:05.764,-0.005553731694817549
1442,00:00:05.768,0.013255532598122961
1443,00:00:05.772,0.012614279286935908
1444,00:00:05.776,0.0021083558094687673
1445,00:00:05.78,0.0004920460050926046
1446,00:00:05.784,-0.01550861797295514
1447,00:00:05.788,-0.009851833572611178
1448,00:00:05.792,-0.006039989646524242
1449,00:00:05.796,0.03093736618757246
1450,00:00:05.8,-0.0266558500006794
1451,00:00:05.804,0.0033091148361563197
1452,00:00:05.808,0.020677105901995688
1453,00:00:05.812,0.009253961034119141
1454,00:00:05.816,0.00565423467196521
1455,00:00:05.82,-0.035386018687859094
1456,00:00:05.824,-0.011955582230257252
1457,00:00:05.828,0.016904103336855717
1458,00:00:05.832,0.03028969187289479
1459,00:00:05.836,-0.02567785419523714
1460,00:00:05.84,-0.02300822781398893
1461,00:00:05.844,0.009182414971291982
1462,00:00:05.848,0.02672658581286663
1463,00:00:05.852,0.0024554873816669005
1464,00:00:05.856,-0.013222608831711108
1465,00:00:05.86,-0.0015259049832820203
1466,00:00:05.864,0.0113263335078955
1467,00:00:05.868,0.007038837065920231
1468,00:00:05.872,-0.01419824804179367
1469,00:00:05.876,-0.02260564290918407
1470,00:00:05.88,-0.026518048020079753
1471,00:00:05.884,0.00641585711855448
1472,00:00:05.888,0.06277108564972869
1473,00:00:05.892,0.022187438211403766
1474,00:00:05.896,-0.00975581863895055
1475,00:00:05.9,-0.01465429086238146
1476,00:00:05.904,-0.048622210510075106
1477,00:00:05.908,-0.014661693945527155
1478,00:00:05.912,0.016124825895531103
1479,00:00:05.916,0.03222255222499369
1480,00:00:05.92,0.02085785567760471
1481,00:00:05.924,-0.006226098630577269
1482,00:00:05.928,-0.01562564400956036
1483,00:00:05.932,-0.0022360797738656397
1484,00:00:05.936,-0.00417721085250377
1485,00:00:05.94,-0.022071811370551597
1486,00:00:05.944,-0.0351344887167215
1487,00:00:05.948,0.0404363507404923
1488,00:00:05.952,0.062319272197783035
1489,00:00:05.956,0.005761614069342638
1490,00:00:05.96,-0.031422872561961426
1491,00:00:05.964,-0.03776904963888224
1492,00:00:05.968,0.0037952789571136206
1493,00:00:05.972,-0.00405454146675765
1494,00:00:05.976,0.01326065650209784
1495,00:00:05.98,0.011436992324888758
1496,00:00:05.984,0.009862452279776338
1497,00:00:05.988,-0.0024073995300568814
1498,00:00:05.992,-0.013817460276186461
1499,00:00:05.996,-0.01143161742947995
1500,00:00:06,0.01960779272485521
1501,00:00:06.004,-0.0406095515936613
1502,00:00:06.008,0.002275541424751306
1503,00:00:06.012,0.06101428624242539
1504,00:00:06.016,0.007554157171398392
1505,00:00:06.02,-0.031651537370635224
1506,00:00:06.024,-0.039610737003386
1507,00:00:06.028,0.022776124998927103
1508,00:00:06.032,0.017044966574758298
1509,00:00:06.036,-0.0027223487850278703
1510,00:00:06.04,0.02550712041556833
1511,00:00:06.044,-0.01750684762373567
1512,00:00:06.048,-0.01871342340018601
1513,00:00:06.052,-0.01690904470160603
1514,00:00:06.056,0.01806111680343751
1515,00:00:06.06,0.003907823353074492
1516,00:00:06.064,0.0034137610346078907
1517,00:00:06.068,-0.006679886486381289
1518,00:00:06.072,-0.006836446002125771
1519,00:00:06.076,0.0149861164391041
1520,00:00:06.08,0.023082160390913518
1521,00:00:06.084,0.01521066878922289
1522,00:00:06.088,-0.03609300823882216
1523,00:00:06.092,-0.06717849429696797
1524,00:00:06.096,0.010381757281720649
1525,00:00:06.1,0.07115939224604512
1526,00:00:06.104,0.01655777730047701
1527,00:00:06.108,-0.02205243078060444
1528,00:00:06.112,-0.0026750643737614016
1529,00:00:06.116,-0.006945749279111629
1530,00:00:06.12,0.0024009133921936094
1531,00:00:06.124,-0.02714575920253995
1532,00:00:06.128,-0.00283618317916989
1533,00:00:06.132,0.028298221528530138
1534,00:00:06.136,0.006345234811306
1535,00:00:06.14,-0.014932704973034554
1536,00:00:06.144,-0.0031532682478427904
1537,00:00:06.148,-0.008854561019688848
1538,00:00:06.152,0.012514554662629919
1539,00:00:06.156,0.04144206456840044
1540,00:00:06.16,-0.017324649728834608
1541,00:00:06.164,-0.03650808741804208
1542,00:00:06.168,-0.0058693466708063715
1543,00:00:06.172,0.009219574742019128
1544,00:00:06.176,0.028320700861513573
1545,00:00:06.18,-0.0002690954133868096
1546,00:00:06.184,-0.0281189957167953
1547,00:00:06.188,-0.005021286197006671
1548,00:00:06.192,0.0251090708188712
1549,00:00:06.196,-0.002800165908411169
1550,00:00:06.2,-0.021070803049951792
1551,00:00:06.204,0.00721288938075308
1552,00:00:06.208,0.03563072974793615
1553,00:00:06.212,-0.010386980138719061
1554,00:00:06.216,-0.01413335697725419
1555,00:00:06.22,-0.01402769528795038
1556,00:00:06.224,-0.021750055195298015
1557,00:00:06.228,0.035941745620220844
1558,00:00:06.232,0.029839014227036383
1559,00:00:06.236,-0.009866941079962964
1560,00:00:06.24,-0.05040948418900373
1561,00:00:06.244,-0.0062737207044847535
1562,00:00:06.248,0.043433541024569415
1563,00:00:06.252,0.018789406924042865
1564,00:00:06.256,-0.029399105347692963
1565,00:00:06.26,-0.02265273337252438
1566,00:00:06.264,0.02710623329039665
1567,00:00:06.268,0.01157089602202174
1568,00:00:06.272,0.011819280683994298
1569,00:00:06.276,-0.033106246497482
1570,00:00:06.28,-0.0114467879757285
1571,00:00:06.284,-0.0004158781375736102
1572,00:00:06.288,0.01352842591586522
1573,00:00:06.292,0.0010469668413861698
1574,00:00:06.296,0.01784988073632117
1575,00:00:06.3,0.018290126841748175
1576,00:00:06.304,-0.03373653604649007
1577,00:00:06.308,-0.028766036033630402
1578,00:00:06.312,0.01724749337881804
1579,00:00:06.316,0.022141239605843997
1580,00:00:06.32,0.01835615094751117
1581,00:00:06.324,-0.017032408970408114
1582,00:00:06.328,-0.02250747010111803
1583,00:00:06.332,0.01331911177840087
1584,00:00:06.336,-0.027962670428678386
1585,00:00:06.34,0.0003842068836092949
1586,00:00:06.344,0.04076410457491874
1587,00:00:06.348,0.015568999573588354
1588,00:00:06.352,-0.01637094304896894
1589,00:00:06.356,-0.0013031249982304884
1590,00:00:06.36,-0.011370741936843847
1591,00:00:06.364,-0.039902674965560395
1592,00:00:06.368,0.012994450400583418
1593,00:00:06.372,0.018732317723333898
1594,00:00:06.376,0.00962341064587233
1595,00:00:06.38,0.015163882635533813
1596,00:00:06.384,0.03043471928685902
1597,00:00:06.388,-0.03940287826117121
1598,00:00:06.392,-0.028607622720301158
1599,00:00:06.396,-0.00780288106761874
1600,00:00:06.4,0.035080154026218204
1601,00:00:06.404,-0.0036181992327328997
1602,00:00:06.408,-0.014162228209897872
1603,00:00:06.412,0.03934220038354399
1604,00:00:06.416,0.02034211507998406
1605,00:00:06.42,-0.1181997309904545
1606,00:00:06.424,-0.016526173916645313
1607,00:00:06.428,0.08871754910796889
1608,00:00:06.432,0.06303311127703633
1609,00:00:06.436,-0.0108903199434281
1610,00:00:06.44,-0.03774790617171672
1611,00:00:06.444,-0.052840223070234026
1612,00:00:06.448,0.010889592580497308
1613,00:00:06.452,0.018872833577916043
1614,00:00:06.456,0.0050626634911168375
1615,00:00:06.46,0.00354379118653014
1616,00:00:06.464,0.00919187505496666
1617,00:00:06.468,-0.00490429042838514
1618,00:00:06.472,-0.010338780237361761
1619,00:00:06.476,0.0028833081014454096
1620,00:00:06.48,-0.011236432008445199
1621,00:00:06.484,-0.01293718675151466
1622,00:00:06.488,0.010266747791320072
1623,00:00:06.492,0.03361059215967543
1624,00:00:06.496,-0.012674612458795309
1625,00:00:06.5,-0.003401350662898049
1626,00:00:06.504,0.028868272900581332
1627,00:00:06.508,-0.011218203813768934
1628,00:00:06.512,-0.03770102141425008
1629,00:00:06.516,-0.02522635133937
1630,00:00:06.52,0.017639383091591288
1631,00:00:06.524,0.03173881396651272
1632,00:00:06.528,0.0177520546130836
1633,00:00:06.532,0.0012580479960888611
1634,00:00:06.536,-0.01591066876426339
1635,00:00:06.54,-0.0376525409519672
1636,00:00:06.544,-0.0014335541054606394
1637,00:00:06.548,0.0330388261936605
1638,00:00:06.552,0.005587099993135772
1639,00:00:06.556,-0.006129590212367484
1640,00:00:06.56,0.0031936101149767637
1641,00:00:06.564,0.019927942194044562
1642,00:00:06.568,-0.032866797700989984
1643,00:00:06.572,-0.038447832223027875
1644,00:00:06.576,0.02185849612578751
1645,00:00:06.58,0.0270494627766311
1646,00:00:06.584,0.016379255801439268
1647,00:00:06.588,-0.0065570065053179895
1648,00:00:06.592,0.0016729615163057297
1649,00:00:06.596,0.006075359531678291
1650,00:00:06.6,-0.02490893530193712
1651,00:00:06.604,-0.0475857509300113
1652,00:00:06.608,0.02351233409717679
1653,00:00:06.612,0.02833279408514498
1654,00:00:06.616,0.007764238980598699
1655,00:00:06.62,0.021596892504021532
1656,00:00:06.624,-0.0028830061783083043
1657,00:00:06.628,-0.02465619565919044
1658,00:00:06.632,-0.043850336922332624
1659,00:00:06.636,0.02314124070107942
1660,00:00:06.64,0.026221775449812443
1661,00:00:06.644,0.009088750462979078
1662,00:00:06.648,-0.009948224760592018
1663,00:00:06.652,-0.013420373201370215
1664,00:00:06.656,0.0027938948478549996
1665,00:00:06.66,-0.0055253917817025995
1666,00:00:06.664,-0.01112413173541426
1667,00:00:06.668,-0.0024294246104545852
1668,00:00:06.672,0.025351114571094513
1669,00:00:06.676,0.03597251838073133
1670,00:00:06.68,0.01202810509130358
1671,00:00:06.684,-0.048444869928061976
1672,00:00:06.688,-0.07166997855529197
1673,00:00:06.692,0.028046446852386046
1674,00:00:06.696,0.056551774963736576
1675,00:00:06.7,0.026941303163766903
1676,00:00:06.704,-0.03419384732842443
1677,00:00:06.708,-0.018909796141088002
1678,00:00:06.712,0.008815263689029958
1679,00:00:06.716,-0.02100872900336983
1680,00:00:06.72,0.0010134027106687878
1681,00:00:06.724,0.02732331957668064
1682,00:00:06.728,0.02404893189668651
1683,00:00:06.732,-0.005805737338960154
1684,00:00:06.736,-0.0224853297695517
1685,00:00:06.74,-0.018071241676807348
1686,00:00:06.744,-0.0012375232763589192
1687,00:00:06.748,0.01184371998533606
1688,00:00:06.752,0.011209531221538768
1689,00:00:06.756,-0.00159226008690894
1690,00:00:06.76,-0.0227802952285856
1691,00:00:06.764,0.01952681608963762
1692,00:00:06.768,0.00865660933777687
1693,00:00:06.772,0.0035932192113250893
1694,00:00:06.776,-0.006911240052431822
1695,00:00:06.78,-0.020724476780742407
1696,00:00:06.784,-0.01144508272409438
1697,00:00:06.788,0.02545144641771915
1698,00:00:06.792,0.0475295279175043
1699,00:00:06.796,-0.02216790243983266
1700,00:00:06.8,-0.04925310239195825
1701,00:00:06.804,-0.0158448430011049
1702,00:00:06.808,0.03465339029207832
1703,00:00:06.812,0.014729402959346752
1704,00:00:06.816,-0.004276178544387221
1705,00:00:06.82,0.02029809029772879
1706,00:00:06.824,-0.022463633678853498
1707,00:00:06.828,-0.03886584227439014
1708,00:00:06.832,0.007266648579388817
1709,00:00:06.836,0.062066652812063694
1710,00:00:06.84,-0.007108851801603991
1711,00:00:06.844,-0.0246615163050592
1712,00:00:06.848,0.01848613331094389
1713,00:00:06.852,-0.019705638522282277
1714,00:00:06.856,-0.03257487093651437
1715,00:00:06.86,-0.00026622228324412866
1716,00:00:06.864,0.02084005717188122
1717,00:00:06.868,0.038967986591160304
1718,00:00:06.872,-0.006374415592290503
1719,00:00:06.876,-0.014516566880047349
1720,00:00:06.88,-0.01723462098743765
1721,00:00:06.884,0.010375087615102498
1722,00:00:06.888,-0.009418700821697601
1723,00:00:06.892,-0.00430825399234891
1724,00:00:06.896,0.02928847481962287
1725,00:00:06.9,-0.01138303987681873
1726,00:00:06.904,0.0036404514685273413
1727,00:00:06.908,0.0041630548657849405
1728,00:00:06.912,-0.0047132854815572795
1729,00:00:06.916,-0.02335366490297017
1730,00:00:06.92,-0.00939356489107012
1731,00:00:06.924,0.01123153697699311
1732,00:00:06.928,0.03095848736120387
1733,00:00:06.932,0.00524197192862636
1734,00:00:06.936,-0.02380163571797315
1735,00:00:06.94,0.007925821177195733
1736,00:00:06.944,0.004051561001688199
1737,00:00:06.948,-0.000702727120369671
1738,00:00:06.952,-0.03070257487706842
1739,00:00:06.956,-0.02210626658052202
1740,00:00:06.96,0.030939649790525454
1741,00:00:06.964,0.03864563978277148
1742,00:00:06.968,-0.018061697948724018
1743,00:00:06.972,0.04349170788191255
1744,00:00:06.976,-0.01131733879446984
1745,00:00:06.98,-0.1038238555192947
1746,00:00:06.984,0.01271805306896568
1747,00:00:06.988,0.092674400890246
1748,00:00:06.992,-0.004670130962040242
1749,00:00:06.996,-0.0383104979991913
1750,00:00:07,-0.032248688439722145
1751,00:00:07.004,-0.009280077181756531
1752,00:00:07.008,0.035934573039412505
1753,00:00:07.012,0.03729972336441281
1754,00:00:07.016,-0.0010969098657369614
1755,00:00:07.02,0.01651549362577495
1756,00:00:07.024,-0.07669804873876283
1757,00:00:07.028,-0.021006082650273948
1758,00:00:07.032,0.019965123385190957
1759,00:00:07.036,0.03400500817224384
1760,00:00:07.04,0.034850983647629674
1761,00:00:07.044,0.004312671255320269
1762,00:00:07.048,-0.014769893488846636
1763,00:00:07.052,0.0032754307612776895
1764,00:00:07.056,-0.0627883216366172
1765,00:00:07.06,-0.015998244751244797
1766,00:00:07.064,-0.01433356758207088
1767,00:00:07.068,0.07509192265570161
1768,00:00:07.072,0.04726926726289089
1769,00:00:07.076,-0.0360551383346319
1770,00:00:07.08,-0.03177190828137101
1771,00:00:07.084,-0.02554865065030755
1772,00:00:07.088,0.029869725927710502
1773,00:00:07.092,0.04246113309636712
1774,00:00:07.096,-0.023282821290195037
1775,00:00:07.1,-0.02028155466541653
1776,00:00:07.104,-0.03579760156571856
1777,00:00:07.108,0.033628024160862025
1778,00:00:07.112,0.022374351508915404
1779,00:00:07.116,0.002148483530618202
1780,00:00:07.12,-0.0016304887831210804
1781,00:00:07.124,-0.01912786904722446
1782,00:00:07.128,0.0019961921498180294
1783,00:00:07.132,-0.00168006983585656
1784,00:00:07.136,-0.007339252158999441
1785,00:00:07.14,-0.018237585201859502
1786,00:00:07.144,0.03477975493296981
1787,00:00:07.148,0.018355693930061555
1788,00:00:07.152,0.00798241421580314
1789,00:00:07.156,-0.043887567269848625
1790,00:00:07.16,-0.013863144442439052
1791,00:00:07.164,0.027202049735933563
1792,00:00:07.168,0.0022715856321155995
1793,00:00:07.172,0.0013793236576020718
1794,00:00:07.176,-0.00938559311907739
1795,00:00:07.18,0.011717833403963566
1796,00:00:07.184,0.006780859432183241
1797,00:00:07.188,-0.0131413759663701
1798,00:00:07.192,-0.010321195702999851
1799,00:00:07.196,-0.007706144358962781
1800,00:00:07.2,0.016958317253738642
1801,00:00:07.204,0.007296886993572109
1802,00:00:07.208,0.01017953013069928
1803,00:00:07.212,-0.04057739116251472
1804,00:00:07.216,-0.0008290857076644498
1805,00:00:07.22,0.03852498158812517
1806,00:00:07.224,0.0348968738690018
1807,00:00:07.228,-0.03214166616089633
1808,00:00:07.232,-0.04588845698162917
1809,00:00:07.236,-0.004264788236469029
1810,00:00:07.24,0.02943032328039403
1811,00:00:07.244,0.00533052597893398
1812,00:00:07.248,0.003011736087501088
1813,00:00:07.252,0.00748591171577573
1814,00:00:07.256,-0.012751035465043995
1815,00:00:07.26,0.0011877901852130595
1816,00:00:07.264,0.012696410878561387
1817,00:00:07.268,-0.00582508230581879
1818,00:00:07.272,-0.001570997876115151
1819,00:00:07.276,-0.02630308130756016
1820,00:00:07.28,-0.009472369216382542
1821,00:00:07.284,0.0306551067624241
1822,00:00:07.288,0.0245778691023588
1823,00:00:07.292,-0.0183660257607698
1824,00:00:07.296,-0.0099119944497942
1825,00:00:07.3,0.014186168089509
1826,00:00:07.304,-0.013883480220101852
1827,00:00:07.308,-0.030842905864119616
1828,00:00:07.312,0.028767267591319992
1829,00:00:07.316,0.03657675720751288
1830,00:00:07.32,-0.0086671523749828
1831,00:00:07.324,-0.03571664774790409
1832,00:00:07.328,-0.01783727959264072
1833,00:00:07.332,0.013495075632818076
1834,00:00:07.336,0.025387738132849256
1835,00:00:07.34,0.015819888561964028
1836,00:00:07.344,-0.01390015939250586
1837,00:00:07.348,-0.014613160863518701
1838,00:00:07.352,0.004702628008089977
1839,00:00:07.356,-0.013776105828583188
1840,00:00:07.36,0.01994128280784935
1841,00:00:07.364,-0.0049798047402874
1842,00:00:07.368,-0.0230381410801783
1843,00:00:07.372,0.02506458526477217
1844,00:00:07.376,0.010447353270137714
1845,00:00:07.38,-0.019299931416753725
1846,00:00:07.384,-0.0008421959355473501
1847,00:00:07.388,0.017937294614966914
1848,00:00:07.392,0.0135139375925065
1849,00:00:07.396,-0.011775432154536223
1850,00:00:07.4,-0.039016317110508646
1851,00:00:07.404,0.003949124366045069
1852,00:00:07.408,0.021213028347119703
1853,00:00:07.412,-0.02393481042236082
1854,00:00:07.416,0.01976728625595572
1855,00:00:07.42,0.023848050215747242
1856,00:00:07.424,0.01168001652695239
1857,00:00:07.428,-0.013833919365424618
1858,00:00:07.432,-0.037944282405078474
1859,00:00:07.436,0.005647319369018102
1860,00:00:07.44,0.006817535497248161
1861,00:00:07.444,-0.013924712315201773
1862,00:00:07.448,0.016078404616564568
1863,00:00:07.452,0.036186795332469025
1864,00:00:07.456,0.01196108572185036
1865,00:00:07.46,-0.02565751411020751
1866,00:00:07.464,-0.04008658207021649
1867,00:00:07.468,-0.007430199257214514
1868,00:00:07.472,0.026581499725580198
1869,00:00:07.476,0.0069350218400359
1870,00:00:07.48,-0.020756362937390842
1871,00:00:07.484,0.01630551181733611
1872,00:00:07.488,-0.01570366881787775
1873,00:00:07.492,0.02236082369927317
1874,00:00:07.496,0.04662651475518943
1875,00:00:07.5,-0.007851563394069692
1876,00:00:07.504,-0.0408796845003963
1877,00:00:07.508,-0.04196622199378908
1878,00:00:07.512,-0.00012139137834309838
1879,00:00:07.516,0.03363745240494605
1880,00:00:07.52,0.027142917737364748
1881,00:00:07.524,-0.03413487854413691
1882,00:00:07.528,0.010211114364210471
1883,00:00:07.532,0.019638417288660982
1884,00:00:07.536,0.00981987523846333
1885,00:00:07.54,-0.01394918316509574
1886,00:00:07.544,-0.051320289261639125
1887,00:00:07.548,0.019074744617682958
1888,00:00:07.552,0.02382444310933355
1889,00:00:07.556,0.0106403271201998
1890,00:00:07.56,-0.00040119071491062034
1891,00:00:07.564,-0.027123158099129817
1892,00:00:07.568,0.00018688346608541863
1893,00:00:07.572,-0.0011958966497331806
1894,00:00:07.576,0.0424616783857346
1895,00:00:07.58,-0.002587183611467538
1896,00:00:07.584,-0.0450253933668137
1897,00:00:07.588,-0.014643744099885208
1898,00:00:07.592,0.03078479925170537
1899,00:00:07.596,0.02608015961595817
1900,00:00:07.6,-0.029563210788182942
1901,00:00:07.604,0.00045555457472802943
1902,00:00:07.608,0.02606749886763284
1903,00:00:07.612,0.0073097846470773185
1904,00:00:07.616,-0.03293963242322205
1905,00:00:07.62,-0.04191815201193094
1906,00:00:07.624,0.02275685220956799
1907,00:00:07.628,0.0472647175192833
1908,00:00:07.632,0.007760618813335911
1909,00:00:07.636,-0.031222748570144187
1910,00:00:07.64,-0.004824928008019948
1911,00:00:07.644,-0.029333240352571028
1912,00:00:07.648,0.014682888286188241
1913,00:00:07.652,0.06160453706979749
1914,00:00:07.656,-0.0207301173359156
1915,00:00:07.66,-0.022255267947912202
1916,00:00:07.664,0.003572997869923749
1917,00:00:07.668,-0.0050847754464484725
1918,00:00:07.672,-0.00677062384784216
1919,00:00:07.676,0.0012224027886986993
1920,00:00:07.68,-0.01646016677841547
1921,00:00:07.684,0.02167703188024466
1922,00:00:07.688,0.022596965369302807
1923,00:00:07.692,-0.004601217806339219
1924,00:00:07.696,-0.0049302773550153195
1925,00:00:07.7,-0.01793507486581803
1926,00:00:07.704,-0.0051724445074796685
1927,00:00:07.708,0.01088248076848689
1928,00:00:07.712,0.0018280153162777667
1929,00:00:07.716,0.019379916251636972
1930,00:00:07.72,-0.025049611460417502
1931,00:00:07.724,-0.0081282099708914
1932,00:00:07.728,0.011196657083928543
1933,00:00:07.732,0.009526481386274117
1934,00:00:07.736,0.008285544347017964
1935,00:00:07.74,-0.01772776618599894
1936,00:00:07.744,0.010451910085976082
1937,00:00:07.748,0.003242816426791255
1938,00:00:07.752,-0.02134223096072676
1939,00:00:07.756,-0.02672281861305242
1940,00:00:07.76,0.016866623423993594
1941,00:00:07.764,0.0313529260456562
1942,00:00:07.768,0.02543872524984176
1943,00:00:07.772,-0.011754391714930501
1944,00:00:07.776,-0.01955862250179058
1945,00:00:07.78,-0.01924525457434356
1946,00:00:07.784,0.006887592688144665
1947,00:00:07.788,-0.014020196162164262
1948,00:00:07.792,-0.006144196959212379
1949,00:00:07.796,0.02738715373561714
1950,00:00:07.8,0.018175038509070922
1951,00:00:07.804,0.008736474206671119
1952,00:00:07.808,-0.0161744796205312
1953,00:00:07.812,-0.00747121963649992
1954,00:00:07.816,-0.01428409747313708
1955,00:00:07.82,0.0122105246409774
1956,00:00:07.824,-0.0042901874403469195
1957,00:00:07.828,-0.0207120060222223
1958,00:00:07.832,0.00597109901718797
1959,00:00:07.836,0.02880730520701035
1960,00:00:07.84,0.030294507741928108
1961,00:00:07.844,-0.02096640469972047
1962,00:00:07.848,-0.0520804077386856
1963,00:00:07.852,-0.00041240919381379994
1964,00:00:07.856,0.04354531783610587
1965,00:00:07.86,0.0063014986226334994
1966,00:00:07.864,-0.015090730506926782
1967,00:00:07.868,-0.022922339689102986
1968,00:00:07.872,0.03193085151724519
1969,00:00:07.876,0.0015775609062984482
1970,00:00:07.88,-0.01132890034932644
1971,00:00:07.884,-0.025094326119869923
1972,00:00:07.888,0.01215914543718103
1973,00:00:07.892,0.02884070528671137
1974,00:00:07.896,-0.0125970903900452
1975,00:00:07.9,0.00032098195515573025
1976,00:00:07.904,0.015762719791382593
1977,00:00:07.908,-0.006866496754810211
1978,00:00:07.912,-0.03495956747792657
1979,00:00:07.916,-0.02591547695919871
1980,00:00:07.92,0.0142335353884846
1981,00:00:07.924,0.05251285620033735
1982,00:00:07.928,0.017935209732968357
1983,00:00:07.932,-0.02259600297111324
1984,00:00:07.936,0.003486908157356078
1985,00:00:07.94,-0.01677444297820327
1986,00:00:07.944,-0.04006676445715123
1987,00:00:07.948,0.00642062164843084
1988,00:00:07.952,0.04637707490473985
1989,00:00:07.956,0.018743929686024816
1990,00:00:07.96,-0.055403913371265
1991,00:00:07.964,0.001598302158527121
1992,00:00:07.968,0.030843933694995947
1993,00:00:07.972,0.01649415324209262
1994,00:00:07.976,-0.010323612674255838
1995,00:00:07.98,-0.031754032708704444
1996,00:00:07.984,0.004328816779889161
1997,00:00:07.988,0.021813422441482582
1998,00:00:07.992,-0.024140494875609875
1999,00:00:07.996,-0.00732840830460193
2000,00:00:08,0.008583779912441969
2001,00:00:08.004,0.011395212495699532
2002,00:00:08.008,0.02365923155593915
2003,00:00:08.012,0.012323636561632099
2004,00:00:08.016,-0.035455168690532474
2005,00:00:08.02,-0.026417789165861898
2006,00:00:08.024,0.0011075576767325002
2007,00:00:08.028,0.042318096384406104
2008,00:00:08.032,0.0167482206597924
2009,00:00:08.036,-0.04759170673787596
2010,00:00:08.04,-0.02271542092785244
2011,00:00:08.044,0.04657979682087899
2012,00:00:08.048,0.004397586919367291
2013,00:00:08.052,-0.02186359709594394
2014,00:00:08.056,-0.000992934685200458
2015,00:00:08.06,0.01685930602252485
2016,00:00:08.064,-0.006232098014152136
2017,00:00:08.068,-0.01057822862640024
2018,00:00:08.072,0.01143506669905037
2019,00:00:08.076,-0.0036297438200563192
2020,00:00:08.08,0.0055633236624998954
2021,00:00:08.084,-0.0006396200042217998
2022,00:00:08.088,-0.005523580592125661
2023,00:00:08.092,0.01130074425600462
2024,00:00:08.096,-0.01773012988269329
2025,00:00:08.1,-0.00532344076782457
2026,00:00:08.104,-0.0018923897296190505
2027,00:00:08.108,0.02377990586683154
2028,00:00:08.112,0.01092563942074775
2029,00:00:08.116,-0.030500273453071797
2030,00:00:08.12,0.0006054254481568991
2031,00:00:08.124,0.02754416340030735
2032,00:00:08.128,-0.009436887688934782
2033,00:00:08.132,-0.019903754815459203
2034,00:00:08.136,0.0022334642708301943
2035,00:00:08.14,0.02399529807735238
2036,00:00:08.144,-0.029490174143575083
2037,00:00:08.148,-0.01305047227651819
2038,00:00:08.152,0.039835498784668716
2039,00:00:08.156,0.01712760282680391
2040,00:00:08.16,-0.005172463599592449
2041,00:00:08.164,-0.03416260031372074
2042,00:00:08.168,-0.027386816218495296
2043,00:00:08.172,0.010897554951952795
2044,00:00:08.176,0.03841095371171834
2045,00:00:08.18,0.014694718644022902
2046,00:00:08.184,0.019231781829148524
2047,00:00:08.188,-0.03585482668131586
2048,00:00:08.192,-0.07128922143601808
2049,00:00:08.196,0.028607011307030895
2050,00:00:08.2,0.04514332348480822
2051,00:00:08.204,0.03024082456249738
2052,00:00:08.208,-0.02264097053557631
2053,00:00:08.212,-0.03730734065175058
2054,00:00:08.216,0.0037545748054981024
2055,00:00:08.22,0.004886925220489512
2056,00:00:08.224,0.00802255165763195
2057,00:00:08.228,-0.013777847168967128
2058,00:00:08.232,0.01222552615217864
2059,00:00:08.236,0.020763941574841703
2060,00:00:08.24,0.004027642775326931
2061,00:00:08.244,-0.02276407403405753
2062,00:00:08.248,0.006255964632146039
2063,00:00:08.252,-0.005039208102971369
2064,00:00:08.256,-0.017352743074298
2065,00:00:08.26,-0.007992723491042868
2066,00:00:08.264,0.008745330385863781
2067,00:00:08.268,0.028023981139995196
2068,00:00:08.272,0.03317679907195277
2069,00:00:08.276,-0.03180585987865921
2070,00:00:08.28,-0.05358552769757804
2071,00:00:08.284,0.020902609918266542
2072,00:00:08.288,0.03752686292864375
2073,00:00:08.292,-0.0014433162286877606
2074,00:00:08.296,-0.032055462710559396
2075,00:00:08.3,-0.0011056640651077119
2076,00:00:08.304,0.015415327623486541
2077,00:00:08.308,0.02325211628340187
2078,00:00:08.312,-0.01477027963846924
2079,00:00:08.316,-0.01935802353546024
2080,00:00:08.32,0.0037142995279282704
2081,00:00:08.324,-0.00041794986464083954
2082,00:00:08.328,0.0164654385298491
2083,00:00:08.332,0.02334655239246789
2084,00:00:08.336,-0.039365032163914335
2085,00:00:08.34,-0.00898300949484112
2086,00:00:08.344,0.014154240489006069
2087,00:00:08.348,-0.00909461325500161
2088,00:00:08.352,0.011578348930925141
2089,00:00:08.356,-0.00332096335478127
2090,00:00:08.36,0.010635627200826961
2091,00:00:08.364,0.02570473775267597
2092,00:00:08.368,-0.022952687984798107
2093,00:00:08.372,-0.03162946691736575
2094,00:00:08.376,-0.01210692105814815
2095,00:00:08.38,0.012111025513149788
2096,00:00:08.384,0.046138584846630706
2097,00:00:08.388,0.03160792635753755
2098,00:00:08.392,-0.04029817110858859
2099,00:00:08.396,-0.0543612148612738
2100,00:00:08.4,0.008508239174261712
2101,00:00:08.404,0.02165927086025476
2102,00:00:08.408,0.010150508955121061
2103,00:00:08.412,0.0009433659724891489
2104,00:00:08.416,0.02397339488379661
2105,00:00:08.42,-0.01396539807319638
2106,00:00:08.424,-0.03391919098794462
2107,00:00:08.428,0.012238932307809643
2108,00:00:08.432,0.02779096923768521
2109,00:00:08.436,-0.01937628630548715
2110,00:00:08.44,-0.0041802679188549996
2111,00:00:08.444,0.0078174457885325
2112,00:00:08.448,-0.007562623359262913
2113,00:00:08.452,-0.0036234859144315193
2114,00:00:08.456,0.002794644329696912
2115,00:00:08.46,0.0324366559507325
2116,00:00:08.464,-0.03395346039906143
2117,00:00:08.468,-0.014535570517182355
2118,00:00:08.472,0.028711232123896514
2119,00:00:08.476,0.0049268035218119205
2120,00:00:08.48,0.004280182532966139
2121,00:00:08.484,-0.027822239208035206
2122,00:00:08.488,-0.006678065372398196
2123,00:00:08.492,0.01327837316785011
2124,00:00:08.496,0.002635604585520929
2125,00:00:08.5,0.010518009308725599
2126,00:00:08.504,-0.0031769789056852902
2127,00:00:08.508,-0.01726280944421889
2128,00:00:08.512,0.0095096128061414
2129,00:00:08.516,0.0162663283990696
2130,00:00:08.52,0.008943769847974202
2131,00:00:08.524,-0.012303737399633974
2132,00:00:08.528,-0.009442429989576298
2133,00:00:08.532,-0.03126479545608165
2134,00:00:08.536,-0.0200923420488835
2135,00:00:08.54,0.03971895389258867
2136,00:00:08.544,0.04740351811051372
2137,00:00:08.548,0.004040122963488069
2138,00:00:08.552,-0.02039852098096158
2139,00:00:08.556,-0.01944085955619813
2140,00:00:08.56,-0.017788510769605678
2141,00:00:08.564,-0.012973066885024248
2142,00:00:08.568,-0.00010921387001868073
2143,00:00:08.572,0.041372358798980755
2144,00:00:08.576,0.0003359819238539782
2145,00:00:08.58,-0.0095387706824113
2146,00:00:08.584,0.0018488970817998082
2147,00:00:08.588,0.0037159068160690315
2148,00:00:08.592,-0.005377165274694558
2149,00:00:08.596,0.0035262794699519803
2150,00:00:08.6,-0.0030427690362557795
2151,00:00:08.604,-0.004969387780874961
2152,00:00:08.608,0.005119371227920049
2153,00:00:08.612,0.006415014620870308
2154,00:00:08.616,-0.04129147669300431
2155,00:00:08.62,-0.0066293859854340085
2156,00:00:08.624,0.039830556139349896
2157,00:00:08.628,0.03158486587926747
2158,00:00:08.632,0.0019680239493027347
2159,00:00:08.636,-0.02833062224090096
2160,00:00:08.64,-0.01935505447909235
2161,00:00:08.644,-0.012920700944960143
2162,00:00:08.648,0.009588581044226878
2163,00:00:08.652,0.048631032463163124
2164,00:00:08.656,0.01004528801422563
2165,00:00:08.66,-0.07224200852215291
2166,00:00:08.664,0.009384053177200216
2167,00:00:08.668,-0.0061024427413941176
2168,00:00:08.672,-0.00875179888680577
2169,00:00:08.676,0.037152728065848364
2170,00:00:08.68,0.04262053128331904
2171,00:00:08.684,0.0003774545621125988
2172,00:00:08.688,-0.022593125700950702
2173,00:00:08.692,-0.03304958529770373
2174,00:00:08.696,-0.01687341552315047
2175,00:00:08.7,0.010655143763870011
2176,00:00:08.704,0.0030337797943502604
2177,00:00:08.708,0.00887614430394028
2178,00:00:08.712,0.010698512662202099
2179,00:00:08.716,0.014840619172900912
2180,00:00:08.72,-0.02219917741604151
2181,00:00:08.724,-0.02408820018172265
2182,00:00:08.728,0.01627754699438813
2183,00:00:08.732,0.02932348370086399
2184,00:00:08.736,0.026616635965183412
2185,00:00:08.74,-0.050002996809780494
2186,00:00:08.744,-0.024782821768894802
2187,00:00:08.748,0.00639988295733929
2188,00:00:08.752,0.01612489158287645
2189,00:00:08.756,0.018815192859619807
2190,00:00:08.76,0.0067343980772420296
2191,00:00:08.764,-0.015312169794924599
2192,00:00:08.768,-0.01041246473323558
2193,00:00:08.772,0.0013614376075565806
2194,00:00:08.776,-0.01581071410328153
2195,00:00:08.78,0.01502118469215932
2196,00:00:08.784,0.02496159193105994
2197,00:00:08.788,-0.0015394930960610457
2198,00:00:08.792,-0.016610232647508397
2199,00:00:08.796,-0.01571173302363609
2200,00:00:08.8,0.004296032246202234
2201,00:00:08.804,-0.0020413124002515897
2202,00:00:08.808,0.0234671344514936
2203,00:00:08.812,0.0012138800520915486
2204,00:00:08.816,-0.026291597634553892
2205,00:00:08.82,0.0019789630314335904
2206,00:00:08.824,0.02335166884586218
2207,00:00:08.828,0.0047751518432050995
2208,00:00:08.832,-0.007459057494997931
2209,00:00:08.836,0.0043156882748007705
2210,00:00:08.84,-0.00789717561565338
2211,00:00:08.844,-0.055499531328678145
2212,00:00:08.848,-0.0013709766790272037
2213,00:00:08.852,0.06152588455006483
2214,00:00:08.856,0.0405020536854863
2215,00:00:08.86,-0.024117777124047328
2216,00:00:08.864,-0.0175561606884003
2217,00:00:08.868,-0.00531755248084666
2218,00:00:08.872,-0.01314071728847922
2219,00:00:08.876,-0.021457045339047943
2220,00:00:08.88,-0.004992739763110907
2221,00:00:08.884,0.030089474748820053
2222,00:00:08.888,0.032938636315520915
2223,00:00:08.892,0.013047714252024889
2224,00:00:08.896,-0.026344622834585607
2225,00:00:08.9,-0.0395787443267181
2226,00:00:08.904,0.004456618684344
2227,00:00:08.908,0.014026103075593696
2228,00:00:08.912,0.01793330768123269
2229,00:00:08.916,0.009221315616741771
2230,00:00:08.92,-0.018283139914274233
2231,00:00:08.924,-0.01941643003374343
2232,00:00:08.928,0.01743678422644735
2233,00:00:08.932,-0.008390584494918587
2234,00:00:08.936,0.016792932525277096
2235,00:00:08.94,0.0162335081840865
2236,00:00:08.944,-0.04182582622161135
2237,00:00:08.948,0.012837781570851841
2238,00:00:08.952,0.02248718403279787
2239,00:00:08.956,-0.01659721136093142
2240,00:00:08.96,-0.012118831742554898
2241,00:00:08.964,-0.0053364009363576805
2242,00:00:08.968,0.014123801753157752
2243,00:00:08.972,0.0044777677394449295
2244,00:00:08.976,-0.0007383602205663382
2245,00:00:08.98,0.01860043196938933
2246,00:00:08.984,-0.029471838846802684
2247,00:00:08.988,-0.004461014628759596
2248,00:00:08.992,0.005823562853038319
2249,00:00:08.996,0.04030308465007697
2250,00:00:09,-0.01496147690340878
2251,00:00:09.004,-0.027080347994342502
2252,00:00:09.008,-0.0033748571295291515
2253,00:00:09.012,-0.00311136015807272
2254,00:00:09.016,0.0034574386663735104
2255,00:00:09.02,0.022041115487809276
2256,00:00:09.024,-0.008876156993210304
2257,00:00:09.028,-0.0016916685272008003
2258,00:00:09.032,0.03174913441762324
2259,00:00:09.036,-0.01642507268115872
2260,00:00:09.04,-0.02377421432174742
2261,00:00:09.044,-0.012064980342984198
2262,00:00:09.048,0.0124196782708168
2263,00:00:09.052,0.012540464929770678
2264,00:00:09.056,0.019337501958943883
2265,00:00:09.06,-0.0448319284478202
2266,00:00:09.064,-0.007180188316851808
2267,00:00:09.068,0.05643268872518099
2268,00:00:09.072,-0.004289743956178472
2269,00:00:09.076,-0.033558943308889894
2270,00:00:09.08,-0.0032858140184543506
2271,00:00:09.084,0.02560815727338195
2272,00:00:09.088,0.0099808209342882
2273,00:00:09.092,-0.018644621537532612
2274,00:00:09.096,-0.015346759464591738
2275,00:00:09.1,-0.0092657739296556
2276,00:00:09.104,0.018292259424924816
2277,00:00:09.108,0.005542739294469362
2278,00:00:09.112,-0.008883721602614986
2279,00:00:09.116,0.034869749215431484
2280,00:00:09.12,-0.016147720161825422
2281,00:00:09.124,-0.02817651245277382
2282,00:00:09.128,-0.0036742436932399917
2283,00:00:09.132,0.01676360168494282
2284,00:00:09.136,0.01703399978578091
2285,00:00:09.14,-0.0013745150063186901
2286,00:00:09.144,-0.006057726335711772
2287,00:00:09.148,0.0012435854878276604
2288,00:00:09.152,6.9653615356324305e-06
2289,00:00:09.156,-0.04835056536830959
2290,00:00:09.16,0.010657391510903827
2291,00:00:09.164,0.038071327144280104
2292,00:00:09.168,0.02467570830776819
2293,00:00:09.172,-0.00694380211643874
2294,00:00:09.176,-0.03336163843050597
2295,00:00:09.18,-0.01011811988428232
2296,00:00:09.184,0.002975743263959889
2297,00:00:09.188,0.02029958879575139
2298,00:00:09.192,0.011819358551292663
2299,00:00:09.196,-0.0012129573151469192
2300,00:00:09.2,-0.023292439058422973
2301,00:00:09.204,-0.01814543362706897
2302,00:00:09.208,0.02813457581214611
2303,00:00:09.212,-0.0017425613477825902
2304,00:00:09.216,-0.004244470503181231
2305,00:00:09.22,0.004387638284242743
2306,00:00:09.224,-0.00694522983394564
2307,00:00:09.228,0.014040574256796362
2308,00:00:09.232,0.010255987290292971
2309,00:00:09.236,-0.01916652941145003
2310,00:00:09.24,-0.004733895882964129
2311,00:00:09.244,-0.001432904799003154
2312,00:00:09.248,0.010194289789069484
2313,00:00:09.252,-0.004644228611141471
2314,00:00:09.256,-0.00802891654893751
2315,00:00:09.26,0.0044239520793780684
2316,00:00:09.264,0.0022670817561447607
2317,00:00:09.268,-0.011250463692704219
2318,00:00:09.272,0.02504079928621653
2319,00:00:09.276,0.025462759193033008
2320,00:00:09.28,-0.03004848147429584
2321,00:00:09.284,-0.016797196178231378
2322,00:00:09.288,0.008500344985804958
2323,00:00:09.292,0.004878571911831382
2324,00:00:09.296,-0.02522746706381445
2325,00:00:09.3,0.0063236147398129
2326,00:00:09.304,0.010220209136605169
2327,00:00:09.308,-0.006941551968338909
2328,00:00:09.312,0.01881872350350027
2329,00:00:09.316,0.03566345758736139
2330,00:00:09.32,-0.00989996083080769
2331,00:00:09.324,-0.02465772745199495
2332,00:00:09.328,-0.04213696718215944
2333,00:00:09.332,-0.0076740607619286
2334,00:00:09.336,0.016913061030209002
2335,00:00:09.34,0.03151058312505481
2336,00:00:09.344,0.03086423967852178
2337,00:00:09.348,0.00697571737691759
2338,00:00:09.352,-0.04711341590154911
2339,00:00:09.356,-0.02708118525333702
2340,00:00:09.36,0.005708570592105379
2341,00:00:09.364,0.04662273963913317
2342,00:00:09.368,-0.006801513954997137
2343,00:00:09.372,-0.02326786122284829
2344,00:00:09.376,0.0026687313802540823
2345,00:00:09.38,0.0015716790221631488
2346,00:00:09.384,-0.010702771949581783
2347,00:00:09.388,-0.0009841294959187495
2348,00:00:09.392,0.03310511168092497
2349,00:00:09.396,0.01745228702202435
2350,00:00:09.4,-0.01835667993873354
2351,00:00:09.404,-0.03333385207224637
2352,00:00:09.408,-0.01894842041656373
2353,00:00:09.412,0.01214617087680381
2354,00:00:09.416,0.036114568356424556
2355,00:00:09.42,0.014184542000293789
2356,00:00:09.424,0.005675738444551819
2357,00:00:09.428,-0.058417185675352756
2358,00:00:09.432,-0.01375566609203816
2359,00:00:09.436,0.04047239734791216
2360,00:00:09.44,0.026494858786463772
2361,00:00:09.444,-0.002582316286861899
2362,00:00:09.448,-0.03721511876210571
2363,00:00:09.452,-0.002103704726323441
2364,00:00:09.456,0.006829187273979201
2365,00:00:09.46,0.02022158820182085
2366,00:00:09.464,-0.01149298716336484
2367,00:00:09.468,0.005032053682953142
2368,00:00:09.472,-0.007572114467620861
2369,00:00:09.476,0.0030058032134547587
2370,00:00:09.48,-0.02011318737640972
2371,00:00:09.484,0.004798688227310779
2372,00:00:09.488,0.01701027783565218
2373,00:00:09.492,0.016099779866635903
2374,00:00:09.496,-0.0002504909643903997
2375,00:00:09.5,-0.023715162649750682
2376,00:00:09.504,-0.012850124388933208
2377,00:00:09.508,0.012964312452822889
2378,00:00:09.512,0.010942702647298547
2379,00:00:09.516,0.006136329087894358
2380,00:00:09.52,-0.022733717923983942
2381,00:00:09.524,-0.003271639711329052
2382,00:00:09.528,0.0011653554392977595
2383,00:00:09.532,0.02925677783787246
2384,00:00:09.536,0.02500435803085562
2385,00:00:09.54,-0.04076310340315105
2386,00:00:09.544,-0.032085311831906396
2387,00:00:09.548,-0.008147111395373928
2388,00:00:09.552,0.017597391270101032
2389,00:00:09.556,0.05414810497313735
2390,00:00:09.56,0.02653775783255698
2391,00:00:09.564,-0.05128547619096935
2392,00:00:09.568,-0.032923955470323625
2393,00:00:09.572,-0.017472300678491592
2394,00:00:09.576,0.028969316394068342
2395,00:00:09.58,0.039300645468756557
2396,00:00:09.584,0.0012061549350619776
2397,00:00:09.588,-0.02003580797463657
2398,00:00:09.592,-0.02255437173880635
2399,00:00:09.596,-0.0010753097012638282
2400,00:00:09.6,0.011047335341572699
2401,00:00:09.604,0.02620692306663842
2402,00:00:09.608,-0.02058214275166397
2403,00:00:09.612,-0.008990122936666092
2404,00:00:09.616,0.0032549395691603418
2405,00:00:09.62,0.009897384617943317
2406,00:00:09.624,-0.00457557034678761
2407,00:00:09.628,0.019720564596354958
2408,00:00:09.632,-0.03519609663635498
2409,00:00:09.636,0.005019490694394338
2410,00:00:09.64,0.018485944892745472
2411,00:00:09.644,0.006789157167076999
2412,00:00:09.648,-0.01988129783421759
2413,00:00:09.652,-0.010364830435719341
2414,00:00:09.656,0.00996056990697976
2415,00:00:09.66,0.01473993575200434
2416,00:00:09.664,-0.012325921561568991
2417,00:00:09.668,-0.014176842756569401
2418,00:00:09.672,0.03502013464458282
2419,00:00:09.676,0.017759778769686808
2420,00:00:09.68,-0.02098374656634411
2421,00:00:09.684,-0.015288039576262204
2422,00:00:09.688,-0.022823711158707745
2423,00:00:09.692,-0.01451825001277029
2424,00:00:09.696,0.02385625604074447
2425,00:00:09.7,0.041079478804022046
2426,00:00:09.704,-0.007585150655358939
2427,00:00:09.708,-0.022876180351886446
2428,00:00:09.712,0.00026314845308662155
2429,00:00:09.716,-0.003960504895076161
2430,00:00:09.72,0.011866275861393667
2431,00:00:09.724,-0.006696127056784464
2432,00:00:09.728,-0.007568263448774751
2433,00:00:09.732,0.01286355312913658
2434,00:00:09.736,0.03141109971329563
2435,00:00:09.74,-0.00590512808412313
2436,00:00:09.744,-0.03812920069321993
2437,00:00:09.748,-0.01735912449657913
2438,00:00:09.752,-0.00937742972746489
2439,00:00:09.756,0.008616243576398121
2440,00:00:09.76,0.028434875304810727
2441,00:00:09.764,0.03317360917571929
2442,00:00:09.768,-0.00342691125115375
2443,00:00:09.772,-0.011716095497831725
2444,00:00:09.776,-0.02246066182851793
2445,00:00:09.78,-0.006570087280124429
2446,00:00:09.784,0.002587468829005981
2447,00:00:09.788,-0.009009386965772134
2448,00:00:09.792,0.0036575100384652805
2449,00:00:09.796,0.00829305825755001
2450,00:00:09.8,0.015315765514969768
2451,00:00:09.804,0.0076921684667468
2452,00:00:09.808,0.01431323681026694
2453,00:00:09.812,-0.04660883115138857
2454,00:00:09.816,-0.02027168509084731
2455,00:00:09.82,0.03167182265315203
2456,00:00:09.824,0.018191952258348458
2457,00:00:09.828,-0.007958721544127863
2458,00:00:09.832,-0.009902912715915592
2459,00:00:09.836,0.004436727555003014
2460,00:00:09.84,-0.014508017804473639
2461,00:00:09.844,-0.0009986995719373213
2462,00:00:09.848,0.02529886597767472
2463,00:00:09.852,0.025119340047240216
2464,00:00:09.856,-0.02514845924451947
2465,00:00:09.86,-0.04048802750185136
2466,00:00:09.864,-0.005763934925198562
2467,00:00:09.868,0.019020762760192142
2468,00:00:09.872,0.025361641542986008
2469,00:00:09.876,-0.0009419694542884306
2470,00:00:09.88,0.008516969624906811
2471,00:00:09.884,0.02406564354896546
2472,00:00:09.888,-0.03481634391937403
2473,00:00:09.892,-0.040352590149268494
2474,00:00:09.896,-0.0029011769220232894
2475,00:00:09.9,0.02343692770227789
2476,00:00:09.904,0.04089305223897098
2477,00:00:09.908,0.004203166346997019
2478,00:00:09.912,-0.02722867717966434
2479,00:00:09.916,-0.022151567507535202
2480,00:00:09.92,-0.005624994635581951
2481,00:00:09.924,0.009493729565292588
2482,00:00:09.928,0.02021172037348154
2483,00:00:09.932,0.01828032638877634
2484,00:00:09.936,-0.008217592258006319
2485,00:00:09.94,-0.011027640377506028
2486,00:00:09.944,-0.0082668352406472
2487,00:00:09.948,-0.022066372679546458
2488,00:00:09.952,-0.004308799980208271
2489,00:00:09.956,0.02264767209999259
2490,00:00:09.96,0.023619775660335976
2491,00:00:09.964,0.022811050061136436
2492,00:00:09.968,-0.028307412751018998
2493,00:00:09.972,-0.05128655605949464
2494,00:00:09.976,0.011637791059911199
2495,00:00:09.98,0.05578097747638815
2496,00:00:09.984,-0.00584735639858993
2497,00:00:09.988,-0.02205112250521777
2498,00:00:09.992,-0.008893275051377712
2499,00:00:09.996,0.0146275805309415
2500,00:00:10,-0.011656728340312792
2501,00:00:10.004,-0.0154333803802729
2502,00:00:10.008,0.014926491130609065
2503,00:00:10.012,0.0126652140170335
2504,00:00:10.016,0.0024416912983724216
2505,00:00:10.02,-0.012916818144731241
2506,00:00:10.024,0.001897779759019609
2507,00:00:10.028,0.023768569750245633
2508,00:00:10.032,-0.0026000838261097704
2509,00:00:10.036,-0.010628557502059217
2510,00:00:10.04,-0.027696028817445068
2511,00:00:10.044,-0.013260234147310299
2512,00:00:10.048,0.03040458587929611
2513,00:00:10.052,0.01661348890047516
2514,00:00:10.056,-0.028696052730083493
2515,00:00:10.06,0.0005057225935161305
2516,00:00:10.064,0.031746565829962506
2517,00:00:10.068,0.010396539233625
2518,00:00:10.072,-0.020545062143355594
2519,00:00:10.076,-0.0240047294646502
2520,00:00:10.08,0.027910952223464798
2521,00:00:10.084,-0.009470177814364426
2522,00:00:10.088,-0.02045657392591238
2523,00:00:10.092,0.0026142797432839905
2524,00:00:10.096,0.0028856048593297605
2525,00:00:10.1,0.002943152212537823
2526,00:00:10.104,0.032438465859740896
2527,00:00:10.108,0.0172725422307849
2528,00:00:10.112,-0.016213513910770392
2529,00:00:10.116,-0.05456086853519083
2530,00:00:10.12,-0.008308003307320165
2531,00:00:10.124,0.0352983130142093
2532,00:00:10.128,0.02006571320816869
2533,00:00:10.132,0.00583559426013381
2534,00:00:10.136,-0.01289656374137849
2535,00:00:10.14,-0.03234040294773875
2536,00:00:10.144,-0.011508557479828553
2537,00:00:10.148,0.047964380588382524
2538,00:00:10.152,0.019036236219108098
2539,00:00:10.156,-0.018804267689119993
2540,00:00:10.16,-0.02207985264249147
2541,00:00:10.164,0.01251436432357881
2542,00:00:10.168,-0.00488947983831167
2543,00:00:10.172,-0.0146518852561712
2544,00:00:10.176,-0.022838706034235712
2545,00:00:10.18,0.024548036511987413
2546,00:00:10.184,0.035860550124198226
2547,00:00:10.188,0.01853114203549917
2548,00:00:10.192,-0.01625246717594567
2549,00:00:10.196,-0.019762059935601466
2550,00:00:10.2,-0.011148477846290916
2551,00:00:10.204,-0.03480826108716425
2552,00:00:10.208,0.0044102827087044785
2553,00:00:10.212,0.044189054053276805
2554,00:00:10.216,0.013035122305154818
2555,00:00:10.22,0.01354628894478083
2556,00:00:10.224,0.0024465271271764885
2557,00:00:10.228,-0.038391135400161175
2558,00:00:10.232,-0.05350570613518357
2559,00:00:10.236,0.00482927612029016
2560,00:00:10.24,0.06769849825650458
2561,00:00:10.244,0.02239261579234157
2562,00:00:10.248,-0.01402263576164841
2563,00:00:10.252,-0.015556425205431889
2564,00:00:10.256,-0.02441786043345932
2565,00:00:10.26,-0.010377010679803792
2566,00:00:10.264,0.021693912101909508
2567,00:00:10.268,0.013280421495437619
2568,00:00:10.272,-0.00520133634563531
2569,00:00:10.276,-0.01469766465015709
2570,00:00:10.28,0.013992727152071848
2571,00:00:10.284,-0.0185866670217365
2572,00:00:10.288,0.01252319256309415
2573,00:00:10.292,0.01672291394788769
2574,00:00:10.296,0.0134865918662399
2575,00:00:10.3,-0.02414048463106161
2576,00:00:10.304,-0.02548900851979857
2577,00:00:10.308,0.01305508706718686
2578,00:00:10.312,0.013583043721155232
2579,00:00:10.316,-0.012986020301468629
2580,00:00:10.32,0.00554505758918822
2581,00:00:10.324,0.017199611058458714
2582,00:00:10.328,0.0006147034000605397
2583,00:00:10.332,-0.03474906296469275
2584,00:00:10.336,-0.0014626305783167497
2585,00:00:10.34,0.02600791514851154
2586,00:00:10.344,0.0162436543032527
2587,00:00:10.348,0.0012584538199007498
2588,00:00:10.352,-0.01925196661613882
2589,00:00:10.356,-0.03662005066871635
2590,00:00:10.36,0.0049585148226469694
2591,00:00:10.364,0.02501002326607701
2592,00:00:10.368,0.022207343718037
2593,00:00:10.372,0.008128203800879419
2594,00:00:10.376,-0.038547975011169855
2595,00:00:10.38,0.003181886859238151
2596,00:00:10.384,0.02490436611697074
2597,00:00:10.388,-0.01721487939357754
2598,00:00:10.392,-0.01336810365319252
2599,00:00:10.396,0.01508702617138621
2600,00:00:10.4,-0.00689082546159623
2601,00:00:10.404,0.0204814467579126
2602,00:00:10.408,0.005937132984399859
2603,00:00:10.412,-0.02878761058673266
2604,00:00:10.416,-0.0176821766654029
2605,00:00:10.42,6.69506844132692e-05
2606,00:00:10.424,0.03638267575297504
2607,00:00:10.428,0.02491849602665755
2608,00:00:10.432,-0.01773694390431041
2609,00:00:10.436,-0.03301055566407742
2610,00:00:10.44,-0.014017333276569866
2611,00:00:10.444,0.02945641544647511
2612,00:00:10.448,0.006616071797907375
2613,00:00:10.452,0.002497772569768128
2614,00:00:10.456,-0.009160409448668357
2615,00:00:10.46,-0.00338464183732866
2616,00:00:10.464,0.0006426761974580599
2617,00:00:10.468,0.014584321179427208
2618,00:00:10.472,0.004415168892592181
2619,00:00:10.476,-0.03139909869059916
2620,00:00:10.48,-0.013379885582253313
2621,00:00:10.484,0.017426795326173326
2622,00:00:10.488,0.024811637820676018
2623,00:00:10.492,0.004090190803253794
2624,00:00:10.496,-0.0032400797354057397
2625,00:00:10.5,-0.01780917122960094
2626,00:00:10.504,-0.0077459923923015525
2627,00:00:10.508,0.018011618405580566
2628,00:00:10.512,-0.016316862776875503
2629,00:00:10.516,-0.0018118361040251297
2630,00:00:10.52,0.01239290041849015
2631,00:00:10.524,-0.011325540486723223
2632,00:00:10.528,0.01490433420985934
2633,00:00:10.532,0.013581530598457951
2634,00:00:10.536,-0.010123713174834811
2635,00:00:10.54,-0.00976495165377858
2636,00:00:10.544,-0.00307154651636666
2637,00:00:10.548,0.00198358320631087
2638,00:00:10.552,-0.00489021884277462
2639,00:00:10.556,0.008045700378715959
2640,00:00:10.56,-0.0016169152222573688
2641,00:00:10.564,-0.011839139275252809
2642,00:00:10.568,0.012651142664253703
2643,00:00:10.572,-0.004423626931384251
2644,00:00:10.576,0.03331555100157858
2645,00:00:10.58,0.002741552074439827
2646,00:00:10.584,-0.05049256607890133
2647,00:00:10.588,-0.01332740252837542
2648,00:00:10.592,-0.0008943934299168177
2649,00:00:10.596,0.024361334741115567
2650,00:00:10.6,0.04569414519937706
2651,00:00:10.604,0.006195070513058454
2652,00:00:10.608,-0.01907733245752749
2653,00:00:10.612,-0.03454913757741454
2654,00:00:10.616,-0.026424788869917348
2655,00:00:10.62,0.004139961478358596
2656,00:00:10.624,0.011870764661580338
2657,00:00:10.628,0.025474096182733816
2658,00:00:10.632,0.0349607346579433
2659,00:00:10.636,0.0002260978799313697
2660,00:00:10.64,-0.028952004853636068
2661,00:00:10.644,-0.0253424345864914
2662,00:00:10.648,-0.029999816324561848
2663,00:00:10.652,0.02689006179571153
2664,00:00:10.656,0.02166588697582484
2665,00:00:10.66,0.0037795356474816365
2666,00:00:10.664,0.0032072174362837704
2667,00:00:10.668,-0.001510548521764579
2668,00:00:10.672,-0.0005938089452684004
2669,00:00:10.676,-0.017180285882204802
2670,00:00:10.68,0.02241925708949568
2671,00:00:10.684,0.012951008975505789
2672,00:00:10.688,-0.053036395773233345
2673,00:00:10.692,-0.02550568059086796
2674,00:00:10.696,0.03808671503793448
2675,00:00:10.7,0.02366760210134085
2676,00:00:10.704,0.01933051226660608
2677,00:00:10.708,-0.0019716490060091296
2678,00:00:10.712,-0.02198662352748214
2679,00:00:10.716,-0.00863973656669259
2680,00:00:10.72,-0.020730916876345852
2681,00:00:10.724,0.0083983505610377
2682,00:00:10.728,0.01415614469442516
2683,00:00:10.732,0.015052642003865916
2684,00:00:10.736,0.0016075602034106803
2685,00:00:10.74,-0.01861195173114538
2686,00:00:10.744,-0.016641251593682682
2687,00:00:10.748,0.01607328758109358
2688,00:00:10.752,0.02389028179459273
2689,00:00:10.756,-0.011994562111794952
2690,00:00:10.76,-0.028893312672153088
2691,00:00:10.764,0.010619371663778998
2692,00:00:10.768,0.01884566340595483
2693,00:00:10.772,-0.0165135357528925
2694,00:00:10.776,0.003775412449613219
2695,00:00:10.78,0.0411162697710097
2696,00:00:10.784,-0.023240581504069213
2697,00:00:10.788,-0.0351735036820173
2698,00:00:10.792,-0.01210165431257338
2699,00:00:10.796,0.037152312230318826
2700,00:00:10.8,0.019960163626819898
2701,00:00:10.804,-0.01992276636883616
2702,00:00:10.808,-0.011620770907029478
2703,00:00:10.812,-0.007521772058680652
2704,00:00:10.816,0.006460690754465682
2705,00:00:10.82,0.03930044686421759
2706,00:00:10.824,0.00197513028979304
2707,00:00:10.828,-0.0519126849249005
2708,00:00:10.832,-0.02818145742639897
2709,00:00:10.836,0.034255598671734305
2710,00:00:10.84,0.02099693263880911
2711,00:00:10.844,0.020750199910253293
2712,00:00:10.848,-0.009244719170965266
2713,00:00:10.852,-0.01202373940031976
2714,00:00:10.856,-0.01281370082870122
2715,00:00:10.86,0.004613812081515792
2716,00:00:10.864,-0.004200423602014779
2717,00:00:10.868,-0.02139287884347142
2718,00:00:10.872,0.01695550116710362
2719,00:00:10.876,0.0100409160368144
2720,00:00:10.88,0.012593651888892108
2721,00:00:10.884,0.03584193121059796
2722,00:00:10.888,-0.033411210344638675
2723,00:00:10.892,-0.057420199736952754
2724,00:00:10.896,-0.019318236270919536
2725,00:00:10.9,0.04570126486942165
2726,00:00:10.904,0.04715044749900693
2727,00:00:10.908,0.017311255913227845
2728,00:00:10.912,-0.021381514146924012
2729,00:00:10.916,-0.017821847461163998
2730,00:00:10.92,-0.03130540315760296
2731,00:00:10.924,-0.01087129791267216
2732,00:00:10.928,0.01388123678043484
2733,00:00:10.932,0.020081712631508732
2734,00:00:10.936,0.019488314865157
2735,00:00:10.94,-0.007607248902786527
2736,00:00:10.944,-0.016833306755870598
2737,00:00:10.948,-0.014093615347519569
2738,00:00:10.952,0.006070280214771629
2739,00:00:10.956,0.02207086887210615
2740,00:00:10.96,0.018991574645042503
2741,00:00:10.964,-0.026278775185346583
2742,00:00:10.968,-0.02459499798715118
2743,00:00:10.972,0.01620041055139151
2744,00:00:10.976,-0.000624897424131631
2745,00:00:10.98,-0.0033100452274084395
2746,00:00:10.984,0.012360965367406572
2747,00:00:10.988,-0.0002666130894795086
2748,00:00:10.992,0.005316696420777582
2749,00:00:10.996,0.009034643881022927
2750,00:00:11,-0.01595558656845246
2751,00:00:11.004,-0.005688300356268872
2752,00:00:11.008,0.0074976091273128995
2753,00:00:11.012,-0.008597084357461414
2754,00:00:11.016,0.0015193349681794704
2755,00:00:11.02,0.006879634689539672
2756,00:00:11.024,-0.008874753781128678
2757,00:00:11.028,-0.016074276383733335
2758,00:00:11.032,0.01143534132279457
2759,00:00:11.036,0.03272491553798311
2760,00:00:11.04,0.0034268801391590664
2761,00:00:11.044,-0.013127617537975252
2762,00:00:11.048,-0.01532999519258732
2763,00:00:11.052,-0.006775758927688001
2764,00:00:11.056,0.0036323075182735504
2765,00:00:11.06,-0.031861851923167706
2766,00:00:11.064,0.02439888525987037
2767,00:00:11.068,0.0355917075648904
2768,00:00:11.072,0.0025600586086511317
2769,00:00:11.076,-0.026643129662261306
2770,00:00:11.08,0.0006330381147563405
2771,00:00:11.084,0.020698863081634045
2772,00:00:11.088,-0.023541615810245248
2773,00:00:11.092,-0.01176518062129614
2774,00:00:11.096,8.287583477793823e-05
2775,00:00:11.1,0.021450961125083292
2776,00:00:11.104,0.002393572591245171
2777,00:00:11.108,0.004373038187623048
2778,00:00:11.112,-0.024344718811335063
2779,00:00:11.116,0.0013239667750894902
2780,00:00:11.12,0.03820153884589669
2781,00:00:11.124,-0.016463048290461302
2782,00:00:11.128,-0.03341526584699748
2783,00:00:11.132,0.006120278500020441
2784,00:00:11.136,0.01672893529757857
2785,00:00:11.14,0.0052449887152761394
2786,00:00:11.144,-0.006726848427206271
2787,00:00:11.148,-0.004928582347929479
2788,00:00:11.152,0.018725201953202493
2789,00:00:11.156,0.012419065460562671
2790,00:00:11.16,-0.01824652496725321
2791,00:00:11.164,-0.030418542213738037
2792,00:00:11.168,-0.011072673369199051
2793,00:00:11.172,0.025734182680025683
2794,00:00:11.176,0.035103057278320166
2795,00:00:11.18,-0.0009078900329768493
2796,00:00:11.184,-0.028312278562225384
2797,00:00:11.188,-0.005260108038783072
2798,00:00:11.192,0.0007493470329791299
2799,00:00:11.196,-0.006658599246293299
2800,00:00:11.2,0.00742646376602352
2801,00:00:11.204,0.03290657955221838
2802,00:00:11.208,-0.011778529267758131
2803,00:00:11.212,-0.03030344092985615
2804,00:00:11.216,0.011374754714779549
2805,00:00:11.22,0.01989612146280705
2806,00:00:11.224,-0.0002785834949463502
2807,00:00:11.228,-0.020173042779788417
2808,00:00:11.232,-0.04127004416659476
2809,00:00:11.236,0.020355681888759185
2810,00:00:11.24,0.04383770190179348
2811,00:00:11.244,-0.008465505670756079
2812,00:00:11.248,0.018767093984934084
2813,00:00:11.252,-0.00775610562413928
2814,00:00:11.256,-0.013030146248638599
2815,00:00:11.26,-0.0277436340693384
2816,00:00:11.264,0.00844758491803077
2817,00:00:11.268,-0.00304555869661274
2818,00:00:11.272,0.02463590027764442
2819,00:00:11.276,-0.012543288059532622
2820,00:00:11.28,0.004316630831453952
2821,00:00:11.284,0.0018026501638814696
2822,00:00:11.288,0.0034415873233229017
2823,00:00:11.292,-0.02237785141915081
2824,00:00:11.296,-0.01189548010006548
2825,00:00:11.3,-0.0035295500420033698
2826,00:00:11.304,0.07767191110178825
2827,00:00:11.308,0.05130211578216402
2828,00:00:11.312,-0.07860310468822722
2829,00:00:11.316,-0.0738640920026228
2830,00:00:11.32,-0.0056807403452694945
2831,00:00:11.324,0.04369303723797198
2832,00:00:11.328,0.019307113252580096
2833,00:00:11.332,0.016251520253717913
2834,00:00:11.336,-0.013001964660361444
2835,00:00:11.34,0.004682648694142661
2836,00:00:11.344,-0.01856118580872133
2837,00:00:11.348,0.01369395246729253
2838,00:00:11.352,-0.005039946176111733
2839,00:00:11.356,-0.0008660377934574977
2840,00:00:11.36,-9.0440735220923e-05
2841,00:00:11.364,-0.004336886107921601
2842,00:00:11.368,0.0203298770939
2843,00:00:11.372,-0.02297778800129891
2844,00:00:11.376,0.0013662278652191093
2845,00:00:11.38,-0.006904007168486719
2846,00:00:11.384,0.00835293240379543
2847,00:00:11.388,0.01108695100992916
2848,00:00:11.392,0.00797160610090941
2849,00:00:11.396,-0.01117645716294647
2850,00:00:11.4,0.0052874246612191304
2851,00:00:11.404,-0.0053228586912155195
2852,00:00:11.408,-0.02005733759142459
2853,00:00:11.412,0.005463733337819613
2854,00:00:11.416,-0.0003192503936588001
2855,00:00:11.42,-0.0070277005434036775
2856,00:00:11.424,0.04915475146844985
2857,00:00:11.428,0.013025167980231338
2858,00:00:11.432,-0.08799057174474001
2859,00:00:11.436,0.0219772394630127
2860,00:00:11.44,0.048885695607168544
2861,00:00:11.444,-0.01297844492364679
2862,00:00:11.448,-0.01103556621819732
2863,00:00:11.452,-0.0027853553183376702
2864,00:00:11.456,-0.00819985929410905
2865,00:00:11.46,0.008392959949560444
2866,00:00:11.464,-0.00994732161052524
2867,00:00:11.468,0.007935520028695471
2868,00:00:11.472,0.006934408513188832
2869,00:00:11.476,-0.007223715074360377
2870,00:00:11.48,0.00901114288717508
2871,00:00:11.484,0.002931240291218275
2872,00:00:11.488,-0.021309068659320467
2873,00:00:11.492,-0.00368216563947504
2874,00:00:11.496,-0.00040134415030479084
2875,00:00:11.5,0.02418885478982698
2876,00:00:11.504,0.010772618465125523
2877,00:00:11.508,-0.0077828085049986805
2878,00:00:11.512,0.0018780790269374804
2879,00:00:11.516,-0.00771166547201574
2880,00:00:11.52,-0.030915245515643626
2881,00:00:11.524,0.0094169927760959
2882,00:00:11.528,0.02635637577623126
2883,00:00:11.532,-0.0031359018757939816
2884,00:00:11.536,-0.016542049357667572
2885,00:00:11.54,-0.004575185681460417
2886,00:00:11.544,0.0297013036906719
2887,00:00:11.548,-0.017991790547966922
2888,00:00:11.552,0.019132848829030998
2889,00:00:11.556,-0.009694170206785193
2890,00:00:11.56,-0.01911440771073102
2891,00:00:11.564,0.00019176812202200896
2892,00:00:11.568,0.01926558557897807
2893,00:00:11.572,-0.00362992798909546
2894,00:00:11.576,-0.03194844443351034
2895,00:00:11.58,-0.00219297176226975
2896,00:00:11.584,0.040669893496669766
2897,00:00:11.588,0.03791788019589155
2898,00:00:11.592,-0.03003156697377568
2899,00:00:11.596,-0.030741860624402748
2900,00:00:11.6,0.012501705437898698
2901,00:00:11.604,-0.006460221251472831
2902,00:00:11.608,0.012143106025177985
2903,00:00:11.612,-0.0012923327158205176
2904,00:00:11.616,-0.02133427769877019
2905,00:00:11.62,0.0043193693272769495
2906,00:00:11.624,-0.01466686138883236
2907,00:00:11.628,0.02228236291557551
2908,00:00:11.632,0.014496079180389608
2909,00:00:11.636,0.005670562386512697
2910,00:00:11.64,0.012585953576490288
2911,00:00:11.644,0.0029874020256101686
2912,00:00:11.648,-0.033215249772183604
2913,00:00:11.652,-0.029150800779461916
2914,00:00:11.656,0.008370496798306678
2915,00:00:11.66,0.02161970641463998
2916,00:00:11.664,0.02081299480050805
2917,00:00:11.668,-0.01585854450240736
2918,00:00:11.672,-0.02594282990321514
2919,00:00:11.676,0.001959579065442101
2920,00:00:11.68,0.03872187901288271
2921,00:00:11.684,0.0159825347363949
2922,00:00:11.688,-0.03362943843239925
2923,00:00:11.692,-0.018464548746123938
2924,00:00:11.696,0.0086884014308453
2925,00:00:11.7,0.010932730161584879
2926,00:00:11.704,-0.005702459253370764
2927,00:00:11.708,0.00232230377150696
2928,00:00:11.712,0.01021513505838811
2929,00:00:11.716,0.008670203329529618
2930,00:00:11.72,-0.008865020005032347
2931,00:00:11.724,-0.02644079411402347
2932,00:00:11.728,0.0028933146968484376
2933,00:00:11.732,0.005031283944845205
2934,00:00:11.736,0.022820248734205947
2935,00:00:11.74,0.010011445148848006
2936,00:00:11.744,-0.00758803100325167
2937,00:00:11.748,-0.0333955103997141
2938,00:00:11.752,-0.018466598354279988
2939,00:00:11.756,0.033031230792403256
2940,00:00:11.76,0.026723021641373603
2941,00:00:11.764,-0.022375946864485748
2942,00:00:11.768,-0.006578589323908148
2943,00:00:11.772,0.0256137206451967
2944,00:00:11.776,-0.02494411449879413
2945,00:00:11.78,-0.01328849862329664
2946,00:00:11.784,0.014719734324899002
2947,00:00:11.788,0.027584734139963932
2948,00:00:11.792,-0.0005525411106646
2949,00:00:11.796,-0.022063605021685362
2950,00:00:11.8,-0.01000175951048732
2951,00:00:11.804,-0.02335565217072146
2952,00:00:11.808,0.005283308331854681
2953,00:00:11.812,0.030235964804887765
2954,00:00:11.816,0.016565099576837345
2955,00:00:11.82,0.002059299731627111
2956,00:00:11.824,-0.00748054485302419
2957,00:00:11.828,-0.02674243552610275
2958,00:00:11.832,0.010322961199562997
2959,00:00:11.836,0.01030481327325106
2960,00:00:11.84,-0.01576788362581283
2961,00:00:11.844,-0.01892175502143802
2962,00:00:11.848,0.02189476077910514
2963,00:00:11.852,0.005806948989629751
2964,00:00:11.856,0.008659374376293272
2965,00:00:11.86,-0.006546848162543037
2966,00:00:11.864,0.0013621471589430906
2967,00:00:11.868,0.01670732814818624
2968,00:00:11.872,-0.024367086356505748
2969,00:00:11.876,-0.02271078713238245
2970,00:00:11.88,0.029933424433693328
2971,00:00:11.884,0.015453107887879009
2972,00:00:11.888,-0.01312868320383128
2973,00:00:11.892,-0.018563458696007697
2974,00:00:11.896,-0.02022606180980798
2975,00:00:11.9,0.02404304803349077
2976,00:00:11.904,0.03011435270309442
2977,00:00:11.908,-0.0063561825081705605
2978,00:00:11.912,-0.036629634909331785
2979,00:00:11.916,0.013117493945173921
2980,00:00:11.92,0.031424662098288564
2981,00:00:11.924,-0.012522361357696358
2982,00:00:11.928,-0.01654666918329895
2983,00:00:11.932,-0.0004246940370649108
2984,00:00:11.936,-0.0050883411895483715
2985,00:00:11.94,0.014349699602462341
2986,00:00:11.944,0.0011722482740879007
2987,00:00:11.948,0.011486575589515241
2988,00:00:11.952,-0.01239932619500902
2989,00:00:11.956,-0.03507221909239892
2990,00:00:11.96,-0.0028076209127902985
2991,00:00:11.964,0.041402766190003645
2992,00:00:11.968,0.039261743891984155
2993,00:00:11.972,-0.014167724264552843
2994,00:00:11.976,-0.04365856689400975
2995,00:00:11.98,-0.02146182535216213
2996,00:00:11.984,0.01396468281745911
2997,00:00:11.988,0.027535555534996047
2998,00:00:11.992,-0.005269218236207911
2999,00:00:11.996,0.0020633195526898107
3000,00:00:12,0.023258409928530448
3001,00:00:12.004,-0.03448305191705006
3002,00:00:12.008,-0.02190510462969539
3003,00:00:12.012,0.0075057811336591874
3004,00:00:12.016,0.025675708428025197
3005,00:00:12.02,0.01164081599563364
3006,00:00:12.024,-0.004307961091399259
3007,00:00:12.028,-0.0028598392382264085
3008,00:00:12.032,-0.002575393591541776
3009,00:00:12.036,-0.01736648497171701
3010,00:00:12.04,-0.005515336990356395
3011,00:00:12.044,0.014897691784426572
3012,00:00:12.048,0.00666752154938881
3013,00:00:12.052,-0.030339686665684033
3014,00:00:12.056,0.008531522005796491
3015,00:00:12.06,0.0226400502724573
3016,00:00:12.064,0.02057602209970364
3017,00:00:12.068,0.00074135395698245
3018,00:00:12.072,-0.028090113715734374
3019,00:00:12.076,-0.012574338354170343
3020,00:00:12.08,0.005167338997125618
3021,00:00:12.084,-0.01531760624493472
3022,00:00:12.088,0.0007095625624060284
3023,00:00:12.092,0.02498524263501174
3024,00:00:12.096,0.0289041195064783
3025,00:00:12.1,0.0053829161915928195
3026,00:00:12.104,-0.012373939622193561
3027,00:00:12.108,-0.061602394096553305
3028,00:00:12.112,-0.01995899213943636
3029,00:00:12.116,-8.958787657324966e-05
3030,00:00:12.12,0.07096133194863796
3031,00:00:12.124,0.07781935203820467
3032,00:00:12.128,-0.031006071949377618
3033,00:00:12.132,-0.07450062222778789
3034,00:00:12.136,-0.041879641590640004
3035,00:00:12.14,0.0189962135627866
3036,00:00:12.144,0.03485056990757593
3037,00:00:12.148,0.003063862212002267
3038,00:00:12.152,-0.006396441254764798
3039,00:00:12.156,0.018476309254765524
3040,00:00:12.16,0.014223317848518496
3041,00:00:12.164,-0.02275739400647583
3042,00:00:12.168,0.00683563388884064
3043,00:00:12.172,-0.010115835058968512
3044,00:00:12.176,-0.017701976117677962
3045,00:00:12.18,-0.02381471497938034
3046,00:00:12.184,0.0165217472240329
3047,00:00:12.188,0.02367039443925027
3048,00:00:12.192,0.02873936342075467
3049,00:00:12.196,0.0168065298348666
3050,00:00:12.2,-0.010463389029609972
3051,00:00:12.204,-0.06207820947747677
3052,00:00:12.208,-0.021719831973314292
3053,00:00:12.212,0.0013220533728598993
3054,00:00:12.216,0.0391080928966403
3055,00:00:12.22,0.04602034669369462
3056,00:00:12.224,0.015754729509353638
3057,00:00:12.228,-0.02621361915953462
3058,00:00:12.232,-0.058081646915525253
3059,00:00:12.236,-0.01460842462256549
3060,00:00:12.24,0.03163136239163577
3061,00:00:12.244,0.01026571914553645
3062,00:00:12.248,0.015034129261039168
3063,00:00:12.252,0.026107194571522947
3064,00:00:12.256,0.0005943547002971302
3065,00:00:12.26,-0.042682222789153464
3066,00:00:12.264,-0.03063729527639227
3067,00:00:12.268,-0.01410368585493411
3068,00:00:12.272,0.012744891922920932
3069,00:00:12.276,0.06279203930171204
3070,00:00:12.28,0.01719317678362129
3071,00:00:12.284,-0.025010391604155243
3072,00:00:12.288,-0.018838318996131427
3073,00:00:12.292,-0.018477106466889402
3074,00:00:12.296,-0.012530729174613961
3075,00:00:12.3,0.03428056044504043
3076,00:00:12.304,0.02320062415674324
3077,00:00:12.308,-0.01260597072541715
3078,00:00:12.312,-0.006867568503366783
3079,00:00:12.316,-0.0291054882109165
3080,00:00:12.32,-0.005919157760217734
3081,00:00:12.324,0.014934220234863502
3082,00:00:12.328,0.03207871317863467
3083,00:00:12.332,-0.0020343326032161687
3084,00:00:12.336,-0.009269063724787006
3085,00:00:12.34,0.007893223533756105
3086,00:00:12.344,-0.009939862182363882
3087,00:00:12.348,-0.02735253656283024
3088,00:00:12.352,-0.01371893484611066
3089,00:00:12.356,0.0010043056681751997
3090,00:00:12.36,0.06950512109324333
3091,00:00:12.364,0.019223889918066596
3092,00:00:12.368,-0.04037593503016981
3093,00:00:12.372,-0.047254572156816776
3094,00:00:12.376,0.0021388725417637866
3095,00:00:12.38,0.01992684602737424
3096,00:00:12.384,0.028055152157321593
3097,00:00:12.388,-0.006625150388572358
3098,00:00:12.392,-0.01256855484098193
3099,00:00:12.396,0.024466262198984602
3100,00:00:12.4,-0.02487149531953036
3101,00:00:12.404,-0.00325677520595497
3102,00:00:12.408,-0.00233817734988407
3103,00:00:12.412,-0.01939763850532472
3104,00:00:12.416,0.029648441355675466
3105,00:00:12.42,0.02655664645135405
3106,00:00:12.424,-0.03168341203127057
3107,00:00:12.428,-0.01333129499107602
3108,00:00:12.432,0.025087576359510387
3109,00:00:12.436,0.008215467416448513
3110,00:00:12.44,-0.00865112361498176
3111,00:00:12.444,-0.00731549039483073
3112,00:00:12.448,-0.020836297771893462
3113,00:00:12.452,-0.01630040910094975
3114,00:00:12.456,0.01908359531080354
3115,00:00:12.46,0.04546963796019549
3116,00:00:12.464,0.010617494328471333
