Elapsed Time,EMG1,EMG2,EMG3,BioRadio Event,
00:00:00,1.0005259513855,-2.44319319725037,1.88688409328461,0,
00:00:00.004,-0.95418119430542,2.32287859916687,-1.79556810855865,0,
00:00:00.008,-0.789489388465881,1.93465983867645,-1.4946928024292,0,
00:00:00.012,-0.0816147103905678,0.214167863130569,-0.158952623605728,0,
00:00:00.016,0.408551603555679,-0.991521239280701,0.765612483024597,0,
00:00:00.02,0.488883674144745,-1.21760153770447,0.936270713806152,0,
00:00:00.024,0.297367423772812,-0.748915672302246,0.576057970523834,0,
00:00:00.028,0.0391212031245232,-0.0955218598246574,0.0693337395787239,0,
00:00:00.032,-0.138827621936798,0.359464019536972,-0.27681428194046,0,
00:00:00.036,-0.192282602190971,0.48868390917778,-0.369356632232666,0,
00:00:00.04,-0.144651785492897,0.356612265110016,-0.27251347899437,0,
00:00:00.044,-0.0559364408254623,0.132572323083878,-0.0974326729774475,0,
00:00:00.048,0.0217447560280561,-0.0522873140871525,0.0373278595507145,0,
00:00:00.052,0.055551789700985,-0.146976307034492,0.103778667747974,0,
00:00:00.056,0.0448722094297409,-0.135537892580032,0.0993277728557587,0,
00:00:00.06,0.0305874738842249,-0.0673809722065926,0.0543612651526928,0,
00:00:00.064,0.00608235783874989,-0.00273334723897278,0.00469809770584106,0,
00:00:00.068,-0.0119302291423082,0.0380333475768566,-0.0305974241346121,0,
00:00:00.072,-0.0176161620765924,0.0459919348359108,-0.0273431614041328,0,
00:00:00.076,-0.0113048516213894,0.0329702496528625,-0.0176685098558664,0,
00:00:00.08,-0.00499878637492657,0.0108717707917094,-0.014542699791491,0,
00:00:00.084,-0.00163098354823887,-0.0157799012959003,-8.2421007391531E-05,0,
00:00:00.088,0.00141591462306678,-0.0180754922330379,0.0101643847301602,0,
00:00:00.092,0.00970899499952793,-0.00794914737343788,0.0160718485713005,0,
00:00:00.096,0.00628324365243316,0.00115398014895618,0.00567247997969389,0,
00:00:00.1,-0.00161290669348091,-0.0033637669403106,-0.00171442737337202,0,
00:00:00.104,-0.00539022078737617,0.00582677451893687,-0.00479829218238592,0,
00:00:00.108,-0.00235711899586022,0.00762586388736963,-0.00434916745871305,0,
00:00:00.112,0.00508571648970246,0.00210520904511213,-0.00838711950927973,0,
00:00:00.116,0.00245060888119042,-0.000579302897676826,0.00805928092449903,0,
00:00:00.12,-0.00548150157555938,-0.0123191578313708,0.012578509747982,0,
00:00:00.124,-0.00730056222528219,-0.0048425099812448,-0.00959789007902145,0,
00:00:00.128,0.0109195401892066,0.00996361114084721,-0.00843172427266836,0,
00:00:00.132,0.00214103981852531,0.00938665866851807,-0.00119246705435216,0,
00:00:00.136,-0.00203418335877359,-0.00129003019537777,0.00599644565954804,0,
00:00:00.14,-0.00275647849775851,-0.007345553021878,0.00707011669874191,0,
00:00:00.144,-0.00166248460300267,-0.00663815252482891,-0.000536074861884117,0,
00:00:00.148,0.00187363743316382,0.00183752295561135,-0.00304350908845663,0,
00:00:00.152,-0.0012163664214313,0.00626088492572308,-0.000504647556226701,0,
00:00:00.156,0.00142286287155002,0.00106219353619963,-0.00300601054914296,0,
00:00:00.16,-0.00353910238482058,0.00125957129057497,-0.00131147704087198,0,
00:00:00.164,0.00346191599965096,0.00112900766544044,-0.00129564094822854,0,
00:00:00.168,-0.00379890319891274,-0.012455222196877,0.00162746466230601,0,
00:00:00.172,0.00364353880286217,0.00438976287841797,0.00716544548049569,0,
00:00:00.176,0.00310448626987636,0.00358841964043677,0.00461181672289968,0,
00:00:00.18,0.000371874717529863,0.00182604440487921,-0.00645794905722141,0,
00:00:00.184,-0.00160495936870575,-0.00402114074677229,-0.00595128303393722,0,
00:00:00.188,5.25663926964626E-05,0.00516006862744689,-0.00385884125716984,0,
00:00:00.192,-0.00328150345012546,0.00440172385424376,0.00362365180626512,0,
00:00:00.196,-0.0018960447050631,-0.00594980828464031,0.002420574426651,0,
00:00:00.2,0.00241245003417134,-0.00327295903116465,0.00435177981853485,0,
00:00:00.204,-0.000368082924978808,-0.00543611776083708,0.00364784989506006,0,
00:00:00.208,-0.00209706602618098,3.66821732313838E-05,-0.00327757885679603,0,
00:00:00.212,-0.0014804198872298,0.00208254484459758,-0.00411873077973723,0,
00:00:00.216,0.00645152619108558,0.00867898296564817,-0.00427057128399611,0,
00:00:00.22,0.00812219176441431,0.0105353584513068,0.00202048220671713,0,
00:00:00.224,-0.00235440884716809,-0.00523429503664374,0.00506159709766507,0,
00:00:00.228,-0.00831188075244427,-0.0111545445397496,-0.000303813285427168,0,
00:00:00.232,-0.00303255300968885,-0.00610803253948689,-0.00572566967457533,0,
00:00:00.236,-0.00211800215765834,-0.0036775479093194,0.00498014409095049,0,
00:00:00.24,-0.0028709308244288,0.0019054498989135,0.00323628867045045,0,
00:00:00.244,0.00504494924098253,0.0177449379116297,-0.00283158756792545,0,
00:00:00.248,0.0102122481912374,0.00793248414993286,-0.0008827960700728,0,
00:00:00.252,0.00135645142290741,-0.00823101215064526,-0.0030198444146663,0,
00:00:00.256,-0.00132590800058097,-0.00953374151140451,-0.000974277616478503,0,
00:00:00.26,-0.00619124714285135,-0.00257486058399081,0.00117255153600127,0,
00:00:00.264,-0.00637193582952023,-0.00350317102856934,-0.000126120634377003,0,
00:00:00.268,-0.000789573008660227,0.00156964722555131,0.00344474776647985,0,
00:00:00.272,0.00544869992882013,0.00683230441063643,0.00210689660161734,0,
00:00:00.276,0.00429336447268724,0.00455078296363354,0.00186974497046322,0,
00:00:00.28,0.00105621630791575,0.00257917493581772,-0.00356589979492128,0,
00:00:00.284,-0.0013766570482403,-0.00833812169730663,-0.00540156755596399,0,
00:00:00.288,-0.00419922964647412,-0.00256278249435127,0.000840164604596794,0,
00:00:00.292,0.00249801832251251,0.0094504626467824,0.00240586744621396,0,
00:00:00.296,0.00125587545335293,-0.00146735145244747,-0.000376079144189134,0,
00:00:00.3,-0.00305687240324914,-0.00678823655471206,0.00239454978145659,0,
00:00:00.304,-0.00191566860303283,-0.00347055401653051,0.00321789504960179,0,
00:00:00.308,0.000283984467387199,-0.00115070631727576,-0.00258135353215039,0,
00:00:00.312,-0.000523010559845716,-0.00108325062319636,-0.00306385080330074,0,
00:00:00.316,0.00353660457767546,0.0105334892868996,-0.00139496300835162,0,
00:00:00.32,0.000378974276827648,0.00652226898819208,0.00241781258955598,0,
00:00:00.324,0.00627068150788546,0.00156682042870671,-0.000762846844736487,0,
00:00:00.328,-0.00162334484048188,-0.00457024807110429,-0.00047638948308304,0,
00:00:00.332,-0.00881634186953306,-0.00853119418025017,0.000428869796451181,0,
00:00:00.336,-0.00190984888467938,-0.00246341177262366,0.000840640976093709,0,
00:00:00.34,0.00192667031660676,-0.00141879427246749,-0.00141599553171545,0,
00:00:00.344,0.00493117840960622,-0.000290948897600174,0.00425261771306396,0,
00:00:00.348,-0.00208403239957988,0.00328883854672313,-0.000534401566255838,0,
00:00:00.352,-0.00121320178732276,0.00648696860298514,-0.00391836371272802,0,
00:00:00.356,0.00495787104591727,0.00303815654478967,0.000623333500698209,0,
00:00:00.36,-0.0023445151746273,-0.00311263068579137,0.00128815544303507,0,
00:00:00.364,-7.82004208303988E-05,0.000974177208263427,0.00264664995484054,0,
00:00:00.368,-0.000106218554719817,-0.00527919502928853,-0.00217476766556501,0,
00:00:00.372,0.00159071234520525,0.00116262387018651,-0.00217618234455585,0,
00:00:00.376,-0.00460154050961137,-0.00540525233373046,-0.000626785098575056,0,
00:00:00.38,2.63431847997708E-05,0.00328546995297074,0.000674019975122064,0,
00:00:00.384,-0.000591262534726411,0.00168386870063841,0.00319448579102755,0,
00:00:00.388,0.00323356641456485,0.00131883565336466,-0.00112903187982738,0,
00:00:00.392,0.00418758671730757,0.0049584018997848,-0.00343478634022176,0,
00:00:00.396,-0.00199536141008139,0.000309526541968808,0.0036817139480263,0,
00:00:00.4,-0.00504043605178595,-0.0118396645411849,-0.00196676678024232,0,
00:00:00.404,0.00450408132746816,0.00794451497495174,0.00118197361007333,0,
00:00:00.408,-0.00228515407070518,0.00238063116557896,0.00107340759132057,0,
00:00:00.412,-0.00212707952596247,-0.00868130847811699,-0.00200186716392636,0,
00:00:00.416,-0.00218777335248888,-0.00816485937684774,0.00133354694116861,0,
00:00:00.42,0.00328244431875646,0.0063081537373364,0.00502709578722715,0,
00:00:00.424,0.00316241080872715,0.0125503074377775,-0.00216943793930113,0,
00:00:00.428,0.0031521616037935,0.0026170271448791,-0.00616833195090294,0,
00:00:00.432,-0.00273854774422944,-0.00344024528749287,-0.00280596176162362,0,
00:00:00.436,-0.009373071603477,-0.00495356367900968,0.00117782084271312,0,
00:00:00.44,0.00657603330910206,-0.00341562740504742,0.0030399460811168,0,
00:00:00.444,0.00534209655597806,-0.000909548718482256,0.00267447042278945,0,
00:00:00.448,-0.00399061385542154,-0.00314667425118387,0.00117050774861127,0,
00:00:00.452,-0.0054064067080617,-0.000563332985620946,-0.000304659799439833,0,
00:00:00.456,0.00374089321121573,0.00853123608976603,0.000988202402368188,0,
00:00:00.46,0.00549128279089928,0.0161705687642097,-0.00515409745275974,0,
00:00:00.464,0.0027294703759253,0.000778343644924462,-0.00239129574038088,0,
00:00:00.468,-0.0133384689688683,-0.0255905669182539,0.00333197158761323,0,
00:00:00.472,-0.0036361978854984,-0.0132631110027432,0.00914232991635799,0,
00:00:00.476,0.0081518841907382,0.00806500483304262,-0.0052082659676671,0,
00:00:00.48,0.00844784546643496,0.0166709888726473,-0.00797860324382782,0,
00:00:00.484,-0.00294974679127336,0.00605961494147778,-3.62526952812914E-05,0,
00:00:00.488,-0.00228951079770923,-0.00400768639519811,0.0010384734487161,0,
00:00:00.492,0.00212790607474744,-0.00323623372241855,0.00701592350378633,0,
00:00:00.496,-0.00522373802959919,-0.000853307079523802,0.00102631957270205,0,
00:00:00.5,-0.0056435065343976,-0.00387273007072508,0.000376697222236544,0,
00:00:00.504,0.0021030989009887,-0.00628991657868028,-0.00614474341273308,0,
00:00:00.508,0.00203152140602469,0.00231011351570487,-0.000946806336287409,0,
00:00:00.512,0.00693896086886525,0.00717154843732715,0.00123434455599636,0,
00:00:00.516,-0.00166966451797634,0.00187235197518021,0.00149052229244262,0,
00:00:00.52,0.00171863462310284,0.00156576640438288,0.000848105410113931,0,
00:00:00.524,0.00137851585168391,0.00299016665667295,8.25088209239766E-05,0,
00:00:00.528,-0.00671331165358424,-0.0086927954107523,-0.00246509280987084,0,
00:00:00.532,-0.00642273435369134,-0.00572872022166848,0.00356899132020772,0,
00:00:00.536,6.04794113314711E-05,0.000181690105819143,-0.000650924106594175,0,
00:00:00.54,0.00444311881437898,0.00372790941037238,-0.00154319917783141,0,
00:00:00.544,0.0069242618046701,0.00811545085161924,-0.000920872029382735,0,
00:00:00.548,0.00481764227151871,0.00027526228222996,-2.33437513088575E-05,0,
00:00:00.552,-0.00356762204319239,-0.00733857555314898,0.000526485033333302,0,
00:00:00.556,-0.00719665735960007,-0.00345297600142658,0.000604125962127,0,
00:00:00.56,-0.00116151792462915,0.00558975292369723,0.0024465920869261,0,
00:00:00.564,0.00122227310203016,0.00580408284440637,-0.00191340665332973,0,
00:00:00.568,0.00155757914762944,-0.0022172515746206,-0.00387058686465025,0,
00:00:00.572,0.00305399508215487,-0.00417600711807609,0.00365769420750439,0,
00:00:00.576,-0.00588253373280168,-0.00896824616938829,0.00449877977371216,0,
00:00:00.58,-0.00208633556030691,0.00135210761800408,-0.00444951467216015,0,
00:00:00.584,0.0128967529162765,0.0163117330521345,-0.00572542427107692,0,
00:00:00.588,0.00242176628671587,0.00369756505824625,0.00158127944450825,0,
00:00:00.592,-0.0134227992966771,-0.0160781964659691,0.00348286936059594,0,
00:00:00.596,-0.000832103658467531,-0.0043261325918138,0.00240380829200149,0,
00:00:00.6,-0.00169528310652822,0.0028141257353127,0.000500434078276157,0,
00:00:00.604,-0.000306808855384588,0.00689246878027916,0.00119047937914729,0,
00:00:00.608,0.00568611547350883,-0.00478694960474968,-0.00328825111500919,0,
00:00:00.612,0.00891982205212116,0.00933245848864317,-0.00470166094601154,0,
00:00:00.616,-0.000521231209859252,0.0018187757814303,0.00351831619627774,0,
00:00:00.62,-0.00677930284291506,-0.00566124496981502,0.000682051468174905,0,
00:00:00.624,-0.000468880345579237,-0.000786483229603618,-0.00210130284540355,0,
00:00:00.628,-0.000435729045420885,-0.00136894942261279,0.00196305871941149,0,
00:00:00.632,-0.00526473065838218,-0.00810047890990973,0.0017342995852232,0,
00:00:00.636,0.00299878441728652,0.00266467197798193,0.00027882048743777,0,
00:00:00.64,-0.00104622857179493,0.000728071026969701,0.00541694322600961,0,
00:00:00.644,0.000726513157133013,0.00288042752072215,-0.00700101954862475,0,
00:00:00.648,0.00645474763587117,0.00771092576906085,-0.00772167649120092,0,
00:00:00.652,0.000291398377157748,0.00240555801428854,0.00127905223052949,0,
00:00:00.656,-0.0043578022159636,-0.00504067167639732,0.00442315312102437,0,
00:00:00.66,-0.000356848875526339,-0.00702598877251148,0.00366055546328425,0,
00:00:00.664,0.000445867044618353,0.00406178133562207,0.00136934034526348,0,
00:00:00.668,0.00434980029240251,0.006620810367167,-0.000644582964014262,0,
00:00:00.672,-0.00614691665396094,-0.0112072322517633,-0.00363645097240806,0,
00:00:00.676,0.000550940516404808,-0.00198674621060491,0.00263081793673337,0,
00:00:00.68,-0.000811646808870137,0.0025351895019412,-0.00312860542908311,0,
00:00:00.684,-0.0039081065915525,-0.00078859057975933,0.000516011379659176,0,
00:00:00.688,0.000957381853368133,-0.002211794257164,0.00312918401323259,0,
00:00:00.692,0.0105271581560373,0.0116217164322734,0.000589268514886498,0,
00:00:00.696,0.00439482601359487,0.00824663788080215,-0.00581628736108541,0,
00:00:00.7,-0.00289537431672215,8.82462627487257E-05,-0.000240010107518174,0,
00:00:00.704,-0.0100659569725394,-0.0139263505116105,0.0040423939935863,0,
00:00:00.708,-0.00285503338091075,-0.00923659466207027,-5.75848171138205E-05,0,
00:00:00.712,-0.000531970465090126,-0.000515056366566569,-0.000757740577682853,0,
00:00:00.716,0.00497705116868019,0.00712441513314843,-0.00240311771631241,0,
00:00:00.72,0.00403900258243084,0.00599743006750941,0.00212303968146443,0,
00:00:00.724,0.00114230893086642,-2.32593447435647E-05,0.00196220818907022,0,
00:00:00.728,-0.00321056321263313,-0.0033755952026695,0.00248023751191795,0,
00:00:00.732,5.18456217832863E-05,0.00103432789910585,-0.00278320536017418,0,
00:00:00.736,0.00222973967902362,0.0033763307146728,-0.00278608337976038,0,
00:00:00.74,-0.00441793445497751,-0.00177864963188767,-0.000974459166172892,0,
00:00:00.744,-0.00438992260023952,-0.00653227465227246,0.00270678056403995,0,
00:00:00.748,0.00918552372604609,0.00485546793788671,-0.000701487879268825,0,
00:00:00.752,0.00239269621670246,0.00976178329437971,-0.000590476673096418,0,
00:00:00.756,-0.00449077505618334,-0.0042025432921946,0.000252891913987696,0,
00:00:00.76,-0.00376474508084357,-0.0115493955090642,-0.0013755289837718,0,
00:00:00.764,-0.00292961485683918,-0.00891890097409487,0.00465008057653904,0,
00:00:00.768,-0.000820208806544542,0.000504181662108749,-0.00219620135612786,0,
00:00:00.772,0.00966439209878445,0.0193550530821085,0.00243353005498648,0,
00:00:00.776,0.0112075190991163,0.014578509144485,-0.00168115668930113,0,
00:00:00.78,-0.0117045436054468,-0.0062921573407948,-0.00195331615395844,0,
00:00:00.784,-0.0120382066816092,-0.0184341967105865,0.00128845626022667,0,
00:00:00.788,0.000243297617998905,-0.0131620299071074,-0.00370211619883776,0,
00:00:00.792,0.00788468960672617,0.00637520011514425,-0.000884533859789371,0,
00:00:00.796,0.00782494433224201,0.0174781307578087,0.00627198442816734,0,
00:00:00.8,0.00120645412243903,0.00996195152401924,0.00103137455880642,0,
00:00:00.804,-0.00580331729725003,-0.0112909022718668,-0.00341624650172889,0,
00:00:00.808,-0.006949448492378,-0.00788211077451706,0.00027809469611384,0,
00:00:00.812,0.00259417528286576,0.00391550408676267,0.00269117136485875,0,
00:00:00.816,-0.001116783474572,-0.00836639292538166,-0.00195998908020556,0,
00:00:00.82,-0.00135997112374753,-0.00412032287567854,-0.00207660696469247,0,
00:00:00.824,0.00636757304891944,0.0131464041769505,-0.00272633088752627,0,
00:00:00.828,0.00602954206988215,0.0108497440814972,0.00257945316843688,0,
00:00:00.832,-0.00236963876523077,4.10490065405611E-05,0.0047867689281702,0,
00:00:00.836,-0.00457041477784514,-0.00906997919082642,0.00111887231469154,0,
00:00:00.84,-0.00319415936246514,-0.00982057861983776,-0.00207125768065453,0,
00:00:00.844,-0.000773250299971551,-0.00480804871767759,-0.00704934215173125,0,
00:00:00.848,0.0010349954245612,0.00528805749490857,-0.00207677879370749,0,
00:00:00.852,-0.000428942003054544,0.00489463424310088,0.00488556548953056,0,
00:00:00.856,0.00740960473194718,0.0123483063653111,0.00443804683163762,0,
00:00:00.86,0.000273221463430673,0.00236803805455565,0.00354757625609636,0,
00:00:00.864,-0.00733180996030569,-0.0168346166610718,-0.00511408085003495,0,
00:00:00.868,-0.00344026391394436,-0.00491872197017074,-0.00172568182460964,0,
00:00:00.872,0.00154312141239643,0.000399284530431032,0.00184818357229233,0,
00:00:00.876,0.0058002513833344,0.00884790159761906,-0.00165602285414934,0,
00:00:00.88,0.00316120521165431,0.0074536707252264,-0.00124562403652817,0,
00:00:00.884,-0.000471227045636624,-0.00421932013705373,-0.00197971891611815,0,
00:00:00.888,-0.00245237234048545,-0.00512162456288934,0.00500293727964163,0,
00:00:00.892,-0.00244585564360023,-0.00220463424921036,0.000682970741763711,0,
00:00:00.896,-0.00127831089776009,0.000634103664197028,-0.00297299213707447,0,
00:00:00.9,2.94734763883753E-05,0.00398337794467807,0.000979001633822918,0,
00:00:00.904,0.00289972289465368,0.00386529322713614,0.00112924980930984,0,
00:00:00.908,-0.00309575535356998,-0.00901132542639971,0.000169696373632178,0,
00:00:00.912,-0.00526326894760132,-0.00178674107883126,-0.000574735284317285,0,
00:00:00.916,0.011715903878212,0.0112852454185486,-0.00073517463169992,0,
00:00:00.92,0.00390339177101851,0.00224138936027884,-0.000463311967905611,0,
00:00:00.924,-0.00483835721388459,-0.00602625450119376,0.00200872658751905,0,
00:00:00.928,-0.0030884554143995,-0.00740700121968985,-0.0038346815854311,0,
00:00:00.932,-0.00420686742290854,-0.00172991142608225,-0.00144139258190989,0,
00:00:00.936,-0.00515299988910556,0.00301245669834316,0.00366705819033086,0,
00:00:00.94,0.00786803662776947,0.00643061520531774,0.00274984119459987,0,
00:00:00.944,0.00404061796143651,0.00101860717404634,0.00240753591060638,0,
00:00:00.948,0.000686493178363889,0.00113067764323205,-0.00745287723839283,0,
00:00:00.952,-0.00127670529764146,-0.0032282134052366,-0.00142565695568919,0,
00:00:00.956,-0.00175409764051437,-0.000441791373305023,0.0102521665394306,0,
00:00:00.96,-0.00123659893870354,-0.00251184916123748,-0.00120423443149775,0,
00:00:00.964,-0.000391714420402423,-0.00285478634759784,-0.00902845337986946,0,
00:00:00.968,0.00027080561267212,0.00716109620407224,-0.00391489965841174,0,
00:00:00.972,0.000539587228558958,0.00141322275158018,0.00216540135443211,0,
00:00:00.976,0.000462865078588948,-0.00596996350213885,0.00681613525375724,0,
00:00:00.98,-0.0018579832976684,-0.000549528922419995,0.0039480715058744,0,
00:00:00.984,0.00195549288764596,0.00588096585124731,-0.000181057679583319,0,
00:00:00.988,0.00356718013063073,-0.00217747688293457,-0.00259430357255042,0,
00:00:00.992,-0.0040366561152041,-0.00455675693228841,-0.0027891134377569,0,
00:00:00.996,-0.00476081110537052,-0.00272550666704774,-0.00159660668577999,0,
00:00:01,0.00436779716983438,0.0107104014605284,-0.000139576877700165,0,
00:00:01.004,0.00785985868424177,0.00914981495589018,0.000814004393760115,0,
00:00:01.008,0.000710489635821432,-0.00459211738780141,0.00104249676223844,0,
00:00:01.012,-0.0069005866535008,-0.0154435466974974,-0.00341430492699146,0,
00:00:01.016,-0.0119447633624077,-0.0132764000445604,0.00627184845507145,0,
00:00:01.02,-0.00600992934778333,0.00267782178707421,0.00323790451511741,0,
00:00:01.024,0.0145750334486365,0.0205343458801508,-0.00357609987258911,0,
00:00:01.028,0.0138050224632025,0.0163214281201363,-0.00378028792329133,0,
00:00:01.032,0.00660765543580055,-0.000543651112820953,-0.00360108865424991,0,
00:00:01.036,-0.0121500035747886,-0.0154599100351334,0.00466469489037991,0,
00:00:01.04,-0.0136450808495283,-0.0164485927671194,-0.000829833385068923,0,
00:00:01.044,-0.00222057406790555,-0.00156662589870393,0.00191941962111741,0,
00:00:01.048,-0.00224872748367488,0.0026061711832881,0.00128102314192802,0,
00:00:01.052,0.011164803057909,0.0119200516492128,-0.0021746635902673,0,
00:00:01.056,0.010464689694345,0.0101782372221351,-0.00105127645656466,0,
00:00:01.06,0.00148133572656661,0.00529189733788371,0.00675296830013394,0,
00:00:01.064,-0.00720745278522372,-0.00722581287845969,-0.00270749675109982,0,
00:00:01.068,-0.00662265066057444,-0.0202294215559959,-0.00398928392678499,0,
00:00:01.072,-0.00258594215847552,0.00165600678883493,-0.00399011466652155,0,
00:00:01.076,0.00106600916478783,0.00731467129662633,0.00239372556097806,0,
00:00:01.08,0.00271361484192312,0.00328385713510215,0.00118426163680851,0,
00:00:01.084,0.00451970566064119,0.00551724946126342,0.00579929258674383,0,
00:00:01.088,-0.00286826794035733,-0.00377188646234572,-0.000358226476237178,0,
00:00:01.092,0.000237872955040075,-0.00175122532527894,-0.00457609724253416,0,
00:00:01.096,0.00272172107361257,-0.00105881795752794,0.00189511547796428,0,
00:00:01.1,0.000221862996113487,-0.00262128608301282,-0.00118848937563598,0,
00:00:01.104,-0.00814610719680786,-0.00221707811579108,-0.00323090329766274,0,
00:00:01.108,-0.00254212995059788,-0.000311463139951229,0.00180773495230824,0,
00:00:01.112,0.0116870747879148,0.013988490216434,0.0022467749658972,0,
00:00:01.116,0.00976406969130039,0.00915602501481771,-0.0010986648267135,0,
00:00:01.12,-0.0148954754695296,-0.0173393003642559,0.00167865434195846,0,
00:00:01.124,-0.00995503831654787,-0.0144098671153188,0.000754635315388441,0,
00:00:01.128,0.00484014023095369,0.00566442450508475,0.00145013339351863,0,
00:00:01.132,0.00908167194575071,0.0109155513346195,-0.00318865128792822,0,
00:00:01.136,0.00593635579571128,0.00293509988114238,-0.00468148197978735,0,
00:00:01.14,-0.00777160562574863,-0.00361072970554233,0.00354589917697012,0,
00:00:01.144,-0.00377806392498314,-0.000855596212204546,0.000745126628316939,0,
00:00:01.148,-0.000355272990418598,-0.00254635675810277,-0.00202022842131555,0,
00:00:01.152,-0.000631874310784042,-0.00477601494640112,-4.389514651848E-05,0,
00:00:01.156,0.00573039054870605,0.00924314837902784,0.00167122390121222,0,
00:00:01.16,0.00274249957874417,0.00716829113662243,0.00390112586319447,0,
00:00:01.164,-0.00123249087482691,-0.00989360734820366,0.00514469062909484,0,
00:00:01.168,-0.0092361718416214,-0.00692533468827605,-0.00571216689422727,0,
00:00:01.172,0.00134815450292081,0.00220035808160901,-0.0079649630934,0,
00:00:01.176,0.00391665892675519,0.00650132540613413,-0.000207314937142655,0,
00:00:01.18,0.000551177188754082,0.000997272203676403,0.00287086865864694,0,
00:00:01.184,0.00448957784101367,0.00308124045841396,0.000782578659709543,0,
00:00:01.188,-0.00138637621421367,-0.00318269128911197,0.00342946569435298,0,
00:00:01.192,-0.000814272207207978,-0.00811862759292126,0.00370558071881533,0,
00:00:01.196,-0.00190163694787771,0.00396592309698462,-0.000567345123272389,0,
00:00:01.2,-0.00614731619134545,-0.00057725451188162,-0.00748251238837838,0,
00:00:01.204,-0.00124116451479495,-0.00196538702584803,-0.0035312925465405,0,
00:00:01.208,0.00324739143252373,0.00328523409552872,0.00354005536064506,0,
00:00:01.212,0.0106057422235608,0.011451156809926,0.00382384727708995,0,
00:00:01.216,0.00105163722764701,-0.00481378845870495,-0.000464995740912855,0,
00:00:01.22,-0.00844767037779093,-0.00736401649191976,-0.000608758477028459,0,
00:00:01.224,-0.00306719844229519,-0.00599432596936822,0.00628677941858768,0,
00:00:01.228,0.000399116921471432,0.00016135566693265,-0.00555036775767803,0,
00:00:01.232,0.00386995542794466,0.00209120591171086,-0.000529753160662949,0,
00:00:01.236,-0.00239851418882608,0.00649327179417014,-0.00246960530057549,0,
00:00:01.24,0.00113012257497758,0.00413748063147068,-0.00302637345157564,0,
00:00:01.244,0.00140481907874346,0.0043583158403635,0.00489299185574055,0,
00:00:01.248,0.00256144884042442,-0.00426647625863552,-0.000796307751443237,0,
00:00:01.252,-0.00236776564270258,-0.00815688166767359,-0.000231072408496402,0,
00:00:01.256,-0.00861738808453083,-0.00390950543805957,0.00314450892619789,0,
00:00:01.26,0.00928609445691109,0.00725440820679069,0.0035236265975982,0,
00:00:01.264,-0.000509435019921511,-0.00244211265817285,-0.000725454185158014,0,
00:00:01.268,-0.00174374168273062,-0.00581786734983325,-0.00756074488162994,0,
00:00:01.272,0.00369117455556989,0.00915040355175734,-0.00350518617779016,0,
00:00:01.276,0.000848060648422688,0.0037592553999275,0.00156208861153573,0,
00:00:01.28,-0.00635848054662347,-0.00508007733151317,0.00383527507074177,0,
00:00:01.284,-0.00316576613113284,-0.00110088475048542,0.0053079123608768,0,
00:00:01.288,0.0074794995598495,0.00676204776391387,0.00134119263384491,0,
00:00:01.292,0.00153437000699341,-0.00104561820626259,-0.00215778942219913,0,
00:00:01.296,-0.00604503322392702,-0.00856117159128189,-0.00116632285062224,0,
00:00:01.3,-0.000636346754617989,0.000203906442038715,-0.00636757165193558,0,
00:00:01.304,0.00381847377866507,-5.35005783603992E-05,0.00384610518813133,0,
00:00:01.308,-0.00216550612822175,-0.00289449817501009,-0.00385597348213196,0,
00:00:01.312,0.00128416833467782,0.0016836867434904,0.000946880551055074,0,
00:00:01.316,0.0013872841373086,0.00871118996292353,0.00251039559952915,0,
00:00:01.32,-0.00379643542692065,0.00210634176619351,0.00195058493409306,0,
00:00:01.324,0.00341294077225029,-0.00380365224555135,-0.00145518779754639,0,
00:00:01.328,0.00452073803171515,0.00530236260965467,-0.000582250882871449,0,
00:00:01.332,0.00189697043970227,-0.000314183591399342,0.000607329478953034,0,
00:00:01.336,-0.0116490479558706,-0.0136628830805421,0.00507254060357809,0,
00:00:01.34,-0.0035100772511214,-0.00615243520587683,-0.00137085991445929,0,
00:00:01.344,0.00477509759366512,0.00331431743688881,-0.00329560576938093,0,
00:00:01.348,0.00480584055185318,0.0157746039330959,-0.000336886965669692,0,
00:00:01.352,0.00398864317685366,0.00243578525260091,-0.00466396939009428,0,
00:00:01.356,-0.00686147483065724,-0.00820589996874332,-0.000952376401983202,0,
00:00:01.36,-0.0016635034698993,-0.0010857485467568,0.00888534355908632,0,
00:00:01.364,0.00549055216833949,0.00441499287262559,-0.000256388128036633,0,
00:00:01.368,0.000113597139716148,-0.00400112522765994,-0.00664220610633492,0,
00:00:01.372,0.00010110271978192,-0.00156587082892656,0.00224712816998363,0,
00:00:01.376,-0.00379016390070319,-0.00469554727897048,0.00301121035590768,0,
00:00:01.38,-0.00443251943215728,-6.74470429657958E-05,0.00101761310361326,0,
00:00:01.384,4.10468855989166E-05,0.00366014475002885,-0.00290441745892167,0,
00:00:01.388,0.00526894256472588,0.006229636259377,0.00253968848846853,0,
00:00:01.392,0.00359662715345621,0.00243353378027678,-0.00357915670610964,0,
00:00:01.396,0.00450618378818035,0.000535468163434416,0.000114837959699798,0,
00:00:01.4,-0.00988278537988663,-0.00314441090449691,0.000893763441126794,0,
00:00:01.404,-0.00774092739447951,-0.0104950023815036,0.000560150074306875,0,
00:00:01.408,0.0095492685213685,-0.00107759749516845,6.24475287622772E-05,0,
00:00:01.412,0.00888550095260143,0.00836403667926788,-0.00229534483514726,0,
00:00:01.416,-0.00414213165640831,0.00301678385585546,-0.00242041563615203,0,
00:00:01.42,-0.00597994960844517,-0.000383245467673987,0.00754778645932674,0,
00:00:01.424,-0.00100124254822731,-0.00173083110712469,0.00358408340252936,0,
00:00:01.428,-0.00167551334016025,-0.00158049969468266,-0.00607558526098728,0,
00:00:01.432,-0.00364577234722674,-0.00697412667796016,-0.00244299997575581,0,
00:00:01.436,0.00392510648816824,0.00392760941758752,0.00176879018545151,0,
00:00:01.44,0.00942419562488794,0.0115782944485545,-0.00333041255362332,0,
00:00:01.444,0.00114018609747291,-0.00329606886953115,0.00333926314488053,0,
00:00:01.448,-0.00109166034962982,-0.00332711241208017,-0.0019265350420028,0,
00:00:01.452,-0.00370646244846284,0.00157020310871303,0.00159518385771662,0,
00:00:01.456,-0.00800633244216442,-0.00721406983211637,0.00156403623986989,0,
00:00:01.46,-0.00227480195462704,-0.00738380057737231,-0.0016813378315419,0,
00:00:01.464,0.00317836250178516,0.0081316577270627,0.00348027958534658,0,
00:00:01.468,0.00699961418285966,0.00987442303448915,-0.00121531856711954,0,
00:00:01.472,0.00153115589637309,-0.00165325903799385,-0.00211776164360344,0,
00:00:01.476,0.00340994796715677,0.00236797914840281,0.000844853871967644,0,
00:00:01.48,-0.00323157082311809,-0.00620693247765303,-0.0040812618099153,0,
00:00:01.484,-0.00639626430347562,-0.00929050799459219,-0.00103416421916336,0,
00:00:01.488,-0.00260797864757478,-0.00137672608252615,0.00426256936043501,0,
00:00:01.492,0.003460843116045,0.00704689649865031,0.00317998114041984,0,
00:00:01.496,0.00731335440650582,0.0146700907498598,0.000467150064650923,0,
00:00:01.5,-0.000894935335963964,-0.0014645776245743,-0.00142855162266642,0,
00:00:01.504,-0.0101757105439901,-0.0139452358707786,-0.00185978191439062,0,
00:00:01.508,-0.00147438072599471,-0.00701426761224866,-0.00330748758278787,0,
00:00:01.512,0.00575498351827264,0.00408687395974994,0.00377412838861346,0,
00:00:01.516,0.00665993615984917,0.0126476362347603,0.000100853998446837,0,
00:00:01.52,0.00115328328683972,0.00227360357530415,-0.00286022038199008,0,
00:00:01.524,-0.00313093862496316,-0.00413672020658851,-0.000580271414946765,0,
00:00:01.528,-0.00616009952500463,-0.00953061319887638,0.00158544059377164,0,
00:00:01.532,-0.00475062942132354,-0.00763844046741724,0.0124440127983689,0,
00:00:01.536,-0.000987219274975359,0.00667379936203361,-0.00864387862384319,0,
00:00:01.54,0.00854714214801788,0.0104476409032941,-0.00609588250517845,0,
00:00:01.544,0.00811713468283415,0.00438756449148059,-0.00364492018707097,0,
00:00:01.548,-0.0013375609414652,-0.00195138866547495,0.00366223976016045,0,
00:00:01.552,-0.00672069145366549,-0.004782326053828,0.00228032539598644,0,
00:00:01.556,0.00222566677257419,-0.00414479989558458,0.00417984463274479,0,
00:00:01.56,-0.0059361127205193,-0.00386255024932325,-0.000595568562857807,0,
00:00:01.564,-0.00265909265726805,0.00246422155760229,0.00276253325864673,0,
00:00:01.568,0.00603683199733496,0.00539681222289801,-0.00272880750708282,0,
00:00:01.572,0.0040224464610219,-0.000111748762719799,-0.00339095224626362,0,
00:00:01.576,-0.00625368161126971,-0.00565616879612207,-0.00175596936605871,0,
00:00:01.58,0.00146135583054274,0.00289684114977717,-0.00192619208246469,0,
00:00:01.584,0.00440908456221223,0.00517433322966099,0.00322197144851089,0,
00:00:01.588,-0.00323432683944702,-0.00745029980316758,0.000916965887881815,0,
00:00:01.592,-0.00239995587617159,-0.00102195830550045,0.00504712481051683,0,
00:00:01.596,0.00429829163476825,0.0111440699547529,0.00104539270978421,0,
00:00:01.6,0.0018104255432263,0.007820013910532,-0.0068611460737884,0,
00:00:01.604,-0.00150842871516943,-0.01262819301337,-0.00177250150591135,0,
00:00:01.608,-0.00482087070122361,-0.0106583796441555,0.000856206228490919,0,
00:00:01.612,-0.00209473771974444,-0.00222603278234601,-0.000487677025375888,0,
00:00:01.616,-0.00098205276299268,0.00208432809449732,0.00316804088652134,0,
00:00:01.62,0.00450035510584712,0.00584430946037173,0.00206359010189772,0,
00:00:01.624,0.00379570480436087,0.00571855437010527,0.00204943167045712,0,
00:00:01.628,-0.00100614794064313,0.00494966050609946,-0.00328696588985622,0,
00:00:01.632,0.000826052215415984,-0.000246696145040914,-0.00515859294682741,0,
00:00:01.636,-0.000304848304949701,-0.00384092214517295,0.000970433000475168,0,
00:00:01.64,0.000718627474270761,-0.00221779523417354,0.00241978908888996,0,
00:00:01.644,-0.00341501529328525,-0.00454090489074588,0.00164167431648821,0,
00:00:01.648,-0.00243881903588772,-0.00196232995949686,-0.0038069027941674,0,
00:00:01.652,-0.00225507281720638,0.00103845074772835,0.00339857977814972,0,
00:00:01.656,-0.000818392029032111,-0.00374693656340241,0.00456010550260544,0,
00:00:01.66,0.00309421285055578,0.00400519417598844,-0.000113408350443933,0,
00:00:01.664,0.0126294996589422,0.016176201403141,-0.00754634197801352,0,
00:00:01.668,0.0052974745631218,0.00608380418270826,-0.00174963416066021,0,
00:00:01.672,-0.0119564896449447,-0.0199311804026365,0.00132247037254274,0,
00:00:01.676,-0.010243589989841,-0.0108415735885501,0.00211754627525806,0,
00:00:01.68,-0.00478285131976008,0.000525016337633133,0.00152658834122121,0,
00:00:01.684,0.00316807697527111,0.00672300346195698,-0.00158364395610988,0,
00:00:01.688,0.008857904933393,0.00902185030281544,0.00165447220206261,0,
00:00:01.692,0.00991615932434797,0.0100121814757586,0.00306980963796377,0,
00:00:01.696,-0.00327241304330528,-0.0116739999502897,-0.00442646956071258,0,
00:00:01.7,-0.00599835021421313,-0.00504278996959329,-0.000763349060434848,0,
00:00:01.704,-0.00381908239796758,-0.000864710891619325,0.000469927937956527,0,
00:00:01.708,-0.000641547318082303,-0.000860367203131318,0.000576621736399829,0,
00:00:01.712,-0.000618426769506186,0.00364914000965655,0.000301248335745186,0,
00:00:01.716,0.00601959461346269,0.00281960633583367,-0.00205250945873559,0,
00:00:01.72,0.00101576454471797,0.00264697358943522,0.00185744650661945,0,
00:00:01.724,-0.00317817903123796,-0.00510565610602498,0.00359328580088913,0,
00:00:01.728,-0.00151380023453385,-0.00530478777363896,-0.0018577438313514,0,
00:00:01.732,0.00275477464310825,0.00646437425166368,-0.00247249961830676,0,
00:00:01.736,0.00373469130136073,0.00621377024799585,-0.00322770909406245,0,
00:00:01.74,-0.000265314563876018,-0.00473187863826752,0.00431857164949179,0,
00:00:01.744,-0.0071429661475122,-0.00500176707282662,0.00064625614322722,0,
00:00:01.748,-0.00535620283335447,-0.00997449923306704,-0.000526884687133133,0,
00:00:01.752,0.00356059451587498,0.00501762377098203,-0.00261704274453223,0,
00:00:01.756,0.0157560370862484,0.0274342615157366,0.00177399534732103,0,
00:00:01.76,-0.000367160973837599,-0.00170659390278161,0.0017291804542765,0,
00:00:01.764,-0.0159011762589216,-0.0259507931768894,-0.00170357350725681,0,
00:00:01.768,-0.0075816847383976,-0.0105273351073265,0.0033614079002291,0,
00:00:01.772,0.00724266562610865,0.00675333011895418,0.000763587828259915,0,
00:00:01.776,0.00810319185256958,0.0172939300537109,-0.00618750788271427,0,
00:00:01.78,0.00564810307696462,0.00363636296242476,0.00122828246094286,0,
00:00:01.784,-0.00499260332435369,-0.00527800293639302,-0.000463559379568323,0,
00:00:01.788,-0.000712417240720242,-0.00279087619856,-0.00192634970881045,0,
00:00:01.792,-0.00344219827093184,0.0024963126052171,0.00283524463884532,0,
00:00:01.796,-0.00208590109832585,-0.00473382929340005,0.00260383635759354,0,
00:00:01.8,9.12679242901504E-05,-0.00540420832112432,0.000741340743843466,0,
00:00:01.804,0.00142923358362168,-3.05342036881484E-05,-0.00288085779175162,0,
00:00:01.808,-0.000495062442496419,0.00378241366706789,-0.00145096716005355,0,
00:00:01.812,0.000851219054311514,0.00419900007545948,0.00464672921225429,0,
00:00:01.816,0.00583748333156109,0.00439833430573344,-0.000539911503437907,0,
00:00:01.82,0.00151103013195097,0.00631518103182316,-0.00211705313995481,0,
00:00:01.824,-0.00692498963326216,-0.00690787006169558,-0.00366686843335629,0,
00:00:01.828,-0.00420959666371346,-0.0145896309986711,0.00158097024541348,0,
00:00:01.832,0.00246925721876323,-0.000345757638569921,-0.00197223387658596,0,
00:00:01.836,0.00304226647131145,0.00539568578824401,0.0070641883648932,0,
00:00:01.84,0.00137783144600689,0.00533498870208859,0.00114053068682551,0,
00:00:01.844,-0.00029449159046635,-0.00151045457459986,2.8878059310955E-05,0,
00:00:01.848,-0.00108566775452346,0.0058778771199286,-0.00455757044255733,0,
00:00:01.852,-0.00100402347743511,0.00167970883194357,-0.0052751530893147,0,
00:00:01.856,-0.000468925078166649,-0.00926943868398666,0.0016124410321936,0,
00:00:01.86,-0.00199781893752515,0.0013988686259836,0.00322144944220781,0,
00:00:01.864,0.00443183071911335,0.00387178407981992,0.0042532435618341,0,
00:00:01.868,6.83192556607537E-05,-0.00627099862322211,-0.00564352283254266,0,
00:00:01.872,-0.00329662323929369,-0.00313088251277804,0.00159655639436096,0,
00:00:01.876,0.00100366002880037,0.00383022706955671,0.00411356380209327,0,
00:00:01.88,0.00137009518221021,0.00196837331168354,-0.00156587979290634,0,
00:00:01.884,0.000445343001047149,0.00573249021545053,-0.000488370831590146,0,
00:00:01.888,-0.000391777924960479,0.00114738254342228,-0.00548687996342778,0,
00:00:01.892,-0.000682887679431587,-0.00509617896750569,-0.00172780768480152,0,
00:00:01.896,-0.000509213656187058,-0.00625030789524317,0.00846628006547689,0,
00:00:01.9,-0.000150523759657517,0.00087743008043617,-0.00238632736727595,0,
00:00:01.904,-0.00192897883243859,0.000867388676851988,-0.000352805538568646,0,
00:00:01.908,0.00224475585855544,0.0083959735929966,0.000145394486025907,0,
00:00:01.912,0.00394863076508045,0.00257984874770045,4.13936977565754E-05,0,
00:00:01.916,-0.00168705347459763,-0.00754011701792479,-0.000144810794154182,0,
00:00:01.92,-0.00456632766872644,-0.00751419924199581,-0.00228842790238559,0,
00:00:01.924,-0.00137669581454247,-0.000591779360547662,-0.00025609164731577,0,
00:00:01.928,0.00582598336040974,0.00431216135621071,0.00979880150407553,0,
00:00:01.932,0.00281564937904477,0.00918797869235277,-0.00198580743744969,0,
00:00:01.936,-0.00336275575682521,0.00102607614826411,-0.00748358527198434,0,
00:00:01.94,-0.00525852851569653,-0.00514120608568192,-0.00604699039831758,0,
00:00:01.944,-0.00106638087891042,0.000427521270466968,0.000628226902335882,0,
00:00:01.948,0.00449879234656692,-0.00251698424108326,0.00475437380373478,0,
00:00:01.952,0.00335611589252949,-0.0017978607211262,0.00898737274110317,0,
00:00:01.956,0.00467424746602774,0.00196452415548265,0.0047136340290308,0,
00:00:01.96,-0.00747654447332025,-0.000917629629839212,-0.00948748365044594,0,
00:00:01.964,-0.00320830382406712,-0.000345840817317367,-0.00510335760191083,0,
00:00:01.968,-0.00204097758978605,-0.00139603542629629,-0.000854007841553539,0,
00:00:01.972,0.00149016350042075,-0.00112356746103615,0.00168164412025362,0,
00:00:01.976,0.00528569845482707,0.00634726276621223,0.0022738182451576,0,
00:00:01.98,0.00275660608895123,0.00364539865404367,0.00156425347086042,0,
00:00:01.984,0.00149777496699244,0.00338474567979574,0.000444565346697345,0,
00:00:01.988,-0.00429686671122909,-0.00296956277452409,-0.000412688066717237,0,
00:00:01.992,-0.00387206673622131,-0.0103003205731511,-0.000739625713322312,0,
00:00:01.996,0.000791313010267913,-0.00308259483426809,-0.000613098905887455,0,
00:00:02,0.00311739044263959,-0.000491499609779567,-0.000275081081781536,0,
00:00:02.004,-0.00791452825069427,0.00115390494465828,-0.00203442759811878,0,
00:00:02.008,-0.0021425939630717,0.00221329811029136,0.00218435027636588,0,
00:00:02.012,0.00837139692157507,0.00865715276449919,0.00393533101305366,0,
00:00:02.016,0.00826364383101463,0.00632131053134799,-0.00166914728470147,0,
00:00:02.02,-0.00120115373283625,-0.00349203334189951,-0.00246275193057954,0,
00:00:02.024,-0.00669648451730609,-0.0081617496907711,-0.00333051336929202,0,
00:00:02.028,8.60169893712737E-05,0.00182227685581893,0.00211677956394851,0,
00:00:02.032,-0.00197298708371818,-0.0034817848354578,0.00253559160046279,0,
00:00:02.036,-0.000978190684691072,-0.0018841007258743,-0.000986391212791204,0,
00:00:02.04,-0.00157236075028777,0.00297810649499297,0.00370740215294063,0,
00:00:02.044,0.00325307110324502,-0.00377269834280014,-0.00133852520957589,0,
00:00:02.048,0.00282661523669958,0.00445329770445824,-0.000296849204460159,0,
00:00:02.052,-0.00130290479864925,0.00411844439804554,-0.00341519946232438,0,
00:00:02.056,0.00525639951229095,0.00519323162734509,-0.00383289414457977,0,
00:00:02.06,-0.00373187521472573,-0.00542095210403204,0.000458555557997897,0,
00:00:02.064,-0.00833827257156372,-0.00972992926836014,0.00536557333543897,0,
00:00:02.068,0.00238074292428792,-0.000198094581719488,0.00344539899379015,0,
00:00:02.072,0.00624297978356481,0.0146650318056345,0.00426615215837955,0,
00:00:02.076,-0.00178107293322682,-0.0034797650296241,-0.00799952540546656,0,
00:00:02.08,0.000268886476987973,-0.0081021748483181,-0.00357223115861416,0,
00:00:02.084,9.92799323284999E-05,-0.00491421855986118,-7.85126103437506E-05,0,
00:00:02.088,0.00164403056260198,0.00850551947951317,-0.00040245967102237,0,
00:00:02.092,-0.00259764795191586,0.00606189435347915,0.00380587368272245,0,
00:00:02.096,-3.56786449628999E-06,0.000200967799173668,0.00271879974752665,0,
00:00:02.1,-0.000177055218955502,-0.00552666187286377,0.000330790237057954,0,
00:00:02.104,-0.00260509876534343,-0.00184053101111203,0.00285256654024124,0,
00:00:02.108,-0.00467090541496873,-0.00461109634488821,-0.00974616408348084,0,
00:00:02.112,0.00547100929543376,-2.73287532763788E-05,-0.000407640705816448,0,
00:00:02.116,0.00533989677205682,0.00564854126423597,0.00269750086590648,0,
00:00:02.12,0.00170168874319643,0.00202789390459657,0.00450225686654449,0,
00:00:02.124,0.000622370222117752,0.00263945409096777,-0.00100873014889657,0,
00:00:02.128,-0.00670468341559172,-0.000132397486595437,-0.00196681986562908,0,
00:00:02.132,-0.00179712532553822,-0.000138049988890998,-0.0010792015818879,0,
00:00:02.136,0.000627136032562703,-0.00654387334361672,2.96981943392893E-05,0,
00:00:02.14,0.00134235504083335,0.000929122848901898,0.000642403436359018,0,
00:00:02.144,0.00314713781699538,0.00141036149580032,-0.00140000006649643,0,
00:00:02.148,-0.00152574561070651,-0.00184849789366126,0.00234176451340318,0,
00:00:02.152,-0.00172661303076893,0.00143198727164418,0.00164675049018115,0,
00:00:02.156,0.00155899568926543,0.00109164847526699,-4.40611365775112E-05,0,
00:00:02.16,-0.00768941175192595,-0.00618490297347307,0.00096920708892867,0,
00:00:02.164,0.0030612307600677,-0.000861171283759177,-0.00318075157701969,0,
00:00:02.168,0.00942536257207394,0.00821705162525177,-0.00232448801398277,0,
00:00:02.172,0.00121960032265633,0.00720745651051402,-0.000214838582905941,0,
00:00:02.176,0.0010011822450906,0.00184606702532619,0.00122476147953421,0,
00:00:02.18,-0.00567842973396182,-0.00710192648693919,-0.000571226933971047,0,
00:00:02.184,-0.00753516564145684,-0.00923867616802454,0.000863705179654062,0,
00:00:02.188,-0.00642955722287297,-0.00950043741613626,-0.000343680352671072,0,
00:00:02.192,0.00651191966608167,0.0104371104389429,0.00955169927328825,0,
00:00:02.196,0.0075780963525176,0.00559843145310879,0.000191855753655545,0,
00:00:02.2,0.00364242633804679,0.00263415137305856,-0.00512714963406324,0,
00:00:02.204,0.00152151403017342,0.0107294488698244,-0.00748845748603344,0,
00:00:02.208,-0.00682311551645398,-0.0110040213912725,-0.00492808688431978,0,
00:00:02.212,-0.00454774778336287,-0.00984137039631605,0.00381207442842424,0,
00:00:02.216,0.00396198919042945,-0.000146799487993121,0.00754943257197738,0,
00:00:02.22,0.000573763332795352,0.00572636304423213,0.00142178894020617,0,
00:00:02.224,0.0015971913235262,0.00367318256758153,-0.00320883863605559,0,
00:00:02.228,-0.00446510082110763,0.000234231541980989,0.000364962179446593,0,
00:00:02.232,0.000293923250865191,-0.00593711016699672,0.000548590032849461,0,
00:00:02.236,-0.00037891702959314,-0.00424561789259315,-0.000170619096024893,0,
00:00:02.24,0.00328161171637475,0.00608932739123702,-0.000651777489110827,0,
00:00:02.244,-6.52540256851353E-05,0.0052376901730895,-0.0027154537383467,0,
00:00:02.248,0.00179024459794164,-0.000950736459344625,0.00165971461683512,0,
00:00:02.252,0.000177532579982653,-4.32474334957078E-05,0.00168618571478873,0,
00:00:02.256,0.000734787608962506,0.00080723682185635,0.000434062530985102,0,
00:00:02.26,0.000511730089783669,0.00237537547945976,0.00151551875751466,0,
00:00:02.264,-0.00662926817312837,-0.0110601549968123,-0.0069731823168695,0,
00:00:02.268,-0.00566718820482492,-0.0056353909894824,0.00172451662365347,0,
00:00:02.272,0.00298047275282443,0.0043518808670342,0.0071253445930779,0,
00:00:02.276,0.00506120221689343,0.00617529498413205,-0.0046152314171195,0,
00:00:02.28,0.00339244096539915,0.00790860503911972,0.000448188686277717,0,
00:00:02.284,-0.00137007026933134,-0.00763270538300276,-0.00391561537981033,0,
00:00:02.288,0.000740362156648189,-0.00310843228362501,0.00113485299516469,0,
00:00:02.292,-0.002275271108374,0.000610672810580581,0.00219164951704443,0,
00:00:02.296,0.000760160735808313,0.00203820038586855,0.00135223602410406,0,
00:00:02.3,0.00443159230053425,0.0120021300390363,-0.00193885003682226,0,
00:00:02.304,-0.0025032761041075,-0.00319105014204979,0.001330676372163,0,
00:00:02.308,-0.0082437926903367,-0.0146728474646807,-0.00123697705566883,0,
00:00:02.312,0.00147021061275154,-0.00675288261845708,0.00369916437193751,0,
00:00:02.316,0.00112219387665391,0.00703863659873605,0.000773180276155472,0,
00:00:02.32,-0.000302417232887819,0.00334016722626984,-0.00429659429937601,0,
00:00:02.324,0.00162536941934377,0.00298140640370548,-0.0030163349583745,0,
00:00:02.328,0.00041927769780159,0.00220020185224712,-0.000223160604946315,0,
00:00:02.332,0.00785976927727461,0.00277817831374705,0.00163468136452138,0,
00:00:02.336,0.00418459065258503,0.00768300332129002,0.0019651644397527,0,
00:00:02.34,-0.00786606781184673,-0.0108836311846972,0.00123728381004184,0,
00:00:02.344,-0.00942222587764263,-0.0117268096655607,0.000223460112465546,0,
00:00:02.348,-0.000497838424053043,-0.000405944330850616,-0.00257448968477547,0,
00:00:02.352,0.00132507574744523,0.000860344327520579,0.00125152850523591,0,
00:00:02.356,0.0055977925658226,0.00929808616638184,0.00108986115083098,0,
00:00:02.36,0.00364984199404716,0.00830925162881613,-0.00211639050394297,0,
00:00:02.364,0.00242029153741896,0.000622170511633158,0.00120310194324702,0,
00:00:02.368,-0.001710623386316,-0.00686750654131174,0.000822975009214133,0,
00:00:02.372,-0.00999458972364664,-0.00786037836223841,0.00182201957795769,0,
00:00:02.376,0.000697092094924301,9.1518035333138E-05,-0.0027908249758184,0,
00:00:02.38,0.00572396814823151,0.00713347876444459,-0.0023596384562552,0,
00:00:02.384,-0.00130541808903217,-0.00533279124647379,-0.000451899075414985,0,
00:00:02.388,0.00109987263567746,-0.000121755358122755,0.000996702816337347,0,
00:00:02.392,0.000741022522561252,0.00683880457654595,0.00139516452327371,0,
00:00:02.396,0.0039443694986403,0.00496933003887534,0.00305505003780127,0,
00:00:02.4,-0.00470737461000681,-0.00803684256970882,-0.00169961818028241,0,
00:00:02.404,-0.00609337352216244,-0.00986918341368437,-0.0039962911978364,0,
00:00:02.408,0.00125277391634881,0.0100285010412335,0.00130258675199002,0,
00:00:02.412,0.00543466908857226,0.00894296169281006,0.00414482410997152,0,
00:00:02.416,0.000525618612300605,-0.0068153808824718,-0.000963459839113057,0,
00:00:02.42,-0.000922881125006825,-0.00675486912950873,0.00024112593382597,0,
00:00:02.424,-0.00292272563092411,-0.00391051825135946,-0.00503894127905369,0,
00:00:02.428,-0.000439963216194883,-3.72686690752744E-06,0.000389192078728229,0,
00:00:02.432,0.00369050283916295,0.00903421733528376,1.45053427331732E-05,0,
00:00:02.436,-2.27459477173397E-05,0.00803912989795208,0.00364160304889083,0,
00:00:02.44,0.00357581325806677,-0.00173553533386439,0.00424921698868275,0,
00:00:02.444,0.00200898363254964,0.00116248789709061,-0.00427021738141775,0,
00:00:02.448,-0.00920179579406977,-0.0121553568169475,-0.00127113331109285,0,
00:00:02.452,-0.0072934958152473,-0.00869877729564905,-0.000196849039639346,0,
00:00:02.456,0.00726037984713912,0.00778292445465922,0.00218876171857119,0,
00:00:02.46,0.0083861043676734,0.00984519347548485,-0.00181361800059676,0,
00:00:02.464,-0.00276481290347874,-0.00352484034374356,0.000570244796108454,0,
00:00:02.468,-0.00408871285617352,-0.00151162932161242,-0.00413202168419957,0,
00:00:02.472,-0.00390487397089601,0.00177087949123234,0.00123313360381871,0,
00:00:02.476,0.00249156006611884,-0.00179440015926957,0.0045939045958221,0,
00:00:02.48,0.00738476077094674,0.00064729293808341,-0.00239652651362121,0,
00:00:02.484,-0.00235783774405718,-0.00208764802664518,-0.00148216006346047,0,
00:00:02.488,-0.00558833777904511,-0.00502992467954755,0.00688569433987141,0,
00:00:02.492,0.000421330885728821,0.00258760387077928,-0.00017608363123145,0,
00:00:02.496,3.51559137925506E-05,0.00869422312825918,-0.00765944784507155,0,
00:00:02.5,0.00353707442991436,0.00315534067340195,-0.00147933186963201,0,
00:00:02.504,0.00201877858489752,-0.00478674378246069,0.00172919791657478,0,
00:00:02.508,-0.000331471004756168,-0.00500307278707623,0.000296820944640785,0,
00:00:02.512,-0.00371000193990767,-0.00425966968759894,0.00142586731817573,0,
00:00:02.516,-0.00172368239145726,0.000479824229842052,0.00599763263016939,0,
00:00:02.52,0.00485283602029085,0.00761976605281234,0.00136080128140748,0,
00:00:02.524,-0.000122926634503528,0.00167152984067798,-0.00303076556883752,0,
00:00:02.528,0.00240485067479312,0.00278100674040616,-0.00836104154586792,0,
00:00:02.532,-0.00327816209755838,-0.00393785256892443,-0.000890821625944227,0,
00:00:02.536,-0.00565205840393901,-0.00458068121224642,0.00272078835405409,0,
00:00:02.54,-0.00156635814346373,-0.00225028092972934,0.00314681208692491,0,
00:00:02.544,-0.00190761708654463,-0.00792329013347626,0.00183877814561129,0,
00:00:02.548,0.00536551652476192,0.0035309586673975,-0.00185883173253387,0,
00:00:02.552,0.00987124536186457,0.0165167190134525,0.00321277952753007,0,
00:00:02.556,0.00282440194860101,0.00482007442042232,0.000650070724077523,0,
00:00:02.56,-0.00587005726993084,-0.00428605219349265,-0.00628220615908504,0,
00:00:02.564,-0.00605745706707239,-0.00935025047510862,-0.000928251422010362,0,
00:00:02.568,-0.000686604238580912,-0.00551097001880407,0.00145151268225163,0,
00:00:02.572,-0.0014421259984374,-0.000131556196720339,0.00383342010900378,0,
00:00:02.576,-0.0015045297332108,0.0052047073841095,-0.000947412278037518,0,
00:00:02.58,0.00191041955258697,-0.000480280723422766,-0.00359149882569909,0,
00:00:02.584,0.00564635079354048,-0.00164388748817146,0.00134796707425267,0,
00:00:02.588,0.00290850992314518,0.00783427897840738,0.00190252007450908,0,
00:00:02.592,-0.000672905356623232,0.00140799593646079,0.000804849376436323,0,
00:00:02.596,-0.00464464258402586,-0.00446481117978692,-0.000327750371070579,0,
00:00:02.6,0.00156062422320247,0.000834738195408136,0.00123316433746368,0,
00:00:02.604,0.000462808471638709,0.00170002807863057,-0.00479424512013793,0,
00:00:02.608,-0.00132030667737126,-0.00380971282720566,5.19097852702544E-07,0,
00:00:02.612,-0.00379997910931706,-0.00346648250706494,0.00153595150914043,0,
00:00:02.616,-0.00104396056849509,-0.00301535986363888,0.00130746606737375,0,
00:00:02.62,0.00376629992388189,0.00323047745041549,0.0004810290702153,0,
00:00:02.624,-0.0014648949727416,-0.00457016844302416,0.00185476697515696,0,
00:00:02.628,0.00220082607120276,0.00561935268342495,-0.00249323854222894,0,
00:00:02.632,-8.83425091160461E-05,0.0124737462028861,-0.00209167250432074,0,
00:00:02.636,0.00242656795307994,-0.00333021907135844,-0.00038043869426474,0,
00:00:02.64,0.00289663090370595,0.000112397792690899,-0.00119770294986665,0,
00:00:02.644,-0.00304626324214041,-0.00329823675565422,0.00316636101342738,0,
00:00:02.648,-0.00343730696476996,-0.011211353354156,0.00244229286909103,0,
00:00:02.652,-0.00363505096174777,-0.00183370534796268,0.000359767902409658,0,
00:00:02.656,0.00234715430997312,0.0018426050664857,-0.00112603162415326,0,
00:00:02.66,0.000911411480046809,0.00711689749732614,0.000600606319494545,0,
00:00:02.664,0.00345551315695047,0.00292296893894672,-0.00296325818635523,0,
00:00:02.668,0.00148746510967612,0.00494168605655432,-0.00395297864452004,0,
00:00:02.672,0.00123821117449552,-0.000313946977257729,0.00420598033815622,0,
00:00:02.676,-0.00384687003679574,-0.00839472468942404,-0.00103207118809223,0,
00:00:02.68,-0.00322426133789122,-0.002756915288046,0.00196709088049829,0,
00:00:02.684,-0.000822275120299309,0.000614543503616005,0.00143857183866203,0,
00:00:02.688,-0.00099471933208406,0.0018852271605283,-0.00203757686540484,0,
00:00:02.692,0.00368798384442925,-0.00247342535294592,0.00315485126338899,0,
00:00:02.696,0.00501613970845938,0.00891137961298227,0.000702829973306507,0,
00:00:02.7,0.0028125299140811,0.00344589934684336,-0.00407882081344724,0,
00:00:02.704,-0.00668821157887578,-0.00738628441467881,-0.00276114698499441,0,
00:00:02.708,-0.00713786482810974,-0.0100267538800836,0.00199088361114264,0,
00:00:02.712,-0.000762806681450456,0.000815292587503791,-0.00242354488000274,0,
00:00:02.716,0.00805618800222874,0.0118283117190003,0.00220019184052944,0,
00:00:02.72,0.00282403896562755,0.00340007781051099,0.0025887293741107,0,
00:00:02.724,-0.00040683601400815,-0.0045591457746923,0.001167798996903,0,
00:00:02.728,-0.00170648470520973,-0.00437778048217297,-0.000335118907969445,0,
00:00:02.732,-0.00367323332466185,-0.0015434370143339,-0.00110148871317506,0,
00:00:02.736,0.00115588982589543,0.000886381778400391,-0.00106621987652034,0,
00:00:02.74,0.00577559880912304,0.0059849014505744,-0.000571320357266814,0,
00:00:02.744,-0.00332646770402789,-0.00453472090885043,-0.00210004160180688,0,
00:00:02.748,-0.00360854691825807,0.00134277553297579,0.00228866678662598,0,
00:00:02.752,-0.00312557769939303,-0.00301339360885322,0.00409773737192154,0,
00:00:02.756,0.00310779619030654,-0.000527288997545838,-0.00154093420132995,0,
00:00:02.76,0.00143407878931612,0.00404192600399256,-0.00448475684970617,0,
00:00:02.764,0.00354638393037021,0.00256443745456636,0.000707937870174646,0,
00:00:02.768,0.00123903225176036,-0.000131367196445353,0.00173747586086392,0,
00:00:02.772,-0.00120502826757729,-0.00176023773383349,0.0010248051257804,0,
00:00:02.776,0.00198714667931199,0.00433790311217308,4.36223344877362E-05,0,
00:00:02.78,-0.00151077669579536,-0.00284321396611631,0.0015439132694155,0,
00:00:02.784,-0.00993636529892683,-0.0110219363123178,-0.00257208221592009,0,
00:00:02.788,-0.00755445286631584,-0.00748741021379828,-0.00406145351007581,0,
00:00:02.792,0.00760973151773214,0.00631856871768832,0.00177159893792123,0,
00:00:02.796,0.0156984105706215,0.0164077430963516,0.00681767798960209,0,
00:00:02.8,0.00523545267060399,0.0113376770168543,-0.00459143845364451,0,
00:00:02.804,-0.00708833942189813,-0.00521721784025431,-0.00135877681896091,0,
00:00:02.808,-0.0149570722132921,-0.0216382332146168,-0.00168040697462857,0,
00:00:02.812,-0.001023079152219,0.00105673575308174,0.00287327659316361,0,
00:00:02.816,0.00676176324486732,0.00115422997623682,0.00229465775191784,0,
00:00:02.82,0.0028896601870656,0.000780663685873151,0.0024240727070719,0,
00:00:02.824,-0.00121393403969705,0.00522521417587996,-0.000942925689741969,0,
00:00:02.828,0.00176820310298353,0.00172633130569011,-0.00705480994656682,0,
00:00:02.832,0.00100103684235364,0.00682599702849984,-0.000740941381081939,0,
00:00:02.836,-0.000460695358924568,-0.00181781593710184,3.98214615415782E-05,0,
00:00:02.84,-0.00331979710608721,-0.00732981832697988,0.00435354467481375,0,
00:00:02.844,0.000825999421067536,-0.00240116729401052,0.00504211708903313,0,
00:00:02.848,0.00316248438321054,-0.00204288843087852,-0.00171288324054331,0,
00:00:02.852,-0.00380751420743763,-0.00110641901846975,-0.00524245714768767,0,
00:00:02.856,-8.57837148942053E-05,0.00265838578343391,0.00201535713858902,0,
00:00:02.86,0.00297525292262435,0.00827674102038145,-0.000675127317663282,0,
00:00:02.864,-0.00129466131329536,0.00315804104320705,-0.000668018474243581,0,
00:00:02.868,0.000605619221460074,-0.00239778682589531,6.65207699057646E-05,0,
00:00:02.872,-0.00649039074778557,-0.0129051748663187,-0.00150280259549618,0,
00:00:02.876,0.000791156373452395,-0.00403135549277067,0.00466848630458117,0,
00:00:02.88,0.0121430736035109,0.0173703413456678,1.60788767971098E-05,0,
00:00:02.884,0.00165234075393528,0.0145424120128155,-0.00352268875576556,0,
00:00:02.888,-0.00920348148792982,-0.0202650167047977,0.00283256894908845,0,
00:00:02.892,-0.0104227969422936,-0.012657062150538,-0.000766590470448136,0,
00:00:02.896,0.00359780434519053,0.00180636020377278,-0.00124255556147546,0,
00:00:02.9,0.00461707031354308,0.00508906180039048,0.00362261640839279,0,
00:00:02.904,0.00626680580899119,0.00816571898758411,-0.00786997564136982,0,
00:00:02.908,0.00436922814697027,0.0042063775472343,0.00124517816584557,0,
00:00:02.912,-0.0015291697345674,0.003548180218786,0.00136150605976582,0,
00:00:02.916,-0.0089598847553134,-0.00929057691246271,0.00423963833600283,0,
00:00:02.92,-0.00464041996747255,-0.00881932955235243,0.00611167307943106,0,
00:00:02.924,0.00107338919769973,0.00334390136413276,-0.00684273382648826,0,
00:00:02.928,0.00808773376047611,0.00912906043231487,-0.00345301581546664,0,
00:00:02.932,0.00176001433283091,0.000636624754406512,-0.000625451735686511,0,
00:00:02.936,-0.00153663160745054,-0.0034288561437279,-0.00108027528040111,0,
00:00:02.94,-0.00227815588004887,-0.00979668367654085,0.00336573575623333,0,
00:00:02.944,-0.00360008981078863,7.41997209843248E-05,0.00677352957427502,0,
00:00:02.948,0.00161472684703767,0.00920133758336306,-0.00554167106747627,0,
00:00:02.952,0.00420645717531443,0.00527017097920179,-0.000293383549433202,0,
00:00:02.956,0.00312563986517489,0.00142393074929714,-0.00421973643824458,0,
00:00:02.96,-0.00583469867706299,-0.0120547087863088,-0.000876626407261938,0,
00:00:02.964,-0.00425095437094569,-0.00156984780915082,0.00855213031172752,0,
00:00:02.968,-0.00022121294750832,0.00487622432410717,-0.000736599264200777,0,
00:00:02.972,0.000323547661537305,-0.000891394971404225,-0.000784047297202051,0,
00:00:02.976,0.00473972037434578,0.00200685160234571,-0.00382131687365472,0,
00:00:02.98,0.00327225774526596,0.00354731548577547,-0.00185867457184941,0,
00:00:02.984,0.000331392657244578,-0.00607257522642612,-0.00143728719558567,0,
00:00:02.988,0.000393747846828774,0.00554877240210772,-0.000331779039697722,0,
00:00:02.992,-0.00409492757171392,-0.00192338100168854,0.0113953528925776,0,
00:00:02.996,-0.00305748707614839,-0.00277179386466742,0.00646717194467783,0,
00:00:03,-0.000532295845914632,-0.00322139007039368,-0.0140381511300802,0,
00:00:03.004,-0.000790780643001199,0.000422334240283817,-0.00472181523218751,0,
00:00:03.008,0.00373480655252934,0.00695850746706128,-0.00101504928898066,0,
00:00:03.012,0.00494137033820152,0.00301725068129599,0.00723641645163298,0,
00:00:03.016,-0.00560860009863973,-0.00795669294893742,0.00239187921397388,0,
00:00:03.02,0.0011188379721716,-0.00193611835129559,-0.00237351842224598,0,
00:00:03.024,0.00561728700995445,0.0121331056579947,0.000680052093230188,0,
00:00:03.028,-0.00182065402623266,-0.00103721965570003,0.000455793458968401,0,
00:00:03.032,-0.00830973032861948,-0.0145594719797373,0.00373637466691434,0,
00:00:03.036,-0.00111737416591495,-0.00363437598571181,-0.006871716119349,0,
00:00:03.04,0.00254855770617723,0.00865841191262007,-0.00200848979875445,0,
00:00:03.044,0.00309207639656961,0.00694691855460405,-0.00104916165582836,0,
00:00:03.048,-0.000215930587728508,-0.0047191665507853,0.00606029620394111,0,
00:00:03.052,0.000155536865349859,-0.000677727395668626,-0.000850898795761168,0,
00:00:03.056,0.00280006742104888,0.00329572195187211,0.00314506934955716,0,
00:00:03.06,0.00279727950692177,0.00339192920364439,-0.00164096953812987,0,
00:00:03.064,-0.00550439907237887,-0.0031824205070734,-0.00439035939052701,0,
00:00:03.068,0.000273690326139331,-0.00387077336199582,-0.0033980009611696,0,
00:00:03.072,0.00213963864371181,0.006379802711308,0.00980644859373569,0,
00:00:03.076,-0.00494802417233586,-0.00764857372269034,0.00236896076239645,0,
00:00:03.08,-0.00483417464420199,-0.00719353556632996,-0.00283473590388894,0,
00:00:03.084,0.000848999829031527,0.000701790966559201,-0.00827670842409134,0,
00:00:03.088,0.00856509990990162,0.00993763003498316,-0.00286762230098248,0,
00:00:03.092,0.00247124070301652,0.00198762188665569,0.00683994265273213,0,
00:00:03.096,-0.00318480376154184,-0.00235629081726074,0.00073502300074324,0,
00:00:03.1,0.00174198870081455,0.00749891949817538,0.00228450843133032,0,
00:00:03.104,-0.00013915347517468,-0.000810666708275676,0.00282793678343296,0,
00:00:03.108,-0.00215918431058526,-0.00719845714047551,-0.00289198057726026,0,
00:00:03.112,-0.00445997249335051,-0.00499869603663683,-0.00529010966420174,0,
00:00:03.116,-0.003421516623348,-0.00275461049750447,0.000553598918486387,0,
00:00:03.12,0.00368614797480404,0.00218994542956352,0.00409049261361361,0,
00:00:03.124,0.00441970955580473,0.00659599341452122,-0.000550602038856596,0,
00:00:03.128,0.00432593747973442,0.00798070430755615,-0.00338033796288073,0,
00:00:03.132,-0.00424731196835637,4.81193856103346E-05,0.00344483042135835,0,
00:00:03.136,-0.00124017975758761,-0.00972758512943983,-0.00221768021583557,0,
00:00:03.14,-0.00229384284466505,-0.00841136556118727,0.00107072712853551,0,
00:00:03.144,-8.01207643235102E-05,-0.00447848578915,-0.000960637466050684,0,
00:00:03.148,0.00157379102893174,0.00700375624001026,0.00217448547482491,0,
00:00:03.152,0.00589138455688953,0.0152186378836632,0.0011259593302384,0,
00:00:03.156,0.00318132224492729,0.0158778317272663,0.00156039779540151,0,
00:00:03.16,-0.00516789639368653,-0.0143450079485774,-0.0032769029494375,0,
00:00:03.164,-0.0120427897199988,-0.024808818474412,-0.00276431231759489,0,
00:00:03.168,0.0010936384787783,-0.00152369705028832,-0.00270596006885171,0,
00:00:03.172,0.00750327529385686,0.0105744618922472,0.00508206151425838,0,
00:00:03.176,0.00253739510662854,0.00486876582726836,0.00328356493264437,0,
00:00:03.18,4.70117338409182E-05,0.00295080430805683,-0.0023114955984056,0,
00:00:03.184,-0.000925967586226761,0.00555171351879835,-0.00229818816296756,0,
00:00:03.188,-0.00306179001927376,-0.00410026172176003,-0.00270189414732158,0,
00:00:03.192,0.00343945645727217,-0.000350078480551019,0.0026845745742321,0,
00:00:03.196,0.00157492212019861,0.00248690438456833,0.00067844451405108,0,
00:00:03.2,-0.00538241444155574,-0.00857923086732626,0.00293698790483177,0,
00:00:03.204,-0.000452733220299706,-0.00735752983018756,0.000995528302155435,0,
00:00:03.208,-0.000613649957813323,0.000646150205284357,0.000958828197326511,0,
00:00:03.212,0.00346115650609136,0.00783435348421335,-0.00388815207406878,0,
00:00:03.216,0.00234721135348082,0.00815489422529936,-0.00311089120805264,0,
00:00:03.22,0.00216433918103576,0.00167388236150146,-0.000667837273795158,0,
00:00:03.224,-0.00332802534103394,-0.00969752855598927,0.00119309546425939,0,
00:00:03.228,-0.00111945520620793,0.00315957958810031,-0.000323927291901782,0,
00:00:03.232,-0.00515809375792742,-0.00241643167100847,0.00532926479354501,0,
00:00:03.236,-0.00101409922353923,-0.00404676888138056,0.0021556110586971,0,
00:00:03.24,0.00906093791127205,0.00406188750639558,-0.00165882217697799,0,
00:00:03.244,-6.65938059682958E-05,0.00308796297758818,-0.00730717182159424,0,
00:00:03.248,-0.00240850821137428,-0.00192813517060131,-0.00262478482909501,0,
00:00:03.252,-0.00173930625896901,-0.00385010405443609,0.004424087703228,0,
00:00:03.256,-0.00452364701777697,-0.000378268508939072,0.00424602208659053,0,
00:00:03.26,0.00659192958846688,0.00647672824561596,0.00360934529453516,0,
00:00:03.264,0.00210869591683149,-0.00124966946896166,-0.00284702074714005,0,
00:00:03.268,0.00132275046780705,0.000252908939728513,-0.00351243349723518,0,
00:00:03.272,-0.00164812372531742,0.00378558365628123,-0.00176205195020884,0,
00:00:03.276,-0.00710611324757338,-0.00284520513378084,0.000156867274199612,0,
00:00:03.28,-0.0003844385209959,-0.0103621147572994,0.0011932774214074,0,
00:00:03.284,0.000457817892311141,-0.000602077983785421,-0.00291235279291868,0,
00:00:03.288,0.00460588373243809,0.00682369200512767,0.00672181742265821,0,
00:00:03.292,0.00507484516128898,0.00735344039276242,0.00551541894674301,0,
00:00:03.296,-0.00390626536682248,0.00546415336430073,-0.00766982370987535,0,
00:00:03.3,-0.00135013007093221,-0.00938698556274176,-0.00361988926306367,0,
00:00:03.304,-0.000509959703776985,-0.00990651734173298,-0.000237340398598462,0,
00:00:03.308,-0.00228262622840703,0.000303421635180712,-0.000546557770576328,0,
00:00:03.312,0.00194883998483419,0.00665137311443686,0.00372252543456852,0,
00:00:03.316,0.00174753612373024,0.00239907088689506,0.00269546988420188,0,
00:00:03.32,0.0024229921400547,0.000433087290730327,-0.0038068825379014,0,
00:00:03.324,-0.00473303347826004,-0.00251865503378212,0.00682838680222631,0,
00:00:03.328,-0.000592357711866498,0.00127175741363317,0.00185975478962064,0,
00:00:03.332,0.00294224102981389,0.00726683810353279,-0.0100247319787741,0,
00:00:03.336,-0.00313184875994921,-0.00609091529622674,-0.0035853257868439,0,
00:00:03.34,-0.00129557645414025,-0.010003368370235,-0.000779454305302352,0,
00:00:03.344,0.00549447163939476,0.0003972708072979,0.00522124581038952,0,
00:00:03.348,0.00457576289772987,0.0155909303575754,0.00441818311810493,0,
00:00:03.352,-0.00342375691980124,0.00134613749105483,0.00137179053854197,0,
00:00:03.356,-0.00681952433660626,-0.0118749616667628,-0.00113942695315927,0,
00:00:03.36,-0.00480650970712304,-0.00427835434675217,-0.00209111464209855,0,
00:00:03.364,0.00150882860179991,-0.000347057124599814,-0.00169329438358545,0,
00:00:03.368,0.00498243141919374,0.00185175589285791,-0.000689322187099606,0,
00:00:03.372,0.00664002355188131,0.00887582078576088,0.00022054991859477,0,
00:00:03.376,0.00623831292614341,0.0129866944625974,-0.00140396482311189,0,
00:00:03.38,-0.00197854149155319,-0.00485712988302112,0.00262888078577816,0,
00:00:03.384,-0.0151547007262707,-0.0209397338330746,0.00200678640976548,0,
00:00:03.388,-0.00886156130582094,-0.0124998399987817,0.00229285564273596,0,
00:00:03.392,0.00946595799177885,0.0157545041292906,-0.00506069976836443,0,
00:00:03.396,0.0137351099401712,0.0250185206532478,0.00116521585732698,0,
00:00:03.4,0.00161104660946876,0.000677915464621037,-0.0012931457022205,0,
00:00:03.404,-0.00512050930410624,-0.0224140547215939,-0.00282923062331975,0,
00:00:03.408,-0.00810717232525349,-0.0068269046023488,0.00439176382496953,0,
00:00:03.412,-0.005648132879287,-0.000375699659343809,-0.00148880167398602,0,
00:00:03.416,0.0032949922606349,0.000404531805543229,-0.000727083184756339,0,
00:00:03.42,0.00733143277466297,0.0115851340815425,0.00506154727190733,0,
00:00:03.424,0.00144567328970879,0.00698464084416628,-0.00249070837162435,0,
00:00:03.428,-0.00306817446835339,-0.0045882579870522,0.00180914648808539,0,
00:00:03.432,0.000506626151036471,-0.00494825281202793,-0.0042569418437779,0,
00:00:03.436,0.000627094879746437,0.00432991608977318,-0.000136836781166494,0,
00:00:03.44,0.00191197136882693,-0.0031330194324255,0.00100048584863544,0,
00:00:03.444,-0.00474119791761041,-0.00520528573542833,0.00288394279778004,0,
00:00:03.448,0.00172112334985286,0.00329891871660948,0.000366704363841563,0,
00:00:03.452,-0.000859221909195185,0.000868263421580195,-0.00583539064973593,0,
00:00:03.456,-0.00473987963050604,-0.00380606111139059,-0.00220068893395364,0,
00:00:03.46,0.00422325683757663,0.00217429012991488,0.00822260417044163,0,
00:00:03.464,0.00610291352495551,0.0117087149992585,-0.000324031861964613,0,
00:00:03.468,0.00527887465432286,0.00235668895766139,-0.00430683977901936,0,
00:00:03.472,-0.011028902605176,-0.0166108589619398,0.00264973123557866,0,
00:00:03.476,-0.00733726378530264,-0.00665748165920377,-0.000431001157267019,0,
00:00:03.48,0.00238268845714629,0.00272818701341748,-0.000787153257988393,0,
00:00:03.484,0.00699399411678314,0.0128458477556705,-0.00232976558618248,0,
00:00:03.488,0.0014978259569034,0.00373642519116402,0.00221867649815977,0,
00:00:03.492,0.00132030737586319,-0.00676698097959161,0.00412494922056794,0,
00:00:03.496,-0.00319865625351667,-0.000672388239763677,0.000568170216865838,0,
00:00:03.5,-0.00250551011413336,-0.00221246923319995,-0.00439066952094436,0,
00:00:03.504,-0.00255676871165633,-0.000777268258389086,-0.00502912513911724,0,
00:00:03.508,0.000852284952998161,-0.00130384077783674,-0.000237799496972002,0,
00:00:03.512,0.00699140643700957,0.00334553676657379,0.00734099140390754,0,
00:00:03.516,0.0027777252253145,0.00478599034249783,0.00381528353318572,0,
00:00:03.52,-0.00410747528076172,-0.00142754940316081,-0.00522915041074157,0,
00:00:03.524,-0.00402001990005374,-0.000646461150608957,-0.00365998200140893,0,
00:00:03.528,-0.00149250950198621,-0.00576965976506472,0.00415245024487376,0,
00:00:03.532,0.000767140532843769,7.95855376054533E-05,0.00234974478371441,0,
00:00:03.536,-0.000360039906809106,9.27638393477537E-05,-0.00500985607504845,0,
00:00:03.54,0.00343848764896393,0.00599305098876357,0.00159578106831759,0,
00:00:03.544,0.00435171369463205,0.00254840892739594,-0.00281863124109805,0,
00:00:03.548,0.0021983440965414,0.0025474545545876,0.00158837460912764,0,
00:00:03.552,-0.00907714664936066,-0.0114046828821301,0.00205011805519462,0,
00:00:03.556,-0.00515982881188393,-0.00609055301174521,0.0030100226867944,0,
00:00:03.56,0.0010684875305742,-0.000192122242879122,-0.00222353567369282,0,
00:00:03.564,0.006375961471349,0.0098681403324008,-0.00455200020223856,0,
00:00:03.568,0.00409903097897768,0.00900086294859648,0.00100774283055216,0,
00:00:03.572,0.000244537339312956,-0.00323755410499871,0.00208457955159247,0,
00:00:03.576,-0.000124739410239272,-0.0030082433950156,0.00329668563790619,0,
00:00:03.58,-0.00456558633595705,-0.000683337857481092,-0.00192586577031761,0,
00:00:03.584,-0.00116768840234727,0.00042236185981892,-0.00436680437996984,0,
00:00:03.588,-0.000340197526384145,-0.00395528087392449,0.0010586119024083,0,
00:00:03.592,-0.00417787907645106,-0.00901842210441828,0.0020428488496691,0,
00:00:03.596,5.92977266933303E-05,0.00376240513287485,0.00322322221472859,0,
00:00:03.6,0.00562802143394947,0.00871182605624199,-0.0019840735476464,0,
00:00:03.604,0.00196771486662328,0.000228616700042039,-0.00231430307030678,0,
00:00:03.608,0.00464049121364951,0.00100906891748309,-0.00298495450988412,0,
00:00:03.612,-0.00217744940891862,0.00589117454364896,0.000322789855999872,0,
00:00:03.616,-0.00390542997047305,-0.00736557645723224,0.00876086857169867,0,
00:00:03.62,-0.00269345217384398,-0.010648000985384,-0.00336160836741328,0,
00:00:03.624,-0.00271485582925379,0.000382677331799641,0.000457659043604508,0,
00:00:03.628,0.000782188028097153,0.00762899545952678,-0.00266506127081811,0,
00:00:03.632,0.00500921765342355,0.00340930838137865,-0.00178278307430446,0,
00:00:03.636,0.00497491843998432,0.00708887400105596,-1.84021882887464E-05,0,
00:00:03.64,0.00193420122377574,0.00170575955417007,0.00110029394272715,0,
00:00:03.644,-0.007611651904881,-0.00997491087764502,0.00124374579172581,0,
00:00:03.648,-0.00554219679906964,-0.00809762254357338,0.000741536670830101,0,
00:00:03.652,-0.000626840395852923,-0.00404163496568799,9.15839482331648E-05,0,
00:00:03.656,0.00271316384896636,0.000681615492794663,-0.00242566247470677,0,
00:00:03.66,0.00130222819279879,0.00589342275634408,0.00150637747719884,0,
00:00:03.664,0.00413708668202162,0.00664485199376941,0.00129987997934222,0,
00:00:03.668,-2.17264823731966E-05,0.00382238859310746,5.4027586884331E-05,0,
00:00:03.672,0.00130063237156719,0.00218864297494292,0.00129041261970997,0,
00:00:03.676,-0.000457571470178664,-0.000209447476663627,-0.00286485534161329,0,
00:00:03.68,0.000257012492511421,-0.00234425137750804,-0.00422235485166311,0,
00:00:03.684,-0.0059133805334568,-0.0135859493166208,0.00178151507861912,0,
00:00:03.688,-0.00481247249990702,-0.00528184417635202,0.00278707989491522,0,
00:00:03.692,0.00752202654257417,0.00824488792568445,-0.000498622073791921,0,
00:00:03.696,0.00715623516589403,0.0183710958808661,0.0040984726510942,0,
00:00:03.7,-0.000106177023553755,-0.00273135444149375,0.000880878127645701,0,
00:00:03.704,-0.00895428098738194,-0.0136018488556147,-0.00442548934370279,0,
00:00:03.708,-0.00523440958932042,-0.0074670216999948,-0.00533929094672203,0,
00:00:03.712,-0.00148302735760808,-0.00102729862555861,0.00151493062730879,0,
00:00:03.716,0.00376218883320689,0.0034411558881402,-0.00102056853938848,0,
00:00:03.72,0.00544558186084032,0.0111168557778001,0.0102063920348883,0,
00:00:03.724,0.00998178869485855,0.0124617433175445,0.00184123497456312,0,
00:00:03.728,-0.000974435650277883,-0.00249941926449537,-0.00772131141275167,0,
00:00:03.732,-0.010387571528554,-0.0156749598681927,-0.0027840577531606,0,
00:00:03.736,-0.00823851581662893,-0.0109153054654598,0.000311702635372058,0,
00:00:03.74,0.00433065975084901,0.00291444431059062,0.00155798951163888,0,
00:00:03.744,0.00981780607253313,0.00998643599450588,0.0014556780224666,0,
00:00:03.748,0.000828956079203635,0.0106876827776432,0.000722816097550094,0,
00:00:03.752,-0.00568359112367034,-0.00523724686354399,-2.24459381570341E-05,0,
00:00:03.756,-0.00813319906592369,-0.00845190137624741,-0.000443426892161369,0,
00:00:03.76,0.00561842508614063,0.00145628454629332,-0.00049309735186398,0,
00:00:03.764,0.00532589806243777,0.00889288447797298,-0.00238188449293375,0,
00:00:03.768,-0.000902153667993844,-0.00284416577778757,0.00398826040327549,0,
00:00:03.772,-0.00203850422985852,-0.00957345589995384,0.00185012514702976,0,
00:00:03.776,-0.00116251036524773,-0.00137815065681934,-0.00535448454320431,0,
00:00:03.78,-3.39916186931077E-05,0.0072612869553268,-0.00263829086907208,0,
00:00:03.784,0.000595255696680397,-0.00423435121774673,0.005379986949265,0,
00:00:03.788,0.000640761048998684,0.00304432050324976,0.00314319576136768,0,
00:00:03.792,0.00241846218705177,0.00536727625876665,-0.00275371852330863,0,
00:00:03.796,-0.00405907072126865,-0.00303354091010988,-0.00479708751663566,0,
00:00:03.8,-0.00196699635125697,-0.00485656317323446,0.00322369090281427,0,
00:00:03.804,0.00317889894358814,0.00358922639861703,0.000415402435464785,0,
00:00:03.808,0.00456420285627246,0.00491345208138227,-0.00224992190487683,0,
00:00:03.812,-0.00166167609859258,0.00212937430478632,0.00193177768960595,0,
00:00:03.816,-0.000760619412176311,-0.00331563642248511,0.00177410780452192,0,
00:00:03.82,-0.00364810228347778,-0.0114932954311371,-0.00173897668719292,0,
00:00:03.824,-0.00382147636264563,-0.00188655580859631,0.00120547390542924,0,
00:00:03.828,0.00474214134737849,0.00405019149184227,0.00473008444532752,0,
00:00:03.832,0.00154317740816623,0.00529059441760182,-0.00658008363097906,0,
00:00:03.836,0.0022962368093431,0.00549075147137046,-0.00233619287610054,0,
00:00:03.84,-0.00430384604260325,-0.00130679830908775,0.000497028697282076,0,
00:00:03.844,-7.47771628084593E-06,-0.00503182644024491,0.00162527593784034,0,
00:00:03.848,0.00120178586803377,-0.000149251238326542,-0.0006234539905563,0,
00:00:03.852,0.000881412997841835,0.000988963642157614,0.0026533764321357,0,
00:00:03.856,-0.00192284747026861,0.000611434516031295,0.00156232411973178,0,
00:00:03.86,0.00160652492195368,-2.31854664889397E-05,-0.000312746997224167,0,
00:00:03.864,-0.000939448364078999,-0.0024559460580349,-0.00135989079717547,0,
00:00:03.868,0.00595086626708508,0.00781481806188822,0.000739225826691836,0,
00:00:03.872,0.000899738806765527,0.00175048690289259,-0.00265891966409981,0,
00:00:03.876,-0.00798803102225065,-0.0127261113375425,-0.00160352396778762,0,
00:00:03.88,-0.00701252557337284,-0.00832363683730364,0.000294201163342223,0,
00:00:03.884,-0.00180758431088179,0.00257770344614983,0.00137820083182305,0,
00:00:03.888,0.0111474096775055,0.0145741477608681,0.00137671129778028,0,
00:00:03.892,0.0113495718687773,0.0140417302027345,-0.00135273416526616,0,
00:00:03.896,-0.00607676710933447,-0.00742116523906589,0.00403619790449739,0,
00:00:03.9,-0.0119362147524953,-0.0216962546110153,0.00127598596736789,0,
00:00:03.904,0.00245759962126613,0.00112695293501019,-0.00398402847349644,0,
00:00:03.908,0.00208684056997299,0.00970329716801643,-0.00509896501898766,0,
00:00:03.912,0.00158802210353315,0.0059533454477787,0.00358726526610553,0,
00:00:03.916,0.00082829681923613,-0.00193784013390541,0.000999371521174908,0,
00:00:03.92,8.10920173535123E-05,-0.00333883869461715,-0.00179754139389843,0,
00:00:03.924,-0.000391701410990208,-0.00404133554548025,-0.00204444769769907,0,
00:00:03.928,-0.00258851260878146,-0.000277450337307528,0.0139628844335675,0,
00:00:03.932,0.0036766326520592,0.0086692413315177,-0.00653516780585051,0,
00:00:03.936,-0.00254893954843283,-0.00521120708435774,-0.0031021642498672,0,
00:00:03.94,0.00263965898193419,0.00273450161330402,-0.00595732405781746,0,
00:00:03.944,0.00294036697596312,0.00333694345317781,0.00108900875784457,0,
00:00:03.948,-0.00754452776163816,-0.0075715770944953,0.00333301327191293,0,
00:00:03.952,-0.00186243804637343,-0.000147697006468661,0.00264463294297457,0,
00:00:03.956,0.00373034365475178,0.00136309838853776,-0.00116067437920719,0,
00:00:03.96,0.000629539135843515,-0.00122374622151256,0.00144345464650542,0,
00:00:03.964,0.000182613483048044,-0.00206000450998545,0.00257329223677516,0,
00:00:03.968,0.00237860600464046,0.00119594717398286,-0.00487116072326899,0,
00:00:03.972,-0.0016899878391996,0.00925841741263866,0.00109520100522786,0,
00:00:03.976,-0.00363109959289432,-0.00337048782967031,-0.00149204977788031,0,
00:00:03.98,-0.000412481051171198,-0.00614285282790661,0.00115522288251668,0,
00:00:03.984,0.00628303317353129,0.00901452079415321,-0.00169036409351975,0,
00:00:03.988,0.000632356503047049,-0.00313816033303738,-0.00275030313059688,0,
00:00:03.992,-0.00181816087570041,-0.0045600151643157,0.00480728829279542,0,
00:00:03.996,8.14355953480117E-05,-0.00192601536400616,0.000983285717666149,0,
00:00:04,-0.00512021826580167,-0.00126491079572588,-0.00254185684025288,0,
00:00:04.004,-0.00176518782973289,0.00195312756113708,0.00333318836055696,0,
00:00:04.008,0.00611767871305346,0.00749972648918629,-0.00080910261021927,0,
00:00:04.012,0.00553819304332137,0.00480172224342823,-0.00161159120034426,0,
00:00:04.016,-0.00478152604773641,-0.00850963592529297,-0.00094402814283967,0,
00:00:04.02,-0.00667234137654305,-0.00613348325714469,0.00203825230710208,0,
00:00:04.024,-0.00133332097902894,-0.000348719186149538,-0.00146792677696794,0,
00:00:04.028,0.00301154493354261,0.00121589272748679,-0.00313578825443983,0,
00:00:04.032,0.00818501319736242,0.0119090471416712,0.00215095421299338,0,
00:00:04.036,0.00482755480334163,0.00608358904719353,0.00253715110011399,0,
00:00:04.04,-0.00680593540892005,-0.008475037291646,-0.00102477800101042,0,
00:00:04.044,-0.00644594663754106,-0.00902798678725958,0.00362699688412249,0,
00:00:04.048,-0.00212086620740592,-0.00591916777193546,-0.00143580662552267,0,
00:00:04.052,0.00156674848403782,-0.00292947771959007,-0.00245405174791813,0,
00:00:04.056,0.00089236453641206,0.00725637236610055,-0.0014853480970487,0,
00:00:04.06,0.00228321622125804,0.0105894654989243,-0.000123780249850824,0,
00:00:04.064,0.00661432882770896,0.00681402580812573,-0.00132471835240722,0,
00:00:04.068,-0.000543425558134913,-0.0036338388454169,0.00290272571146488,0,
00:00:04.072,-0.00124745420180261,-0.00643607508391142,0.00433295778930187,0,
00:00:04.076,-0.0029070854652673,0.00159782648552209,-0.00164236326236278,0,
00:00:04.08,-0.00702927354723215,-0.0114472657442093,-0.0026715996209532,0,
00:00:04.084,-0.00372166046872735,-0.00603935355320573,0.000560436223167926,0,
00:00:04.088,0.00528841093182564,0.00873436033725739,-0.0040902285836637,0,
00:00:04.092,0.012570078484714,0.0177716333419085,0.00116997316945344,0,
00:00:04.096,-0.000508450204506516,0.0025679983664304,0.00241707824170589,0,
00:00:04.1,-0.00503450306132436,-0.0115387672558427,-0.000477866211440414,0,
00:00:04.104,-0.00646458379924297,-0.0135347861796618,0.00225077895447612,0,
00:00:04.108,-0.00394683424383402,-0.0026519678067416,0.00100042787380517,0,
00:00:04.112,0.0124041391536593,0.0163566898554564,0.00343897449783981,0,
00:00:04.116,0.00129745854064822,0.00648501282557845,-0.00542885018512607,0,
00:00:04.12,-0.00789450015872717,-0.00675548566505313,-0.00658899359405041,0,
00:00:04.124,-0.00210813875310123,-0.00640722597017884,0.00113675137981772,0,
00:00:04.128,-0.000775424763560295,-0.00398943899199367,0.00353609421290457,0,
00:00:04.132,0.00632544001564384,0.00371641665697098,0.00278482772409916,0,
00:00:04.136,-0.000755232176743448,0.00460933847352862,0.00302456272765994,0,
00:00:04.14,0.00100421835668385,0.000319113984005526,-0.00254380353726447,0,
00:00:04.144,0.0001962780370377,0.00182480306830257,-0.00284064537845552,0,
00:00:04.148,-0.00287136249244213,3.99886921513826E-05,-0.00120957230683416,0,
00:00:04.152,0.00502090342342854,0.00466686300933361,0.000365528132533655,0,
00:00:04.156,-0.00101167196407914,-0.00573453353717923,0.00316463434137404,0,
00:00:04.16,-0.0052891275845468,-0.00602049520239234,-0.000990503001958132,0,
00:00:04.164,-0.00258850096724927,-0.00435163546353579,-0.00118489866144955,0,
00:00:04.168,-0.00116512144450098,-0.000851090881042182,-0.000250622630119324,0,
00:00:04.172,0.00460296776145697,0.00439164089038968,0.0004772249085363,0,
00:00:04.176,0.00401838961988688,0.00587545149028301,-0.00143332383595407,0,
00:00:04.18,0.00333434739150107,0.0100812241435051,0.000296531652566046,0,
00:00:04.184,-0.00304332212544978,-0.00530474632978439,0.0015779115492478,0,
00:00:04.188,-0.00568549241870642,-0.00465697655454278,0.0118806073442101,0,
00:00:04.192,0.000190354941878468,-0.00510953180491924,-0.00928593799471855,0,
00:00:04.196,0.00388953532092273,0.00508734490722418,-0.00441897055134177,0,
00:00:04.2,0.00149312149733305,0.002355822827667,-0.0015430252533406,0,
00:00:04.204,-0.00113179709296674,-0.00377725227735937,-0.00385206588543952,0,
00:00:04.208,-0.00412589544430375,-0.00742285652086139,0.00309546897187829,0,
00:00:04.212,-0.00363505491986871,-0.00084732862887904,0.00243109185248613,0,
00:00:04.216,0.00322236842475832,0.00451839808374643,0.00684672221541405,0,
00:00:04.22,0.00398910604417324,0.00965707376599312,2.18229688471183E-05,0,
00:00:04.224,-6.45589316263795E-05,-0.000680636614561081,-0.00276780314743519,0,
00:00:04.228,0.00174799584783614,0.00107271934393793,-0.00274850591085851,0,
00:00:04.232,0.00432062242180109,3.31352093780879E-05,-0.00141683139372617,0,
00:00:04.236,-0.00532379373908043,-0.00371205294504762,-8.58531711855903E-06,0,
00:00:04.24,-0.00503201130777597,-0.00673581380397081,0.000805839023087174,0,
00:00:04.244,-0.00150336849037558,-0.00707613211125135,-0.001155951526016,0,
00:00:04.248,0.00145390199031681,0.00122973031830043,0.0067067239433527,0,
00:00:04.252,0.000435062102042139,0.00661856774240732,-0.000107553583802655,0,
00:00:04.256,0.00392706599086523,0.0087186498567462,-0.00735589722171426,0,
00:00:04.26,0.00235110777430236,0.00341167557053268,-0.00324252736754715,0,
00:00:04.264,-0.0022678580135107,-0.00197694473899901,0.00593871017917991,0,
00:00:04.268,0.00234281877055764,-0.00438285665586591,-5.92011238040868E-05,0,
00:00:04.272,-0.00215627113357186,-0.00173957913648337,0.00190290750470012,0,
00:00:04.276,-0.00458858394995332,-0.00163871527183801,0.000777485256548971,0,
00:00:04.28,0.00085546524496749,-0.00332180154509842,-0.000664705934468657,0,
00:00:04.284,0.00198052241466939,-0.000418617913965136,-0.00129683502018452,0,
00:00:04.288,0.00125073606614023,0.00420742435380816,-0.00107442506123334,0,
00:00:04.292,-0.0018878981936723,-0.00129697157535702,-0.00458638742566109,0,
00:00:04.296,0.0056451428681612,0.00423444947227836,0.00618742126971483,0,
00:00:04.3,-0.00292360410094261,-0.000120709642942529,0.0038452809676528,0,
00:00:04.304,-0.00557302497327328,-0.00546348886564374,-0.000739001960027963,0,
00:00:04.308,-0.00136551889590919,0.000818046333733946,-0.00937806721776724,0,
00:00:04.312,0.00651207473129034,0.0069346553646028,-0.00112450507003814,0,
00:00:04.316,0.00772715965285897,0.00636351061984897,0.00973282568156719,0,
00:00:04.32,-0.0110306078568101,-0.00668077822774649,0.000236847205087543,0,
00:00:04.324,-0.00249077565968037,-0.00970796495676041,-0.000479331298265606,0,
00:00:04.328,0.00172042974736542,-0.00351528055034578,-0.00403355294838548,0,
00:00:04.332,0.00261484715156257,0.00253826892003417,-0.00224845134653151,0,
00:00:04.336,0.00169121276121587,0.00703337974846363,-0.00173457234632224,0,
00:00:04.34,0.00239818380214274,0.0041084885597229,0.00372252170927823,0,
00:00:04.344,-0.00261034979484975,-0.00208923313766718,0.00336442841216922,0,
00:00:04.348,-0.00463346112519503,-0.00667757401242852,0.00105024978984147,0,
00:00:04.352,0.00112184137105942,0.00283699622377753,0.00117161020170897,0,
00:00:04.356,0.00224624038673937,0.00347956153564155,-0.0036194755230099,0,
00:00:04.36,-0.000746676814742386,-0.000971532601397485,-0.00296590360812843,0,
00:00:04.364,0.00204866845160723,0.000927737972233444,-0.00278218695893884,0,
00:00:04.368,0.00302996509708464,0.00396291958168149,0.00300458027049899,0,
00:00:04.372,-0.000522439659107476,-0.00518832728266716,0.00320739299058914,0,
00:00:04.376,-0.00702520646154881,-0.00669386144727468,0.00132565258536488,0,
00:00:04.38,-0.000948279921431094,0.000898476631846279,-0.000474606291390955,0,
00:00:04.384,0.00188558734953403,0.00336035853251815,-0.00129980163183063,0,
00:00:04.388,0.00225672870874405,0.00482575781643391,-0.00117349240463227,0,
00:00:04.392,-0.000742844014894217,-0.000946885556913912,-0.000555733626242727,0,
00:00:04.396,0.00214952044188976,-0.00208930065855384,0.00214421912096441,0,
00:00:04.4,0.00313712609931827,0.00287339906208217,-0.00155861838720739,0,
00:00:04.404,-0.000487060897285119,-0.00409711990505457,-0.00327060068957508,0,
00:00:04.408,-0.00292013841681182,-0.000664311519358307,0.0020736213773489,0,
00:00:04.412,-0.00914031267166138,0.000405507715186104,0.00669368403032422,0,
00:00:04.416,0.00246734288521111,-0.00568152265623212,-0.00284056621603668,0,
00:00:04.42,0.00306165451183915,0.00216532638296485,-0.00363909429870546,0,
00:00:04.424,0.00741461990401149,0.0070012342184782,-0.00140979804564267,0,
00:00:04.428,0.00230441009625793,0.0058543779887259,-0.00136517290957272,0,
00:00:04.432,-0.0047893594019115,-0.000536089472007006,0.00355414720252156,0,
00:00:04.436,-0.00658061588183045,-0.00668771890923381,0.00294342963024974,0,
00:00:04.44,0.000319534097798169,-0.00697717629373074,0.00275236647576094,0,
00:00:04.444,0.00457222340628505,0.000986525556072593,-0.00304989912547171,0,
00:00:04.448,0.000107375264633447,0.00348177179694176,-0.00325428298674524,0,
00:00:04.452,-0.00293299276381731,0.00488805677741766,-0.00135860755108297,0,
00:00:04.456,0.00148128438740969,-0.00301246996968985,0.000461930205347016,0,
00:00:04.46,0.00169080100022256,0.00195134954992682,0.001303811208345,0,
00:00:04.464,0.00257774977944791,-0.001618871698156,0.00118544115684927,0,
00:00:04.468,-0.00459172856062651,-0.00575923686847091,-0.00358431390486658,0,
00:00:04.472,-0.00472232373431325,0.0014110408956185,0.00388858723454177,0,
00:00:04.476,0.00888120569288731,0.0140498047694564,0.00701963156461716,0,
00:00:04.48,0.00219973362982273,-0.00302172754891217,-0.00197091698646545,0,
00:00:04.484,-0.00456274813041091,-0.00944618787616491,-0.00929974298924208,0,
00:00:04.488,-0.0058268983848393,-0.00712838629260659,-0.00421181134879589,0,
00:00:04.492,0.00117105036042631,0.00273325433954597,0.00395842595025897,0,
00:00:04.496,0.000967813364695758,0.00550723215565085,0.00677293492481112,0,
00:00:04.5,0.00624616723507643,0.00398904457688332,0.00243640085682273,0,
00:00:04.504,0.00024100040900521,0.00110527570359409,-0.00383173860609531,0,
00:00:04.508,-0.00418004719540477,-0.00113376195076853,-0.00548229552805424,0,
00:00:04.512,0.00198089051991701,0.00218947883695364,0.00099336716812104,0,
00:00:04.516,-0.00133221398573369,-0.0034663041587919,0.00258574984036386,0,
00:00:04.52,-0.00137652782723308,-0.00593821564689279,-0.000317934231134132,0,
00:00:04.524,-0.000341440521879122,-0.00391719164326787,0.00231285090558231,0,
00:00:04.528,0.00053264171583578,0.00198825774714351,0.00306402612477541,0,
00:00:04.532,-0.00125748279970139,0.0112490728497505,-0.000648477638605982,0,
00:00:04.536,0.00258461199700832,-0.00158443825785071,-0.00512008555233479,0,
00:00:04.54,-0.000231078141951002,-0.00528618739917874,-0.00304918177425861,0,
00:00:04.544,0.00409121531993151,0.00478146597743034,-0.00187825667671859,0,
00:00:04.548,-0.00146076770033687,0.00227888254448771,0.00407510017976165,0,
00:00:04.552,-0.000669620232656598,-0.00183852936606854,0.00386783597059548,0,
00:00:04.556,-0.00375278620049357,-0.00352594861760736,0.00142506998963654,0,
00:00:04.56,-0.00605980958789587,-0.00683445669710636,0.00130701274611056,0,
00:00:04.564,0.0024704821407795,-0.000941128877457231,-0.00368499755859375,0,
00:00:04.568,0.00922167953103781,0.00606727646663785,-0.00312251574359834,0,
00:00:04.572,0.00386493699625134,0.0113540645688772,-0.000849944946821779,0,
00:00:04.576,-0.00426069693639874,-0.00435966532677412,-0.00112119619734585,0,
00:00:04.58,-0.00480431970208883,-0.00628884276375175,0.00561394589021802,0,
00:00:04.584,-0.00641142996028066,-0.00507065281271935,-0.00329551426693797,0,
00:00:04.588,0.00432738894596696,0.00251705222763121,0.00497803231701255,0,
00:00:04.592,0.00709574203938246,0.00599685544148088,0.00212480407208204,0,
00:00:04.596,0.000105056293250527,0.000357135344529524,-0.00398226175457239,0,
00:00:04.6,-0.00239611603319645,-0.00144887913484126,-0.00359015166759491,0,
00:00:04.604,-0.00219530425965786,0.000735089066438377,-0.00316411512903869,0,
00:00:04.608,-0.000935890013352036,-0.0046390756033361,0.000886815600097179,0,
00:00:04.612,-0.0018382235430181,-0.00165832485072315,0.00743525987491012,0,
00:00:04.616,0.00485924910753965,0.00591323152184486,-0.000860631698742509,0,
00:00:04.62,0.000441397656686604,0.00106141774449497,0.000183923533768393,0,
00:00:04.624,-0.00520904082804918,-0.00317602581344545,-0.000640404061414301,0,
00:00:04.628,0.00501567684113979,0.00261179893277586,-0.00122724124230444,0,
00:00:04.632,0.00296728289686143,0.00294827250763774,0.00307440990582109,0,
00:00:04.636,-0.00314196082763374,-0.00554752536118031,-0.00442205555737019,0,
00:00:04.64,-0.00106333941221237,-0.00602869270369411,-0.00729331513866782,0,
00:00:04.644,-0.000957407581154257,0.00813425239175558,0.00407515373080969,0,
00:00:04.648,-0.00492761563509703,-0.00394825451076031,0.00753651512786746,0,
00:00:04.652,-0.000445507583208382,-0.00422214390709996,0.000732137879822403,0,
00:00:04.656,0.00547816418111324,0.00578164821490645,-0.00200464646331966,0,
00:00:04.66,0.00416092248633504,0.00508008757606149,-9.44967760005966E-05,0,
00:00:04.664,0.000809676945209503,0.00320114311762154,-0.00314833712764084,0,
00:00:04.668,0.000415790564147756,0.00228054146282375,-0.00171257951296866,0,
00:00:04.672,-0.00433258432894945,-0.0104655185714364,0.000404778169468045,0,
00:00:04.676,-0.00332769122906029,-0.00927157141268253,-0.000543371483217925,0,
00:00:04.68,-0.000693801790475845,-0.00042952093644999,0.00136759039014578,0,
00:00:04.684,0.00126297515816987,0.00770747661590576,0.00434436742216349,0,
00:00:04.688,-0.000244074937654659,0.00655113998800516,0.00590171618387103,0,
00:00:04.692,0.0053723631426692,0.00426017539575696,-0.00514964014291763,0,
00:00:04.696,7.91384372860193E-05,-0.00555519666522741,-0.00574439158663154,0,
00:00:04.7,-0.00178679870441556,-0.00265993899665773,-0.00238814018666744,0,
00:00:04.704,-0.00164591358043253,-0.00104957085568458,-0.00119412282947451,0,
00:00:04.708,-0.000726096332073212,0.00406885100528598,0.00643899384886026,0,
00:00:04.712,0.000135604132083245,-0.00561249209567904,0.00182209035847336,0,
00:00:04.716,0.000562542933039367,-0.00285527668893337,-0.000443623663159087,0,
00:00:04.72,-0.00152461545076221,0.00158277398440987,-0.00114502699580044,0,
00:00:04.724,0.000194176682271063,0.0035737263970077,-0.000950622721575201,0,
00:00:04.728,0.00777962571009994,0.0132891479879618,-0.000425399543019012,0,
00:00:04.732,-0.000219341556658037,-0.00265556364320219,4.1958785004681E-05,0,
00:00:04.736,-0.0081976680085063,-0.016948701813817,0.00027641563792713,0,
00:00:04.74,-0.00202344125136733,-0.00329304556362331,-0.00179452169686556,0,
00:00:04.744,0.00145437323953956,0.00403643446043134,0.00213119946420193,0,
00:00:04.748,0.00239635538309813,0.0097247613593936,0.00372985657304525,0,
00:00:04.752,0.00380207179114223,0.00176221097353846,0.000198722744244151,0,
00:00:04.756,0.000627420202363282,-0.00448198383674026,-0.00663447473198175,0,
00:00:04.76,-0.00610968610271811,-0.00534896645694971,-0.000939378456678241,0,
00:00:04.764,-0.00270816497504711,0.00154787860810757,0.00165628141257912,0,
00:00:04.768,0.00361982057802379,0.00305604422464967,0.00198138575069606,0,
00:00:04.772,0.0033880400005728,0.00188985047861934,0.00114677031524479,0,
00:00:04.776,-0.00104133866261691,0.000158059454406612,0.00011938955867663,0,
00:00:04.78,0.00104312901385128,-0.000969585787970573,-0.00261111301369965,0,
00:00:04.784,0.00207738066092134,0.000874846300575882,0.00129522767383605,0,
00:00:04.788,-0.00100262823980302,-0.00277472473680973,0.00325309671461582,0,
00:00:04.792,-0.00492655904963613,0.000228651886573061,0.000143554454552941,0,
00:00:04.796,-0.00260528712533414,-0.00191211153287441,-0.00434017973020673,0,
00:00:04.8,0.000603181892074645,-0.000396803865442052,-0.00470422301441431,0,
00:00:04.804,0.000235444967984222,-0.00297416723333299,0.00219308724626899,0,
00:00:04.808,0.00420894427224994,0.00556701654568315,0.00351430592127144,0,
00:00:04.812,0.0069271819666028,0.00851942133158445,0.00212601572275162,0,
00:00:04.816,-0.00798803474754095,-0.00338008720427752,-0.00185804395005107,0,
00:00:04.82,-0.00302521348930895,-0.00956408679485321,0.0030423931311816,0,
00:00:04.824,0.00507816532626748,0.00294613721780479,-0.00159982463810593,0,
00:00:04.828,0.00258420873433352,0.0074286125600338,-0.00231115240603685,0,
00:00:04.832,-0.00329881045036018,-0.00347499269992113,-0.0012382403947413,0,
00:00:04.836,-0.00299354339949787,-0.00893236976116896,6.78509240970016E-05,0,
00:00:04.84,-0.000778745743446052,-0.00024499514256604,0.000821886758785695,0,
00:00:04.844,0.00307265506125987,0.00810092687606812,0.000894067285116762,0,
00:00:04.848,-0.000406924256822094,-0.00194100837688893,0.00053380528697744,0,
00:00:04.852,-0.00255628419108689,-0.00338113633915782,8.09062403277494E-05,0,
00:00:04.856,0.00217146170325577,0.00509554939344525,-0.000226099626161158,0,
00:00:04.86,0.000130016152979806,0.00577644864097238,-0.000312214106088504,0,
00:00:04.864,0.00262352195568383,-0.00201818440109491,-0.000230098332394846,0,
00:00:04.868,0.00301863974891603,3.80721030524001E-05,-8.38639898574911E-05,0,
00:00:04.872,-0.00298436847515404,-0.00896245054900646,3.74893788830377E-05,0,
00:00:04.876,-0.00133410550188273,-1.071563201549E-05,9.23269908525981E-05,0,
00:00:04.88,-0.00767445052042603,-0.00397729082033038,-0.00199102447368205,0,
00:00:04.884,-0.0014652960235253,0.00146131927613169,0.00617082556709647,0,
00:00:04.888,0.0125580951571465,0.0156420357525349,-0.000231607104069553,0,
00:00:04.892,0.00391155993565917,0.00548124965280294,-0.00718243699520826,0,
00:00:04.896,-0.00487393047660589,-0.0117628257721663,-0.000892297015525401,0,
00:00:04.9,-0.00301752216182649,-0.00761321512982249,0.0021038162522018,0,
00:00:04.904,-0.00825211964547634,-0.00830751191824675,0.00243931822478771,0,
00:00:04.908,0.00300741218961775,0.00576138403266668,0.00136952847242355,0,
00:00:04.912,0.00718509824946523,0.010239620693028,7.62419003876857E-05,0,
00:00:04.916,0.00104369083419442,0.00486593693494797,0.00134116399567574,0,
00:00:04.92,0.000647364242468029,-0.00328994984738529,-0.00494594499468803,0,
00:00:04.924,-0.0057492065243423,-0.00429634423926473,-0.000267391791567206,0,
00:00:04.928,-0.000643786333967,-0.00235806382261217,0.00129786797333509,0,
00:00:04.932,0.0013360483571887,-0.00220801960676908,0.00118029385339469,0,
00:00:04.936,-0.000661183905322105,0.00104330317117274,0.00046938078594394,0,
00:00:04.94,0.00681715505197644,0.0111518390476704,-0.000161656862474047,0,
00:00:04.944,-0.00236988230608404,-0.00332888145931065,-0.000443030963651836,0,
00:00:04.948,-0.00564878294244409,-0.00549328653141856,-0.000397924741264433,0,
00:00:04.952,0.000290736497845501,-0.0027604119386524,0.00188834592700005,0,
00:00:04.956,0.00409585330635309,0.000389910477679223,0.000124052501632832,0,
00:00:04.96,-0.00248065567575395,0.00202296022325754,-0.005552614107728,0,
00:00:04.964,0.000800952780991793,0.00198919302783906,-0.00176938867662102,0,
00:00:04.968,0.00522441975772381,0.00932048913091421,0.000223383292905055,0,
00:00:04.972,-0.00363271753303707,-0.0100252628326416,0.0118101695552468,0,
00:00:04.976,-0.00780703080818057,-0.0115026440471411,0.00236940057948232,0,
00:00:04.98,0.00298424973152578,0.00608477368950844,-0.008187435567379,0,
00:00:04.984,0.00658256188035011,0.0100474702194333,-0.00362057704478502,0,
00:00:04.988,0.00235716346651316,0.00584590388461947,-0.000341246486641467,0,
00:00:04.992,-0.00393223483115435,-0.00648226076737046,0.00132691720500588,0,
00:00:04.996,-0.00556288892403245,-0.00868171826004982,0.00159179652109742,0,
00:00:05,-0.00109933689236641,-0.00259364070370793,0.00102648616302758,0,
00:00:05.004,0.00253086211159825,0.00275951018556952,0.00025406974600628,0,
00:00:05.008,0.00960146076977253,0.0127932829782367,0.0038521836977452,0,
00:00:05.012,0.000348179775755852,0.00363087723962963,-0.00651405286043882,0,
00:00:05.016,-0.00446671573445201,-0.0115485517308116,-0.0016926055541262,0,
00:00:05.02,-0.00883890874683857,-0.0103177921846509,0.00113211234565824,0,
00:00:05.024,-0.000491841346956789,-0.000784420815762132,-0.000167684323969297,0,
00:00:05.028,0.00550376530736685,0.0078821936622262,0.00125638057943434,0,
00:00:05.032,0.00170045625418425,0.00688668852671981,0.00606687646359205,0,
00:00:05.036,-0.00172291335184127,-0.00174154085107148,0.00360575527884066,0,
00:00:05.04,0.00393738970160484,0.00454992847517133,-0.00693431217223406,0,
00:00:05.044,-0.000610348244663328,-0.00180393550544977,-0.00796059332787991,0,
00:00:05.048,-0.00177093595266342,-0.00396576151251793,0.00056325359037146,0,
00:00:05.052,-0.00334736029617488,-0.00308739044703543,0.00368764204904437,0,
00:00:05.056,0.00578782986849546,0.00312083913013339,0.00327656301669776,0,
00:00:05.06,-0.00196641823276877,-0.00324108428321779,-0.000666962354443967,0,
00:00:05.064,-0.00461917463690043,0.000250038196099922,0.00163759989663959,0,
00:00:05.068,0.00120501953642815,-0.00312470085918903,0.00458519626408815,0,
00:00:05.072,0.00244779605418444,0.00264663295820355,-0.00495603308081627,0,
00:00:05.076,0.00151515775360167,0.00349568785168231,-0.00477303331717849,0,
00:00:05.08,0.000146437421790324,-0.000191797676961869,-0.00142866582609713,0,
00:00:05.084,-0.0028098386246711,0.00187844911124557,-0.00069292780244723,0,
00:00:05.088,0.00314094708301127,0.00243615196086466,0.00435724807903171,0,
00:00:05.092,0.0011451825266704,-0.00115566421300173,0.00140914088115096,0,
00:00:05.096,-0.00358119863085449,-0.00535909691825509,0.00488621322438121,0,
00:00:05.1,-0.00454150652512908,-0.00511449482291937,-0.00154058972839266,0,
00:00:05.104,0.00192699604667723,-0.00183122954331338,-0.00124739191960543,0,
00:00:05.108,0.00520729972049594,0.0140824094414711,-0.00438322266563773,0,
00:00:05.112,0.00195983098819852,0.00193783396389335,-0.00230264267884195,0,
00:00:05.116,-0.00139465439133346,-0.00404465850442648,-0.0015684679383412,0,
00:00:05.12,-0.0067973006516695,-0.00889747496694326,0.00399012118577957,0,
00:00:05.124,-0.000128253115690313,-0.000735392095521092,0.0036102922167629,0,
00:00:05.128,0.000528253265656531,0.00108209112659097,0.00119811808690429,0,
00:00:05.132,0.00448657479137182,0.00752074783667922,0.00120918196626008,0,
00:00:05.136,0.00278473156504333,0.00155402789823711,-0.00365771935321391,0,
00:00:05.14,-0.00420464435592294,-0.00557327456772327,-0.00510589871555567,0,
00:00:05.144,0.00630550365895033,0.0039182691834867,0.00121774116996676,0,
00:00:05.148,-0.000585273373872042,0.00606185756623745,0.00472565460950136,0,
00:00:05.152,-0.00608993554487824,-0.0118196019902825,-0.000227779528358951,0,
00:00:05.156,-0.00590929668396711,-0.00459101516753435,0.000758052105084062,0,
00:00:05.16,0.00197508768178523,0.00206158310174942,-0.00486940052360296,0,
00:00:05.164,0.00401413859799504,0.00885958317667246,-0.00179222691804171,0,
00:00:05.168,0.00699044996872544,0.00816359091550112,0.00384454848244786,0,
00:00:05.172,-0.00112935237120837,-0.00568070076406002,0.00726621737703681,0,
00:00:05.176,-0.00815596897155046,-0.0117081636562943,-0.00333675486035645,0,
00:00:05.18,-0.0034582584630698,-0.00414786674082279,-0.00451899785548449,0,
00:00:05.184,0.00198195036500692,0.0054718847386539,-0.00415931828320026,0,
00:00:05.188,0.00627212598919868,0.00628360593691468,0.00246280711144209,0,
00:00:05.192,0.00548978755250573,0.00731689063832164,0.00545735703781247,0,
00:00:05.196,-0.00245207524858415,-0.00628801807761192,-0.000168052487424575,0,
00:00:05.2,-0.00425991369411349,-0.00347846676595509,-0.00376925966702402,0,
00:00:05.204,-0.00281605706550181,0.00105038692709059,0.000685894512571394,0,
00:00:05.208,-0.000564049987588078,-0.00355263287201524,0.00334547227248549,0,
00:00:05.212,0.00102094036992639,0.00134921562857926,0.000586707552429289,0,
00:00:05.216,0.003563481150195,0.00435948744416237,-0.00185104424599558,0,
00:00:05.22,-0.000878791091963649,-0.000624612031970173,-0.0085722878575325,0,
00:00:05.224,-0.00333862123079598,0.000517919834237546,0.000398785166908056,0,
00:00:05.228,0.00158506201114506,-0.00701000262051821,0.0109280375763774,0,
00:00:05.232,0.00201167538762093,0.00230608647689223,0.000656447256915271,0,
00:00:05.236,0.000780589878559113,0.00359172956086695,-0.00488693080842495,0,
00:00:05.24,0.00164950964972377,0.00585997710004449,-0.00064559793099761,0,
00:00:05.244,-0.00292087881825864,-0.00433887168765068,0.00467707915231586,0,
00:00:05.248,-0.00244795111939311,-0.00679499981924891,-0.00559529336169362,0,
00:00:05.252,-0.000522664282470942,0.000260326953139156,-0.00125515612307936,0,
00:00:05.256,0.00301113747991621,0.0047300742007792,-0.000975857197772712,0,
00:00:05.26,-0.000627456756774336,0.00238847942091525,0.00569782499223948,0,
00:00:05.264,-0.00276619521901011,-0.00479655340313911,-0.00130703567992896,0,
00:00:05.268,-9.98031191556947E-06,-0.00433024438098073,0.00283647165633738,0,
00:00:05.272,0.00418683979660273,0.00951327569782734,-0.00380203779786825,0,
00:00:05.276,0.00443714531138539,0.0026369970291853,0.0038968010339886,0,
00:00:05.28,-0.00241734972223639,-0.00449744751676917,-0.00338159268721938,0,
00:00:05.284,-0.00569513300433755,-0.00605555484071374,-0.00292182597331703,0,
00:00:05.288,-0.000141608048579656,0.000841302797198296,-0.000358776072971523,0,
00:00:05.292,0.00149608834180981,0.00693435128778219,-0.000588344992138445,0,
00:00:05.296,0.00333916977979243,0.000205789372557774,0.00176632264629006,0,
00:00:05.3,0.00264782388694584,-0.00466704275459051,0.00688153970986605,0,
00:00:05.304,-0.00991589948534966,-0.00462403660640121,5.09229794261046E-05,0,
00:00:05.308,6.08699956501368E-05,0.000447516795247793,-0.00073159602470696,0,
00:00:05.312,0.00133768795058131,0.00160283630248159,-0.00681948568671942,0,
00:00:05.316,0.00489963963627815,0.00775866024196148,-0.00103319901973009,0,
00:00:05.32,0.00477446289733052,0.0118239922448993,0.0015613759169355,0,
00:00:05.324,0.00179454497992992,-0.00340484920889139,0.00193752441555262,0,
00:00:05.328,-0.00768741453066468,-0.0166647732257843,-0.000893106102012098,0,
00:00:05.332,-0.009734146296978,-0.0134077975526452,0.00218713656067848,0,
00:00:05.336,0.00122195249423385,0.00315895420499146,0.00120808335486799,0,
00:00:05.34,0.0100284460932016,0.0123469037935138,-0.00043176143663004,0,
00:00:05.344,0.00338442251086235,0.0111768515780568,0.00079523934982717,0,
00:00:05.348,-0.000996590708382428,0.000239935965510085,-0.00314591452479362,0,
00:00:05.352,-0.00266482238657773,-0.00462180329486728,-0.00217830506153405,0,
00:00:05.356,-0.00437132781371474,-0.00486560259014368,-6.46270491415635E-05,0,
00:00:05.36,0.000955730094574392,-0.00273834494873881,-0.000762397656217217,0,
00:00:05.364,0.00390337035059929,0.00178008631337434,0.00349454069510102,0,
00:00:05.368,-0.000985562102869153,-0.00488757574930787,0.00257130735553801,0,
00:00:05.372,-0.00165723136160523,0.00596569199115038,0.002394397277385,0,
00:00:05.376,0.00134883192367852,0.00429333979263902,-0.00529958354309201,0,
00:00:05.38,-0.00169727625325322,-2.43690756178694E-05,-0.00125919806305319,0,
00:00:05.384,-0.00505207665264606,-0.00679749390110374,0.00248890393413603,0,
00:00:05.388,0.00442987633869052,0.001149324583821,-0.00119603122584522,0,
00:00:05.392,0.00857022777199745,0.00391048053279519,-0.00316980644129217,0,
00:00:05.396,-0.00263623986393213,-0.00357358274050057,0.00197460781782866,0,
00:00:05.4,-0.00252275029197335,-0.000273320882115513,0.00239197793416679,0,
00:00:05.404,-0.00249296007677913,0.000627157918643206,0.00101600191555917,0,
00:00:05.408,-0.00780299538746476,-0.00567454379051924,0.00171385705471039,0,
00:00:05.412,0.00358736282214522,0.00200837664306164,-0.00505216000601649,0,
00:00:05.416,0.00557092763483524,0.00886460766196251,0.00150506605859846,0,
00:00:05.42,0.00317876576445997,0.00163352442905307,-0.000935291056521237,0,
00:00:05.424,8.5312916780822E-05,-0.000283043045783415,-0.00263920938596129,0,
00:00:05.428,-0.0017933202907443,-0.00521994614973664,0.0043866983614862,0,
00:00:05.432,-0.00207694666460156,-0.00383303035050631,0.000461872550658882,0,
00:00:05.436,0.000772454601246864,-0.000749885803088546,-0.00284778513014317,0,
00:00:05.44,-0.00223415670916438,0.00147653475869447,0.00124736269935966,0,
00:00:05.444,0.000915047829039395,0.0041696853004396,-0.000719274510629475,0,
00:00:05.448,-0.00558756943792105,-0.000487642508232966,0.00431912625208497,0,
00:00:05.452,0.00370133738033473,-0.00119716615881771,-0.000931668968405575,0,
00:00:05.456,0.00435261288657784,-0.00263759843073785,-0.00228725397028029,0,
00:00:05.46,0.00175792735535651,0.00417458172887564,-0.00157087331172079,0,
00:00:05.464,-0.000783800496719778,8.19064080133103E-05,-0.000302857981296256,0,
00:00:05.468,-0.00192499498371035,-0.00112390774302185,0.00268166302703321,0,
00:00:05.472,-0.00169723993167281,0.00116061989683658,-0.00318014225922525,0,
00:00:05.476,-0.000775951601099223,-0.0022655597422272,0.00304710911586881,0,
00:00:05.48,0.000133515102788806,-0.0014412107411772,-0.000293514865916222,0,
00:00:05.484,0.00270390463992953,0.0022766194306314,-0.000751630635932088,0,
00:00:05.488,-0.00339400349184871,-0.000835018639918417,-0.000271881348453462,0,
00:00:05.492,0.000729052582755685,-0.000505483825691044,0.000196518943994306,0,
00:00:05.496,0.00153935700654984,0.00247359275817871,0.000353839946910739,0,
00:00:05.5,0.00295035634189844,-0.00118259061127901,0.00024910262436606,0,
00:00:05.504,-0.00407742615789175,-0.00103645597118884,4.81290153402369E-05,0,
00:00:05.508,-0.000222971037146635,-1.87719597306568E-05,-0.00218500569462776,0,
00:00:05.512,-0.0012201142963022,0.000619446625933051,0.00181125581730157,0,
00:00:05.516,0.00471144262701273,0.00479976506903768,0.00151199602987617,0,
00:00:05.52,0.00188164156861603,-0.00156617921311408,0.000121026270790026,0,
00:00:05.524,-0.00574842793866992,-0.00740958191454411,-0.000831940909847617,0,
00:00:05.528,-0.00309042539447546,-0.000316104502417147,0.00316905090585351,0,
00:00:05.532,0.000957266602199525,-0.00338858272880316,-0.00453536026179791,0,
00:00:05.536,0.00498296553269029,0.00673174299299717,-0.00333912274800241,0,
00:00:05.54,0.00678288657218218,0.0145313385874033,-4.90980091853999E-05,0,
00:00:05.544,-0.00243069068528712,0.00230307667516172,7.64638116379501E-06,0,
00:00:05.548,-0.00747148040682077,-0.0163326058536768,0.00431798677891493,0,
00:00:05.552,-0.00410091038793325,-0.00645614368841052,0.00300480215810239,0,
00:00:05.556,-0.00158602383453399,-0.00193706783466041,0.00236622290685773,0,
00:00:05.56,0.000854064885061234,-0.00515960343182087,-0.00353702320717275,0,
00:00:05.564,0.0107488315552473,0.017083041369915,-0.00359347485937178,0,
00:00:05.568,0.00521343201398849,0.0085419537499547,-0.00146644399501383,0,
00:00:05.572,-0.00201343419030309,0.000934005656745285,-0.00154032045975327,0,
00:00:05.576,-0.0075042606331408,-0.0122280390933156,0.005502890329808,0,
00:00:05.58,-0.00692381197586656,-0.00572779448702931,-0.00109564000740647,0,
00:00:05.584,0.00152819813229144,-0.00206004385836422,0.00321468571200967,0,
00:00:05.588,0.00404868833720684,0.00494200782850385,-0.00349484733305871,0,
00:00:05.592,0.00727673852816224,0.0131216663867235,0.00194475241005421,0,
00:00:05.596,-0.00289840600453317,-0.0038391852285713,-0.00352628505788744,0,
00:00:05.6,-0.0039179720915854,-0.0133629133924842,0.0026433770544827,0,
00:00:05.604,-0.00582995405420661,-0.00445807864889503,-0.000639261619653553,0,
00:00:05.608,0.00450266059488058,0.0107479151338339,-0.00296584772877395,0,
00:00:05.612,0.0110495006665587,0.0119735496118665,0.00386212300509214,0,
00:00:05.616,-0.00423532165586948,-0.00737623823806643,7.06641440046951E-05,0,
00:00:05.62,-0.0102052120491862,-0.00948350131511688,-0.0029775348957628,0,
00:00:05.624,0.00117624900303781,0.0041885650716722,0.00133466895204037,0,
00:00:05.628,0.00605744495987892,0.00416780449450016,0.00361307407729328,0,
00:00:05.632,-0.00133717467542738,-0.00355031294748187,0.000528000993654132,0,
00:00:05.636,0.000823275768198073,-4.36511400039308E-05,-0.00621235137805343,0,
00:00:05.64,0.000430761836469173,-0.00121989485342056,-0.000667651125695556,0,
00:00:05.644,-0.000402054953156039,0.000482182833366096,0.00170844432432204,0,
00:00:05.648,0.00335486582480371,0.0119709596037865,0.00187469914089888,0,
00:00:05.652,-0.00461345491930842,-0.00637648953124881,-0.00108659430406988,0,
00:00:05.656,-0.00354574900120497,-0.00966223794966936,0.00404922384768724,0,
00:00:05.66,-0.000239735309151001,0.00125511246733367,-0.000917125726118684,0,
00:00:05.664,-8.7865351815708E-05,-0.000729287567082793,-0.00213037524372339,0,
00:00:05.668,0.00432206504046917,0.00400448171421885,-0.00143912248313427,0,
00:00:05.672,0.00306711439043283,0.00349721242673695,-0.000274997262749821,0,
00:00:05.676,0.00243672309443355,0.00320393778383732,0.00261690909974277,0,
00:00:05.68,-0.00141582905780524,-0.000800445908680558,-0.00328166806139052,0,
00:00:05.684,-0.00348161859437823,-0.0032557703088969,0.00296285725198686,0,
00:00:05.688,-0.00509714661166072,-0.00522426050156355,-0.000333441887050867,0,
00:00:05.692,-0.0054572457447648,-0.00575311575084925,-0.000749154190998524,0,
00:00:05.696,0.00397465704008937,0.00162261305376887,0.00390573567710817,0,
00:00:05.7,0.0105114355683327,0.0144123714417219,-0.00580123858526349,0,
00:00:05.704,0.0064607746899128,0.00611395016312599,-0.00301277730613947,0,
00:00:05.708,-0.00644860928878188,-0.0078419828787446,0.00351637392304838,0,
00:00:05.712,-0.00910435896366835,-0.00795779563486576,0.00354682188481092,0,
00:00:05.716,-0.00310135260224342,-0.00312304915860295,0.00127125857397914,0,
00:00:05.72,0.00659485487267375,-0.000757434172555804,-0.00078036985360086,0,
00:00:05.724,0.000491756829433143,0.00315816258080304,-0.001627754769288,0,
00:00:05.728,0.0042394888587296,0.0106200464069843,-0.00136937515344471,0,
00:00:05.732,0.000892224139533937,0.00537708960473537,-0.000585038680583239,0,
00:00:05.736,-0.0085400277748704,-0.0142777543514967,0.00222862465307117,0,
00:00:05.74,0.00072199443820864,-0.00427110772579908,-0.00351761071942747,0,
00:00:05.744,0.00489300489425659,0.00375020387582481,0.000867137045133859,0,
00:00:05.748,-0.000182280811714008,0.00366881838999689,0.00177260825876147,0,
00:00:05.752,-0.00354421581141651,-0.00500522367656231,0.00106391496956348,0,
00:00:05.756,0.000960738689173013,0.00101733941119164,5.62375971639995E-05,0,
00:00:05.76,0.00355716026388109,0.0116034839302301,-0.000571532000321895,0,
00:00:05.764,-0.00138369866181165,-0.00326240202412009,-0.000675269635394216,0,
00:00:05.768,0.00013565638801083,-0.00376514159142971,-0.000426674028858542,0,
00:00:05.772,-0.00282001169398427,-0.00728924525901675,-8.48898780532181E-05,0,
00:00:05.776,-0.0034258586820215,0.000377421180019155,0.00015885585162323,0,
00:00:05.78,0.000540474662557244,-0.000772746338043362,0.00438838172703981,0,
00:00:05.784,0.00726823043078184,0.00912062078714371,-0.00376835558563471,0,
00:00:05.788,0.00120468053501099,0.0068305698223412,-0.00528716668486595,0,
00:00:05.792,0.000334047072101384,-0.00346085033379495,0.00159880518913269,0,
00:00:05.796,-0.00629761861637235,-0.0145073207095265,0.00325909536331892,0,
00:00:05.8,-0.00315084983594716,-0.0005170579534024,9.05869746929966E-05,0,
00:00:05.804,0.00317163811996579,0.00752241630107164,0.00443330965936184,0,
00:00:05.808,0.00525268167257309,0.00754158897325397,-0.0012008371995762,0,
00:00:05.812,-0.000869547133333981,0.00309924152679741,-0.00268015684559941,0,
00:00:05.816,-0.00233162753283978,-0.00989071372896433,-0.0018972447142005,0,
00:00:05.82,-0.00363387004472315,-0.00652748439460993,-0.000473396445158869,0,
00:00:05.824,0.00378183205612004,0.00627759844064713,-0.00149009970482439,0,
00:00:05.828,0.00235073990188539,0.00220376858487725,0.00291536678560078,0,
00:00:05.832,-0.00468633603304625,-0.00462541216984391,0.00236835354007781,0,
00:00:05.836,-0.000112558867840562,0.000540967157576233,0.00668138638138771,0,
00:00:05.84,0.00143886043224484,0.00429747113958001,-0.00688058417290449,0,
00:00:05.844,-0.000821660156361759,-0.000254288228461519,-0.00624861987307668,0,
00:00:05.848,0.00242321216501296,-0.00325199263170362,-0.0014385023387149,0,
00:00:05.852,0.00346610206179321,0.00332559808157384,0.000222763716010377,0,
00:00:05.856,-0.00442280154675245,-0.000417927338276058,0.00534993084147573,0,
00:00:05.86,0.00109121261630207,0.000886776309926063,0.00609421031549573,0,
00:00:05.864,-0.00175644550472498,-0.000610833405517042,-0.001157914288342,0,
00:00:05.868,0.000854229845572263,-0.0036494005471468,-0.0011363091180101,0,
00:00:05.872,-0.00188211735803634,-0.00352572742849588,-0.00651000859215856,0,
00:00:05.876,-0.00487085338681936,-0.00109538075048476,-0.00257181981578469,0,
00:00:05.88,0.00269181840121746,0.00562642002478242,0.00598531914874911,0,
00:00:05.884,0.0128998467698693,0.0133402533829212,0.00374985835514963,0,
00:00:05.888,-0.000779102090746164,0.00204018969088793,-0.00449753692373633,0,
00:00:05.892,-0.00600084010511637,-0.0116926385089755,-0.000718455936294049,0,
00:00:05.896,-0.0135729359462857,-0.022163238376379,-0.0014211933594197,0,
00:00:05.9,-0.000376714335288852,0.005036860704422,0.00477813929319382,0,
00:00:05.904,0.015482516027987,0.0168106146156788,-1.95391294255387E-05,0,
00:00:05.908,0.0038963018450886,0.00935625098645687,-0.00155460473615676,0,
00:00:05.912,-0.000359754078090191,0.00129060097970068,-0.00129848648793995,0,
00:00:05.916,-0.00820400565862656,-0.0104016289114952,-0.00251682149246335,0,
00:00:05.92,-0.00475368043407798,-0.0123492442071438,0.00224961736239493,0,
00:00:05.924,0.00250227120704949,0.00194234121590853,0.00220493460074067,0,
00:00:05.928,0.00750913145020604,0.0101116271689534,0.00272654765285552,0,
00:00:05.932,-0.00432082079350948,-0.00153652008157223,-0.00261170277372003,0,
00:00:05.936,-0.00349087431095541,-0.00201868754811585,-0.00271517806686461,0,
00:00:05.94,0.0022017213050276,0.000123504185467027,-0.000984327401965857,0,
00:00:05.944,0.00449406635016203,0.00766457477584481,-0.00149382988456637,0,
00:00:05.948,-0.00116346636787057,-0.00043502333573997,0.00319975335150957,0,
00:00:05.952,-0.0022506108507514,-0.00426624761894345,0.00474147312343121,0,
00:00:05.956,-0.00131665100343525,-0.00818427372723818,0.00277993478812277,0,
00:00:05.96,-0.00212978292256594,-0.00402942812070251,-0.00864117033779621,0,
00:00:05.964,0.000606150249950588,0.00769057916477323,-0.00292576104402542,0,
00:00:05.968,0.00650618085637689,0.011105427518487,-0.000981839140877128,0,
00:00:05.972,0.00241465982981026,0.0023572682403028,0.00455328961834311,0,
00:00:05.976,-0.00420630676671863,-0.0111529668793082,0.00168079580180347,0,
00:00:05.98,-0.00805258564651012,-0.011207515373826,0.00297690625302494,0,
00:00:05.984,0.000587946968153119,0.00419334787875414,0.00254261959344149,0,
00:00:05.988,0.0124263390898705,0.0181187596172094,-0.00371055258437991,0,
00:00:05.992,-0.00213339738547802,-0.00281880726106465,-0.00187259586527944,0,
00:00:05.996,-0.00497849192470312,-0.00947869010269642,-0.00578322727233171,0,
00:00:06,-0.00492633273825049,-0.0047513609752059,-0.00125661247875541,0,
00:00:06.004,0.00200001476332545,-0.00101794733200222,0.00710084103047848,0,
00:00:06.008,0.00540406629443169,0.0120751867070794,0.00220239488407969,0,
00:00:06.012,3.55147603841033E-05,0.00338229956105351,-0.00256119784899056,0,
00:00:06.016,-0.00351522932760417,-0.0051035420037806,0.00264610978774726,0,
00:00:06.02,0.000850565615110099,-0.00710138771682978,-0.00152902584522963,0,
00:00:06.024,0.00338121084496379,0.00213690148666501,-0.00199649319984019,0,
00:00:06.028,-0.00154719711281359,0.000563173554837704,-0.000941566191613674,0,
00:00:06.032,-0.00411677267402411,-0.00143914495129138,-0.00187217944767326,0,
00:00:06.036,0.00110198091715574,0.00484927091747522,0.000689967011567205,0,
00:00:06.04,0.00195633620023727,0.000288399925921112,0.00646343920379877,0,
00:00:06.044,0.00103612476959825,-0.00123764481395483,0.00440068356692791,0,
00:00:06.048,-0.00215220567770302,-0.00323414499871433,-0.00625510420650244,0,
00:00:06.052,0.00129605876281857,0.00146911013871431,-0.00764852296561003,0,
00:00:06.056,0.00302027608267963,0.00380800082348287,0.000521306355949491,0,
00:00:06.06,-0.00632387353107333,-0.00557616725564003,0.0055294930934906,0,
00:00:06.064,0.00353879923932254,0.00389745063148439,0.00105405715294182,0,
00:00:06.068,-0.00174498162232339,-0.00179387745447457,0.00169315806124359,0,
00:00:06.072,-0.000907426059711725,-0.00118683557957411,-0.00251836027018726,0,
00:00:06.076,0.00910830590873957,0.00673240516334772,-0.006104642059654,0,
00:00:06.08,-0.00433622160926461,-0.00254653836600482,0.00785001739859581,0,
00:00:06.084,-0.0095318304374814,-0.00792947318404913,0.000220597212319262,0,
00:00:06.088,0.00193497200962156,0.0042503708973527,-0.00184483686462045,0,
00:00:06.092,0.0044722743332386,0.00382554857060313,-0.00139077613130212,0,
00:00:06.096,0.000785871932748705,-0.003785265609622,-0.000312156218569726,0,
00:00:06.1,0.000293522578431293,-0.00420240126550198,0.000449569663032889,0,
00:00:06.104,0.00447411090135574,0.00910016149282455,0.00065055163577199,0,
00:00:06.108,0.000347006280208007,0.00215735379606485,0.000443470635218546,0,
00:00:06.112,-0.0053275884129107,-0.00682799518108368,-0.0019726874306798,0,
00:00:06.116,-0.0039384844712913,-0.00198298972100019,0.00181953690480441,0,
00:00:06.12,-0.000648718501906842,-0.00137545738834888,0.00347016239538789,0,
00:00:06.124,0.0017108004540205,-0.00064025679603219,7.93799481471069E-05,0,
00:00:06.128,0.00231910846196115,0.00679668365046382,-0.00454525090754032,0,
00:00:06.132,0.00161056127399206,0.0059832981787622,-0.000753734027966857,0,
00:00:06.136,-0.00162399257533252,-0.00473327888175845,-0.00187053030822426,0,
00:00:06.14,0.00152373674791306,-0.004934370983392,-0.00185864756349474,0,
00:00:06.144,0.000839707208797336,0.000320944178383797,0.00379820168018341,0,
00:00:06.148,-0.000493321393150836,0.00317830312997103,0.00568756321445107,0,
00:00:06.152,-0.00322677684016526,-0.0076971584931016,-0.00278040557168424,0,
00:00:06.156,0.000982592580839992,3.81062309315894E-05,-0.000499348621815443,0,
00:00:06.16,0.00330764171667397,0.0146233635023236,0.00182073574978858,0,
00:00:06.164,0.00250583351589739,0.00268535618670285,-0.00242672394961119,0,
00:00:06.168,-0.00806842651218176,-0.014161710627377,-0.00212153908796608,0,
00:00:06.172,-0.00622921111062169,-0.00798728037625551,0.00161412649322301,0,
00:00:06.176,0.00362554006278515,0.00159412575885653,0.000923707615584135,0,
00:00:06.18,0.00810482073575258,0.00861774012446404,-0.00449696183204651,0,
00:00:06.184,0.00611287914216518,0.00825597438961267,0.00100839720107615,0,
00:00:06.188,-0.00290027796290815,0.00333854462951422,0.00463089300319552,0,
00:00:06.192,-0.0051080659031868,-0.00806146860122681,-0.00223893136717379,0,
00:00:06.196,-0.0055574937723577,-0.00695804180577397,0.000720525160431862,0,
00:00:06.2,0.0011771188583225,4.39587311120704E-05,-0.00128873833455145,0,
00:00:06.204,0.00695629231631756,0.0040822490118444,0.00405037309974432,0,
00:00:06.208,-0.00197343761101365,-0.000253174657700583,0.00115003599785268,0,
