,Elapsed Time,EMG
0,00:00:00,-0.628961324691774
1,00:00:00.004,0.6005984842777291
2,00:00:00.008,0.49348792433738775
3,00:00:00.012,0.049824364483356906
4,00:00:00.016,-0.252008832991123
5,00:00:00.02,-0.3050935864448553
6,00:00:00.024,-0.1785010471940044
7,00:00:00.028,-0.032375700771808666
8,00:00:00.032,0.06936439871788007
9,00:00:00.036,0.12090538069605872
10,00:00:00.04,0.10147448256611832
11,00:00:00.044,0.04579054936766621
12,00:00:00.048,-0.011781423818320112
13,00:00:00.052,-0.03668947983533133
14,00:00:00.056,-0.041368468664587
15,00:00:00.06,-0.02203388791531326
16,00:00:00.064,-0.002325526471395273
17,00:00:00.068,0.0228115145582706
18,00:00:00.072,0.014307985082268751
19,00:00:00.076,0.000831021461635861
20,00:00:00.08,-0.00857089733472094
21,00:00:00.084,-0.004668501263950013
22,00:00:00.088,0.0029131802730262197
23,00:00:00.092,0.0015227404655888703
24,00:00:00.096,-0.0047704808821436
25,00:00:00.1,0.00484820979181677
26,00:00:00.104,0.02160087673837548
27,00:00:00.108,-0.01013096561655402
28,00:00:00.112,-0.01875075383577496
29,00:00:00.116,-0.0034869082737714083
30,00:00:00.12,0.012469454693928132
31,00:00:00.124,-0.004206361016258592
32,00:00:00.128,-0.006932178308488801
33,00:00:00.132,0.007914696354418986
34,00:00:00.136,0.005364780314266676
35,00:00:00.14,0.0039965769392438216
36,00:00:00.144,-0.0008159377612173559
37,00:00:00.148,-0.0017252351390197832
38,00:00:00.152,-0.0016863170312717598
39,00:00:00.156,-0.00974454451352358
40,00:00:00.16,-0.0014910520694684233
41,00:00:00.164,0.003421937639359383
42,00:00:00.168,0.00235321267973632
43,00:00:00.172,0.0027859024703502707
44,00:00:00.176,0.01047365972772242
45,00:00:00.18,-0.0009682181989774203
46,00:00:00.184,-0.011100482312031059
47,00:00:00.188,-0.0131267614196986
48,00:00:00.192,0.001798065524781124
49,00:00:00.196,0.01307452516630292
50,00:00:00.2,0.01466095598880198
51,00:00:00.204,-0.0054440836374851555
52,00:00:00.208,-0.013630254194140438
53,00:00:00.212,-0.006067871756386007
54,00:00:00.216,0.0147874944377691
55,00:00:00.22,0.00245745573192835
56,00:00:00.224,-0.018927122466266173
57,00:00:00.228,0.0043612783774733595
58,00:00:00.232,0.01055643102154136
59,00:00:00.236,0.000534042133949689
60,00:00:00.24,0.004162260425800926
61,00:00:00.244,-0.007605738845199991
62,00:00:00.248,-0.007611533044837418
63,00:00:00.252,0.011982011841610076
64,00:00:00.256,0.0030026631429791403
65,00:00:00.26,-0.014644358743680638
66,00:00:00.264,-0.004392396309413012
67,00:00:00.268,0.008367113303393122
68,00:00:00.272,0.00299638090655208
69,00:00:00.276,0.0037493940908461835
70,00:00:00.28,-0.001092192687792704
71,00:00:00.284,-0.0016727816837374088
72,00:00:00.288,0.003199958067853009
73,00:00:00.292,0.006211605505086481
74,00:00:00.296,-0.017168426071293628
75,00:00:00.3,-0.0065200779936276385
76,00:00:00.304,0.010249024839140475
77,00:00:00.308,0.0021451843786053325
78,00:00:00.312,0.0075862184166908195
79,00:00:00.316,0.00178439845331013
80,00:00:00.32,-0.00583659741096199
81,00:00:00.324,-0.0012857348483521426
82,00:00:00.328,-0.010168724926188581
83,00:00:00.332,0.005797643680125471
84,00:00:00.336,-0.0007696656975895099
85,00:00:00.34,0.0007160919049056256
86,00:00:00.344,0.006683952116873112
87,00:00:00.348,0.004779491573572161
88,00:00:00.352,-0.0060100319678895115
89,00:00:00.356,-0.005599322903435677
90,00:00:00.36,-0.003768256254261363
91,00:00:00.364,-0.0006622007422265627
92,00:00:00.368,0.01029726280830803
93,00:00:00.372,0.00764670281205326
94,00:00:00.376,-0.01162693009246141
95,00:00:00.38,-0.008998145043733533
96,00:00:00.384,0.011761254747398198
97,00:00:00.388,0.018105373485013856
98,00:00:00.392,-0.008766241880948652
99,00:00:00.396,-0.02430934774383786
100,00:00:00.4,-0.004425728053320201
101,00:00:00.404,0.011933323694393037
102,00:00:00.408,0.01057758191018361
103,00:00:00.412,0.0035782057530013836
104,00:00:00.416,-0.006383726970852873
105,00:00:00.42,-0.015037528261018465
106,00:00:00.424,0.005195106445171409
107,00:00:00.428,0.0224925726652145
108,00:00:00.432,0.01520115160383284
109,00:00:00.436,-0.018773986026644655
110,00:00:00.44,-0.0308567901956849
111,00:00:00.444,-0.005166625662241131
112,00:00:00.448,0.01502663118299099
113,00:00:00.452,0.014473317656666053
114,00:00:00.456,-0.0021596550941467207
115,00:00:00.46,0.0021150073735043398
116,00:00:00.464,0.00727687834296376
117,00:00:00.468,-0.005039806157583376
118,00:00:00.472,-0.01140781381400302
119,00:00:00.476,0.0017086488660425002
120,00:00:00.48,-0.003224413376301525
121,00:00:00.484,0.000667896878439931
122,00:00:00.488,0.016373240214306885
123,00:00:00.492,-0.0015758648514747659
124,00:00:00.496,-0.011679012968670573
125,00:00:00.5,-0.010373477052780807
126,00:00:00.504,0.013478441271217894
127,00:00:00.508,0.0024960186856333175
128,00:00:00.512,-0.007608273124787958
129,00:00:00.516,3.329879837111094e-05
130,00:00:00.52,0.01633493354893291
131,00:00:00.524,-0.004019328160211444
132,00:00:00.528,-0.008229782688431444
133,00:00:00.532,-0.004981503705494109
134,00:00:00.536,-0.00241824996192008
135,00:00:00.54,0.004538628156296912
136,00:00:00.544,0.008860997593728869
137,00:00:00.548,-0.005974985717330128
138,00:00:00.552,0.0002198118163505593
139,00:00:00.556,0.00533577459282242
140,00:00:00.56,-0.0036200825998094002
141,00:00:00.564,-0.007980813330505035
142,00:00:00.568,0.0006928762886673203
143,00:00:00.572,0.01258311816491187
144,00:00:00.576,-0.00410232681315393
145,00:00:00.58,-0.0030004006111994407
146,00:00:00.584,0.002860779641196131
147,00:00:00.588,-0.003859577875118708
148,00:00:00.592,-0.008754979469813403
149,00:00:00.596,0.00011146208271384
150,00:00:00.6,0.023335417732596366
151,00:00:00.604,-0.0044143091654405
152,00:00:00.608,-0.01134119613561779
153,00:00:00.612,0.0031428505317307974
154,00:00:00.616,-0.0020344835938885903
155,00:00:00.62,-0.005793730844743553
156,00:00:00.624,0.002059082502444904
157,00:00:00.628,0.002504010975826535
158,00:00:00.632,0.007450370147125797
159,00:00:00.636,0.006796141678933053
160,00:00:00.64,0.0018872939981520159
161,00:00:00.644,-0.01975761633366342
162,00:00:00.648,-0.008474190364722745
163,00:00:00.652,0.011309459572657941
164,00:00:00.656,0.00023263454204425823
165,00:00:00.66,-0.0015483440365642303
166,00:00:00.664,0.0042889986216323355
167,00:00:00.668,0.006178507188451478
168,00:00:00.672,-0.0006370733608491773
169,00:00:00.676,-0.004973133240127939
170,00:00:00.68,0.011862184942401655
171,00:00:00.684,-0.009369775420054795
172,00:00:00.688,-0.01578697457443923
173,00:00:00.692,0.0052343740826472605
174,00:00:00.696,0.01014718203805387
175,00:00:00.7,-0.00204948103055358
176,00:00:00.704,-0.004257978103851209
177,00:00:00.708,0.008530319377314296
178,00:00:00.712,0.00784550362732261
179,00:00:00.716,-0.01515674544498329
180,00:00:00.72,-0.01127644372172656
181,00:00:00.724,0.0036048855399712933
182,00:00:00.728,0.013184896903112552
183,00:00:00.732,0.009389600483700626
184,00:00:00.736,-0.002820426961989143
185,00:00:00.74,-0.0049261637614108605
186,00:00:00.744,-0.009664404758950695
187,00:00:00.748,0.0003636354886111775
188,00:00:00.752,-0.003620420349761845
189,00:00:00.756,0.01406199368648232
190,00:00:00.76,-0.004485903831664468
191,00:00:00.764,-0.008907809169613763
192,00:00:00.768,-0.0005810123984701902
193,00:00:00.772,0.016081830020993917
194,00:00:00.776,0.0027235621528234285
195,00:00:00.78,-0.0004883951987722001
196,00:00:00.784,-0.003735968872206291
197,00:00:00.788,-0.01711876367335205
198,00:00:00.792,-0.006092336901929225
199,00:00:00.796,0.005811822600662707
200,00:00:00.8,0.018526356900110837
201,00:00:00.804,0.00605046935379505
202,00:00:00.808,-0.010150844093004702
203,00:00:00.812,0.0025516523746773583
204,00:00:00.816,-0.002843881957232956
205,00:00:00.82,-0.015112588473130038
206,00:00:00.824,-0.005779305578471392
207,00:00:00.828,0.01758623973000794
208,00:00:00.832,0.018611360283102844
209,00:00:00.836,-0.007177492749178785
210,00:00:00.84,-0.013701477670110767
211,00:00:00.844,-0.004675909513025543
212,00:00:00.848,-0.002788538884487938
213,00:00:00.852,0.005579226824920626
214,00:00:00.856,0.014709954266436401
215,00:00:00.86,-0.004543661751085892
216,00:00:00.864,-0.010909390519373122
217,00:00:00.868,-0.007354869972914461
218,00:00:00.872,0.024444281356409213
219,00:00:00.876,0.01001284969970584
220,00:00:00.88,-0.014298587979283154
221,00:00:00.884,-0.01933288248255849
222,00:00:00.888,-0.01072660915087909
223,00:00:00.892,0.0011284058273304284
224,00:00:00.896,0.02127824409399179
225,00:00:00.9,0.01905456860549748
226,00:00:00.904,-0.002014846133533861
227,00:00:00.908,-0.012342373374849561
228,00:00:00.912,-0.009464017348363996
229,00:00:00.916,0.007563464925624434
230,00:00:00.92,-0.009680673567345368
231,00:00:00.924,-0.004251641265000215
232,00:00:00.928,0.014209093933459356
233,00:00:00.932,-0.002770760023850019
234,00:00:00.936,-0.00483669433742762
235,00:00:00.94,0.00894908956252038
236,00:00:00.944,0.000366827975085473
237,00:00:00.948,-0.004620004678145053
238,00:00:00.952,0.012030272162519399
239,00:00:00.956,-0.005103632109239701
240,00:00:00.96,-0.00928948076762026
241,00:00:00.964,-0.014137857477180667
242,00:00:00.968,-0.0008218846924137279
243,00:00:00.972,0.009455827930651101
244,00:00:00.976,0.01104422705247998
245,00:00:00.98,0.010577498120255772
246,00:00:00.984,0.004681080223235762
247,00:00:00.988,-0.010799608833622184
248,00:00:00.992,-0.007315225666388869
249,00:00:00.996,-0.00943033426301554
250,00:00:01,-0.014910427020367911
251,00:00:01.004,0.01988862614962275
252,00:00:01.008,0.026497919112443893
253,00:00:01.012,-0.013534904865082402
254,00:00:01.016,-0.02163921045575985
255,00:00:01.02,0.0007926102152850942
256,00:00:01.024,0.017019951526890457
257,00:00:01.028,-0.002503132847778031
258,00:00:01.032,-0.003943953143789254
259,00:00:01.036,0.007668401580303908
260,00:00:01.04,-0.004061498664668769
261,00:00:01.044,-0.002365819178521639
262,00:00:01.048,0.007077905582264062
263,00:00:01.052,-0.00608978117816149
264,00:00:01.056,-0.010220314783509817
265,00:00:01.06,-0.0017938201926881395
266,00:00:01.064,0.011528045899467548
267,00:00:01.068,0.005192487937165425
268,00:00:01.072,-0.004426323372172199
269,00:00:01.076,-0.00522253286908381
270,00:00:01.08,-6.811933417299508e-07
271,00:00:01.084,0.005470307878567842
272,00:00:01.088,0.007703149094595581
273,00:00:01.092,-0.0019119892203889374
274,00:00:01.096,-0.005520661576383645
275,00:00:01.1,-0.0024801030231174164
276,00:00:01.104,-0.0015742883624625436
277,00:00:01.108,0.0014267996812122896
278,00:00:01.112,-0.007846096646972
279,00:00:01.116,0.0053043907391838695
280,00:00:01.12,0.0038064258696977092
281,00:00:01.124,-0.0020721299806609698
282,00:00:01.128,0.00638306559994817
283,00:00:01.132,0.0004892542347079091
284,00:00:01.136,0.003729635878698898
285,00:00:01.14,-0.014979248400777558
286,00:00:01.144,-0.0027220630145166043
287,00:00:01.148,0.010336037557863163
288,00:00:01.152,-0.0005562001606449528
289,00:00:01.156,0.0004243422299623405
290,00:00:01.16,0.008263616124168038
291,00:00:01.164,-0.00640844809822738
292,00:00:01.168,-0.00925956049468368
293,00:00:01.172,-0.01113324356265366
294,00:00:01.176,0.01098004076629878
295,00:00:01.18,0.013761749258264901
296,00:00:01.184,0.004626385954907169
297,00:00:01.188,-0.00996383070014418
298,00:00:01.192,-0.005078329471871261
299,00:00:01.196,-0.00269815011415631
300,00:00:01.2,0.0037241311656543985
301,00:00:01.204,0.012012242863420402
302,00:00:01.208,-0.000301895837765188
303,00:00:01.212,-0.0007911559659987702
304,00:00:01.216,-0.012913909449707732
305,00:00:01.22,-0.0247378641215619
306,00:00:01.224,0.007820716244168576
307,00:00:01.228,0.02459644348709848
308,00:00:01.232,0.010020647983765224
309,00:00:01.236,-0.0029437141492962833
310,00:00:01.24,-0.002118810437877985
311,00:00:01.244,-0.002619910759676709
312,00:00:01.248,0.00529187728534453
313,00:00:01.252,-0.012590183607244398
314,00:00:01.256,-0.018625069989866485
315,00:00:01.26,-0.004250173744367204
316,00:00:01.264,0.01297367350343848
317,00:00:01.268,0.021488000989847968
318,00:00:01.272,0.015096686089236765
319,00:00:01.276,-0.01454777189064775
320,00:00:01.28,-0.019666173961013594
321,00:00:01.284,0.0017198217392433396
322,00:00:01.288,0.00769103190395981
323,00:00:01.292,-0.002960993209853769
324,00:00:01.296,-0.0038405234226957003
325,00:00:01.3,0.001302129683608654
326,00:00:01.304,0.010562698007561266
327,00:00:01.308,0.006244360818527649
328,00:00:01.312,-0.0009871880756691096
329,00:00:01.316,-0.01580861315596849
330,00:00:01.32,-0.012538702692836492
331,00:00:01.324,0.010140305384993541
332,00:00:01.328,0.012943637557327739
333,00:00:01.332,-0.004043241729959851
334,00:00:01.336,-0.0017784769297577432
335,00:00:01.34,0.0042929801275022345
336,00:00:01.344,0.000973930560576264
337,00:00:01.348,-0.004695109557360411
338,00:00:01.352,-0.0036664602812379594
339,00:00:01.356,-0.004893573466688396
340,00:00:01.36,0.007457432802766563
341,00:00:01.364,0.0012803529825760071
342,00:00:01.368,7.200887193903408e-05
343,00:00:01.372,0.008420310914516449
344,00:00:01.376,-0.005698282970115539
345,00:00:01.38,-0.008610978693468498
346,00:00:01.384,-0.004716323417596861
347,00:00:01.388,0.008934447309002279
348,00:00:01.392,0.0168489546049386
349,00:00:01.396,-0.015635063318768495
350,00:00:01.4,-0.009780073363799583
351,00:00:01.404,1.1985655874010865e-05
352,00:00:01.408,0.009812510106712585
353,00:00:01.412,0.004105436477402687
354,00:00:01.416,-0.0062899801123421605
355,00:00:01.42,-0.0023906766873551524
356,00:00:01.424,0.018986787115864
357,00:00:01.428,-0.0036821854191657656
358,00:00:01.432,-0.010341976390918717
359,00:00:01.436,-0.013762288443103905
360,00:00:01.44,6.278129148995924e-06
361,00:00:01.444,0.009449823581235254
362,00:00:01.448,0.009939082931850859
363,00:00:01.452,0.0006201966607477519
364,00:00:01.456,-0.005490599006407138
365,00:00:01.46,0.000370531621683767
366,00:00:01.464,-0.004482476617965863
367,00:00:01.468,0.0023641846710233992
368,00:00:01.472,-0.00041898929339367896
369,00:00:01.476,-0.002541298719734187
370,00:00:01.48,0.0021577533334493698
371,00:00:01.484,0.006385528016835449
372,00:00:01.488,0.005096943466924131
373,00:00:01.492,-0.022130849305540358
374,00:00:01.496,0.003962239308748389
375,00:00:01.5,0.00012921571033074758
376,00:00:01.504,0.01441967790015043
377,00:00:01.508,0.00625270896125585
378,00:00:01.512,-0.010019025532528762
379,00:00:01.516,-0.0062430951511487365
380,00:00:01.52,0.00035503058461472403
381,00:00:01.524,-0.0047400824259966595
382,00:00:01.528,0.00475303403800354
383,00:00:01.532,0.0050357319414615605
384,00:00:01.536,0.004032858414575459
385,00:00:01.54,-0.004973831550159955
386,00:00:01.544,-0.0018470773939043303
387,00:00:01.548,0.0016422092739958281
388,00:00:01.552,0.002343039494007824
389,00:00:01.556,-0.007318517047679053
390,00:00:01.56,-0.009475316765019661
391,00:00:01.564,0.016444789882371007
392,00:00:01.568,0.007738056621747093
393,00:00:01.572,-0.008432664268184453
394,00:00:01.576,-0.002880030733649616
395,00:00:01.58,-0.005161196237168041
396,00:00:01.584,0.0016456836092402188
397,00:00:01.588,0.005506456058355978
398,00:00:01.592,-0.0037138018196856168
399,00:00:01.596,0.004976033407729121
400,00:00:01.6,0.00036687660031021075
401,00:00:01.604,-0.001665300791501066
402,00:00:01.608,0.00444714224431664
403,00:00:01.612,-0.017252478282898658
404,00:00:01.616,0.00286105769919232
405,00:00:01.62,0.01850127638317644
406,00:00:01.624,-0.00013818632578477806
407,00:00:01.628,-0.0070144422352314
408,00:00:01.632,-0.0124691262608394
409,00:00:01.636,-0.00478808046318591
410,00:00:01.64,0.011838955339044329
411,00:00:01.644,0.011782118584960706
412,00:00:01.648,0.004376732220407574
413,00:00:01.652,-0.0028410911327227998
414,00:00:01.656,-0.014523960824590157
415,00:00:01.66,-0.008114616124657918
416,00:00:01.664,0.001101430330891169
417,00:00:01.668,-1.5803147107361988e-05
418,00:00:01.672,0.014260155789088508
419,00:00:01.676,0.004184739722404634
420,00:00:01.68,0.0008324667346641919
421,00:00:01.684,-0.003145495531498449
422,00:00:01.688,-0.0024283621751237674
423,00:00:01.692,-0.00738373096100986
424,00:00:01.696,-0.006995716597884891
425,00:00:01.7,0.008162312675267458
426,00:00:01.704,0.01169201370794326
427,00:00:01.708,-0.00803948155953549
428,00:00:01.712,0.00044220157724339504
429,00:00:01.716,0.007180047978181401
430,00:00:01.72,-0.0001642309362068754
431,00:00:01.724,-0.01838322007097301
432,00:00:01.728,-0.00896031130105257
433,00:00:01.732,0.016505501873325553
434,00:00:01.736,0.027647500392049582
435,00:00:01.74,-0.017796604894101602
436,00:00:01.744,-0.021386288106441453
437,00:00:01.748,0.004277466097846631
438,00:00:01.752,0.018130800550352426
439,00:00:01.756,0.010719288839027282
440,00:00:01.76,-0.026030490931589108
441,00:00:01.764,-0.011697419278789312
442,00:00:01.768,0.011299358571704965
443,00:00:01.772,0.01668352750129997
444,00:00:01.776,0.0014113016659394
445,00:00:01.78,-0.0050005050143227
446,00:00:01.784,-0.011655272450298078
447,00:00:01.788,0.000848856579978019
448,00:00:01.792,0.006652192329056561
449,00:00:01.796,0.003601823642384261
450,00:00:01.8,0.003552338836016137
451,00:00:01.804,-0.0025671503972262205
452,00:00:01.808,-0.005707379896193739
453,00:00:01.812,-0.006733406626153737
454,00:00:01.816,-0.009908881584124177
455,00:00:01.82,0.006658569851424543
456,00:00:01.824,0.006614683748921385
457,00:00:01.828,0.01517718087416143
458,00:00:01.832,0.012966092093847689
459,00:00:01.836,-0.013700887582672327
460,00:00:01.84,-0.0160320270806551
461,00:00:01.844,-0.01814119890332222
462,00:00:01.848,0.009000631049275402
463,00:00:01.852,0.01619973237393423
464,00:00:01.856,0.010750265930710158
465,00:00:01.86,-0.008763244957663117
466,00:00:01.864,-0.00757814501412213
467,00:00:01.868,0.006895232458191409
468,00:00:01.872,-0.0030244169756770078
469,00:00:01.876,0.0053906838293187286
470,00:00:01.88,-0.00813112000469118
471,00:00:01.884,-0.011176605679793282
472,00:00:01.888,0.013304062769748227
473,00:00:01.892,0.00962822651490568
474,00:00:01.896,-0.00622779467084911
475,00:00:01.9,-0.00200249918998452
476,00:00:01.904,0.00277107616420835
477,00:00:01.908,-0.007155195053201169
478,00:00:01.912,-0.008052469696849588
479,00:00:01.916,-0.0029601921269204415
480,00:00:01.92,0.013182773254811769
481,00:00:01.924,0.016718295259124716
482,00:00:01.928,-0.0016688905016053492
483,00:00:01.932,-0.00482351411483251
484,00:00:01.936,-0.009992037565098142
485,00:00:01.94,-0.015091044708242407
486,00:00:01.944,0.010921561646682672
487,00:00:01.948,0.0035433171869954146
488,00:00:01.952,0.001560217417136306
489,00:00:01.956,0.0009752374862728105
490,00:00:01.96,-0.0036932003422407464
491,00:00:01.964,-0.00237978214136092
492,00:00:01.968,0.014939645501726752
493,00:00:01.972,0.0029062960529699995
494,00:00:01.976,-0.004256077023455872
495,00:00:01.98,-0.014522833575028966
496,00:00:01.984,-0.011224079993553461
497,00:00:01.988,0.0021195497829467097
498,00:00:01.992,0.012135443845181726
499,00:00:01.996,0.009933072724379603
500,00:00:02,0.007359726296272127
501,00:00:02.004,0.003921408177120611
502,00:00:02.008,-0.02010621642693882
503,00:00:02.012,-0.0045174975530244445
504,00:00:02.016,-0.0033356234198436197
505,00:00:02.02,0.0018455447861924807
506,00:00:02.024,0.0007337185088545095
507,00:00:02.028,0.00646768906153738
508,00:00:02.032,0.00547717604786157
509,00:00:02.036,0.007941511023091152
510,00:00:02.04,-0.0013111506123095733
511,00:00:02.044,-0.01802998478524384
512,00:00:02.048,0.00418732443358749
513,00:00:02.052,-0.0018025757017312498
514,00:00:02.056,-0.006657251855358481
515,00:00:02.06,0.011940048541873699
516,00:00:02.064,0.007772231299895795
517,00:00:02.068,-0.0068903878272976735
518,00:00:02.072,-0.005755337479058658
519,00:00:02.076,0.001258884556591512
520,00:00:02.08,0.00261246331501751
521,00:00:02.084,-0.0005631144740618826
522,00:00:02.088,0.004080910177435728
523,00:00:02.092,-0.0074072425486519915
524,00:00:02.096,0.00973874446935952
525,00:00:02.1,0.005721869718399831
526,00:00:02.104,-0.008397573110414667
527,00:00:02.108,-0.014993070217315151
528,00:00:02.112,-0.012050586083205422
529,00:00:02.116,0.016363406044547474
530,00:00:02.12,0.02640591750969177
531,00:00:02.124,-0.004260499743395488
532,00:00:02.128,-0.018061657130601864
533,00:00:02.132,-0.00856839795596898
534,00:00:02.136,0.01305506331846118
535,00:00:02.14,0.006118362536653875
536,00:00:02.144,-0.01168613287154586
537,00:00:02.148,-0.005181412911042569
538,00:00:02.152,0.02850838587619367
539,00:00:02.156,0.00817140065191779
540,00:00:02.16,-0.03205605084076521
541,00:00:02.164,-0.02451255102641885
542,00:00:02.168,-0.0009860628342721663
543,00:00:02.172,0.019044847867917245
544,00:00:02.176,0.025869049306493218
545,00:00:02.18,0.016218241013120836
546,00:00:02.184,-0.013923046848503876
547,00:00:02.188,-0.013672143591975331
548,00:00:02.192,-0.005534015814191664
549,00:00:02.196,-0.009563170373439784
550,00:00:02.2,-0.003730456082848835
551,00:00:02.204,0.005366405498079987
552,00:00:02.208,0.00903355515038129
553,00:00:02.212,0.004885167400061626
554,00:00:02.216,0.004286339426471382
555,00:00:02.22,0.006144248065538701
556,00:00:02.224,-0.0009789852629182908
557,00:00:02.228,-0.014762776727366166
558,00:00:02.232,-0.013814940497468337
559,00:00:02.236,0.0035436799144008537
560,00:00:02.24,0.010902043498902003
561,00:00:02.244,0.00486382237386351
562,00:00:02.248,0.0027788000879809295
563,00:00:02.252,0.0047975225606933306
564,00:00:02.256,-0.015754252439364833
565,00:00:02.26,-0.006360689178109171
566,00:00:02.264,0.0027683733496814897
567,00:00:02.268,0.00442725018365308
568,00:00:02.272,0.01352235965896398
569,00:00:02.276,-0.00651216495316476
570,00:00:02.28,-0.0019327805493958268
571,00:00:02.284,0.005577688687480981
572,00:00:02.288,-0.00019405601778998884
573,00:00:02.292,-0.0030220492044463693
574,00:00:02.296,-0.01366890443023292
575,00:00:02.3,-0.006713420792948459
576,00:00:02.304,0.01531177719334664
577,00:00:02.308,0.006446959392633286
578,00:00:02.312,-0.00806911289691925
579,00:00:02.316,-0.0010076123289763925
580,00:00:02.32,0.011674122391923456
581,00:00:02.324,0.006151804293040181
582,00:00:02.328,-0.01070153785985895
583,00:00:02.332,-0.01775695837568492
584,00:00:02.336,0.0011432948522269682
585,00:00:02.34,0.015484148287214332
586,00:00:02.344,0.012975818710401649
587,00:00:02.348,-0.0028576317708939297
588,00:00:02.352,-0.013635810231789943
589,00:00:02.356,-0.014554543304257109
590,00:00:02.36,0.00381087488494814
591,00:00:02.364,0.007713379862252656
592,00:00:02.368,0.019946550048189224
593,00:00:02.372,-0.0016621253453195104
594,00:00:02.376,-0.0221538441255689
595,00:00:02.38,0.00548521266318858
596,00:00:02.384,0.006595827057026328
597,00:00:02.388,-0.0012522325851023215
598,00:00:02.392,-0.01373142353259026
599,00:00:02.396,0.007678426802158355
600,00:00:02.4,0.012185312283691015
601,00:00:02.404,0.002314975485205651
602,00:00:02.408,-0.01403623889200384
603,00:00:02.412,-0.00788603536784648
604,00:00:02.416,-0.00047411213017766905
605,00:00:02.42,0.012644766364246642
606,00:00:02.424,0.005846401298185815
607,00:00:02.428,0.001808943809010087
608,00:00:02.432,-0.00956086424412206
609,00:00:02.436,0.004902632674202326
610,00:00:02.44,-0.002839575841790066
611,00:00:02.444,-0.012186278985609537
612,00:00:02.448,-0.0021827455493621563
613,00:00:02.452,0.015106010134331849
614,00:00:02.456,0.00712009146809578
615,00:00:02.46,0.0032657955598551793
616,00:00:02.464,-0.006771750515326861
617,00:00:02.468,-0.012152681825682517
618,00:00:02.472,-0.00872788930428214
619,00:00:02.476,0.005003279860829931
620,00:00:02.48,0.017706560902297504
621,00:00:02.484,0.011447385535575451
622,00:00:02.488,-0.008250422892160715
623,00:00:02.492,-0.016485150175867578
624,00:00:02.496,-0.01817464956548063
625,00:00:02.5,0.0038524126866832354
626,00:00:02.504,0.03370441426523032
627,00:00:02.508,0.01460657897405326
628,00:00:02.512,-0.02259717416018252
629,00:00:02.516,-0.016189033602131572
630,00:00:02.52,-0.001158071390818801
631,00:00:02.524,0.00368864467600361
632,00:00:02.528,0.010376285063102831
633,00:00:02.532,-0.005071100778877731
634,00:00:02.536,0.004676827629737089
635,00:00:02.54,0.0182498493231833
636,00:00:02.544,-0.011853260977659368
637,00:00:02.548,-0.020352893101517083
638,00:00:02.552,-0.0020444716792553603
639,00:00:02.556,0.013317043194547244
640,00:00:02.56,0.008376852143555885
641,00:00:02.564,-0.0021360717200877817
642,00:00:02.568,-0.0049633203016128434
643,00:00:02.572,-0.0076592076511587965
644,00:00:02.576,-0.007246348279295486
645,00:00:02.58,0.012267254292964942
646,00:00:02.584,0.016528867767192413
647,00:00:02.588,0.0003753935452550693
648,00:00:02.592,-0.00874218426179142
649,00:00:02.596,-0.0135086943628266
650,00:00:02.6,-0.009301162503106745
651,00:00:02.604,0.0010137784702237728
652,00:00:02.608,0.013940361677669036
653,00:00:02.612,0.01703787717269733
654,00:00:02.616,0.00501580903073773
655,00:00:02.62,-0.018634879962519377
656,00:00:02.624,-0.006853280123323198
657,00:00:02.628,-0.009172459016554061
658,00:00:02.632,0.005577431758865719
659,00:00:02.636,0.02125850319862362
660,00:00:02.64,-0.0020619971619453246
661,00:00:02.644,-0.012896192027255844
662,00:00:02.648,-0.0025681136175990096
663,00:00:02.652,-0.00045167321513872854
664,00:00:02.656,-0.0018627017852850362
665,00:00:02.66,0.00500824084156193
666,00:00:02.664,0.005371197359636426
667,00:00:02.668,0.0024560319725424103
668,00:00:02.672,0.007605379272717986
669,00:00:02.676,-0.00823509262409061
670,00:00:02.68,-0.008903987725716435
671,00:00:02.684,0.00047995336353778704
672,00:00:02.688,-0.004593036341248079
673,00:00:02.692,0.0025072616117540764
674,00:00:02.696,0.0068401500902837125
675,00:00:02.7,0.0036607345100492196
676,00:00:02.704,-0.006684424472041423
677,00:00:02.708,-0.0029581016278825683
678,00:00:02.712,0.00821550725959242
679,00:00:02.716,0.00203412433620543
680,00:00:02.72,-0.002019941879552787
681,00:00:02.724,0.007236726960400112
682,00:00:02.728,-0.01208296767435969
683,00:00:02.732,-0.01086661103181541
684,00:00:02.736,0.0017718584131216552
685,00:00:02.74,-0.003369940211996431
686,00:00:02.744,0.016134750097989987
687,00:00:02.748,0.019240767171140767
688,00:00:02.752,-0.00770461685897317
689,00:00:02.756,-0.015317660174332512
690,00:00:02.76,-0.006332033255603163
691,00:00:02.764,0.006679303682176391
692,00:00:02.768,-0.002232740134786585
693,00:00:02.772,-0.00943387683946639
694,00:00:02.776,0.0033025635930243875
695,00:00:02.78,0.015286275185644628
696,00:00:02.784,0.007763381930999459
697,00:00:02.788,0.00402942672371864
698,00:00:02.792,-0.013200939225498587
699,00:00:02.796,-0.01171858550515022
700,00:00:02.8,-0.0037878339644521497
701,00:00:02.804,0.005040382035076619
702,00:00:02.808,0.0015671711880713788
703,00:00:02.812,0.0008093597425613598
704,00:00:02.816,0.01566875772550701
705,00:00:02.82,-0.006196405855007473
706,00:00:02.824,-0.003760232381409878
707,00:00:02.828,-0.0028187228599563198
708,00:00:02.832,-0.005759904976002873
709,00:00:02.836,0.001645613578148188
710,00:00:02.84,0.001890145824290813
711,00:00:02.844,0.009159969165921208
712,00:00:02.848,-0.003429745702305807
713,00:00:02.852,-0.012255045585334301
714,00:00:02.856,0.01304127450566739
715,00:00:02.86,0.0038794879801571404
716,00:00:02.864,0.0038512042956426714
717,00:00:02.868,-0.006120650097727781
718,00:00:02.872,-0.01623664074577391
719,00:00:02.876,-0.0008016249921638506
720,00:00:02.88,0.01466307736700401
721,00:00:02.884,-0.007371169223915782
722,00:00:02.888,0.005072674888651819
723,00:00:02.892,0.002333014337636999
724,00:00:02.896,-0.00603484790190123
725,00:00:02.9,-0.0013400604366324868
726,00:00:02.904,0.0033000544062815633
727,00:00:02.908,0.02495660114800559
728,00:00:02.912,0.003273540231020888
729,00:00:02.916,-0.03234909493039598
730,00:00:02.92,-0.02206369537452698
731,00:00:02.924,0.0012053040627506557
732,00:00:02.928,0.015287469315808277
733,00:00:02.932,0.016091097932076123
734,00:00:02.936,0.016956244013272233
735,00:00:02.94,-0.00178247597068549
736,00:00:02.944,-0.013924828555900558
737,00:00:02.948,-0.007864914907258928
738,00:00:02.952,-0.00862185179721564
739,00:00:02.956,-0.0013814175035804597
740,00:00:02.96,0.0004266026444383827
741,00:00:02.964,0.01431394182145596
742,00:00:02.968,0.005755771380790969
743,00:00:02.972,-0.009905863087624317
744,00:00:02.976,0.0030851871415507083
745,00:00:02.98,0.00227347644977271
746,00:00:02.984,-0.00330660468898714
747,00:00:02.988,-0.003090544138103724
748,00:00:02.992,-0.0009437783155590352
749,00:00:02.996,-0.00120348401833326
750,00:00:03,0.0035176177043467743
751,00:00:03.004,0.007014765491476277
752,00:00:03.008,-0.0053817440639249954
753,00:00:03.012,-0.010653932666173203
754,00:00:03.016,0.011796008067904038
755,00:00:03.02,0.009589624954969622
756,00:00:03.024,-0.009709771773486855
757,00:00:03.028,-0.012388436764013022
758,00:00:03.032,0.006760027012205684
759,00:00:03.036,0.007046169797831677
760,00:00:03.04,0.0018713180907070593
761,00:00:03.044,-0.002223702496849
762,00:00:03.048,-0.015833228360861578
763,00:00:03.052,0.0033359265653416592
764,00:00:03.056,0.025705261155962916
765,00:00:03.06,0.007429593882989142
766,00:00:03.064,-0.01912662782706318
767,00:00:03.068,-0.02903750189580022
768,00:00:03.072,-0.003142780205962478
769,00:00:03.076,0.02072052925359462
770,00:00:03.08,0.02387910149991509
771,00:00:03.084,-0.00033898104447871696
772,00:00:03.088,-0.00936612067744136
773,00:00:03.092,-0.01713617355562746
774,00:00:03.096,0.0015726650308351985
775,00:00:03.1,0.012968349910806861
776,00:00:03.104,0.0011141998693346977
777,00:00:03.108,-0.003585120954085139
778,00:00:03.112,-0.00983489491045475
779,00:00:03.116,0.00845496798865497
780,00:00:03.12,0.00549588305875659
781,00:00:03.124,-0.0011587238404899788
782,00:00:03.128,-0.01081253262236714
783,00:00:03.132,-0.0022969147394178405
784,00:00:03.136,0.00942748738452792
785,00:00:03.14,-0.005523734376765789
786,00:00:03.144,9.321112884202705e-06
787,00:00:03.148,0.00334107258822769
788,00:00:03.152,0.01164216012693941
789,00:00:03.156,-0.0023289346136152744
790,00:00:03.16,-0.01114530122140422
791,00:00:03.164,-0.005719684326322748
792,00:00:03.168,-0.0049231153097935
793,00:00:03.172,0.014869674108922482
794,00:00:03.176,0.013685022069694287
795,00:00:03.18,-0.00245329330209643
796,00:00:03.184,-0.01171994477044791
797,00:00:03.188,-0.01904209743952382
798,00:00:03.192,-0.00038391805719584053
799,00:00:03.196,0.027513726148754348
800,00:00:03.2,0.00011868493311339983
801,00:00:03.204,-0.00878437061328441
802,00:00:03.208,-0.0007856179727241301
803,00:00:03.212,0.006887950468808405
804,00:00:03.216,-0.0058631488536775665
805,00:00:03.22,-0.005472121411003174
806,00:00:03.224,-0.00322066317312419
807,00:00:03.228,0.00421405222732574
808,00:00:03.232,0.015205832969513767
809,00:00:03.236,-0.005398372857598588
810,00:00:03.24,-0.016660523717291677
811,00:00:03.244,-0.0003872655797749721
812,00:00:03.248,0.007059385359752915
813,00:00:03.252,0.009076010654098321
814,00:00:03.256,0.0054044576536398355
815,00:00:03.26,-0.01044996234122664
816,00:00:03.264,0.0038732659304514506
817,00:00:03.268,0.005304739301209337
818,00:00:03.272,-0.01761033758521078
819,00:00:03.276,-0.01237554382532834
820,00:00:03.28,0.008649291354231535
821,00:00:03.284,0.03848738304805012
822,00:00:03.288,-0.002578796935267748
823,00:00:03.292,-0.030406698177102922
824,00:00:03.296,-0.009878192184260113
825,00:00:03.3,-0.006605876784306013
826,00:00:03.304,0.014422707434277936
827,00:00:03.308,0.0379848955199123
828,00:00:03.312,-0.00244211859535426
829,00:00:03.316,-0.03582255588844423
830,00:00:03.32,-0.0161498149100225
831,00:00:03.324,0.01145312259905035
832,00:00:03.328,0.010967137466650472
833,00:00:03.332,0.007982168579474095
834,00:00:03.336,0.015542638604529199
835,00:00:03.34,0.0013754131505265802
836,00:00:03.344,-0.029310534388059764
837,00:00:03.348,-0.01617442618589848
838,00:00:03.352,0.011578504607314246
839,00:00:03.356,0.013786087773041786
840,00:00:03.36,0.002269902179250491
841,00:00:03.364,0.007054221807266004
842,00:00:03.368,0.0008492618144373454
843,00:00:03.372,-0.025822502910159494
844,00:00:03.376,-0.00357108097523451
845,00:00:03.38,0.01714654476381839
846,00:00:03.384,0.0027016520252800547
847,00:00:03.388,0.00362087693065404
848,00:00:03.392,-0.00858185172546655
849,00:00:03.396,0.004669029498472805
850,00:00:03.4,0.025771534186787886
851,00:00:03.404,-0.01904671458760274
852,00:00:03.408,-0.03810616116970775
853,00:00:03.412,-0.0026688455163821293
854,00:00:03.416,0.01943486990057863
855,00:00:03.42,0.029872711544157944
856,00:00:03.424,0.011719643880496736
857,00:00:03.428,-0.015454619890078906
858,00:00:03.432,-0.0241247110534459
859,00:00:03.436,-0.009489241776464048
860,00:00:03.44,0.013435049913823612
861,00:00:03.444,0.01155013428069651
862,00:00:03.448,-0.00948480889201164
863,00:00:03.452,0.0063484224374406
864,00:00:03.456,0.0045287344255484675
865,00:00:03.46,-0.005130681038281185
866,00:00:03.464,-0.0022554948081960867
867,00:00:03.468,-0.006993490052991551
868,00:00:03.472,0.008051490149227897
869,00:00:03.476,-0.0007769542280584569
870,00:00:03.48,0.0012379687104839814
871,00:00:03.484,0.01326332963071768
872,00:00:03.488,-0.00999216138734482
873,00:00:03.492,-0.0043853393290191845
874,00:00:03.496,-0.015653003298211808
875,00:00:03.5,-0.00449055159697309
876,00:00:03.504,0.021667126246029518
877,00:00:03.508,0.02230137614242267
878,00:00:03.512,-0.010207025567069655
879,00:00:03.516,-0.023680030892137462
880,00:00:03.52,-0.00680743778502801
881,00:00:03.524,0.010443056235089902
882,00:00:03.528,0.014669431329821198
883,00:00:03.532,-0.00384797214064746
884,00:00:03.536,-0.000923281826544555
885,00:00:03.54,0.0028440155292628303
886,00:00:03.544,-0.00571945391129702
887,00:00:03.548,-0.008866357849910862
888,00:00:03.552,0.0009463953829254015
889,00:00:03.556,0.003039991541299972
890,00:00:03.56,0.00452713435515761
891,00:00:03.564,0.013885493273846757
892,00:00:03.568,0.00160115282051265
893,00:00:03.572,-0.004621946951374415
894,00:00:03.576,-0.02083014557138082
895,00:00:03.58,-0.02020091516897078
896,00:00:03.584,0.007688431534916168
897,00:00:03.588,0.020658745255786926
898,00:00:03.592,0.02339687262428928
899,00:00:03.596,0.016477082273922857
900,00:00:03.6,-0.029476900643203366
901,00:00:03.604,-0.02947414296795613
902,00:00:03.608,-0.00042470038169994885
903,00:00:03.612,0.013651022600242918
904,00:00:03.616,0.009564682084601376
905,00:00:03.62,7.464272493962895e-05
906,00:00:03.624,0.005728513911890335
907,00:00:03.628,-0.0013990214793011618
908,00:00:03.632,-8.706538937985984e-05
909,00:00:03.636,-0.009735496831126513
910,00:00:03.64,-0.0050245329330209625
911,00:00:03.644,0.005678791596437809
912,00:00:03.648,0.004977424148819404
913,00:00:03.652,-0.00914014538284391
914,00:00:03.656,4.855042789131403e-05
915,00:00:03.66,0.00970148916167091
916,00:00:03.664,0.01197601668536663
917,00:00:03.668,0.014132457436062392
918,00:00:03.672,-0.024963780306279677
919,00:00:03.676,-0.025480248034000383
920,00:00:03.68,-0.007113790026778581
921,00:00:03.684,0.013039454035606515
922,00:00:03.688,0.0190109515096992
923,00:00:03.692,0.010639421641826578
924,00:00:03.696,-0.004156801354838534
925,00:00:03.7,-0.0004219609545543807
926,00:00:03.704,-0.003993310980149546
927,00:00:03.708,-0.01413195207715035
928,00:00:03.712,-0.004769545979797841
929,00:00:03.716,0.0048860312672331895
930,00:00:03.72,0.018640341470018078
931,00:00:03.724,0.00863076280802488
932,00:00:03.728,-0.003898100869264458
933,00:00:03.732,-0.01201509207021445
934,00:00:03.736,-0.02143682958558201
935,00:00:03.74,0.0030925163882784597
936,00:00:03.744,0.0016406971262768002
937,00:00:03.748,0.0073835249640978855
938,00:00:03.752,0.0069661898742197
939,00:00:03.756,0.009850279951933773
940,00:00:03.76,-0.001622306823264811
941,00:00:03.764,-0.0024564123887103042
942,00:00:03.768,0.002670399680937402
943,00:00:03.772,-0.005026911268942058
944,00:00:03.776,-0.012772213274729416
945,00:00:03.78,-0.010339596439735038
946,00:00:03.784,0.010513887067645559
947,00:00:03.788,0.02502103141887349
948,00:00:03.792,0.013025690866925295
949,00:00:03.796,-0.02434406841348386
950,00:00:03.8,-0.022451341603300534
951,00:00:03.804,-0.0025587417280803493
952,00:00:03.808,0.009118900419707646
953,00:00:03.812,0.013182139462514895
954,00:00:03.816,0.004934175915877854
955,00:00:03.82,-0.0004722657879483449
956,00:00:03.824,-0.009244751208370879
957,00:00:03.828,0.004815573488940571
958,00:00:03.832,0.007189772853052998
959,00:00:03.836,-0.009616155314915886
960,00:00:03.84,-0.00927243387212684
961,00:00:03.844,-0.00044282112412474665
962,00:00:03.848,0.009775724569067275
963,00:00:03.852,0.016927046832222497
964,00:00:03.856,-0.01151791279900819
965,00:00:03.86,-0.015925299501418543
966,00:00:03.864,0.0005493474336049132
967,00:00:03.868,0.017139449782888515
968,00:00:03.872,-0.0038324620157084172
969,00:00:03.876,-0.0057540049185718116
970,00:00:03.88,-0.00592010761535278
971,00:00:03.884,-0.0005573415772914814
972,00:00:03.888,0.022370651742903636
973,00:00:03.892,0.015990860136325204
974,00:00:03.896,-0.01848177305574339
975,00:00:03.9,-0.03105060799993358
976,00:00:03.904,-0.013770996964822754
977,00:00:03.908,0.014489336131501517
978,00:00:03.912,0.022802667086685838
979,00:00:03.916,0.01956374281582106
980,00:00:03.92,0.0008481586527180316
981,00:00:03.924,-0.01628532521656907
982,00:00:03.928,-0.014313001477299851
983,00:00:03.932,-0.00954025657847524
984,00:00:03.936,0.006419971818104381
985,00:00:03.94,0.007136683881981302
986,00:00:03.944,0.01589662430342292
987,00:00:03.948,-0.01166620705043896
988,00:00:03.952,-0.011072495399275786
989,00:00:03.956,0.012379981490084901
990,00:00:03.96,0.013773071113973856
991,00:00:03.964,-0.016246392973698696
992,00:00:03.968,-0.001834290065744426
993,00:00:03.972,-0.004128397471504291
994,00:00:03.976,-0.007149016440962444
995,00:00:03.98,0.004042628454044465
996,00:00:03.984,0.008080273757514078
997,00:00:03.988,0.006131671460934745
998,00:00:03.992,-0.0002933260329882615
999,00:00:03.996,0.010502161276235713
1000,00:00:04,-0.011577572022360988
1001,00:00:04.004,-0.008806845463823265
1002,00:00:04.008,-0.0009152348029601873
1003,00:00:04.012,0.0018280924978171219
1004,00:00:04.016,6.403584666259208e-05
1005,00:00:04.02,0.005510911626970491
1006,00:00:04.024,0.00026679527945816604
1007,00:00:04.028,-0.020172937307506827
1008,00:00:04.032,-0.002221739443484698
1009,00:00:04.036,0.03623786172829571
1010,00:00:04.04,0.03759281849488619
1011,00:00:04.044,-0.01995612494647502
1012,00:00:04.048,-0.05240851524285972
1013,00:00:04.052,-0.03557723411358889
1014,00:00:04.056,0.013463203795254229
1015,00:00:04.06,0.03396712112589742
1016,00:00:04.064,0.030073221249040195
1017,00:00:04.068,0.012184886960312707
1018,00:00:04.072,-0.00562457903288305
1019,00:00:04.076,-0.02528453245759013
1020,00:00:04.08,-0.025480662705376748
1021,00:00:04.084,-0.007479621155653155
1022,00:00:04.088,0.016717279795557292
1023,00:00:04.092,0.01688138791359959
1024,00:00:04.096,0.01167195953894407
1025,00:00:04.1,-0.003496823159366615
1026,00:00:04.104,-0.011425454751588399
1027,00:00:04.108,-0.00797801010776311
1028,00:00:04.112,-0.00787502294406294
1029,00:00:04.116,0.01499271811917425
1030,00:00:04.12,-0.003114068065769969
1031,00:00:04.124,0.0044879803899675694
1032,00:00:04.128,0.011090255575254528
1033,00:00:04.132,-0.0086415174882859
1034,00:00:04.136,-0.011371898464858527
1035,00:00:04.14,-0.0034433973487466595
1036,00:00:04.144,0.0035935410414822486
1037,00:00:04.148,0.01217042445205153
1038,00:00:04.152,-0.0015675083000417065
1039,00:00:04.156,0.00047254908713511814
1040,00:00:04.16,-0.007853390794480216
1041,00:00:04.164,0.009274647658457976
1042,00:00:04.168,-0.0012497023562900696
1043,00:00:04.172,-0.013394151828833868
1044,00:00:04.176,-0.0002375942422077058
1045,00:00:04.18,-0.000850218282721468
1046,00:00:04.184,0.011214036359888272
1047,00:00:04.188,0.005356743881748114
1048,00:00:04.192,6.38179408269908e-05
1049,00:00:04.196,0.009529918199405069
1050,00:00:04.2,-0.011094323243014508
1051,00:00:04.204,-0.01809949125163255
1052,00:00:04.208,0.00533710501622408
1053,00:00:04.212,-0.00510748568922282
1054,00:00:04.216,0.010598570224829018
1055,00:00:04.22,0.010691131465137005
1056,00:00:04.224,-0.010622850037179894
1057,00:00:04.228,-0.007575904252007597
1058,00:00:04.232,0.01516767212888221
1059,00:00:04.236,0.014545218949933766
1060,00:00:04.24,-0.0005943357245996599
1061,00:00:04.244,-0.021368555724620784
1062,00:00:04.248,-0.02499001519754525
1063,00:00:04.252,0.00031698204111307686
1064,00:00:04.256,0.030034207273274622
1065,00:00:04.26,0.01721360883675516
1066,00:00:04.264,-0.016517584677785628
1067,00:00:04.268,-0.015094951784703891
1068,00:00:04.272,0.0193940207827836
1069,00:00:04.276,-0.0037084975047036897
1070,00:00:04.28,-0.011436347558628785
1071,00:00:04.284,-0.005660867056576533
1072,00:00:04.288,0.01023945468477905
1073,00:00:04.292,0.012561734532937411
1074,00:00:04.296,-0.002278170039062386
1075,00:00:04.3,-0.0065907498355955
1076,00:00:04.304,0.001251687761396167
1077,00:00:04.308,-0.007415989879518751
1078,00:00:04.312,-0.0161257536383346
1079,00:00:04.316,0.01153491553850472
1080,00:00:04.32,0.022451498996815655
1081,00:00:04.324,0.013103801815304877
1082,00:00:04.328,-0.015814936166862005
1083,00:00:04.332,-0.021799588103021947
1084,00:00:04.336,-0.014457274490268901
1085,00:00:04.34,0.0047393244749400695
1086,00:00:04.344,0.02136086257814896
1087,00:00:04.348,0.016206399453949458
1088,00:00:04.352,0.0015427385224029372
1089,00:00:04.356,-0.012674842160777142
1090,00:00:04.36,-0.010633635392878201
1091,00:00:04.364,-0.005591851562712694
1092,00:00:04.368,0.014616343682064294
1093,00:00:04.372,0.0003754091048904228
1094,00:00:04.376,-0.010444212108268364
1095,00:00:04.38,0.0025421360614927852
1096,00:00:04.384,0.0020545453021441084
1097,00:00:04.388,-0.004543394201391494
1098,00:00:04.392,0.006879912017211611
1099,00:00:04.396,0.011278865556050732
1100,00:00:04.4,-0.007923689683593693
1101,00:00:04.404,-0.008189125219360001
1102,00:00:04.408,-0.0004890793934464459
1103,00:00:04.412,0.012623104616068304
1104,00:00:04.416,-0.0118186976760626
1105,00:00:04.42,-0.015626042499207012
1106,00:00:04.424,0.01630666597338859
1107,00:00:04.428,0.020135976548772305
1108,00:00:04.432,-0.0036086588515900023
1109,00:00:04.436,-0.013055236951913688
1110,00:00:04.44,-0.002336424615350553
1111,00:00:04.444,-0.006973850729991675
1112,00:00:04.448,-0.009342857403680689
1113,00:00:04.452,0.003976386738941028
1114,00:00:04.456,0.03265847556758676
1115,00:00:04.46,0.0033631834667176
1116,00:00:04.464,-0.017782529816031442
1117,00:00:04.468,-0.011362883349647749
1118,00:00:04.472,-0.006723525235429407
1119,00:00:04.476,0.001102049893233922
1120,00:00:04.48,0.012243128148838874
1121,00:00:04.484,0.01513298181816931
1122,00:00:04.488,0.00812097196467221
1123,00:00:04.492,-0.014257036731578437
1124,00:00:04.496,-0.02355376747436821
1125,00:00:04.5,-0.0030971012893132852
1126,00:00:04.504,0.0019786743214353893
1127,00:00:04.508,0.0056599494419060595
1128,00:00:04.512,0.014855138957500489
1129,00:00:04.516,0.028188144322484687
1130,00:00:04.52,0.00548756770149339
1131,00:00:04.524,-0.03394942637532953
1132,00:00:04.528,-0.034640004276298014
1133,00:00:04.532,0.0004561342357192178
1134,00:00:04.536,0.016690012475010046
1135,00:00:04.54,0.014865955716231808
1136,00:00:04.544,0.010857580258743837
1137,00:00:04.548,-0.0004435405717231301
1138,00:00:04.552,-0.005244576954282822
1139,00:00:04.556,-0.0013124325778335294
1140,00:00:04.56,-0.007260451093316076
1141,00:00:04.564,-0.0019697542884387046
1142,00:00:04.568,-0.001377829525154078
1143,00:00:04.572,0.005676380591467019
1144,00:00:04.576,0.001125303446315228
1145,00:00:04.58,0.007637938775587832
1146,00:00:04.584,-0.008789331055595541
1147,00:00:04.588,-0.01948377722874284
1148,00:00:04.592,0.009090781211853029
1149,00:00:04.596,0.019638421246781917
1150,00:00:04.6,0.007320691249333322
1151,00:00:04.604,-0.013571248389780518
1152,00:00:04.608,-0.00843159609939903
1153,00:00:04.612,0.010866093449294564
1154,00:00:04.616,-0.002856356091797357
1155,00:00:04.62,-0.014067870215512805
1156,00:00:04.624,0.004738606163300571
1157,00:00:04.628,0.0008140583759086422
1158,00:00:04.632,0.005142457346664747
1159,00:00:04.636,6.414574454538502e-05
1160,00:00:04.64,0.0010519598436076222
1161,00:00:04.644,0.012180495461507238
1162,00:00:04.648,0.0016282109936582925
1163,00:00:04.652,-0.012056656603817828
1164,00:00:04.656,-0.022455187354353267
1165,00:00:04.66,-0.0033634746905590904
1166,00:00:04.664,0.028971464247661043
1167,00:00:04.668,0.018420897067699074
1168,00:00:04.672,-0.015300760715035722
1169,00:00:04.676,-0.013097088341965029
1170,00:00:04.68,-0.0025794840685193724
1171,00:00:04.684,0.002364844347994224
1172,00:00:04.688,0.009665240874710438
1173,00:00:04.692,-0.005608763290638312
1174,00:00:04.696,-0.006342448526993399
1175,00:00:04.7,0.00874092709273099
1176,00:00:04.704,0.00316725738230162
1177,00:00:04.708,-0.00760780146811158
1178,00:00:04.712,0.0028634771006181897
1179,00:00:04.716,0.0004468510887818397
1180,00:00:04.72,0.0017263804911635794
1181,00:00:04.724,0.0018040451395791017
1182,00:00:04.728,-0.00989055639365688
1183,00:00:04.732,-0.005684244359144944
1184,00:00:04.736,0.016060054273111732
1185,00:00:04.74,0.006329252195428132
1186,00:00:04.744,-0.011456437539891352
1187,00:00:04.748,-0.005203660475672221
1188,00:00:04.752,0.00082393190223229
1189,00:00:04.756,0.0035501301717886197
1190,00:00:04.76,0.013570502087532079
1191,00:00:04.764,-0.002320289506315025
1192,00:00:04.768,-0.016698661522241358
1193,00:00:04.772,-0.007326677041419318
1194,00:00:04.776,0.01422074619767957
1195,00:00:04.78,0.0028785725953639455
1196,00:00:04.784,-0.009298449275775056
1197,00:00:04.788,0.0022735121310688508
1198,00:00:04.792,0.02008673665113745
1199,00:00:04.796,-0.003908762824721631
1200,00:00:04.8,-0.00671058264560997
1201,00:00:04.804,-0.01396311121061445
1202,00:00:04.808,-0.011567021487280721
1203,00:00:04.812,0.007666210120078185
1204,00:00:04.816,0.01451107999309897
1205,00:00:04.82,0.008393079129746177
1206,00:00:04.824,-0.002012455384829084
1207,00:00:04.828,0.0011429013975430252
1208,00:00:04.832,-0.005902363132918255
1209,00:00:04.836,-0.01687518322432882
1210,00:00:04.84,0.004448238818440588
1211,00:00:04.844,0.012589900696184503
1212,00:00:04.848,0.0030940151482354798
1213,00:00:04.852,-0.0090717386410688
1214,00:00:04.856,-0.00048546236939727783
1215,00:00:04.86,0.004022135603008795
1216,00:00:04.864,-0.0025240343529730996
1217,00:00:04.868,-0.0055360640399158
1218,00:00:04.872,0.00689859146950766
1219,00:00:04.876,0.0010649405594449536
1220,00:00:04.88,0.01453734049573541
1221,00:00:04.884,0.002806851640343667
1222,00:00:04.888,-0.0273276260122657
1223,00:00:04.892,-0.0021700886427424874
1224,00:00:04.896,-0.005726159928599372
1225,00:00:04.9,-0.002499297610484066
1226,00:00:04.904,0.015630489273462448
1227,00:00:04.908,0.022047069120162605
1228,00:00:04.912,-0.00351045024581253
1229,00:00:04.916,-0.012404157212586156
1230,00:00:04.92,-0.005826621345477179
1231,00:00:04.924,0.00941224803682417
1232,00:00:04.928,0.002086119726300251
1233,00:00:04.932,-0.01806352171115582
1234,00:00:04.936,-0.007802281179465349
1235,00:00:04.94,0.0031493757851421803
1236,00:00:04.944,0.012640311906579908
1237,00:00:04.948,0.01636567682726305
1238,00:00:04.952,0.009582673374097794
1239,00:00:04.956,-0.009340515185613192
1240,00:00:04.96,-0.02356584230437879
1241,00:00:04.964,-0.017422983628421165
1242,00:00:04.968,0.005371173341700337
1243,00:00:04.972,0.017579674749868032
1244,00:00:04.976,0.021815636398969197
1245,00:00:04.98,0.008427037908404598
1246,00:00:04.984,-0.00779428309760988
1247,00:00:04.988,-0.03126250579953188
1248,00:00:04.992,-0.012749132001772516
1249,00:00:04.996,0.0034975442831637338
1250,00:00:05,0.01758974103722721
1251,00:00:05.004,0.013351349000004151
1252,00:00:05.008,-0.0006322631379589502
1253,00:00:05.012,-0.006355751014780255
1254,00:00:05.016,0.0025031453697010827
1255,00:00:05.02,0.006277419750404071
1256,00:00:05.024,-0.0028686997829936436
1257,00:00:05.028,-0.010490842221770436
1258,00:00:05.032,-0.015775329971802417
1259,00:00:05.036,-0.0015329659436247329
1260,00:00:05.04,0.01808395705165825
1261,00:00:05.044,0.01437421422451734
1262,00:00:05.048,-0.0071364121613441975
1263,00:00:05.052,-0.014286261372035399
1264,00:00:05.056,-0.00310295133385807
1265,00:00:05.06,0.018706881499383612
1266,00:00:05.064,0.013037840137258169
1267,00:00:05.068,-0.004142509045777848
1268,00:00:05.072,-0.023680131649598462
1269,00:00:05.076,-0.012380858650431068
1270,00:00:05.08,0.007067403883411313
1271,00:00:05.084,0.010993808507919318
1272,00:00:05.088,-0.0012176031050330474
1273,00:00:05.092,-0.0010517729097045967
1274,00:00:05.096,0.013986814068630338
1275,00:00:05.1,0.00535370729630813
1276,00:00:05.104,-0.0050779220182448626
1277,00:00:05.108,-0.01748275151476264
1278,00:00:05.112,-0.00542995473369956
1279,00:00:05.116,0.016398639592807737
1280,00:00:05.12,0.00982336688321084
1281,00:00:05.124,-0.01825445966096596
1282,00:00:05.128,-0.006650649043876912
1283,00:00:05.132,-0.0035364617942832462
1284,00:00:05.136,0.00395889184437692
1285,00:00:05.14,0.02012592600658535
1286,00:00:05.144,0.015436870336998244
1287,00:00:05.148,-0.006035116733983159
1288,00:00:05.152,-0.02141612977720797
1289,00:00:05.156,-0.017097734380513437
1290,00:00:05.16,0.001817714102799068
1291,00:00:05.164,0.02132741163950416
1292,00:00:05.168,0.0007203426212072381
1293,00:00:05.172,-0.000918802117666923
1294,00:00:05.176,-0.0012911833473481238
1295,00:00:05.18,-0.009424741263501348
1296,00:00:05.184,0.007168087671743697
1297,00:00:05.188,0.00624278451141436
1298,00:00:05.192,0.0027602359386946734
1299,00:00:05.196,0.001005837628326847
1300,00:00:05.2,-0.01153738453285768
1301,00:00:05.204,-0.00961753500450869
1302,00:00:05.208,0.004048197788506509
1303,00:00:05.212,0.0023155262460932092
1304,00:00:05.216,0.007887545740231872
1305,00:00:05.22,0.0017955627408809984
1306,00:00:05.224,-0.001267336994715152
1307,00:00:05.228,-0.006263767078053212
1308,00:00:05.232,0.0002486762823537007
1309,00:00:05.236,0.01289362832903862
1310,00:00:05.24,-0.014069162774831098
1311,00:00:05.244,0.00034738710382954023
1312,00:00:05.248,0.00969457533210516
1313,00:00:05.252,0.0002850489690899801
1314,00:00:05.256,-0.010995431803166849
1315,00:00:05.26,-0.00512940715998411
1316,00:00:05.264,0.002463282900862389
1317,00:00:05.268,0.0079280233476311
1318,00:00:05.272,0.009137318062130355
1319,00:00:05.276,-0.0036609685048461004
1320,00:00:05.28,-0.0059945760294795
1321,00:00:05.284,-0.007734224898740639
1322,00:00:05.288,0.007736520841717718
1323,00:00:05.292,-0.003177001999574713
1324,00:00:05.296,-0.0011096062953583957
1325,00:00:05.3,0.008574477629736068
1326,00:00:05.304,0.001572550114360642
1327,00:00:05.308,-0.0026420972426421897
1328,00:00:05.312,-0.001453231117920948
1329,00:00:05.316,-0.002160841162549328
1330,00:00:05.32,-0.001948293676832697
1331,00:00:05.324,-0.011179121946042913
1332,00:00:05.328,0.014477975550107675
1333,00:00:05.332,0.00956646069244016
1334,00:00:05.336,-0.009332540666946446
1335,00:00:05.34,-0.007329637912334876
1336,00:00:05.344,-0.002625641238410026
1337,00:00:05.348,0.016165639477549145
1338,00:00:05.352,-0.00392064025800209
1339,00:00:05.356,-0.003605641737522089
1340,00:00:05.36,-0.0017008683862513889
1341,00:00:05.364,-0.004115379553695678
1342,00:00:05.368,0.006928246190000211
1343,00:00:05.372,0.006384938823430268
1344,00:00:05.376,-0.00890487444121391
1345,00:00:05.38,-0.0012039573266520087
1346,00:00:05.384,0.0034877471625804892
1347,00:00:05.388,-0.0025981488870456797
1348,00:00:05.392,0.005091097671538593
1349,00:00:05.396,-0.0005807159905089108
1350,00:00:05.4,-0.010982632404193298
1351,00:00:05.404,0.0015804097347427138
1352,00:00:05.408,0.009885504841804504
1353,00:00:05.412,0.002594520847196687
1354,00:00:05.416,-0.0019064819898630984
1355,00:00:05.42,0.005070266197435557
1356,00:00:05.424,-0.010283794181304977
1357,00:00:05.428,-0.013554954210121655
1358,00:00:05.432,0.00992333157881831
1359,00:00:05.436,0.0054414163751061945
1360,00:00:05.44,-0.0018517827666073609
1361,00:00:05.444,0.006113132601967662
1362,00:00:05.448,0.0022773290070290386
1363,00:00:05.452,-0.0004565301251204868
1364,00:00:05.456,-0.014632962435825903
1365,00:00:05.46,0.0009045540937222584
1366,00:00:05.464,0.005312999317084174
1367,00:00:05.468,0.006130946012888215
1368,00:00:05.472,0.0012562721174163014
1369,00:00:05.476,-0.0005289967189128216
1370,00:00:05.48,-0.009678800498477386
1371,00:00:05.484,-0.006221397994011117
1372,00:00:05.488,0.0045030609608716025
1373,00:00:05.492,0.006951767628493145
1374,00:00:05.496,0.010656054176365608
1375,00:00:05.5,0.0009120744653046101
1376,00:00:05.504,-0.017063064617104842
1377,00:00:05.508,-0.004300073545891789
1378,00:00:05.512,0.01362558815162628
1379,00:00:05.516,-0.002549887460190802
1380,00:00:05.52,-0.01690580425201911
1381,00:00:05.524,0.014506503066513647
1382,00:00:05.528,0.017622738938371144
1383,00:00:05.532,-0.007663107564439996
1384,00:00:05.536,-0.013819944877468557
1385,00:00:05.54,-0.010619513275742093
1386,00:00:05.544,0.001611260915524331
1387,00:00:05.548,0.01513095381960738
1388,00:00:05.552,0.013234140606073194
1389,00:00:05.556,-0.010554807068729136
1390,00:00:05.56,-0.005307053786964382
1391,00:00:05.564,0.0003249774053983856
1392,00:00:05.568,0.00459051341749728
1393,00:00:05.572,-0.004336840822361399
1394,00:00:05.576,-0.01430941326543686
1395,00:00:05.58,0.005058786948211489
1396,00:00:05.584,0.014037450077012228
1397,00:00:05.588,0.0025845205527730342
1398,00:00:05.592,-0.00018692469166126102
1399,00:00:05.596,-0.005204610759392381
1400,00:00:05.6,0.0023116279626265125
1401,00:00:05.604,-0.002771923871478061
1402,00:00:05.608,-0.003604300690426496
1403,00:00:05.612,-0.010162584570934996
1404,00:00:05.616,0.0061816804227419215
1405,00:00:05.62,0.016470007991301855
1406,00:00:05.624,0.0024200750922318518
1407,00:00:05.628,-0.012974605768249598
1408,00:00:05.632,-0.014810033113462833
1409,00:00:05.636,0.0036633275376516377
1410,00:00:05.64,0.007704082119744272
1411,00:00:05.644,0.009533381118671974
1412,00:00:05.648,0.012231172760948518
1413,00:00:05.652,-0.005640599643811584
1414,00:00:05.656,-0.01933343638665976
1415,00:00:05.66,-0.004292702360544357
1416,00:00:05.664,0.020790857786778354
1417,00:00:05.668,-0.003330188570544123
1418,00:00:05.672,-0.021017430815845728
1419,00:00:05.676,0.0006721589888911729
1420,00:00:05.68,0.01606100506614893
1421,00:00:05.684,0.001124492031522093
1422,00:00:05.688,0.007152687758207321
1423,00:00:05.692,0.00014936074148863034
1424,00:00:05.696,-0.01617862656712531
1425,00:00:05.7,-0.003057473470107653
1426,00:00:05.704,0.008179186144843704
1427,00:00:05.708,-0.0006719592493027362
1428,00:00:05.712,0.004055178142152722
1429,00:00:05.716,0.0059676445598597656
1430,00:00:05.72,0.0031525155574314624
1431,00:00:05.724,-0.01372678787447512
1432,00:00:05.728,-0.017334128497168422
1433,00:00:05.732,0.00391017129004467
1434,00:00:05.736,0.014249351865146313
1435,00:00:05.74,0.01645858224947006
1436,00:00:05.744,0.0003567891544662401
1437,00:00:05.748,-0.01064484752714634
1438,00:00:05.752,-0.0031573731685057204
1439,00:00:05.756,-0.011583710787817812
1440,00:00:05.76,-0.00968250911682844
1441,00:00:05.764,0.014962836401537088
1442,00:00:05.768,0.01492575398879123
1443,00:00:05.772,-0.00718669107300229
1444,00:00:05.776,0.006059559353161595
1445,00:00:05.78,0.00422020792029798
1446,00:00:05.784,-0.022559026838280302
1447,00:00:05.788,-0.002627767826197666
1448,00:00:05.792,-0.00284527894109487
1449,00:00:05.796,0.007789863622747358
1450,00:00:05.8,0.020035851128341137
1451,00:00:05.804,0.0040560444467701
1452,00:00:05.808,-0.007593134418129919
1453,00:00:05.812,-0.014600366819649909
1454,00:00:05.816,-0.01123555563390258
1455,00:00:05.82,-0.0005236045108176772
1456,00:00:05.824,0.01542423572391268
1457,00:00:05.828,0.01116027287207545
1458,00:00:05.832,0.0017496679211035393
1459,00:00:05.836,-0.008984892745502288
1460,00:00:05.84,-0.00662283366546035
1461,00:00:05.844,0.017411947017535605
1462,00:00:05.848,-0.013366431696340452
1463,00:00:05.852,-0.0115531429182738
1464,00:00:05.856,-0.0011576320393942208
1465,00:00:05.86,0.004080096856341692
1466,00:00:05.864,0.017740680254064497
1467,00:00:05.868,0.002455666312016545
1468,00:00:05.872,-0.013920589408371545
1469,00:00:05.876,-0.0010119088110513955
1470,00:00:05.88,-0.0038338790182024175
1471,00:00:05.884,0.01185594945854974
1472,00:00:05.888,0.007478808249288708
1473,00:00:05.892,-0.01145887833263257
1474,00:00:05.896,-0.00255589345761109
1475,00:00:05.9,-0.002673741939361201
1476,00:00:05.904,-0.010720171993853006
1477,00:00:05.908,0.011535312391060868
1478,00:00:05.912,0.014632517144491427
1479,00:00:05.916,-0.007611330882355107
1480,00:00:05.92,-0.007194283798526156
1481,00:00:05.924,0.009211794764269149
1482,00:00:05.928,-0.0006718653021380304
1483,00:00:05.932,-0.012590329091835885
1484,00:00:05.936,0.00020872909772151334
1485,00:00:05.94,0.011498639934757192
1486,00:00:05.944,0.005103496342144354
1487,00:00:05.948,-0.004751273272177058
1488,00:00:05.952,-0.010162520903577383
1489,00:00:05.956,-0.011662780135623052
1490,00:00:05.96,0.009119607490447377
1491,00:00:05.964,0.024531870500823102
1492,00:00:05.968,0.011136918853708266
1493,00:00:05.972,-0.02615300882808927
1494,00:00:05.976,-0.0187256345421929
1495,00:00:05.98,-0.0013118983450794985
1496,00:00:05.984,0.01817476221992822
1497,00:00:05.988,0.0076796883837175756
1498,00:00:05.992,0.002378360775329826
1499,00:00:05.996,-0.007333784532889352
1500,00:00:06,-0.009559949545021602
1501,00:00:06.004,0.011380605212764294
1502,00:00:06.008,-0.00042033619195435995
1503,00:00:06.012,-0.003426661836137157
1504,00:00:06.016,0.005994295330125957
1505,00:00:06.02,-0.012298553035073248
1506,00:00:06.024,-0.0014942701316176259
1507,00:00:06.028,0.003974046330811559
1508,00:00:06.032,0.0004803290549357819
1509,00:00:06.036,0.004493766551604492
1510,00:00:06.04,0.011626566469203643
1511,00:00:06.044,-0.0032902505481615593
1512,00:00:06.048,-0.01639740534301381
1513,00:00:06.052,-0.0024168389500118775
1514,00:00:06.056,0.010765549726784219
1515,00:00:06.06,-0.00042378657963127375
1516,00:00:06.064,0.004481631813177954
1517,00:00:06.068,0.002096085518132897
1518,00:00:06.072,-0.005709797842428089
1519,00:00:06.076,-0.014069829136133138
1520,00:00:06.08,0.0014275916619226367
1521,00:00:06.084,0.007488055416615678
1522,00:00:06.088,0.004528029530774808
1523,00:00:06.092,0.0005293096182867912
1524,00:00:06.096,0.010870223457459359
1525,00:00:06.1,-0.005212403892073783
1526,00:00:06.104,-0.005970426022031464
1527,00:00:06.108,-0.002497182227671147
1528,00:00:06.112,-0.01000766226206906
1529,00:00:06.116,0.0029480812954716367
1530,00:00:06.12,0.00254529947414995
1531,00:00:06.124,0.006812939769588412
1532,00:00:06.128,0.012892208789708058
1533,00:00:06.132,0.005084801465272899
1534,00:00:06.136,-0.014560795621946431
1535,00:00:06.14,-0.025849569443380474
1536,00:00:06.144,-0.0030935674440115703
1537,00:00:06.148,0.018831101697287536
1538,00:00:06.152,0.02388708250509805
1539,00:00:06.156,-0.005527116285520604
1540,00:00:06.16,-0.01111411396414041
1541,00:00:06.164,-0.004678934834373658
1542,00:00:06.168,0.0034154047025367635
1543,00:00:06.172,-0.0068850796960759925
1544,00:00:06.176,-0.0018334791493543846
1545,00:00:06.18,0.005986287404084578
1546,00:00:06.184,0.013953813439002252
1547,00:00:06.188,-0.001652513070439457
1548,00:00:06.192,-0.015856468875426754
1549,00:00:06.196,-0.004776534537086265
1550,00:00:06.2,0.01006220933049917
1551,00:00:06.204,0.00891648128163071
1552,00:00:06.208,0.0001584606943652012
1553,00:00:06.212,-0.0034440448071109153
1554,00:00:06.216,-0.009998122230172128
1555,00:00:06.22,-0.01103549450635908
1556,00:00:06.224,-0.0027547175996005487
1557,00:00:06.228,0.023919088940601806
1558,00:00:06.232,0.013538812170736481
1559,00:00:06.236,-0.004568562202621248
1560,00:00:06.24,-0.017291596275754273
1561,00:00:06.244,-0.0071074004517868205
1562,00:00:06.248,-0.004675015050452208
1563,00:00:06.252,0.011343785328790549
1564,00:00:06.256,0.009880765428533785
1565,00:00:06.26,0.002852216770406814
1566,00:00:06.264,-0.0007885646482463961
1567,00:00:06.268,-0.004782675474416467
1568,00:00:06.272,-0.011565419445105368
1569,00:00:06.276,-0.003419791028136388
1570,00:00:06.28,0.010657624050509186
1571,00:00:06.284,0.009331185487099
1572,00:00:06.288,-0.0037437248975038502
1573,00:00:06.292,-0.001534939510747795
1574,00:00:06.296,-0.011109134240541609
1575,00:00:06.3,-0.0033290430437773553
1576,00:00:06.304,0.00463030801620334
1577,00:00:06.308,0.019580656022299036
1578,00:00:06.312,0.007605384205817247
1579,00:00:06.316,-0.028877912089228602
1580,00:00:06.32,-0.006555394909810278
1581,00:00:06.324,0.014070333083509471
1582,00:00:06.328,0.0048438357334816785
1583,00:00:06.332,-0.0007127498101908701
1584,00:00:06.336,-0.006812009611167011
1585,00:00:06.34,-0.00447639496996999
1586,00:00:06.344,0.006332874101644823
1587,00:00:06.348,0.00560175394639373
1588,00:00:06.352,0.00343264825642109
1589,00:00:06.356,-0.001892822328954932
1590,00:00:06.36,-0.004574551043333486
1591,00:00:06.364,-0.008087676600553095
1592,00:00:06.368,0.004456013120943683
1593,00:00:06.372,-6.442095036618401e-05
1594,00:00:06.376,-0.003685823583509778
1595,00:00:06.38,0.003347521211253474
1596,00:00:06.384,0.004705247160018191
1597,00:00:06.388,0.010976235018461008
1598,00:00:06.392,-0.010062945118988864
1599,00:00:06.396,-0.006451290930272075
1600,00:00:06.4,-0.0012428074842318905
1601,00:00:06.404,0.0041686851764097714
1602,00:00:06.408,0.007105446740752084
1603,00:00:06.412,0.0005266854459478052
1604,00:00:06.416,-0.006506671095849011
1605,00:00:06.42,-0.007211844582343488
1606,00:00:06.424,0.0008391977753490192
1607,00:00:06.428,0.0015381265257019554
1608,00:00:06.432,-0.005256745265796781
1609,00:00:06.436,0.006687512621283528
1610,00:00:06.44,0.02032189373858269
1611,00:00:06.444,8.530955528841117e-05
1612,00:00:06.448,-0.0147227956913412
1613,00:00:06.452,-0.01737095887074247
1614,00:00:06.456,0.005530639318749305
1615,00:00:06.46,0.00895799929276109
1616,00:00:06.464,0.01104070397559553
1617,00:00:06.468,-0.010101759369717914
1618,00:00:06.472,-0.009836826269747686
1619,00:00:06.476,0.0017631039372645362
1620,00:00:06.48,0.00614365108776839
1621,00:00:06.484,0.005046624806709589
1622,00:00:06.488,0.010000155889429147
1623,00:00:06.492,-0.007069240011333024
1624,00:00:06.496,-0.01522860035765912
1625,00:00:06.5,0.00144049501977861
1626,00:00:06.504,0.015847319096792507
1627,00:00:06.508,-0.0019338979109306807
1628,00:00:06.512,-0.0134101003059186
1629,00:00:06.516,-0.0054701257613487516
1630,00:00:06.52,0.005742048146203159
1631,00:00:06.524,0.00537150027230382
1632,00:00:06.528,0.012443598126992582
1633,00:00:06.532,-0.004099988836969718
1634,00:00:06.536,-0.011263839842285923
1635,00:00:06.54,0.005962234979961066
1636,00:00:06.544,-0.005100465554278346
1637,00:00:06.548,-0.00686873821541668
1638,00:00:06.552,0.011851298273541018
1639,00:00:06.556,0.007241604580485724
1640,00:00:06.56,-0.007545067928731452
1641,00:00:06.564,-0.012388014140015002
1642,00:00:06.568,0.009232626529410511
1643,00:00:06.572,0.01618897286243737
1644,00:00:06.576,-0.009148688593995761
1645,00:00:06.58,-0.01894370869558773
1646,00:00:06.584,0.006103107676608487
1647,00:00:06.588,0.013192392798373481
1648,00:00:06.592,8.922477718442993e-05
1649,00:00:06.596,-0.006466057380748681
1650,00:00:06.6,-0.005966557539068158
1651,00:00:06.604,0.00424719508737325
1652,00:00:06.608,8.754199370742018e-05
1653,00:00:06.612,0.007221899344585831
1654,00:00:06.616,5.8905359765047986e-05
1655,00:00:06.62,-0.011595527874305839
1656,00:00:06.624,-0.005766857590060683
1657,00:00:06.628,0.012790341628715401
1658,00:00:06.632,0.01528574642725291
1659,00:00:06.636,0.002693085931241508
1660,00:00:06.64,-0.013945287326350838
1661,00:00:06.644,-0.01909804658498619
1662,00:00:06.648,-0.00503865233622491
1663,00:00:06.652,0.00528426095843315
1664,00:00:06.656,0.00492184120230376
1665,00:00:06.66,0.01552803954109554
1666,00:00:06.664,0.02546491520479326
1667,00:00:06.668,0.003884512931108481
1668,00:00:06.672,-0.03159381123259664
1669,00:00:06.676,-0.03738478338345886
1670,00:00:06.68,-2.159352879971309e-05
1671,00:00:06.684,0.022820952581241703
1672,00:00:06.688,0.01131613983307038
1673,00:00:06.692,0.004736598690215034
1674,00:00:06.696,0.015022512117866389
1675,00:00:06.7,0.0029880008660256897
1676,00:00:06.704,-0.02140743483323599
1677,00:00:06.708,-0.01746584684588015
1678,00:00:06.712,0.00816227251198142
1679,00:00:06.716,0.01306239003315568
1680,00:00:06.72,0.0008767455001361706
1681,00:00:06.724,-0.013575798831880091
1682,00:00:06.728,-0.007822974061127754
1683,00:00:06.732,0.005869328801054505
1684,00:00:06.736,0.005314346315572042
1685,00:00:06.74,0.014424518449232
1686,00:00:06.744,0.00669973657932133
1687,00:00:06.748,-0.005306324310367927
1688,00:00:06.752,-0.020925524702761298
1689,00:00:06.756,0.0013887823151890156
1690,00:00:06.76,0.00936586246825754
1691,00:00:06.764,-0.00942598190158606
1692,00:00:06.768,0.0004965593980159652
1693,00:00:06.772,0.0047653402434662
1694,00:00:06.776,0.0023139535624068187
1695,00:00:06.78,-0.0024070965591818064
1696,00:00:06.784,0.002773834334220738
1697,00:00:06.788,0.015449852100573449
1698,00:00:06.792,-0.0005588798958342518
1699,00:00:06.796,-0.022961238515563316
1700,00:00:06.8,0.0010072333971038417
1701,00:00:06.804,0.004517116118222473
1702,00:00:06.808,-0.01672180951572956
1703,00:00:06.812,0.008982159604784126
1704,00:00:06.816,0.02768938439839988
1705,00:00:06.82,-0.00048818881623447006
1706,00:00:06.824,-0.01993439497891812
1707,00:00:06.828,-0.00492141186259688
1708,00:00:06.832,-0.0023036064812913606
1709,00:00:06.836,0.0033427660819143074
1710,00:00:06.84,0.0015612002462148636
1711,00:00:06.844,0.014568938175216322
1712,00:00:06.848,-0.0012503018951974779
1713,00:00:06.852,-0.001627466808713509
1714,00:00:06.856,-0.00021606567315756884
1715,00:00:06.86,-0.01279655756661673
1716,00:00:06.864,-0.01239275350235403
1717,00:00:06.868,0.00860740919597447
1718,00:00:06.872,0.013865845874533982
1719,00:00:06.876,0.01699287956580523
1720,00:00:06.88,-0.00104513950645924
1721,00:00:06.884,-0.02787389955483374
1722,00:00:06.888,-0.00841352908173576
1723,00:00:06.892,0.001987205978366545
1724,00:00:06.896,0.0020460301020648348
1725,00:00:06.9,0.0059215631335973766
1726,00:00:06.904,0.019327240661368737
1727,00:00:06.908,0.011340774814016182
1728,00:00:06.912,-0.005926626006839799
1729,00:00:06.916,-0.02283625665586444
1730,00:00:06.92,-0.015003189910203218
1731,00:00:06.924,0.0093480033101514
1732,00:00:06.928,0.0068599049482145355
1733,00:00:06.932,0.0005574535462073951
1734,00:00:06.936,0.00402463309001177
1735,00:00:06.94,0.009278061625082046
1736,00:00:06.944,-0.0034049793612211912
1737,00:00:06.948,-0.00645685731433332
1738,00:00:06.952,0.0018503894098102999
1739,00:00:06.956,-0.008961258688941596
1740,00:00:06.96,0.0006171878776513047
1741,00:00:06.964,0.0034607856141519767
1742,00:00:06.968,-0.009606100677046925
1743,00:00:06.972,0.0025969629277824407
1744,00:00:06.976,0.02356279134983193
1745,00:00:06.98,0.02098048045263567
1746,00:00:06.984,-0.024109535457682796
1747,00:00:06.988,-0.032568863796768675
1748,00:00:06.992,-0.004844536670134395
1749,00:00:06.996,0.011828114249510685
1750,00:00:07,0.01499438716564325
1751,00:00:07.004,0.01357926730997858
1752,00:00:07.008,-0.00028692191699519493
1753,00:00:07.012,-0.009195816208375614
1754,00:00:07.016,-0.0034303842985536894
1755,00:00:07.02,-0.00040580588392912995
1756,00:00:07.024,-0.009973731706850225
1757,00:00:07.028,0.005829247857036535
1758,00:00:07.032,0.003459135012235497
1759,00:00:07.036,-0.003097840526606893
1760,00:00:07.04,0.003536698153766336
1761,00:00:07.044,-0.005868720123544337
1762,00:00:07.048,0.0076462465804070295
1763,00:00:07.052,0.004737279345135901
1764,00:00:07.056,0.0009423350566066715
1765,00:00:07.06,-0.010418153018690642
1766,00:00:07.064,-0.003770058567170052
1767,00:00:07.068,-0.0008757308387430393
1768,00:00:07.072,-0.003125870309304446
1769,00:00:07.076,0.006086596345994627
1770,00:00:07.08,0.02633929613512005
1771,00:00:07.084,-0.00317879347130656
1772,00:00:07.088,-0.01871205132920296
1773,00:00:07.092,-0.010591804315481576
1774,00:00:07.096,0.0005844576517119936
1775,00:00:07.1,-0.0018205583328381207
1776,00:00:07.104,0.0018255754839629015
1777,00:00:07.108,0.00894461810457869
1778,00:00:07.112,0.007231013325508681
1779,00:00:07.116,0.008309157419716945
1780,00:00:07.12,-0.004069765447638927
1781,00:00:07.124,-0.01500861532986163
1782,00:00:07.128,-0.0010924648959189593
1783,00:00:07.132,0.00036855158396065474
1784,00:00:07.136,0.010241613490507
1785,00:00:07.14,-0.00971506693167612
1786,00:00:07.144,-0.00719422614201903
1787,00:00:07.148,0.01319715240970253
1788,00:00:07.152,0.008499544448568484
1789,00:00:07.156,-0.013321446487680076
1790,00:00:07.16,0.003619656374212352
1791,00:00:07.164,0.0057256108557339706
1792,00:00:07.168,-0.00440499850083143
1793,00:00:07.172,-0.0004517238412518051
1794,00:00:07.176,-0.005415177365648561
1795,00:00:07.18,-0.004082143670530057
1796,00:00:07.184,0.001838359734392718
1797,00:00:07.188,0.005030773521866646
1798,00:00:07.192,0.002362407882174011
1799,00:00:07.196,0.010004164229030717
1800,00:00:07.2,0.00530517380684614
1801,00:00:07.204,-0.01259978907182813
1802,00:00:07.208,-0.013533304911106832
1803,00:00:07.212,-0.012060717330314219
1804,00:00:07.216,0.012496745446696881
1805,00:00:07.22,0.018123879272025085
1806,00:00:07.224,0.0023022640671115386
1807,00:00:07.228,-0.0048435594653710706
1808,00:00:07.232,-0.0016265309095615543
1809,00:00:07.236,-0.001223500759806485
1810,00:00:07.24,-0.011906570871360562
1811,00:00:07.244,-0.00616455392446369
1812,00:00:07.248,0.002331436931854114
1813,00:00:07.252,0.00697442598175257
1814,00:00:07.256,0.03372198482975362
1815,00:00:07.26,-0.003406888863537462
1816,00:00:07.264,-0.032800563611090204
1817,00:00:07.268,-0.006385795364622032
1818,00:00:07.272,0.009088055463507778
1819,00:00:07.276,-0.0031417771242559017
1820,00:00:07.28,0.0031339867855422207
1821,00:00:07.284,0.005627408711006861
1822,00:00:07.288,0.008327390489284877
1823,00:00:07.292,-0.002895508019719268
1824,00:00:07.296,-0.0048233091365546005
1825,00:00:07.3,-0.007075594068737694
1826,00:00:07.304,0.007634011326445031
1827,00:00:07.308,0.014897633198415845
1828,00:00:07.312,-0.009202867106068874
1829,00:00:07.316,-0.014475121774012225
1830,00:00:07.32,-0.01450448529794817
1831,00:00:07.324,0.0064687542617321
1832,00:00:07.328,0.009092844324186439
1833,00:00:07.332,0.01595090244518363
1834,00:00:07.336,0.01044337148778141
1835,00:00:07.34,-0.0037989784032106304
1836,00:00:07.344,-0.015732989122625433
1837,00:00:07.348,-0.010856467346457071
1838,00:00:07.352,-0.003836542135104534
1839,00:00:07.356,0.004478224363992921
1840,00:00:07.36,0.01396801811642947
1841,00:00:07.364,-0.001965987961739297
1842,00:00:07.368,0.0033168441150337406
1843,00:00:07.372,0.002072557188512285
1844,00:00:07.376,-0.00939264730550348
1845,00:00:07.38,0.0005548561457544615
1846,00:00:07.384,0.0030144558841129704
1847,00:00:07.388,-0.008696569064341015
1848,00:00:07.392,-0.013391899585258212
1849,00:00:07.396,0.009552904055453833
1850,00:00:07.4,0.03288008226081733
1851,00:00:07.404,0.005135547922691329
1852,00:00:07.408,-0.02626994810998439
1853,00:00:07.412,-0.015967471059411778
1854,00:00:07.416,-0.00331750651821494
1855,00:00:07.42,0.00760952493874356
1856,00:00:07.424,0.020966226235032134
1857,00:00:07.428,0.01390839857049286
1858,00:00:07.432,-0.020340794813819195
1859,00:00:07.436,-0.018667007563635703
1860,00:00:07.44,-0.0071828372310847
1861,00:00:07.444,0.02060243976302446
1862,00:00:07.448,0.01859449793118979
1863,00:00:07.452,-0.013397355534834749
1864,00:00:07.456,-0.011411664541810747
1865,00:00:07.46,0.01105981768341735
1866,00:00:07.464,0.005832194161484951
1867,00:00:07.468,-0.00936060860112775
1868,00:00:07.472,-0.007304855796974152
1869,00:00:07.476,-0.002919137608841996
1870,00:00:07.48,0.0035338902671355763
1871,00:00:07.484,-0.00017089105676860073
1872,00:00:07.488,0.012576937253470522
1873,00:00:07.492,0.0188478336203843
1874,00:00:07.496,-0.016291972715407572
1875,00:00:07.5,-0.010479926131665731
1876,00:00:07.504,-0.005354685243219139
1877,00:00:07.508,-0.004820340229343859
1878,00:00:07.512,-0.006066354340873665
1879,00:00:07.516,0.004020928070531224
1880,00:00:07.52,0.02464597567450257
1881,00:00:07.524,0.02443673601374029
1882,00:00:07.528,-0.016300922259688384
1883,00:00:07.532,-0.02227940082957502
1884,00:00:07.536,-0.018421347936964615
1885,00:00:07.54,0.0018578043673187535
1886,00:00:07.544,0.007917455222923307
1887,00:00:07.548,0.013771245503448881
1888,00:00:07.552,0.01750605189772611
1889,00:00:07.556,0.0060670243838103575
1890,00:00:07.56,-0.018385258503258194
1891,00:00:07.564,-0.01204104104544967
1892,00:00:07.568,-0.011194810271263119
1893,00:00:07.572,-0.005559747922234239
1894,00:00:07.576,0.01468415278941393
1895,00:00:07.58,0.016538875992409878
1896,00:00:07.584,0.010184400220168723
1897,00:00:07.588,0.002622188942041256
1898,00:00:07.592,-0.014833824941888493
1899,00:00:07.596,-0.025272653205320263
1900,00:00:07.6,-0.007130793805117717
1901,00:00:07.604,0.011685139965265972
1902,00:00:07.608,0.015096609386091583
1903,00:00:07.612,0.00922657910268753
1904,00:00:07.616,0.007404208066873258
1905,00:00:07.62,-0.008159394725225862
1906,00:00:07.624,-0.012664635549299419
1907,00:00:07.628,-0.010487494408153001
1908,00:00:07.632,0.013165805547032498
1909,00:00:07.636,0.01669180653334478
1910,00:00:07.64,-0.023580468463478638
1911,00:00:07.644,-0.005088991718366739
1912,00:00:07.648,0.00489274132996797
1913,00:00:07.652,0.0049741472175810495
1914,00:00:07.656,0.004452459514141079
1915,00:00:07.66,0.010684821812901639
1916,00:00:07.664,-0.007975408363563476
1917,00:00:07.668,-0.006202016666065898
1918,00:00:07.672,-0.004771716834511613
1919,00:00:07.676,-0.003923059441149229
1920,00:00:07.68,0.015632025664672228
1921,00:00:07.684,0.005192403797991579
1922,00:00:07.688,-0.010217064927928735
1923,00:00:07.692,-0.005289486492983989
1924,00:00:07.696,0.0058354359352961165
1925,00:00:07.7,-0.009816181933274493
1926,00:00:07.704,0.00579146307427437
1927,00:00:07.708,0.00614399102050811
1928,00:00:07.712,-0.002378742094151672
1929,00:00:07.716,0.002090236113872376
1930,00:00:07.72,-0.00389879697468131
1931,00:00:07.724,0.004175708862021571
1932,00:00:07.728,-0.0009990515318349942
1933,00:00:07.732,-0.008911472090403551
1934,00:00:07.736,0.001896921574370939
1935,00:00:07.74,0.0023608694900758595
1936,00:00:07.744,0.011107373095001063
1937,00:00:07.748,-0.003847590855002633
1938,00:00:07.752,-0.008059317471634131
1939,00:00:07.756,-0.005193815479287879
1940,00:00:07.76,0.005958754743915055
1941,00:00:07.764,0.003517819772241636
1942,00:00:07.768,0.005683222552761431
1943,00:00:07.772,0.006357148522511121
1944,00:00:07.776,-0.014159517711959767
1945,00:00:07.78,-0.011819879456197661
1946,00:00:07.784,0.01024429267272353
1947,00:00:07.788,-0.0023745237849652793
1948,00:00:07.792,0.00209691270720214
1949,00:00:07.796,0.007861765683628619
1950,00:00:07.8,-0.007571201189421114
1951,00:00:07.804,0.00932892970740795
1952,00:00:07.808,0.014019741036463501
1953,00:00:07.812,-0.022408315679058412
1954,00:00:07.816,-0.01568319456418971
1955,00:00:07.82,0.00020508666057139684
1956,00:00:07.824,0.01615322922589258
1957,00:00:07.828,0.010935373196843984
1958,00:00:07.832,-0.000973621004959568
1959,00:00:07.836,-0.007447268239047847
1960,00:00:07.84,-0.013259880681289351
1961,00:00:07.844,0.011338161100866275
1962,00:00:07.848,0.02119025983847682
1963,00:00:07.852,-0.01800754189025613
1964,00:00:07.856,-0.01340247734333389
1965,00:00:07.86,0.0021175384754315
1966,00:00:07.864,0.005914535548072303
1967,00:00:07.868,9.986443910746986e-05
1968,00:00:07.872,0.007263409008373853
1969,00:00:07.876,0.00036131334491073825
1970,00:00:07.88,-0.01126244431361557
1971,00:00:07.884,0.0068439957685768535
1972,00:00:07.888,0.000875991943757977
1973,00:00:07.892,-0.00929166236892342
1974,00:00:07.896,0.002797917928546668
1975,00:00:07.9,0.010174002614803616
1976,00:00:07.904,0.018680591922020533
1977,00:00:07.908,-0.01650018664076925
1978,00:00:07.912,-0.02117261290550234
1979,00:00:07.916,-0.0017791247228160507
1980,00:00:07.92,0.00545032729860395
1981,00:00:07.924,0.010426545282825819
1982,00:00:07.928,0.0044121958781033685
1983,00:00:07.932,0.0005606276099570063
1984,00:00:07.936,0.006689851637929676
1985,00:00:07.94,-0.008083373249974102
1986,00:00:07.944,-0.012415319608408023
1987,00:00:07.948,0.004995846953534051
1988,00:00:07.952,0.0030605677748098904
1989,00:00:07.956,-0.0074302873690612605
1990,00:00:07.96,0.005444534821435803
1991,00:00:07.964,0.00581661029718816
1992,00:00:07.968,0.0018976170395035297
1993,00:00:07.972,0.006715686584357164
1994,00:00:07.976,-0.00873799528926611
1995,00:00:07.98,-0.017094208043999977
1996,00:00:07.984,0.002688807871891192
1997,00:00:07.988,0.0022851859685033495
1998,00:00:07.992,0.024868227075785402
1999,00:00:07.996,-0.000808558950666339
2000,00:00:08,-0.02111488010268658
2001,00:00:08.004,-0.003923421259969469
2002,00:00:08.008,0.002035694778896864
2003,00:00:08.012,0.0074360318831168115
2004,00:00:08.016,0.002890077899792229
2005,00:00:08.02,0.006788571452489121
2006,00:00:08.024,-0.004549060133285822
2007,00:00:08.028,-0.010160336241824554
2008,00:00:08.032,-0.007502906244553742
2009,00:00:08.036,0.019648756759124794
2010,00:00:08.04,0.01765541279746685
2011,00:00:08.044,-0.021162436576560133
2012,00:00:08.048,-0.02836785672479889
2013,00:00:08.052,0.000398158594180135
2014,00:00:08.056,0.023800983552064232
2015,00:00:08.06,0.02030791485958617
2016,00:00:08.064,-0.010645328437021812
2017,00:00:08.068,-0.0011984321313320834
2018,00:00:08.072,-0.013684233237654568
2019,00:00:08.076,-0.0015386920258606517
2020,00:00:08.08,0.022515660384669872
2021,00:00:08.084,-0.009337314171716576
2022,00:00:08.088,-0.024709256133064652
2023,00:00:08.092,0.0072363651124760595
2024,00:00:08.096,0.008545723976567391
2025,00:00:08.1,0.01513413796783421
2026,00:00:08.104,-0.01111120660789311
2027,00:00:08.108,-0.005460532731376592
2028,00:00:08.112,0.01584382331930098
2029,00:00:08.116,0.002763893317023762
2030,00:00:08.12,-0.013874111231416448
2031,00:00:08.124,-0.01209115167148411
2032,00:00:08.128,-0.00328961980994791
2033,00:00:08.132,0.012614378618309236
2034,00:00:08.136,0.013885457068681719
2035,00:00:08.14,-0.0019991795998066703
2036,00:00:08.144,-0.01313863298855722
2037,00:00:08.148,-0.0036486829631030603
2038,00:00:08.152,0.007104578537109782
2039,00:00:08.156,0.0029530166066251773
2040,00:00:08.16,-0.00400937884114683
2041,00:00:08.164,-0.0034606872359290762
2042,00:00:08.168,0.005822144390549514
2043,00:00:08.172,0.01892550382763147
2044,00:00:08.176,-0.0031969774863682657
2045,00:00:08.18,-0.02601531229447578
2046,00:00:08.184,-0.010526501282583924
2047,00:00:08.188,0.006828171142842617
2048,00:00:08.192,0.009288351400755342
2049,00:00:08.196,0.00579110230319202
2050,00:00:08.2,0.00978720432613046
2051,00:00:08.204,-0.0029314886778593107
2052,00:00:08.208,3.511284012347731e-05
2053,00:00:08.212,-0.010467157000675811
2054,00:00:08.216,-0.0022544626845046904
2055,00:00:08.22,0.0026190442586084797
2056,00:00:08.224,-0.009056372044142334
2057,00:00:08.228,-0.0009268259746022508
2058,00:00:08.232,0.01920328702544796
2059,00:00:08.236,0.0024752867029746986
2060,00:00:08.24,-0.002845471419277599
2061,00:00:08.244,-0.0035432515578577364
2062,00:00:08.248,-0.008836509688990194
2063,00:00:08.252,-0.009975550841772932
2064,00:00:08.256,0.0058980803705708275
2065,00:00:08.26,0.019855405691487242
2066,00:00:08.264,0.002409241795248821
2067,00:00:08.268,-0.0174027238026611
2068,00:00:08.272,-0.0004165983405073347
2069,00:00:08.276,0.0034841039923776346
2070,00:00:08.28,0.00019760745635721204
2071,00:00:08.284,-0.0061223353732202685
2072,00:00:08.288,0.008558068100228413
2073,00:00:08.292,0.009820142932767334
2074,00:00:08.296,-0.002538758907121519
2075,00:00:08.3,-0.02201195182851739
2076,00:00:08.304,-0.0006441026894208338
2077,00:00:08.308,0.015184572968435704
2078,00:00:08.312,0.015401577485022296
2079,00:00:08.316,-0.012705659104426567
2080,00:00:08.32,-0.013365861118472823
2081,00:00:08.324,0.010225394512559693
2082,00:00:08.328,0.006608053095988001
2083,00:00:08.332,-0.005778858190240049
2084,00:00:08.336,-0.00801987829618154
2085,00:00:08.34,-0.006112102244514979
2086,00:00:08.344,0.005162254092283541
2087,00:00:08.348,0.005938509828411041
2088,00:00:08.352,0.00930925691500306
2089,00:00:08.356,0.0025966743341996343
2090,00:00:08.36,0.00667057640384883
2091,00:00:08.364,-0.01575329381739724
2092,00:00:08.368,-0.02506682975217701
2093,00:00:08.372,0.019908855436369798
2094,00:00:08.376,0.009395359214977361
2095,00:00:08.38,-0.005900407879380512
2096,00:00:08.384,0.0019423796111368579
2097,00:00:08.388,-0.007409399200696491
2098,00:00:08.392,-0.003850927023449905
2099,00:00:08.396,0.010130852315342054
2100,00:00:08.4,0.005185145557334176
2101,00:00:08.404,0.00860694226867053
2102,00:00:08.408,-0.0021676510368706706
2103,00:00:08.412,-0.011341982732119525
2104,00:00:08.416,-0.015264659574313515
2105,00:00:08.42,-0.00905641707868199
2106,00:00:08.424,0.015504590122873148
2107,00:00:08.428,0.015155764012888534
2108,00:00:08.432,0.0015643782007828029
2109,00:00:08.436,-0.0030821191612631096
2110,00:00:08.44,0.01307685556821523
2111,00:00:08.444,0.0026305593783035814
2112,00:00:08.448,-0.033768594919820275
2113,00:00:08.452,-0.023938818485476056
2114,00:00:08.456,0.00934308534488082
2115,00:00:08.46,0.024005530751310275
2116,00:00:08.464,0.025983950086811074
2117,00:00:08.468,0.015323477855417851
2118,00:00:08.472,-0.025900891690980657
2119,00:00:08.476,-0.03712286285008301
2120,00:00:08.48,-0.001088257995434108
2121,00:00:08.484,0.03140479800276813
2122,00:00:08.488,0.011637083232926672
2123,00:00:08.492,-0.019587798546126627
2124,00:00:08.496,-0.011931528759305365
2125,00:00:08.5,0.004151277211121852
2126,00:00:08.504,0.01362011933815667
2127,00:00:08.508,0.011421470891946194
2128,00:00:08.512,-0.005173500156161032
2129,00:00:08.516,-0.006992530625211653
2130,00:00:08.52,-0.014258116794280792
2131,00:00:08.524,0.005105685487251322
2132,00:00:08.528,0.011171072734214256
2133,00:00:08.532,0.0011680703150886958
2134,00:00:08.536,-0.010233861623078157
2135,00:00:08.54,-0.01089439259067149
2136,00:00:08.544,0.0063543908865995
2137,00:00:08.548,0.018692905897296413
2138,00:00:08.552,0.009031521312181217
2139,00:00:08.556,-0.015749032454834784
2140,00:00:08.56,-0.01019568089395761
2141,00:00:08.564,0.0064993510022759386
2142,00:00:08.568,-0.002178252678277205
2143,00:00:08.572,-0.00988132040947676
2144,00:00:08.576,0.017184094991534952
2145,00:00:08.58,0.009323299396783108
2146,00:00:08.584,-0.007541648519691084
2147,00:00:08.588,-0.019948873028624844
2148,00:00:08.592,-0.003258942422689867
2149,00:00:08.596,0.0021795620050397706
2150,00:00:08.6,0.02076053086784669
2151,00:00:08.604,0.024057977920165292
2152,00:00:08.608,-0.007579490877105847
2153,00:00:08.612,-0.02519654928801178
2154,00:00:08.616,-0.019486744247842545
2155,00:00:08.62,-0.008835714812448717
2156,00:00:08.624,0.02190823833370816
2157,00:00:08.628,0.03053889044895179
2158,00:00:08.632,0.003327583970531122
2159,00:00:08.636,-0.014518272892019013
2160,00:00:08.64,-0.01278211548924443
2161,00:00:08.644,-0.00916414242237807
2162,00:00:08.648,-0.00495194259565324
2163,00:00:08.652,-0.0055061706516426005
2164,00:00:08.656,0.02556685055606064
2165,00:00:08.66,0.01832874142564833
2166,00:00:08.664,-0.004897212376818064
2167,00:00:08.668,-0.016832116525620222
2168,00:00:08.672,-0.004105827392777428
2169,00:00:08.676,-0.006488101324066518
2170,00:00:08.68,-0.005798714119009669
2171,00:00:08.684,0.01568177680019292
2172,00:00:08.688,0.013357211370021129
2173,00:00:08.692,-0.009355976246297349
2174,00:00:08.696,-0.0037470876995939805
2175,00:00:08.7,0.007563517428934572
2176,00:00:08.704,0.0008603471796959649
2177,00:00:08.708,-0.011792138131568215
2178,00:00:08.712,-0.013100775773637
2179,00:00:08.716,0.009090690407901999
2180,00:00:08.72,0.014728193986229592
2181,00:00:08.724,-0.0035748378686548663
2182,00:00:08.728,-0.00070145959034562
2183,00:00:08.732,-0.007359499810263511
2184,00:00:08.736,0.004313839712267507
2185,00:00:08.74,-0.002596403210191055
2186,00:00:08.744,0.005979733425192489
2187,00:00:08.748,0.010996400436852126
2188,00:00:08.752,-0.011845795612316547
2189,00:00:08.756,-0.018739403560175533
2190,00:00:08.76,0.0037030035164207246
2191,00:00:08.764,0.012700523395324084
2192,00:00:08.768,0.010244513003272004
2193,00:00:08.772,0.0008823827447486106
2194,00:00:08.776,-0.011762505659135074
2195,00:00:08.78,-0.0048456556833116355
2196,00:00:08.784,0.015231166624289465
2197,00:00:08.788,-0.006559583445891807
2198,00:00:08.792,-0.020898124967061445
2199,00:00:08.796,0.002587086564744818
2200,00:00:08.8,0.01796909258700907
2201,00:00:08.804,0.012403622269630451
2202,00:00:08.808,-0.00706314016133547
2203,00:00:08.812,-0.00906338845379651
2204,00:00:08.816,0.0017822989029809698
2205,00:00:08.82,0.0007291912334039796
2206,00:00:08.824,-0.01002620090730488
2207,00:00:08.828,0.00976830162107941
2208,00:00:08.832,-0.002704291313420988
2209,00:00:08.836,-0.01071369741111997
2210,00:00:08.84,0.008604447590187187
2211,00:00:08.844,0.006970261863898482
2212,00:00:08.848,0.01116137771168719
2213,00:00:08.852,0.00156219350174069
2214,00:00:08.856,-0.013036104675848011
2215,00:00:08.86,-0.02176505932584409
2216,00:00:08.864,-0.010442243656143541
2217,00:00:08.868,0.022821516962721913
2218,00:00:08.872,0.02990880716242832
2219,00:00:08.876,-0.0026779241161420902
2220,00:00:08.88,-0.02473331079818309
2221,00:00:08.884,-0.004576933279167868
2222,00:00:08.888,0.007310783495995563
2223,00:00:08.892,0.0023296218132600193
2224,00:00:08.896,-0.002789847902022302
2225,00:00:08.9,0.00046912906691431815
2226,00:00:08.904,0.000732024080207339
2227,00:00:08.908,-0.010157336000702344
2228,00:00:08.912,0.005565105944697282
2229,00:00:08.916,0.011936142880585981
2230,00:00:08.92,0.01030786335468292
2231,00:00:08.924,-0.0055562547640875
2232,00:00:08.928,-0.021759781986474998
2233,00:00:08.932,-0.009163655049633238
2234,00:00:08.936,0.01144973002374172
2235,00:00:08.94,0.00535496557131409
2236,00:00:08.944,0.0021827077471243657
2237,00:00:08.948,0.002697972839087012
2238,00:00:08.952,0.016643345996271836
2239,00:00:08.956,0.0010648319075698997
2240,00:00:08.96,-0.012118240701965962
2241,00:00:08.964,-0.022420107154175684
2242,00:00:08.968,-0.010434014140628273
2243,00:00:08.972,0.0061464760365197435
2244,00:00:08.976,0.015860978746786762
2245,00:00:08.98,0.009730024263262738
2246,00:00:08.984,-0.0010226044250885025
2247,00:00:08.988,0.004040255407744551
2248,00:00:08.992,0.001153573306510225
2249,00:00:08.996,-0.0009323541671619746
2250,00:00:09,-0.015269010065821938
2251,00:00:09.004,-0.01050717048929073
2252,00:00:09.008,0.01194533581292492
2253,00:00:09.012,0.005011271176044824
2254,00:00:09.016,-0.009643163575674404
2255,00:00:09.02,0.006656764882791323
2256,00:00:09.024,0.0005318945541148419
2257,00:00:09.028,0.011760810364648884
2258,00:00:09.032,0.006755909267667452
2259,00:00:09.036,-0.012434075904820973
2260,00:00:09.04,-0.01840184689808663
2261,00:00:09.044,-0.0006770276472707336
2262,00:00:09.048,0.0032048786588347836
2263,00:00:09.052,0.011657023055704492
2264,00:00:09.056,0.0074142434168607
2265,00:00:09.06,0.006693238159641621
2266,00:00:09.064,-0.003700831613969056
2267,00:00:09.068,-0.026020981153123974
2268,00:00:09.072,-0.0007087639824021582
2269,00:00:09.076,0.01363527402281761
2270,00:00:09.08,0.015590630006045101
2271,00:00:09.084,-0.00691182815353387
2272,00:00:09.088,-0.01135284034535289
2273,00:00:09.092,-0.00012176460586487987
2274,00:00:09.096,-0.0013314583338797092
2275,00:00:09.1,-9.695149492473017e-05
2276,00:00:09.104,0.009880683617666319
2277,00:00:09.108,0.0027861143462359923
2278,00:00:09.112,6.310967728495988e-05
2279,00:00:09.116,-0.0014099029358476418
2280,00:00:09.12,-0.0104285214911215
2281,00:00:09.124,-0.0004004701040685194
2282,00:00:09.128,0.0027448462788015604
2283,00:00:09.132,-0.0057654861739138115
2284,00:00:09.136,0.002876498678233478
2285,00:00:09.14,0.010408288915641606
2286,00:00:09.144,0.006998242170084269
2287,00:00:09.148,0.004402558159199546
2288,00:00:09.152,-0.016863802840816757
2289,00:00:09.156,-0.013637804979225624
2290,00:00:09.16,0.009798664192203429
2291,00:00:09.164,0.004429663626069665
2292,00:00:09.168,0.005410113395555526
2293,00:00:09.172,-0.00837153913744259
2294,00:00:09.176,-0.006254817737499254
2295,00:00:09.18,0.0062560321530327105
2296,00:00:09.184,0.010844884905964159
2297,00:00:09.188,-0.0034782124275807317
2298,00:00:09.192,-0.0026980790426023296
2299,00:00:09.196,-0.005989395489450548
2300,00:00:09.2,-0.003145800132188014
2301,00:00:09.204,0.017464731179643447
2302,00:00:09.208,0.0019492408900987392
2303,00:00:09.212,-0.0153157312847725
2304,00:00:09.216,-0.008428724861005318
2305,00:00:09.22,-0.0022863477934151884
2306,00:00:09.224,0.0131307047558948
2307,00:00:09.228,0.03275698772631583
2308,00:00:09.232,-0.007582443300634619
2309,00:00:09.236,-0.038302995613776154
2310,00:00:09.24,-0.011532193762832323
2311,00:00:09.244,0.007616233866428958
2312,00:00:09.248,0.009945329220499842
2313,00:00:09.252,0.012743907951517005
2314,00:00:09.256,0.013189426666940566
2315,00:00:09.26,-0.006281919544562701
2316,00:00:09.264,-0.01189197466010228
2317,00:00:09.268,3.8561893234150164e-06
2318,00:00:09.272,0.002803670708090067
2319,00:00:09.276,-0.002741627336945393
2320,00:00:09.28,-0.0029833957087248603
2321,00:00:09.284,-0.007171606761403381
2322,00:00:09.288,0.0007448236574418809
2323,00:00:09.292,0.00860938790719956
2324,00:00:09.296,0.01104512484744191
2325,00:00:09.3,-0.004159405594691631
2326,00:00:09.304,-0.00354259018786251
2327,00:00:09.308,0.012064129405189267
2328,00:00:09.312,-0.0025330410571768893
2329,00:00:09.316,-0.031708142952993554
2330,00:00:09.32,0.00566652545239776
2331,00:00:09.324,0.010390263573299332
2332,00:00:09.328,-0.005326211103238165
2333,00:00:09.332,0.00762316375039517
2334,00:00:09.336,0.00789921800605953
2335,00:00:09.34,0.004907965892925855
2336,00:00:09.344,9.503419278188803e-05
2337,00:00:09.348,-0.0036679132026620153
2338,00:00:09.352,-0.011115694302134212
2339,00:00:09.356,-0.006206848302099386
2340,00:00:09.36,0.002800433372613043
2341,00:00:09.364,-0.005576752475462859
2342,00:00:09.368,0.0090869648847729
2343,00:00:09.372,0.015287133013771374
2344,00:00:09.376,-0.0026090746978297786
2345,00:00:09.38,-0.0007463222427759299
2346,00:00:09.384,0.0015866009634919452
2347,00:00:09.388,-0.028490834425610977
2348,00:00:09.392,0.009053467707417443
2349,00:00:09.396,0.01838851114735006
2350,00:00:09.4,-0.016039369860664
2351,00:00:09.404,-0.0060684549389407
2352,00:00:09.408,0.015775772248161984
2353,00:00:09.412,0.00361118919681757
2354,00:00:09.416,-0.001460996805690226
2355,00:00:09.42,0.003498958996715375
2356,00:00:09.424,-0.00807575217913837
2357,00:00:09.428,-0.0017717505543259921
2358,00:00:09.432,-0.0065831289757625165
2359,00:00:09.436,-0.004546521377051247
2360,00:00:09.44,0.017019234132021673
2361,00:00:09.444,0.015484654926694923
2362,00:00:09.448,-0.01269650179892778
2363,00:00:09.452,-0.01570228976197542
2364,00:00:09.456,-0.005132886231876902
2365,00:00:09.46,0.012660132721066471
2366,00:00:09.464,0.001938833920576148
2367,00:00:09.468,-0.006763781653717155
2368,00:00:09.472,0.00976212369278073
2369,00:00:09.476,-0.002984211198054256
2370,00:00:09.48,0.0014965554873924713
2371,00:00:09.484,0.000484510579553898
2372,00:00:09.488,0.007070364896208044
2373,00:00:09.492,-0.007679115711653138
2374,00:00:09.496,-0.01611524884356186
2375,00:00:09.5,-0.003019873169250788
2376,00:00:09.504,0.014479684497928271
2377,00:00:09.508,0.01532092873094373
2378,00:00:09.512,-0.003829083892924243
2379,00:00:09.516,-0.0035764014464803014
2380,00:00:09.52,-0.0005714169237762698
2381,00:00:09.524,-0.02035482274368405
2382,00:00:09.528,0.0006549858808284621
2383,00:00:09.532,0.02640005736611781
2384,00:00:09.536,0.007959299255162481
2385,00:00:09.54,-0.02082351676654074
2386,00:00:09.544,-0.020137660263571857
2387,00:00:09.548,0.001929650083184233
2388,00:00:09.552,0.02370070212055002
2389,00:00:09.556,0.01537370239384472
2390,00:00:09.56,-0.00799862222629599
2391,00:00:09.564,-0.009802884102100508
2392,00:00:09.568,-0.006819255650043482
2393,00:00:09.572,-0.004196579597191886
2394,00:00:09.576,-0.004729330172267506
2395,00:00:09.58,0.012678876245445276
2396,00:00:09.584,0.009462573543714829
2397,00:00:09.588,0.001186625799164173
2398,00:00:09.592,-0.01068147271871567
2399,00:00:09.596,0.00035096693318336964
2400,00:00:09.6,-0.002759251496172513
2401,00:00:09.604,-0.002357631223276258
2402,00:00:09.608,0.00193374464288355
2403,00:00:09.612,0.01024972012965009
2404,00:00:09.616,0.009725228541356051
2405,00:00:09.62,-0.01789098585140888
2406,00:00:09.624,-0.001127279218053441
2407,00:00:09.628,0.00784104788908735
2408,00:00:09.632,-0.015823499139514755
2409,00:00:09.636,-0.001789058387657853
2410,00:00:09.64,0.006853027844044844
2411,00:00:09.644,0.012222437246236957
2412,00:00:09.648,0.008946829329943288
2413,00:00:09.652,-0.017268822369487645
2414,00:00:09.656,-0.005826560226978476
2415,00:00:09.66,0.019033932210732057
2416,00:00:09.664,0.0038936469645705065
2417,00:00:09.668,-0.02313832333311435
2418,00:00:09.672,-0.011922395264264198
2419,00:00:09.676,0.002127964398823681
2420,00:00:09.68,0.01600345945917074
2421,00:00:09.684,0.012201565317809582
2422,00:00:09.688,0.0008294156359625014
2423,00:00:09.692,0.0018467377522028918
2424,00:00:09.696,0.007619109703227876
2425,00:00:09.7,-0.01988879224518318
2426,00:00:09.704,-0.01814886799547821
2427,00:00:09.708,-0.01143308193422854
2428,00:00:09.712,0.014199582277797123
2429,00:00:09.716,0.02403175178915266
2430,00:00:09.72,0.006139186094515031
2431,00:00:09.724,-0.0066153405932709505
2432,00:00:09.728,-0.0016969623975455822
2433,00:00:09.732,0.002043898100964734
2434,00:00:09.736,-0.02565750930807549
2435,00:00:09.74,0.0034198239445686392
2436,00:00:09.744,0.014567870777682436
2437,00:00:09.748,-0.005105552379973229
2438,00:00:09.752,0.0019777993293246202
2439,00:00:09.756,0.003645009826868781
2440,00:00:09.76,0.00828954204916954
2441,00:00:09.764,-0.0020437191706150796
2442,00:00:09.768,-0.012710781113128186
2443,00:00:09.772,0.002415504422970114
2444,00:00:09.776,-0.0033931379730347566
2445,00:00:09.78,-0.0003178347251378
2446,00:00:09.784,0.009162134924736167
2447,00:00:09.788,0.001849592401413245
2448,00:00:09.792,-0.008736309246160093
2449,00:00:09.796,0.00043916809954680286
2450,00:00:09.8,0.000624478772806468
2451,00:00:09.804,0.0037700316752307104
2452,00:00:09.808,0.014293725129391508
2453,00:00:09.812,-0.008370308612938977
2454,00:00:09.816,-0.023997846990823718
2455,00:00:09.82,0.0018561475808382992
2456,00:00:09.824,0.014660184038802967
2457,00:00:09.828,0.0006334333447739508
2458,00:00:09.832,-0.00448477920144797
2459,00:00:09.836,0.01332772942259908
2460,00:00:09.84,0.0009131378028541801
2461,00:00:09.844,-0.007586817941046312
2462,00:00:09.848,2.344418317080021e-05
2463,00:00:09.852,0.002601887099444863
2464,00:00:09.856,-0.00907308049499993
2465,00:00:09.86,-0.016132650547660884
2466,00:00:09.864,0.0002278224565088801
2467,00:00:09.868,0.02273779676761478
2468,00:00:09.872,0.02227362943813207
2469,00:00:09.876,-0.010556582477875031
2470,00:00:09.88,-0.022052763029933017
2471,00:00:09.884,-0.002993035479448739
2472,00:00:09.888,0.006686404958600174
2473,00:00:09.892,0.00957140285754577
2474,00:00:09.896,-0.00044997921213507294
2475,00:00:09.9,-0.015000152867287382
2476,00:00:09.904,-0.006682654959149665
2477,00:00:09.908,0.016477459432280774
2478,00:00:09.912,0.00739775958936662
2479,00:00:09.916,0.006461397279053924
2480,00:00:09.92,-0.001147452800069006
2481,00:00:09.924,-0.00855662662070244
2482,00:00:09.928,-0.023787155645550256
2483,00:00:09.932,-0.0035779746249318205
2484,00:00:09.936,0.011255770630668852
2485,00:00:09.94,0.024615526432171422
2486,00:00:09.944,0.011342345140292306
2487,00:00:09.948,-0.008673248084960502
2488,00:00:09.952,-0.016726841626223166
2489,00:00:09.956,-0.01473138078290507
2490,00:00:09.96,0.0027306072879582617
2491,00:00:09.964,2.195755951106982e-05
2492,00:00:09.968,0.014752885181223984
2493,00:00:09.972,0.005194750498048959
2494,00:00:09.976,0.005960440481430847
2495,00:00:09.98,0.0038031761941965648
2496,00:00:09.984,-0.01974755688570444
2497,00:00:09.988,-0.016490655485540656
2498,00:00:09.992,0.004782274278113616
2499,00:00:09.996,0.007609917724039407
2500,00:00:10,0.01931119558867072
2501,00:00:10.004,-0.0017580149360583175
2502,00:00:10.008,0.0014446353452513081
2503,00:00:10.012,-0.006680294260149822
2504,00:00:10.016,-0.011959925381233921
2505,00:00:10.02,0.00369731723912992
2506,00:00:10.024,-0.0028011148679070205
2507,00:00:10.028,0.005959425878245377
2508,00:00:10.032,-0.007226788206025951
2509,00:00:10.036,0.00267882761545479
2510,00:00:10.04,0.0030714392196387096
2511,00:00:10.044,0.0032215442042797834
2512,00:00:10.048,0.008141273923683908
2513,00:00:10.052,-0.0017368429107591488
2514,00:00:10.056,-0.00813288637436927
2515,00:00:10.06,-0.013741969363763932
2516,00:00:10.064,0.0134599494049326
2517,00:00:10.068,0.00730644958093763
2518,00:00:10.072,-0.007050491170957679
2519,00:00:10.076,-0.003103270064457325
2520,00:00:10.08,-0.003957246266509177
2521,00:00:10.084,0.0015097502619028003
2522,00:00:10.088,0.015108596126083264
2523,00:00:10.092,0.002646489898324941
2524,00:00:10.096,-0.010324458766262977
2525,00:00:10.1,-0.008172731759259458
2526,00:00:10.104,-0.0017958935059141346
2527,00:00:10.108,0.0070985202255542425
2528,00:00:10.112,-0.010020495908975136
2529,00:00:10.116,0.005510943839908581
2530,00:00:10.12,0.027231728934566456
2531,00:00:10.124,-0.0025836337081273095
2532,00:00:10.128,-0.029058027029805113
2533,00:00:10.132,-0.011348726908181561
2534,00:00:10.136,0.010134092539374254
2535,00:00:10.14,0.023416159425323747
2536,00:00:10.144,-0.0006619594923904519
2537,00:00:10.148,-0.003923074878912306
2538,00:00:10.152,-0.012663123498896329
2539,00:00:10.156,-0.0036329960939838206
2540,00:00:10.16,0.002519645599022629
2541,00:00:10.164,0.002460888244740998
2542,00:00:10.168,0.001300891399296233
2543,00:00:10.172,0.004733737971946541
2544,00:00:10.176,0.00266697094775736
2545,00:00:10.18,0.00781719735823572
2546,00:00:10.184,-0.00197295681573451
2547,00:00:10.188,-0.01282403554068879
2548,00:00:10.192,-0.010642287437804048
2549,00:00:10.196,-0.00282935821451247
2550,00:00:10.2,0.004030932148452849
2551,00:00:10.204,0.01928441898780872
2552,00:00:10.208,0.006356217578286307
2553,00:00:10.212,-0.01066807159804739
2554,00:00:10.216,-0.006546428601723164
2555,00:00:10.22,-0.010009417477704115
2556,00:00:10.224,0.009354900696052937
2557,00:00:10.228,0.006895185979374217
2558,00:00:10.232,0.006530851729621647
2559,00:00:10.236,-0.0031386751215904994
2560,00:00:10.24,0.00023599348787683907
2561,00:00:10.244,-0.0040642478270456195
2562,00:00:10.248,-0.01830298802815377
2563,00:00:10.252,-0.00657474249601364
2564,00:00:10.256,0.0191071869339794
2565,00:00:10.26,0.01462894698488526
2566,00:00:10.264,0.000343446328770368
2567,00:00:10.268,-0.014575437991879873
2568,00:00:10.272,0.01995701756095517
2569,00:00:10.276,0.0037936668377369586
2570,00:00:10.28,-0.04458681610412896
2571,00:00:10.284,-0.016434882651083157
2572,00:00:10.288,0.021809454712638423
2573,00:00:10.292,0.027103170170448717
2574,00:00:10.296,0.018740468600299175
2575,00:00:10.3,-0.010983621352352237
2576,00:00:10.304,-0.015846422946651728
2577,00:00:10.308,-0.005287488078465692
2578,00:00:10.312,-0.003085831907810641
2579,00:00:10.316,-0.0033835682261269587
2580,00:00:10.32,0.007080982824845705
2581,00:00:10.324,0.012790900815161878
2582,00:00:10.328,-0.0056881713826442155
2583,00:00:10.332,-0.004314365389291196
2584,00:00:10.336,-0.0017401274271833223
2585,00:00:10.34,-0.005904860100145019
2586,00:00:10.344,0.013392106629908092
2587,00:00:10.348,0.0043019056320190525
2588,00:00:10.352,-0.005713987629860645
2589,00:00:10.356,-0.008371615840587765
2590,00:00:10.36,0.00120540638454258
2591,00:00:10.364,0.00247164024040103
2592,00:00:10.368,-0.005030850530602039
2593,00:00:10.372,-0.008660303050419316
2594,00:00:10.376,0.00783166894689203
2595,00:00:10.38,0.02357940957881514
2596,00:00:10.384,0.01115574711002411
2597,00:00:10.388,-0.02368753752671178
2598,00:00:10.392,-0.014285695971921097
2599,00:00:10.396,-0.011148330755531765
2600,00:00:10.4,0.002153951034415513
2601,00:00:10.404,0.033492712303996086
2602,00:00:10.408,0.020433400175534168
2603,00:00:10.412,-0.027056267776060884
2604,00:00:10.416,-0.023542086448287553
2605,00:00:10.42,-0.009647656348533899
2606,00:00:10.424,0.012191354733658996
2607,00:00:10.428,0.023732584243589386
2608,00:00:10.432,0.0051049322137259896
2609,00:00:10.436,-0.007913544657640159
2610,00:00:10.44,-0.021102979313582168
2611,00:00:10.444,0.007505255314754314
2612,00:00:10.448,0.026619001408107593
2613,00:00:10.452,-0.00797907842206769
2614,00:00:10.456,-0.029734394556726305
2615,00:00:10.46,-0.005614759982563547
2616,00:00:10.464,0.025211661879438952
2617,00:00:10.468,0.008633235614979638
2618,00:00:10.472,-0.004318608787343692
2619,00:00:10.476,-0.010508158084121528
2620,00:00:10.48,-0.0018326866993447798
2621,00:00:10.484,0.004856486179050992
2622,00:00:10.488,0.0015185326046776074
2623,00:00:10.492,0.004494601592341497
2624,00:00:10.496,0.004223807307425888
2625,00:00:10.5,-0.005304752412484966
2626,00:00:10.504,-0.00910144241061062
2627,00:00:10.508,-0.008235888206399986
2628,00:00:10.512,0.0014130492345429929
2629,00:00:10.516,0.007488865347113453
2630,00:00:10.52,0.009567796951159835
2631,00:00:10.524,0.00176853616721928
2632,00:00:10.528,-2.253463026136984e-05
2633,00:00:10.532,-0.0009548959787935001
2634,00:00:10.536,-0.00801796090672723
2635,00:00:10.54,-0.002461072348523881
2636,00:00:10.544,-0.001396963343722745
2637,00:00:10.548,-0.0003250374829804084
2638,00:00:10.552,0.009340391348814592
2639,00:00:10.556,0.002356257027713581
2640,00:00:10.56,7.85582233219691e-06
2641,00:00:10.564,-0.0011240910930609925
2642,00:00:10.568,0.0024481892614858242
2643,00:00:10.572,-0.01605251352884802
2644,00:00:10.576,-0.011286359142104628
2645,00:00:10.58,0.006434172377339564
2646,00:00:10.584,0.01070537317536946
2647,00:00:10.588,0.024119174318911946
2648,00:00:10.592,-0.00115489651216194
2649,00:00:10.596,-0.018501180340535897
2650,00:00:10.6,0.004525042779278014
2651,00:00:10.604,-0.008478321135044091
2652,00:00:10.608,-0.01719151856377723
2653,00:00:10.612,0.005059072456788272
2654,00:00:10.616,0.0078112955598044235
2655,00:00:10.62,0.008878448978066451
2656,00:00:10.624,0.02040095266420395
2657,00:00:10.628,-0.00855712371412664
2658,00:00:10.632,-0.0201233774205321
2659,00:00:10.636,-0.004439494921825831
2660,00:00:10.64,0.008208361163269734
2661,00:00:10.644,0.00414469750830904
2662,00:00:10.648,0.007078616727085324
2663,00:00:10.652,-0.006884495101985528
2664,00:00:10.656,-0.012522687306045562
2665,00:00:10.66,-0.0017514884093543489
2666,00:00:10.664,0.013157544744899496
2667,00:00:10.668,0.012982900165297902
2668,00:00:10.672,0.010942411157884637
2669,00:00:10.676,-0.02625997388531689
2670,00:00:10.68,-0.021927250203589183
2671,00:00:10.684,0.01030175727686355
2672,00:00:10.688,0.01874180671256912
2673,00:00:10.692,0.005718168264138516
2674,00:00:10.696,-0.011857423472065452
2675,00:00:10.7,-0.0069820699582123745
2676,00:00:10.704,0.005391425427205837
2677,00:00:10.708,0.013872551728127288
2678,00:00:10.712,-0.006172842346131802
2679,00:00:10.716,-0.016450577881187152
2680,00:00:10.72,0.0002709454856812902
2681,00:00:10.724,0.011742136397515425
2682,00:00:10.728,0.00734320457559079
2683,00:00:10.732,0.006172406254336239
2684,00:00:10.736,-0.004183923359960321
2685,00:00:10.74,-0.01573917345376681
2686,00:00:10.744,-0.008216895919758826
2687,00:00:10.748,0.0018429406918585298
2688,00:00:10.752,0.007144815099309199
2689,00:00:10.756,0.0048086390015669184
2690,00:00:10.76,0.007517891208408404
2691,00:00:10.764,-0.00471540199941956
2692,00:00:10.768,-0.0020016936687170524
2693,00:00:10.772,-0.00054530485067517
2694,00:00:10.776,0.008269110752735289
2695,00:00:10.78,-0.005836118012666711
2696,00:00:10.784,-0.008665669796755534
2697,00:00:10.788,0.005767393711721526
2698,00:00:10.792,-0.00694200699217617
2699,00:00:10.796,0.004434120295627502
2700,00:00:10.8,0.002612901676911861
2701,00:00:10.804,-0.004854043945670131
2702,00:00:10.808,0.008310177043313155
2703,00:00:10.812,0.010816946160048241
2704,00:00:10.816,-0.0076691540889442
2705,00:00:10.82,-0.01603587623685603
2706,00:00:10.824,0.0011011312017217305
2707,00:00:10.828,0.0036073643132112907
2708,00:00:10.832,-0.002024413435719905
2709,00:00:10.836,0.0025612942699808567
2710,00:00:10.84,0.007501067011617121
2711,00:00:10.844,0.010664571513189001
2712,00:00:10.848,0.006148972628579944
2713,00:00:10.852,-0.018120709224604032
2714,00:00:10.856,-0.014101679873419934
2715,00:00:10.86,-0.0004075825127074496
2716,00:00:10.864,0.012225093691085926
2717,00:00:10.868,0.004690249457780741
2718,00:00:10.872,-0.009294729745306539
2719,00:00:10.876,-0.00767973910842556
2720,00:00:10.88,0.00759935136557033
2721,00:00:10.884,0.015593384113344662
2722,00:00:10.888,0.004856915445998306
2723,00:00:10.892,-0.005586141651292566
2724,00:00:10.896,-0.009187822532112483
2725,00:00:10.9,-0.002633355907164514
2726,00:00:10.904,-0.01008877693675458
2727,00:00:10.908,0.002640303835505624
2728,00:00:10.912,0.0003055866109207303
2729,00:00:10.916,0.004822227252589075
2730,00:00:10.92,0.014785158215090627
2731,00:00:10.924,0.004689523077104241
2732,00:00:10.928,-0.009740675799548624
2733,00:00:10.932,-0.011429003265220665
2734,00:00:10.936,-0.007900084834545854
2735,00:00:10.94,0.017386065737809958
2736,00:00:10.944,0.0051399051153566706
2737,00:00:10.948,-0.011638757379841951
2738,00:00:10.952,1.8487073248252977e-05
2739,00:00:10.956,0.0024484242603648463
2740,00:00:10.96,-0.002726385544519867
2741,00:00:10.964,-0.0023197828049887955
2742,00:00:10.968,0.008410237540374512
2743,00:00:10.972,0.002438148687360804
2744,00:00:10.976,-0.007800083083566282
2745,00:00:10.98,0.0009482381938141727
2746,00:00:10.984,0.006729788325174015
2747,00:00:10.988,-0.002688461830985038
2748,00:00:10.992,0.004625000481610189
2749,00:00:10.996,-0.0011916101866518104
2750,00:00:11,-0.01602467277552932
2751,00:00:11.004,0.002403554943157362
2752,00:00:11.008,0.007986697484739121
2753,00:00:11.012,-0.00875147606711834
2754,00:00:11.016,0.0024912121589295566
2755,00:00:11.02,0.002244581024569928
2756,00:00:11.024,0.006640770327066998
2757,00:00:11.028,0.01672206967486995
2758,00:00:11.032,0.0006171532004373182
2759,00:00:11.036,-0.024633859080495354
2760,00:00:11.04,-0.010326065435947385
2761,00:00:11.044,0.0017415427792002367
2762,00:00:11.048,0.011533102377143232
2763,00:00:11.052,-0.0031009427220851688
2764,00:00:11.056,3.82973812520504e-05
2765,00:00:11.06,5.3894007578488695e-05
2766,00:00:11.064,0.029307353310287027
2767,00:00:11.068,0.008477576033328658
2768,00:00:11.072,-0.03657531732460481
2769,00:00:11.076,-0.017791706603020412
2770,00:00:11.08,-0.005746384733356534
2771,00:00:11.084,0.0078695599004277
2772,00:00:11.088,0.015523117210250303
2773,00:00:11.092,0.019301617547171197
2774,00:00:11.096,0.013709667284274477
2775,00:00:11.1,-0.012963228960870762
2776,00:00:11.104,-0.022139581767987665
2777,00:00:11.108,-0.00706243709282717
2778,00:00:11.112,-0.00016900328046176602
2779,00:00:11.116,0.00950010260567069
2780,00:00:11.12,-0.005672927596606311
2781,00:00:11.124,0.00904424150940034
2782,00:00:11.128,0.01982377399690451
2783,00:00:11.132,-0.01910438272170726
2784,00:00:11.136,-0.005547475535536252
2785,00:00:11.14,0.002854462072718892
2786,00:00:11.144,-0.0014941161061869908
2787,00:00:11.148,0.004387724024127235
2788,00:00:11.152,0.00017311522606178122
2789,00:00:11.156,0.001107326650526375
2790,00:00:11.16,-0.008951181720476596
2791,00:00:11.164,0.00201623898465186
2792,00:00:11.168,0.013156714179785948
2793,00:00:11.172,-0.002594928606413309
2794,00:00:11.176,-0.008108984446153048
2795,00:00:11.18,0.00027352012693881945
2796,00:00:11.184,0.0013535274192690836
2797,00:00:11.188,-0.005810079004731963
2798,00:00:11.192,-0.0027335349004715703
2799,00:00:11.196,0.01650349947158247
2800,00:00:11.2,0.0009035193088493525
2801,00:00:11.204,-0.002933757088612767
2802,00:00:11.208,-0.0006279698573052886
2803,00:00:11.212,-0.011879680998390542
2804,00:00:11.216,-0.0006828000496170712
2805,00:00:11.22,0.001694134465651591
2806,00:00:11.224,0.0038185011362656964
2807,00:00:11.228,0.0015800805995240812
2808,00:00:11.232,-0.00860810140147805
2809,00:00:11.236,0.013358401803998287
2810,00:00:11.24,0.01904169807676228
2811,00:00:11.244,-0.00707224279176444
2812,00:00:11.248,-0.017214007559232376
2813,00:00:11.252,-0.017398707394022446
2814,00:00:11.256,0.00047873560652079056
2815,00:00:11.26,0.01010878174565732
2816,00:00:11.264,0.01678147749044
2817,00:00:11.268,0.005967860692180702
2818,00:00:11.272,-0.0108368741493905
2819,00:00:11.276,0.0014432285679504275
2820,00:00:11.28,-0.007837281038518992
2821,00:00:11.284,-0.009295002964790914
2822,00:00:11.288,-0.0020489979069679993
2823,00:00:11.292,0.002448438666760919
2824,00:00:11.296,0.015003100968897337
2825,00:00:11.3,0.01546463475096967
2826,00:00:11.304,0.0020791923161596064
2827,00:00:11.308,-0.02526160236448054
2828,00:00:11.312,0.004368083391455003
2829,00:00:11.316,-0.00305737112648785
2830,00:00:11.32,-0.007362117175944152
2831,00:00:11.324,-0.0027052731020376104
2832,00:00:11.328,0.007126353040803229
2833,00:00:11.332,0.0038434015004895627
2834,00:00:11.336,0.012282344046980143
2835,00:00:11.34,0.0032547472001169787
2836,00:00:11.344,-0.015961390687152743
2837,00:00:11.348,-0.0026005449763033556
2838,00:00:11.352,0.004242016118951139
2839,00:00:11.356,0.01094045268837363
2840,00:00:11.36,-0.01232061942573637
2841,00:00:11.364,-0.014740761369466792
2842,00:00:11.368,0.008801815580227409
2843,00:00:11.372,0.015416107431519763
2844,00:00:11.376,-0.002847273892257367
2845,00:00:11.38,0.005739157320931557
2846,00:00:11.384,-0.0032334188581444254
2847,00:00:11.388,-0.017299883533269177
2848,00:00:11.392,-0.008010013581952071
2849,00:00:11.396,0.010093534569023179
2850,00:00:11.4,0.020242153434082873
2851,00:00:11.404,0.01265716389752928
2852,00:00:11.408,-0.02108450862579046
2853,00:00:11.412,-0.00840065942611544
2854,00:00:11.416,-0.006425010564271353
2855,00:00:11.42,-0.001322354102740062
2856,00:00:11.424,0.015707100683357532
2857,00:00:11.428,-0.0004478400951484128
2858,00:00:11.432,-0.005125721705553589
2859,00:00:11.436,0.0027893164660781696
2860,00:00:11.44,-0.00387086730916053
2861,00:00:11.444,0.0037398138083517603
2862,00:00:11.448,0.005192675729631441
2863,00:00:11.452,0.002428474719636143
2864,00:00:11.456,-0.007380761962849647
2865,00:00:11.46,-0.01186939119361341
2866,00:00:11.464,0.007103181626007425
2867,00:00:11.468,0.0095584110240452
2868,00:00:11.472,-0.005969881021883339
2869,00:00:11.476,0.00012114419951103584
2870,00:00:11.48,-0.0008950955234468005
2871,00:00:11.484,0.008619877160526809
2872,00:00:11.488,-0.004722966055851435
2873,00:00:11.492,-0.005508978385478259
2874,00:00:11.496,0.00012497114948927836
2875,00:00:11.5,-0.0027312806741974804
2876,00:00:11.504,0.0008654658449813702
2877,00:00:11.508,0.00555067881941796
2878,00:00:11.512,0.005546680913539606
2879,00:00:11.516,0.004251244514307477
2880,00:00:11.52,-0.018036261433735514
2881,00:00:11.524,-0.0017264231573790349
2882,00:00:11.528,0.01774802757427097
2883,00:00:11.532,-0.004198347742203623
2884,00:00:11.536,-0.00912703434005379
2885,00:00:11.54,-0.0051523307338356885
2886,00:00:11.544,0.0047855650127530645
2887,00:00:11.548,0.008552141371183096
2888,00:00:11.552,0.012101983767934144
2889,00:00:11.556,-0.001069148653186852
2890,00:00:11.56,-0.020493709627771726
2891,00:00:11.564,-0.017136686015874182
2892,00:00:11.568,0.008515297551639382
2893,00:00:11.572,0.010276904482452668
2894,00:00:11.576,0.01956736342981463
2895,00:00:11.58,0.00931531633250416
2896,00:00:11.584,-0.016265023383311913
2897,00:00:11.588,-0.021986532112350687
2898,00:00:11.592,0.006237857363885268
2899,00:00:11.596,0.0040307651506736805
2900,00:00:11.6,0.00038846838288009096
2901,00:00:11.604,-0.003003677524247903
2902,00:00:11.608,0.0037673530168831335
2903,00:00:11.612,0.0067949971416965205
2904,00:00:11.616,0.0025030503165908153
2905,00:00:11.62,0.004258681321516632
2906,00:00:11.624,-0.0014449303271249
2907,00:00:11.628,-0.018042771029286038
2908,00:00:11.632,-0.01053711108397691
2909,00:00:11.636,0.005803834414109586
2910,00:00:11.64,0.011141190188936884
2911,00:00:11.644,0.004187586891930552
2912,00:00:11.648,0.008517293113982307
2913,00:00:11.652,0.005232524796156205
2914,00:00:11.656,-0.0031592964660376293
2915,00:00:11.66,-0.01414738968014716
2916,00:00:11.664,-0.016036563087254763
2917,00:00:11.668,0.004576722203637478
2918,00:00:11.672,0.011651142558548596
2919,00:00:11.676,0.000600530373048974
2920,00:00:11.68,0.006221731659024957
2921,00:00:11.684,-0.00890874932520092
2922,00:00:11.688,0.006591953919269151
2923,00:00:11.692,0.00979062751866878
2924,00:00:11.696,-0.020633538428228345
2925,00:00:11.7,-0.006224019161891187
2926,00:00:11.704,0.009212276010657659
2927,00:00:11.708,0.012899945664685225
2928,00:00:11.712,0.005228483467362819
2929,00:00:11.716,-0.017475979635491988
2930,00:00:11.72,-0.00956196256447583
2931,00:00:11.724,0.010841076087672265
2932,00:00:11.728,0.006773475382942714
2933,00:00:11.732,-0.00504525878932327
2934,00:00:11.736,0.005613664281554514
2935,00:00:11.74,0.016360446577891673
2936,00:00:11.744,-0.01487853797152638
2937,00:00:11.748,-0.02649192232638595
2938,00:00:11.752,-0.0064978682785294985
2939,00:00:11.756,0.01753476756857706
2940,00:00:11.76,0.022889347746968252
2941,00:00:11.764,-0.0015350363682955495
2942,00:00:11.768,-0.003740947053302075
2943,00:00:11.772,-0.005841416888870301
2944,00:00:11.776,-0.013442227107589102
2945,00:00:11.78,0.0012565150973387071
2946,00:00:11.784,0.019102035381365533
2947,00:00:11.788,-0.0019951737631345168
2948,00:00:11.792,-0.015757730143377578
2949,00:00:11.796,-0.00136795599246397
2950,00:00:11.8,0.00968909624498338
2951,00:00:11.804,0.0019967052212450593
2952,00:00:11.808,0.005931467196205634
2953,00:00:11.812,-0.004524044750723987
2954,00:00:11.816,-0.007450408127624545
2955,00:00:11.82,-0.002550967852585019
2956,00:00:11.824,0.010403152584331112
2957,00:00:11.828,-0.004135026480071252
2958,00:00:11.832,-0.001660310168517753
2959,00:00:11.836,0.000235938205150887
2960,00:00:11.84,0.005163265654118728
2961,00:00:11.844,-0.0030674099107272828
2962,00:00:11.848,-0.00708653836045415
2963,00:00:11.852,0.003445479320362207
2964,00:00:11.856,0.0004233812214806589
2965,00:00:11.86,0.008062564571446273
2966,00:00:11.864,0.0006825620657764278
2967,00:00:11.868,-0.0011191134108230498
2968,00:00:11.872,-0.00144835676474031
2969,00:00:11.876,-0.005584820282820152
2970,00:00:11.88,-0.007662095449632008
2971,00:00:11.884,0.0019082782091572887
2972,00:00:11.888,0.01384177873842418
2973,00:00:11.892,-0.0011787246912717802
2974,00:00:11.896,-0.00879978225566443
2975,00:00:11.9,-0.005275393865304067
2976,00:00:11.904,0.0047320271260105065
2977,00:00:11.908,0.016830679553095237
2978,00:00:11.912,-0.008345117123099046
2979,00:00:11.916,-0.00840714843798196
2980,00:00:11.92,0.002391518501099194
2981,00:00:11.924,0.005409771139966317
2982,00:00:11.928,0.005349045386537901
2983,00:00:11.932,-0.010558862864854749
2984,00:00:11.936,-0.006804813383496361
2985,00:00:11.94,0.0006780419498682021
2986,00:00:11.944,0.00703164318110794
2987,00:00:11.948,-0.0011580846039578301
2988,00:00:11.952,0.013088734740449583
2989,00:00:11.956,0.00737125787418335
2990,00:00:11.96,-0.02121836168225854
2991,00:00:11.964,-0.009282176848500969
2992,00:00:11.968,0.0033523447928018885
2993,00:00:11.972,0.006389958813088015
2994,00:00:11.976,0.0024461615248583283
2995,00:00:11.98,-0.0008371578878723059
2996,00:00:11.984,-0.005813375013531186
2997,00:00:11.988,0.015615677810274078
2998,00:00:11.992,0.00850445113610476
2999,00:00:11.996,-0.019930199545342482
3000,00:00:12,-0.010291976388543839
3001,00:00:12.004,0.005692602717317634
3002,00:00:12.008,0.00767491757869721
3003,00:00:12.012,0.0018840554403141176
3004,00:00:12.016,0.0121393526205793
3005,00:00:12.02,-0.008636540267616509
3006,00:00:12.024,-0.016752031806390694
3007,00:00:12.028,-0.000854780519148337
3008,00:00:12.032,0.004140392520639578
3009,00:00:12.036,0.00638840685132892
3010,00:00:12.04,0.0028458100277930507
3011,00:00:12.044,0.01402167405467484
3012,00:00:12.048,0.0009487514471402359
3013,00:00:12.052,-0.00588981690816584
3014,00:00:12.056,-0.036428167368285365
3015,00:00:12.06,-0.0005263620259938801
3016,00:00:12.064,0.017689944303128872
3017,00:00:12.068,0.009478157677222043
3018,00:00:12.072,0.011976764013525104
3019,00:00:12.076,0.010608142416458582
3020,00:00:12.08,-0.01392432261127396
3021,00:00:12.084,-0.01295228966046125
3022,00:00:12.088,-0.0066173399100080115
3023,00:00:12.092,-0.004067200352437794
3024,00:00:12.096,0.0038587843300774724
3025,00:00:12.1,0.009847341512795534
3026,00:00:12.104,0.008677447214722639
3027,00:00:12.108,0.0011172062950208811
3028,00:00:12.112,-0.010648252646205962
3029,00:00:12.116,-0.007997705193702132
3030,00:00:12.12,0.009188175201416016
3031,00:00:12.124,0.008466098573990166
3032,00:00:12.128,-0.004436291783349592
3033,00:00:12.132,0.002244342373160179
3034,00:00:12.136,-0.010878612505621273
3035,00:00:12.14,-0.00609388831071556
3036,00:00:12.144,-0.00256105966400354
3037,00:00:12.148,0.00754907599184663
3038,00:00:12.152,0.006465914746513591
3039,00:00:12.156,0.002291098702698941
3040,00:00:12.16,0.013558648061007261
3041,00:00:12.164,0.004785297409398481
3042,00:00:12.168,-0.01838029392820316
3043,00:00:12.172,-0.025777561473660143
3044,00:00:12.176,-0.00661237019812688
3045,00:00:12.18,0.03760241175768896
3046,00:00:12.184,0.015408036495500717
3047,00:00:12.188,-0.020791197104699646
3048,00:00:12.192,-0.01784095253970013
3049,00:00:12.196,0.0026246237539453428
3050,00:00:12.2,0.019938673613069148
3051,00:00:12.204,-0.002198531301701218
3052,00:00:12.208,-0.007762386101603628
3053,00:00:12.212,-0.0028233447810635014
3054,00:00:12.216,0.01039490965195
3055,00:00:12.22,0.0020267596119083425
3056,00:00:12.224,-0.0016500734564033393
3057,00:00:12.228,-0.015213925740681578
3058,00:00:12.232,0.005304439669998834
3059,00:00:12.236,-3.562809433788191e-05
3060,00:00:12.24,0.00130425568204373
3061,00:00:12.244,0.0005879169038962499
3062,00:00:12.248,0.0043030972810811354
3063,00:00:12.252,0.019135721377097077
3064,00:00:12.256,-0.007879423908889259
3065,00:00:12.26,-0.0231852134456858
3066,00:00:12.264,-0.008195445756427944
3067,00:00:12.268,0.002699242497328675
3068,00:00:12.272,0.005595679278485483
3069,00:00:12.276,0.013510236167348928
3070,00:00:12.28,0.01433209609240294
3071,00:00:12.284,0.00019456015434114932
3072,00:00:12.288,-0.012012448161840439
3073,00:00:12.292,-0.01345382910221811
3074,00:00:12.296,-0.007169430369685866
3075,00:00:12.3,0.006895944883581251
3076,00:00:12.304,-0.0023726329091005027
3077,00:00:12.308,0.009737717256939499
3078,00:00:12.312,0.020277414470911054
3079,00:00:12.316,-0.00614828075049445
3080,00:00:12.32,-0.02747869129234457
3081,00:00:12.324,-0.0013188882421673008
3082,00:00:12.328,0.017593874443264247
3083,00:00:12.332,0.013625935251184274
3084,00:00:12.336,-0.006057945862266938
3085,00:00:12.34,-0.025641076460487966
3086,00:00:12.344,0.0043431271915324015
3087,00:00:12.348,0.014299298793048327
3088,00:00:12.352,0.0020266124829504384
