,Elapsed Time,EMG
0,00:00:00,0.08718281984328424
1,00:00:00.004,-0.08503925800323264
2,00:00:00.008,-0.06076323986052956
3,00:00:00.012,-0.0096437558531757
4,00:00:00.016,0.02867048978805975
5,00:00:00.02,0.03599309921264404
6,00:00:00.024,0.025530517101287953
7,00:00:00.028,0.020086705684661796
8,00:00:00.032,-0.00847428292036101
9,00:00:00.036,-0.018359825015068
10,00:00:00.04,-0.017948612570763023
11,00:00:00.044,-0.010150957852602005
12,00:00:00.048,-0.0051367506384849965
13,00:00:00.052,0.011078175157309189
14,00:00:00.056,-0.0004108957946297037
15,00:00:00.06,0.005133090540766702
16,00:00:00.064,0.02061581355519592
17,00:00:00.068,-0.008444837294518899
18,00:00:00.072,-0.003454883582889999
19,00:00:00.076,-0.009281163103878401
20,00:00:00.08,-0.009515932295471421
21,00:00:00.084,0.0022376452106982504
22,00:00:00.088,0.004923978354781859
23,00:00:00.092,0.01219617528840899
24,00:00:00.096,-0.003916022949852039
25,00:00:00.1,0.0021346819703467234
26,00:00:00.104,-0.004429831169545652
27,00:00:00.108,-0.005221045250436868
28,00:00:00.112,0.00587730249390005
29,00:00:00.116,0.00337745039723813
30,00:00:00.12,-0.0011808712733909427
31,00:00:00.124,-0.00335328292567283
32,00:00:00.128,-0.01112833141814918
33,00:00:00.132,0.008997243538033212
34,00:00:00.136,-0.0029821531788911688
35,00:00:00.14,0.00641872768756002
36,00:00:00.144,0.02299420861527323
37,00:00:00.148,-0.026360658928751907
38,00:00:00.152,-0.01828018808737395
39,00:00:00.156,0.005418427055701624
40,00:00:00.16,0.019037960562855012
41,00:00:00.164,0.01818572217598561
42,00:00:00.168,-0.00569601939059793
43,00:00:00.172,-0.02475200290791692
44,00:00:00.176,-0.005655147135257719
45,00:00:00.18,-0.00190851069055498
46,00:00:00.184,0.012798642041161651
47,00:00:00.188,0.005732710938900701
48,00:00:00.192,-0.00012344110291451433
49,00:00:00.196,0.003605762613005944
50,00:00:00.2,3.464694600552147e-05
51,00:00:00.204,-0.005345764337107532
52,00:00:00.208,0.002202398274675944
53,00:00:00.212,-0.00477258570026606
54,00:00:00.216,-0.0014135494129732303
55,00:00:00.22,-0.002057149016764016
56,00:00:00.224,0.0005926665617153044
57,00:00:00.228,0.006601061904802929
58,00:00:00.232,-0.005599679949227726
59,00:00:00.236,0.004091653594514352
60,00:00:00.24,-0.0011277333833277104
61,00:00:00.244,0.0035853805020451216
62,00:00:00.248,0.0009054834954440592
63,00:00:00.252,-0.01239723188336939
64,00:00:00.256,0.00910419155843556
65,00:00:00.26,0.010581688024103645
66,00:00:00.264,-0.01321493927389383
67,00:00:00.268,-0.006665958389930896
68,00:00:00.272,0.00115902116522192
69,00:00:00.276,0.00914543867111206
70,00:00:00.28,0.00482012284919619
71,00:00:00.284,0.0031173394527286304
72,00:00:00.288,-0.0162467542104423
73,00:00:00.292,-0.00324158347211778
74,00:00:00.296,0.00848117144778371
75,00:00:00.3,0.003993147285655138
76,00:00:00.304,-0.0016105780377983997
77,00:00:00.308,0.00886391999665648
78,00:00:00.312,-0.008005958174180709
79,00:00:00.316,-0.007525668886955834
80,00:00:00.32,-0.0018258347408846
81,00:00:00.324,0.002689249318791549
82,00:00:00.328,-0.00011427310528234341
83,00:00:00.332,0.013057301985099919
84,00:00:00.336,0.0023164430167526002
85,00:00:00.34,-0.01559573668055236
86,00:00:00.344,0.005155681516043837
87,00:00:00.348,-0.0021376375952968417
88,00:00:00.352,-0.011851688614115119
89,00:00:00.356,0.0106571598444134
90,00:00:00.36,0.01224594947416333
91,00:00:00.364,0.002691925241379064
92,00:00:00.368,-0.009216840844601396
93,00:00:00.372,0.000946938278502787
94,00:00:00.376,-0.005500495783053341
95,00:00:00.38,-0.00604688585735858
96,00:00:00.384,-0.004452633904293181
97,00:00:00.388,0.012118273763917381
98,00:00:00.392,-4.412702401168601e-05
99,00:00:00.396,0.0018878255505114794
100,00:00:00.4,0.007789094001054759
101,00:00:00.404,0.0025447825828450762
102,00:00:00.408,-0.00972598255611956
103,00:00:00.412,-0.01876369002275168
104,00:00:00.416,0.0032767723896540693
105,00:00:00.42,0.01256792526692152
106,00:00:00.424,0.0063082245178520705
107,00:00:00.428,0.0031121245119720606
108,00:00:00.432,0.006234402768313884
109,00:00:00.436,-0.01666563330218196
110,00:00:00.44,-0.004576035076752301
111,00:00:00.444,-0.0011959024704992788
112,00:00:00.448,0.00042070602648891075
113,00:00:00.452,0.007905777776613882
114,00:00:00.456,0.00263147940859198
115,00:00:00.46,0.0016951151192188697
116,00:00:00.464,-0.00354707846418025
117,00:00:00.468,-0.007294139606528947
118,00:00:00.472,0.002950389811303466
119,00:00:00.476,0.01025187666527926
120,00:00:00.48,-0.004204698605462901
121,00:00:00.484,0.0027594971470534767
122,00:00:00.488,-0.008031256962567571
123,00:00:00.492,-0.015794588776770976
124,00:00:00.496,0.0059089162386953605
125,00:00:00.5,0.020016234775539522
126,00:00:00.504,0.00013542012311518366
127,00:00:00.508,0.001251694047823547
128,00:00:00.512,-0.00978717813268304
129,00:00:00.516,2.6206951588399197e-05
130,00:00:00.52,-0.007944029290229084
131,00:00:00.524,0.0007658768445253303
132,00:00:00.528,0.00297884782776237
133,00:00:00.532,0.008850997866829855
134,00:00:00.536,0.00598614895716309
135,00:00:00.54,-0.0038855049060657677
136,00:00:00.544,-0.010375355021096759
137,00:00:00.548,-0.00019936112221330014
138,00:00:00.552,0.000341915874741968
139,00:00:00.556,0.00799157191067934
140,00:00:00.56,-0.00795895373448729
141,00:00:00.564,0.004560196364764124
142,00:00:00.568,-0.0009290266316384099
143,00:00:00.572,0.009403481522895163
144,00:00:00.576,-0.001395905041135852
145,00:00:00.58,-0.02358174277469513
146,00:00:00.584,-0.000889731163624675
147,00:00:00.588,0.02059750852640714
148,00:00:00.592,0.0027294626997900256
149,00:00:00.596,-0.00502672122092917
150,00:00:00.6,0.0009096798021346396
151,00:00:00.604,0.004317534214351331
152,00:00:00.608,-0.00335128560618614
153,00:00:00.612,-0.011367258382961149
154,00:00:00.616,-0.003474961151368912
155,00:00:00.62,0.010627245879732069
156,00:00:00.624,0.005185572765185496
157,00:00:00.628,0.00435735215432946
158,00:00:00.632,-0.00015548773808404196
159,00:00:00.636,-0.022292053094133773
160,00:00:00.64,-0.0032102098921313895
161,00:00:00.644,0.019255509832873902
162,00:00:00.648,0.017554790247231732
163,00:00:00.652,-0.00530908268410712
164,00:00:00.656,-0.02356669632717971
165,00:00:00.66,-0.006537920882692555
166,00:00:00.664,0.002789096615742895
167,00:00:00.668,0.010393096483312549
168,00:00:00.672,0.01206421852111816
169,00:00:00.676,-0.001765253255143763
170,00:00:00.68,-0.00769203703384847
171,00:00:00.684,0.0038689654320478396
172,00:00:00.688,-0.0037111559358891048
173,00:00:00.692,-0.00598336732946336
174,00:00:00.696,-0.005532579642022032
175,00:00:00.7,0.01080440706573424
176,00:00:00.704,0.001143442190368665
177,00:00:00.708,-0.0024161804467439625
178,00:00:00.712,5.1287934184071366e-05
179,00:00:00.716,0.012330207537161192
180,00:00:00.72,-0.003863550489768341
181,00:00:00.724,-0.0012044645845890002
182,00:00:00.728,-0.012695632816758014
183,00:00:00.732,-0.009751933568622926
184,00:00:00.736,0.00712471792940051
185,00:00:00.74,0.01240134239196777
186,00:00:00.744,0.006322111003100871
187,00:00:00.748,0.007347271573962644
188,00:00:00.752,-0.012738100020214919
189,00:00:00.756,-0.009325967170298101
190,00:00:00.76,-0.009408133570104841
191,00:00:00.764,0.005652585299685599
192,00:00:00.768,0.012907946016639481
193,00:00:00.772,0.0015933518589008563
194,00:00:00.776,0.0017580612329766102
195,00:00:00.78,-0.012811631662771088
196,00:00:00.784,0.0032782002817839367
197,00:00:00.788,0.002416173432720833
198,00:00:00.792,0.0011103791766800025
199,00:00:00.796,-0.002075099444482474
200,00:00:00.8,0.007617811919772063
201,00:00:00.804,-0.004932541531161402
202,00:00:00.808,-0.009297788623371163
203,00:00:00.812,-0.00165134691633284
204,00:00:00.816,0.013030947069637472
205,00:00:00.82,0.0002749327104538601
206,00:00:00.824,0.0034803580492735
207,00:00:00.828,-0.00787319405935705
208,00:00:00.832,-0.005356271634809667
209,00:00:00.836,0.004140164877753705
210,00:00:00.84,0.005499859704286793
211,00:00:00.844,-0.009892525617033241
212,00:00:00.848,0.006763865414541217
213,00:00:00.852,0.01092375186271965
214,00:00:00.856,-0.0151522059459239
215,00:00:00.86,-0.007197900122264398
216,00:00:00.864,0.00213746403824189
217,00:00:00.868,0.010568561261607103
218,00:00:00.872,0.0057720456388778985
219,00:00:00.876,-0.002945554108009671
220,00:00:00.88,-0.004525166670646284
221,00:00:00.884,-0.0007196460956038282
222,00:00:00.888,-0.00658341780945193
223,00:00:00.892,0.001293433539103718
224,00:00:00.896,0.01065594628744293
225,00:00:00.9,0.0019343138555996146
226,00:00:00.904,-0.0075574483489617705
227,00:00:00.908,-0.0004970124573446767
228,00:00:00.912,-0.009822154883295312
229,00:00:00.916,0.009916034177877005
230,00:00:00.92,0.0037202900275587984
231,00:00:00.924,0.006646970694419
232,00:00:00.928,-0.0007905029924586346
233,00:00:00.932,-0.012256406451342622
234,00:00:00.936,0.001818741788156335
235,00:00:00.94,-0.0042555438121780805
236,00:00:00.944,-0.009097896167077119
237,00:00:00.948,0.01507228193804622
238,00:00:00.952,0.01084868470206857
239,00:00:00.956,-0.0017168089980259542
240,00:00:00.96,-0.012582261930219829
241,00:00:00.964,-0.0015772712940815808
242,00:00:00.968,0.00056485307868571
243,00:00:00.972,0.0006705829582642758
244,00:00:00.976,0.009059121541213237
245,00:00:00.98,-0.004862330388277769
246,00:00:00.984,0.009093636399484243
247,00:00:00.988,-0.0048571731604169655
248,00:00:00.992,-0.0088617525761947
249,00:00:00.996,-0.0014509980683214945
250,00:00:01,0.004199769813567399
251,00:00:01.004,-0.00539787951856851
252,00:00:01.008,0.010300457244738933
253,00:00:01.012,0.00753314059693366
254,00:00:01.016,-0.00831693410873418
255,00:00:01.02,-0.0034584908280521575
256,00:00:01.024,-0.003834725008346135
257,00:00:01.028,-0.004833144601434471
258,00:00:01.032,-0.0002967700274894029
259,00:00:01.036,0.011976029491052028
260,00:00:01.04,0.0010437400196678902
261,00:00:01.044,0.0012427378678694302
262,00:00:01.048,0.005881317571038382
263,00:00:01.052,-0.0013808433432131997
264,00:00:01.056,-0.016977272927761078
265,00:00:01.06,-0.0008096704259514761
266,00:00:01.064,0.004921512008877478
267,00:00:01.068,0.000546351599041368
268,00:00:01.072,0.008187294733943414
269,00:00:01.076,-0.003111622841970531
270,00:00:01.08,0.00115992379141971
271,00:00:01.084,0.00821370852645487
272,00:00:01.088,-0.013733539031818509
273,00:00:01.092,-0.006654033611994245
274,00:00:01.096,0.007559242774732412
275,00:00:01.1,-0.000693878449965274
276,00:00:01.104,0.002016016631387168
277,00:00:01.108,0.0038953167386353003
278,00:00:01.112,-0.00557536841370166
279,00:00:01.116,-0.0003198732156306503
280,00:00:01.12,0.004092668648809189
281,00:00:01.124,0.00409721117466688
282,00:00:01.128,0.00549033470451832
283,00:00:01.132,-0.013813221827149391
284,00:00:01.136,-0.00667913950746879
285,00:00:01.14,-0.001090426638256761
286,00:00:01.144,-0.001463069813326002
287,00:00:01.148,0.01636209571734071
288,00:00:01.152,0.009251878858776754
289,00:00:01.156,-0.008033589692786329
290,00:00:01.16,-0.003894686422427183
291,00:00:01.164,0.00152386305853725
292,00:00:01.168,-0.0034367847256361996
293,00:00:01.172,-0.007684453215915711
294,00:00:01.176,-0.0035542273362807433
295,00:00:01.18,0.00605869316495955
296,00:00:01.184,0.009245096705853937
297,00:00:01.188,0.01016128057381138
298,00:00:01.192,-0.011762383393943341
299,00:00:01.196,-0.0031605095136910608
300,00:00:01.2,-0.011289469432085749
301,00:00:01.204,0.0012152030249126262
302,00:00:01.208,0.02028219075873497
303,00:00:01.212,0.010132841300219301
304,00:00:01.216,-0.01416196115314961
305,00:00:01.22,-0.01950755313737319
306,00:00:01.224,0.0017605896573513703
307,00:00:01.228,0.008437912183580927
308,00:00:01.232,0.0068702544085681395
309,00:00:01.236,-0.0016730668139644037
310,00:00:01.24,0.0068959263153374195
311,00:00:01.244,0.0007136643980629685
312,00:00:01.248,-0.015528487623669169
313,00:00:01.252,-0.006749134627170859
314,00:00:01.256,0.0165013731457293
315,00:00:01.26,0.0028510045958682908
316,00:00:01.264,-0.0049544216599315405
317,00:00:01.268,-0.001599485753104089
318,00:00:01.272,-0.004472468950552873
319,00:00:01.276,0.0061388077738229185
320,00:00:01.28,0.003606693004257972
321,00:00:01.284,-0.0009799144463613595
322,00:00:01.288,-0.01363672083243727
323,00:00:01.292,0.0070217592874541905
324,00:00:01.296,0.0029693398391827997
325,00:00:01.3,0.00544250360690058
326,00:00:01.304,-0.0036369315785123105
327,00:00:01.308,-0.0036204183197696667
328,00:00:01.312,0.0031498303869739197
329,00:00:01.316,-0.0028969026170670995
330,00:00:01.32,0.002517080603865906
331,00:00:01.324,-0.0031734990188851944
332,00:00:01.328,0.0048640939639881305
333,00:00:01.332,-0.010901499539613741
334,00:00:01.336,0.009487660718150439
335,00:00:01.34,0.0022208548107300824
336,00:00:01.344,-0.00341330876108258
337,00:00:01.348,-0.00014731982082594105
338,00:00:01.352,0.002321598018170339
339,00:00:01.356,-0.004163611709373077
340,00:00:01.36,-1.5730271115899953e-05
341,00:00:01.364,0.0011690499959513497
342,00:00:01.368,-0.001139838772360238
343,00:00:01.372,0.00019953958690166907
344,00:00:01.376,-0.0028024818748235694
345,00:00:01.38,0.00945234348182567
346,00:00:01.384,-0.002155211986973881
347,00:00:01.388,0.00501795299351215
348,00:00:01.392,-0.004972026159521188
349,00:00:01.396,-0.005751444026827809
350,00:00:01.4,-0.0004895548336207815
351,00:00:01.404,-0.00533985462971032
352,00:00:01.408,-0.003503017360344529
353,00:00:01.412,0.01963985350448642
354,00:00:01.416,-0.001023046381305905
355,00:00:01.42,0.00951296999119223
356,00:00:01.424,-0.01469565933803096
357,00:00:01.428,-0.0094944320153445
358,00:00:01.432,-0.007637626724317671
359,00:00:01.436,0.01400004606693984
360,00:00:01.44,-0.002189012244343754
361,00:00:01.444,0.00859658146509901
362,00:00:01.448,0.0024641116615384895
363,00:00:01.452,0.0022643459960818213
364,00:00:01.456,-0.007415990403387697
365,00:00:01.46,-0.004034842761029725
366,00:00:01.464,0.004765173158375546
367,00:00:01.468,-0.007590486929984763
368,00:00:01.472,-0.0015958624426275492
369,00:00:01.476,-0.001635373715544122
370,00:00:01.48,0.0034016629215329894
371,00:00:01.484,0.00973081297706812
372,00:00:01.488,0.004294855752959849
373,00:00:01.492,0.00205555453430861
374,00:00:01.496,-0.011064233025535941
375,00:00:01.5,-0.009840244601946328
376,00:00:01.504,0.009567157365381721
377,00:00:01.508,0.0018080247100442709
378,00:00:01.512,-0.007704882649704859
379,00:00:01.516,0.004199321847409005
380,00:00:01.52,-0.001961886911885811
381,00:00:01.524,0.00273813866078853
382,00:00:01.528,0.009370907442644242
383,00:00:01.532,-0.004542012349702422
384,00:00:01.536,-0.009631808847188941
385,00:00:01.54,0.01221351827553008
386,00:00:01.544,-0.0014698011800646797
387,00:00:01.548,-0.011685835779644549
388,00:00:01.552,-0.010405480396002531
389,00:00:01.556,0.016131975748066876
390,00:00:01.56,0.01835004426538945
391,00:00:01.564,-0.00287792866583916
392,00:00:01.568,-0.0215479217004031
393,00:00:01.572,-0.014149908529361713
394,00:00:01.576,0.01641280017793178
395,00:00:01.58,0.01829064940102397
396,00:00:01.584,-0.0009963954798877196
397,00:00:01.588,-0.01272004772908986
398,00:00:01.592,-0.01207044813781977
399,00:00:01.596,0.005893311230465771
400,00:00:01.6,0.005799520411528647
401,00:00:01.604,0.007786534959450362
402,00:00:01.608,-0.0009856461547315194
403,00:00:01.612,-0.0042952605290338345
404,00:00:01.616,-0.005805789784062657
405,00:00:01.62,-0.0016265866142930472
406,00:00:01.624,0.0020543558057397595
407,00:00:01.628,0.00530265655834228
408,00:00:01.632,-0.0038088436122052363
409,00:00:01.636,0.005011026395095536
410,00:00:01.64,0.004551888268906621
411,00:00:01.644,0.0026437186752445983
412,00:00:01.648,-0.011000523809343568
413,00:00:01.652,-0.009970398445148023
414,00:00:01.656,0.0054580093128606694
415,00:00:01.66,-0.006397020653821529
416,00:00:01.664,0.007855248637497429
417,00:00:01.668,0.006470928434282552
418,00:00:01.672,0.00344223342835903
419,00:00:01.676,0.008348955234396238
420,00:00:01.68,-0.0038911886513233215
421,00:00:01.684,-0.009051754255779091
422,00:00:01.688,-0.0073713312740437634
423,00:00:01.692,-0.00464780512265861
424,00:00:01.696,-0.0025141889636870474
425,00:00:01.7,0.002986085833981633
426,00:00:01.704,0.018460214487277003
427,00:00:01.708,0.0018979863962158591
428,00:00:01.712,-0.006686631706543268
429,00:00:01.716,-0.00314174604136497
430,00:00:01.72,0.004934012948069725
431,00:00:01.724,0.0021082937892060766
432,00:00:01.728,-0.01672540372237559
433,00:00:01.732,-0.004808064200915394
434,00:00:01.736,0.005349455634132029
435,00:00:01.74,0.02513099543284628
436,00:00:01.744,-0.0056011127308011
437,00:00:01.748,-0.011424845084547991
438,00:00:01.752,-0.0128094885731116
439,00:00:01.756,-0.00043389876373111985
440,00:00:01.76,0.014501840370940048
441,00:00:01.764,0.00953174137976021
442,00:00:01.768,0.006617431878112255
443,00:00:01.772,-0.013354154099943158
444,00:00:01.776,-0.0049331517657265
445,00:00:01.78,-0.010647875955328349
446,00:00:01.784,0.005015459755668415
447,00:00:01.788,0.0007981975068105424
448,00:00:01.792,0.007549478323198877
449,00:00:01.796,0.0006386016029864571
450,00:00:01.8,0.00189814914483578
451,00:00:01.804,0.00021077931160107494
452,00:00:01.808,-0.003558678203262393
453,00:00:01.812,0.0041022073419298925
454,00:00:01.816,-0.0017340033082291458
455,00:00:01.82,-0.001464838882384353
456,00:00:01.824,-0.00650746596511453
457,00:00:01.828,-0.0042257565073668905
458,00:00:01.832,0.0003357446403242626
459,00:00:01.836,0.018102326663210936
460,00:00:01.84,0.0008003725379239776
461,00:00:01.844,-0.005972618004307149
462,00:00:01.848,-0.009967521080398004
463,00:00:01.852,-0.00494728260673582
464,00:00:01.856,0.00552122038789094
465,00:00:01.86,0.01340896700276065
466,00:00:01.864,0.0022848536755191175
467,00:00:01.868,0.0015615652082487897
468,00:00:01.872,-0.007851074449718002
469,00:00:01.876,-0.01686033292207867
470,00:00:01.88,-0.0046252043684944545
471,00:00:01.884,0.01730603119358416
472,00:00:01.888,0.002748940954916185
473,00:00:01.892,-0.0068840506719425295
474,00:00:01.896,0.007440447341650723
475,00:00:01.9,0.004958353121764961
476,00:00:01.904,-0.005143823567777877
477,00:00:01.908,0.0036656339361798036
478,00:00:01.912,0.0012003183364868173
479,00:00:01.916,-0.02350069978274406
480,00:00:01.92,0.0009389736223965801
481,00:00:01.924,0.01867798855528235
482,00:00:01.928,0.0013783234171569295
483,00:00:01.932,-0.0007630834006704449
484,00:00:01.936,1.0189134627577607e-05
485,00:00:01.94,0.0021210124250501403
486,00:00:01.944,-0.01098312065005303
487,00:00:01.948,-0.0034621855011209794
488,00:00:01.952,0.000264395552221685
489,00:00:01.956,0.010499940603040159
490,00:00:01.96,0.00522791908588261
491,00:00:01.964,-0.0017396807670593218
492,00:00:01.968,-0.01539040263742209
493,00:00:01.972,0.005523088446352633
494,00:00:01.976,0.00439719983842224
495,00:00:01.98,0.00777967181056738
496,00:00:01.984,-0.008648334420286119
497,00:00:01.988,-0.00649685342796147
498,00:00:01.992,0.0019010175019502592
499,00:00:01.996,-0.0002345091779716313
500,00:00:02,0.004528466379269959
501,00:00:02.004,0.007899386342614891
502,00:00:02.008,-0.0029721176251769005
503,00:00:02.012,-0.004608234914485366
504,00:00:02.016,-0.002532556594815106
505,00:00:02.02,-6.599631160498012e-05
506,00:00:02.024,0.009618064272217458
507,00:00:02.028,-0.002309412520844484
508,00:00:02.032,-0.01178425282705576
509,00:00:02.036,0.00010356758139095582
510,00:00:02.04,0.002236485830508176
511,00:00:02.044,0.005852991132996982
512,00:00:02.048,0.003275564376963308
513,00:00:02.052,-0.008561367598304068
514,00:00:02.056,0.0014729616232216402
515,00:00:02.06,0.012274499924387776
516,00:00:02.064,0.004921159321384036
517,00:00:02.068,-0.012322429975029078
518,00:00:02.072,-0.016591706546023488
519,00:00:02.076,0.005473564087878913
520,00:00:02.08,0.004495666071306919
521,00:00:02.084,0.01060195830359594
522,00:00:02.088,-0.00500487152021379
523,00:00:02.092,-0.00207230309024453
524,00:00:02.096,0.002297509461641309
525,00:00:02.1,-0.000940699261263941
526,00:00:02.104,-0.0008935125079006
527,00:00:02.108,0.00197284610476345
528,00:00:02.112,-0.0015790917677804793
529,00:00:02.116,0.00293548824265599
530,00:00:02.12,0.002279560838360342
531,00:00:02.124,-0.01468711090274155
532,00:00:02.128,-0.0006419877754524323
533,00:00:02.132,0.01467785984277726
534,00:00:02.136,0.004926041845465081
535,00:00:02.14,-0.005132402060553429
536,00:00:02.144,-0.00594103767070919
537,00:00:02.148,-0.00909838592633605
538,00:00:02.152,0.01047414867207408
539,00:00:02.156,-0.0031242358963936515
540,00:00:02.16,0.005336611066013579
541,00:00:02.164,0.00324555742554366
542,00:00:02.168,-0.004928702430333944
543,00:00:02.172,0.0030438895337283594
544,00:00:02.176,-0.003608372760936631
545,00:00:02.18,-0.0006751166292815495
546,00:00:02.184,0.006217839894816242
547,00:00:02.188,-0.00792616396211088
548,00:00:02.192,-0.00490734982304275
549,00:00:02.196,0.0011969717525062143
550,00:00:02.2,0.006545420736074451
551,00:00:02.204,0.0021797177614644152
552,00:00:02.208,-0.00185601809062064
553,00:00:02.212,0.00545047037303447
554,00:00:02.216,-0.001179542741738255
555,00:00:02.22,-0.0038151183398440498
556,00:00:02.224,0.0009424436138942799
557,00:00:02.228,-0.009289756038924681
558,00:00:02.232,0.003390492143807942
559,00:00:02.236,0.00038523098919540037
560,00:00:02.24,-0.0003935541026294301
561,00:00:02.244,0.004436251707375059
562,00:00:02.248,0.0013638760428875693
563,00:00:02.252,0.004643371910788123
564,00:00:02.256,0.014673978206701584
565,00:00:02.26,-0.02160239173099399
566,00:00:02.264,-0.01592849078588188
567,00:00:02.268,-0.00272860063705593
568,00:00:02.272,0.01321588107384741
569,00:00:02.276,0.020402591675519964
570,00:00:02.28,-0.0012677646009251504
571,00:00:02.284,-0.00871634716168046
572,00:00:02.288,-0.011674943729303779
573,00:00:02.292,-0.0032367101812269517
574,00:00:02.296,0.01029538491275161
575,00:00:02.3,0.004532713966909791
576,00:00:02.304,0.0017824079841375368
577,00:00:02.308,-0.014897498069331029
578,00:00:02.312,0.011983477888861664
579,00:00:02.316,-0.00326340593164787
580,00:00:02.32,0.000868747447384522
581,00:00:02.324,0.00459763989783823
582,00:00:02.328,-0.006692577619105579
583,00:00:02.332,-0.0023854192695580423
584,00:00:02.336,-0.00153168675024063
585,00:00:02.34,0.00164131011115387
586,00:00:02.344,-0.00310519384220242
587,00:00:02.348,0.008414075535256424
588,00:00:02.352,0.007834133692085741
589,00:00:02.356,-1.950142905116038e-05
590,00:00:02.36,0.0008267818484455403
591,00:00:02.364,-0.014006538962348717
592,00:00:02.368,-0.0105027430690825
593,00:00:02.372,0.0028569721616804517
594,00:00:02.376,0.018279422773048278
595,00:00:02.38,-0.0053285282338038096
596,00:00:02.384,-0.01190237328410148
597,00:00:02.388,0.01389004976954311
598,00:00:02.392,0.00020624999888241118
599,00:00:02.396,-0.0005587642081081694
600,00:00:02.4,-0.0015436737157870004
601,00:00:02.404,0.00657829735428095
602,00:00:02.408,-0.006979870842769709
603,00:00:02.412,-0.008865581476129591
604,00:00:02.416,-0.006181731354445218
605,00:00:02.42,0.009792989352717999
606,00:00:02.424,0.00882142351474613
607,00:00:02.428,-0.0036362360406201315
608,00:00:02.432,0.00553862215019763
609,00:00:02.436,0.0008215615525841696
610,00:00:02.44,-0.004221701645292345
611,00:00:02.444,-0.009499950567260391
612,00:00:02.448,-0.003467569869826548
613,00:00:02.452,0.009058289811946452
614,00:00:02.456,-0.004769329534610736
615,00:00:02.46,0.003221594903152432
616,00:00:02.464,0.00839690328575671
617,00:00:02.468,0.00011483160778880987
618,00:00:02.472,-0.00792978378012777
619,00:00:02.476,-0.00408163331667311
620,00:00:02.48,0.0052283044205978495
621,00:00:02.484,0.005780085339210924
622,00:00:02.488,-0.00409051228780299
623,00:00:02.492,0.00013410300016403025
624,00:00:02.496,-0.002887813083361835
625,00:00:02.5,-0.01012407825328407
626,00:00:02.504,0.003906210651621223
627,00:00:02.508,0.020219086669385426
628,00:00:02.512,0.0017717001028358893
629,00:00:02.516,-0.01884166523814202
630,00:00:02.52,-0.007870394409110332
631,00:00:02.524,0.00900129973888397
632,00:00:02.528,0.009654906112700704
633,00:00:02.532,-0.00255421269685031
634,00:00:02.536,-0.006631827796809422
635,00:00:02.54,-0.01081432402133942
636,00:00:02.544,0.009626095416024329
637,00:00:02.548,0.020252587870345437
638,00:00:02.552,-0.004589981224853545
639,00:00:02.556,-0.01076200266834349
640,00:00:02.56,-0.01354266738053411
641,00:00:02.564,0.006580111890798436
642,00:00:02.568,0.005695790518075231
643,00:00:02.572,0.0007477938197553106
644,00:00:02.576,-0.00410257605835795
645,00:00:02.58,0.01041540841106326
646,00:00:02.584,-0.002410685061477121
647,00:00:02.588,-0.006671675932011541
648,00:00:02.592,0.00569074018858373
649,00:00:02.596,-0.00214662286452949
650,00:00:02.6,-0.00525054226454813
651,00:00:02.604,0.0006054090918041809
652,00:00:02.608,-0.0018973737605847327
653,00:00:02.612,-0.0005240506725385798
654,00:00:02.616,0.02019242523238063
655,00:00:02.62,0.0033989116345765147
656,00:00:02.624,-0.02208487980533394
657,00:00:02.628,-0.008645115129183987
658,00:00:02.632,-0.004017642932012679
659,00:00:02.636,0.008647084236145009
660,00:00:02.64,0.01918037200812252
661,00:00:02.644,0.00475149205885827
662,00:00:02.648,-0.01829833304509525
663,00:00:02.652,0.0070752131287008515
664,00:00:02.656,-0.00043220701627432953
665,00:00:02.66,-0.006025806127581746
666,00:00:02.664,-0.00775329163298011
667,00:00:02.668,0.00640127493534237
668,00:00:02.672,0.00612808333244174
669,00:00:02.676,0.0017172949737869134
670,00:00:02.68,-0.005890905158594251
671,00:00:02.684,-0.0008989571360871182
672,00:00:02.688,0.0033177561708725963
673,00:00:02.692,-0.002610993353300727
674,00:00:02.696,-0.001007703307550399
675,00:00:02.7,-0.004919863713439556
676,00:00:02.704,0.01628345920471474
677,00:00:02.708,0.00460760318674148
678,00:00:02.712,-0.011814576457254587
679,00:00:02.716,-0.008919555984903125
680,00:00:02.72,0.0007985406555235403
681,00:00:02.724,0.006136927288025609
682,00:00:02.728,0.00360106490552426
683,00:00:02.732,-0.006278718821704391
684,00:00:02.736,0.0018091800156980684
685,00:00:02.74,0.0069005717523396
686,00:00:02.744,-0.002887056223698889
687,00:00:02.748,-0.008077725826296948
688,00:00:02.752,0.00223513506352902
689,00:00:02.756,-0.00031798030249775177
690,00:00:02.76,0.010049643708043746
691,00:00:02.764,0.00530181312933564
692,00:00:02.768,-0.012343768496066328
693,00:00:02.772,-0.01468992372974752
694,00:00:02.776,0.01207505859201774
695,00:00:02.78,0.008221296360716213
696,00:00:02.784,-0.0028130765713285676
697,00:00:02.788,-0.001218649675138286
698,00:00:02.792,-0.0028514721925603243
699,00:00:02.796,0.007650360290426764
700,00:00:02.8,-0.00456969125661999
701,00:00:02.804,-0.00891525158658624
702,00:00:02.808,0.0027432072674855638
703,00:00:02.812,0.0008500015828758608
704,00:00:02.816,0.011072629131376698
705,00:00:02.82,-0.00047339953016489983
706,00:00:02.824,-0.006528813333716247
707,00:00:02.828,0.0064289520378224595
708,00:00:02.832,-0.011923009413294489
709,00:00:02.836,-0.003945813979953526
710,00:00:02.84,0.005236571654677349
711,00:00:02.844,0.0057425228296779166
712,00:00:02.848,0.0006009793632983923
713,00:00:02.852,-0.002652782437507999
714,00:00:02.856,0.00556592224165796
715,00:00:02.86,0.003546436782926322
716,00:00:02.864,-0.00721729476936162
717,00:00:02.868,-0.006232426530914385
718,00:00:02.872,0.0004924081731587709
719,00:00:02.876,-0.0019297763938084301
720,00:00:02.88,0.0036687036044895805
721,00:00:02.884,0.0018962583271786505
722,00:00:02.888,0.003855666611343631
723,00:00:02.892,0.011681641917675728
724,00:00:02.896,-0.015384564641863111
725,00:00:02.9,-0.0108217999804765
726,00:00:02.904,-0.0038818023422209106
727,00:00:02.908,0.01293468638323248
728,00:00:02.912,0.02097589790355415
729,00:00:02.916,-0.0053018326871097105
730,00:00:02.92,-0.00980066182091832
731,00:00:02.924,-0.012207893800223253
732,00:00:02.928,0.004815662745386361
733,00:00:02.932,0.0004690638161264299
734,00:00:02.936,-0.0140941992867738
735,00:00:02.94,0.008853589199134152
736,00:00:02.944,0.02929656929336491
737,00:00:02.948,-0.0047491400327999145
738,00:00:02.952,-0.011311402311548549
739,00:00:02.956,-0.015499940491281427
740,00:00:02.96,-0.001884291647002104
741,00:00:02.964,0.012311111902818087
742,00:00:02.968,0.0014439616352319791
743,00:00:02.972,-0.0004679094417952027
744,00:00:02.976,3.556118463166275e-05
745,00:00:02.98,0.002519089641282335
746,00:00:02.984,-0.003764778492040935
747,00:00:02.988,0.00434430249151774
748,00:00:02.992,0.00326865690294653
749,00:00:02.996,-0.012886322801932689
750,00:00:03,0.006766718521248544
751,00:00:03.004,0.00014040723908692555
752,00:00:03.008,-0.012309531681239607
753,00:00:03.012,0.00850318791344762
754,00:00:03.016,0.00609574327245355
755,00:00:03.02,0.0017059394158422895
756,00:00:03.024,-0.0015342317055910808
757,00:00:03.028,0.001516719639766961
758,00:00:03.032,-0.001838448864873496
759,00:00:03.036,-0.01006020628847182
760,00:00:03.04,0.00284954300150275
761,00:00:03.044,-0.0063333844300359505
762,00:00:03.048,0.003209978691302229
763,00:00:03.052,0.015567034017294642
764,00:00:03.056,0.0019625991117209196
765,00:00:03.06,0.0015282172244042104
766,00:00:03.064,-0.00948451599106193
767,00:00:03.068,-0.010302267211955048
768,00:00:03.072,-0.0026973640779033303
769,00:00:03.076,0.001675439503742382
770,00:00:03.08,0.005739510292187329
771,00:00:03.084,0.00999284791760147
772,00:00:03.088,0.0032613543007755635
773,00:00:03.092,-0.007453943602740772
774,00:00:03.096,-0.0017576356331119331
775,00:00:03.1,-0.0031662757974118046
776,00:00:03.104,0.0008685829034220695
777,00:00:03.108,0.0009897587588057
778,00:00:03.112,-0.0018183007323386924
779,00:00:03.116,-0.004450971260666851
780,00:00:03.12,0.009422085073310885
781,00:00:03.124,0.0031112646684050603
782,00:00:03.128,-0.005920426454395061
783,00:00:03.132,-0.001596211513970049
784,00:00:03.136,-0.003626523306593298
785,00:00:03.14,0.0029239348368719203
786,00:00:03.144,0.0059719793498516
787,00:00:03.148,0.002144584082998333
788,00:00:03.152,0.0023865363327786404
789,00:00:03.156,-0.013455625914502889
790,00:00:03.16,7.038805051706704e-05
791,00:00:03.164,0.007829464273527268
792,00:00:03.168,0.005065714940428734
793,00:00:03.172,-0.01051981025375426
794,00:00:03.176,-0.008155631483532485
795,00:00:03.18,0.0014503508573397994
796,00:00:03.184,0.021548320190049666
797,00:00:03.188,0.005335500463843351
798,00:00:03.192,-0.024473645258694898
799,00:00:03.196,-0.00800099817570299
800,00:00:03.2,0.0071896391455084
801,00:00:03.204,0.01583894255236373
802,00:00:03.208,-0.002516978158382698
803,00:00:03.212,-0.004815085558220739
804,00:00:03.216,0.006218823924427848
805,00:00:03.22,-0.005281684279907498
806,00:00:03.224,-0.002875215213862253
807,00:00:03.228,0.003110724850557747
808,00:00:03.232,-0.00989021710120141
809,00:00:03.236,0.003594152280129491
810,00:00:03.24,0.013860011240467422
811,00:00:03.244,0.0011683153716148865
812,00:00:03.248,-0.01694366103038193
813,00:00:03.252,-0.007805730623658747
814,00:00:03.256,0.01015485497191548
815,00:00:03.26,0.009311713787610646
816,00:00:03.264,-0.0014295808505266896
817,00:00:03.268,0.0034253606011134226
818,00:00:03.272,-0.007235447061248116
819,00:00:03.276,0.0014347912510857
820,00:00:03.28,-0.00577580998651684
821,00:00:03.284,0.00017172363004646393
822,00:00:03.288,0.004761849530041219
823,00:00:03.292,-0.007724968367256217
824,00:00:03.296,0.01366487191990018
825,00:00:03.3,-0.0018208965338999432
826,00:00:03.304,-0.0002807919245242437
827,00:00:03.308,-0.006270098325330766
828,00:00:03.312,-0.005171722848899664
829,00:00:03.316,0.009277641423977915
830,00:00:03.32,0.002902678214013573
831,00:00:03.324,-0.0060593879316002104
832,00:00:03.328,-0.0015147975354921116
833,00:00:03.332,0.004955116448400076
834,00:00:03.336,-0.004638046637410301
835,00:00:03.34,-0.0024079081958916543
836,00:00:03.344,-0.0026924081903416637
837,00:00:03.348,0.0050171491093351445
838,00:00:03.352,0.013962640659883611
839,00:00:03.356,0.01341935701202601
840,00:00:03.36,-0.023008811636827907
841,00:00:03.364,-0.022142629954032562
842,00:00:03.368,0.0077574604656547395
843,00:00:03.372,0.00784131814725697
844,00:00:03.376,0.008236872636189219
845,00:00:03.38,-0.0010388334048911877
846,00:00:03.384,0.0023458177456632296
847,00:00:03.388,-0.004475461726542562
848,00:00:03.392,-0.00500656908843667
849,00:00:03.396,0.0041112258331850214
850,00:00:03.4,0.00552864384371787
851,00:00:03.404,-0.00372671941295267
852,00:00:03.408,0.0005901453550905002
853,00:00:03.412,-0.00267332722432912
854,00:00:03.416,-0.003979561617597939
855,00:00:03.42,0.006027591647580271
856,00:00:03.424,0.0009007202461361894
857,00:00:03.428,-0.00579090474639088
858,00:00:03.432,0.002098166442010556
859,00:00:03.436,0.008647182025015352
860,00:00:03.44,-0.013634752016514541
861,00:00:03.444,-0.006163115875096988
862,00:00:03.448,0.012750070367474109
863,00:00:03.452,0.006979257101193075
864,00:00:03.456,0.00024122282047756146
865,00:00:03.46,-0.0015724479453638103
866,00:00:03.464,-0.0019591425370890643
867,00:00:03.468,-0.012226178077980878
868,00:00:03.472,-0.00401581218466162
869,00:00:03.476,0.008814620727207513
870,00:00:03.48,0.011992261075647551
871,00:00:03.484,-0.011883955507073555
872,00:00:03.488,0.01081422623246908
873,00:00:03.492,-0.0017082620761357343
874,00:00:03.496,-0.007309176609851421
875,00:00:03.5,-0.0017994565923800125
876,00:00:03.504,0.011166862095706163
877,00:00:03.508,-0.010442389233503492
878,00:00:03.512,-0.007114335428923369
879,00:00:03.516,0.007406687800539653
880,00:00:03.52,0.0041034417226910695
881,00:00:03.524,-0.007351763608312469
882,00:00:03.528,0.0027971540112048396
883,00:00:03.532,0.006974969030125065
884,00:00:03.536,0.009070415748283316
885,00:00:03.54,-0.01186771306674927
886,00:00:03.544,-0.0006381043058354438
887,00:00:03.548,-0.010634756821673367
888,00:00:03.552,-0.0020281848046579355
889,00:00:03.556,0.012344331014901387
890,00:00:03.56,0.02493607485666871
891,00:00:03.564,-0.01751038129441442
892,00:00:03.568,-0.01582325459457933
893,00:00:03.572,-0.00511001283302903
894,00:00:03.576,0.005842857062816632
895,00:00:03.58,0.005077719921246161
896,00:00:03.584,-0.0001989969750866307
897,00:00:03.588,0.001712219760520388
898,00:00:03.592,0.0008500919211655899
899,00:00:03.596,0.01229390199296176
900,00:00:03.6,0.006300973705947391
901,00:00:03.604,-0.01759928977116942
902,00:00:03.608,-0.01739024324342608
903,00:00:03.612,0.004254858562489967
904,00:00:03.616,0.009538387879729273
905,00:00:03.62,0.004564072471112017
906,00:00:03.624,0.0077793884556740505
907,00:00:03.628,-9.830901399254972e-05
908,00:00:03.632,-0.008062691165832764
909,00:00:03.636,-0.010848608566448089
910,00:00:03.64,-0.0001706820330582572
911,00:00:03.644,-0.0011948989704251294
912,00:00:03.648,0.004970509500708421
913,00:00:03.652,0.01782888034358624
914,00:00:03.656,0.007771495147608259
915,00:00:03.66,-0.010795635171234611
916,00:00:03.664,-0.01898008491843935
917,00:00:03.668,-0.0028077762690372795
918,00:00:03.672,0.007280842517502611
919,00:00:03.676,0.010807722981553525
920,00:00:03.68,0.002803787670018208
921,00:00:03.684,-0.012247252278029933
922,00:00:03.688,-0.01029885886237025
923,00:00:03.692,0.006382870487868789
924,00:00:03.696,0.0117120873183012
925,00:00:03.7,0.014092708355747167
926,00:00:03.704,-0.007111145649105309
927,00:00:03.708,-0.013516661711037149
928,00:00:03.712,-0.00718159170355648
929,00:00:03.716,0.0027642743661999702
930,00:00:03.72,-0.00320497748907655
931,00:00:03.724,0.01148959808051585
932,00:00:03.728,0.007637313683517281
933,00:00:03.732,-0.0063130669295787785
934,00:00:03.736,0.0031718048267066496
935,00:00:03.74,-0.0023221520241349988
936,00:00:03.744,-0.00616485346108675
937,00:00:03.748,-0.009189652788336387
938,00:00:03.752,0.01728083076886833
939,00:00:03.756,6.255367770790447e-05
940,00:00:03.76,-0.011092873523011802
941,00:00:03.764,0.00019663583952933897
942,00:00:03.768,0.004076418001204729
943,00:00:03.772,0.003451767028309403
944,00:00:03.776,0.001177267404273152
945,00:00:03.78,0.00336931296624243
946,00:00:03.784,-0.0014056949876248908
947,00:00:03.788,-0.012769921682775022
948,00:00:03.792,-0.00240557390497997
949,00:00:03.796,0.006669449736364181
950,00:00:03.8,0.00413406355073675
951,00:00:03.804,0.0105142937391065
952,00:00:03.808,-0.0012992203701287504
953,00:00:03.812,-0.01344263413920999
954,00:00:03.816,-0.00293005164712667
955,00:00:03.82,-0.0064781231340020895
956,00:00:03.824,0.002537598891649392
957,00:00:03.828,0.020758426864631488
958,00:00:03.832,0.010331252939067809
959,00:00:03.836,-0.010079963481984993
960,00:00:03.84,-0.01961607276462015
961,00:00:03.844,-0.010038889478892109
962,00:00:03.848,0.012544936445920035
963,00:00:03.852,-0.0030470732599496807
964,00:00:03.856,0.01935181277804077
965,00:00:03.86,0.004495304270676575
966,00:00:03.864,-0.0117877934826538
967,00:00:03.868,-0.010655231773853309
968,00:00:03.872,0.007080853087245483
969,00:00:03.876,0.020162293047178516
970,00:00:03.88,-0.02004153095185756
971,00:00:03.884,-0.0131223244825378
972,00:00:03.888,0.006193855952005825
973,00:00:03.892,0.0019134522881358905
974,00:00:03.896,-0.0005861390382051498
975,00:00:03.9,0.010152585309697315
976,00:00:03.904,0.008027138363104319
977,00:00:03.908,0.007412180886603889
978,00:00:03.912,-0.012338023167103519
979,00:00:03.916,-0.023602039786055684
980,00:00:03.92,0.00195384165272117
981,00:00:03.924,0.005705635529011489
982,00:00:03.928,0.00785257649840787
983,00:00:03.932,0.016440657927887483
984,00:00:03.936,-0.009791246004169805
985,00:00:03.94,-0.009655402507632992
986,00:00:03.944,-0.0002938040997832996
987,00:00:03.948,0.00943115493282675
988,00:00:03.952,0.0011397210182622084
989,00:00:03.956,-0.0015393428038805688
990,00:00:03.96,-0.008213202585466201
991,00:00:03.964,0.0022673585917800656
992,00:00:03.968,-0.010644037392921739
993,00:00:03.972,0.003085440635913983
994,00:00:03.976,0.01217359059955924
995,00:00:03.98,0.01477827504277231
996,00:00:03.984,-0.01947031565941871
997,00:00:03.988,-0.006088002119213342
998,00:00:03.992,0.004288683878257871
999,00:00:03.996,0.011120466399006554
1000,00:00:04,-0.0039256008167285975
1001,00:00:04.004,-0.003607587234000677
1002,00:00:04.008,-0.00655374710913748
1003,00:00:04.012,0.001138521329266949
1004,00:00:04.016,0.003793825104366987
1005,00:00:04.02,0.00102147541474551
1006,00:00:04.024,0.0010103588574565902
1007,00:00:04.028,0.00715835508890449
1008,00:00:04.032,-0.0014285157667472915
1009,00:00:04.036,-0.01130272471345962
1010,00:00:04.04,-0.0005230270326137499
1011,00:00:04.044,0.007306587067432698
1012,00:00:04.048,0.005198704137001187
1013,00:00:04.052,-0.010032175283413377
1014,00:00:04.056,-0.00565689872018992
1015,00:00:04.06,0.001691972138360144
1016,00:00:04.064,0.011577818397199735
1017,00:00:04.068,0.0029640959110110994
1018,00:00:04.072,-0.00488033122383058
1019,00:00:04.076,-0.008695706768776292
1020,00:00:04.08,0.006501393654616551
1021,00:00:04.084,0.006442151207011172
1022,00:00:04.088,-0.0070151082472875706
1023,00:00:04.092,-0.005472307209856808
1024,00:00:04.096,-0.006559312460012736
1025,00:00:04.1,0.0048360062437495755
1026,00:00:04.104,0.01862890226766467
1027,00:00:04.108,-0.004220128292217849
1028,00:00:04.112,-0.005094836582429721
1029,00:00:04.116,0.00919974478892981
1030,00:00:04.12,-0.00451189500745386
1031,00:00:04.124,-0.017162118107080453
1032,00:00:04.128,-0.008596813539043069
1033,00:00:04.132,0.015484899049624813
1034,00:00:04.136,0.0035817797761410414
1035,00:00:04.14,0.003411382436752319
1036,00:00:04.144,-0.0008914325153455101
1037,00:00:04.148,0.000957544310949751
1038,00:00:04.152,0.0037250276654958777
1039,00:00:04.156,-0.011886209482327109
1040,00:00:04.16,0.0007949503487907298
1041,00:00:04.164,0.009702504379674792
1042,00:00:04.168,-0.001759226972353639
1043,00:00:04.172,-0.0089074409333989
1044,00:00:04.176,-0.0054431107128039115
1045,00:00:04.18,0.0046776148956269095
1046,00:00:04.184,0.01286876481026412
1047,00:00:04.188,-0.0019470595289021791
1048,00:00:04.192,-0.0025553499290253937
1049,00:00:04.196,-0.002574113488662987
1050,00:00:04.2,-0.003784420026931915
1051,00:00:04.204,-0.002678259974345559
1052,00:00:04.208,0.01018525799736381
1053,00:00:04.212,0.0024162919435184466
1054,00:00:04.216,-0.007103664946043865
1055,00:00:04.22,-0.006527816294692459
1056,00:00:04.224,0.006488624727353451
1057,00:00:04.228,0.00698305503465235
1058,00:00:04.232,-0.00181881068419898
1059,00:00:04.236,-0.010650387033820157
1060,00:00:04.24,-0.0014022657414898292
1061,00:00:04.244,0.00609757401980459
1062,00:00:04.248,0.0069791259011253715
1063,00:00:04.252,-0.00078071595635265
1064,00:00:04.256,-0.007421852205879979
1065,00:00:04.26,-0.0008040393004193902
1066,00:00:04.264,0.014644152484834189
1067,00:00:04.268,-0.0053631713963113725
1068,00:00:04.272,-0.01685128430835902
1069,00:00:04.276,-0.0006215462926775191
1070,00:00:04.28,0.009108110767556351
1071,00:00:04.284,0.01147443102672693
1072,00:00:04.288,-0.00399303500307723
1073,00:00:04.292,-0.0013465603115037114
1074,00:00:04.296,-0.004231520695611829
1075,00:00:04.3,-0.006671462266240265
1076,00:00:04.304,0.006054647616110741
1077,00:00:04.308,0.002874098514439543
1078,00:00:04.312,-0.00162376346997917
1079,00:00:04.316,0.001147878205301827
1080,00:00:04.32,0.00264190277084709
1081,00:00:04.324,-0.0025030067190528003
1082,00:00:04.328,-0.0005778808990726208
1083,00:00:04.332,-0.00296086934395134
1084,00:00:04.336,0.005147642543306575
1085,00:00:04.34,-0.006958447396755221
1086,00:00:04.344,-0.013520431471988559
1087,00:00:04.348,0.014447756228037179
1088,00:00:04.352,0.019313118071295363
1089,00:00:04.356,0.003288589767180381
1090,00:00:04.36,-0.01990097295492886
1091,00:00:04.364,-0.0045521444408223085
1092,00:00:04.368,0.00037355686072260055
1093,00:00:04.372,-0.006855096056824548
1094,00:00:04.376,0.003010858054040006
1095,00:00:04.38,0.0093058607308194
1096,00:00:04.384,0.0060280517209321295
1097,00:00:04.388,-0.0015330704336520332
1098,00:00:04.392,0.0009452124941162817
1099,00:00:04.396,-0.002127957181073721
1100,00:00:04.4,-0.00809309037867933
1101,00:00:04.404,-0.005489817005582152
1102,00:00:04.408,0.0018709595315158402
1103,00:00:04.412,0.01619450352154672
1104,00:00:04.416,0.009890847082715487
1105,00:00:04.42,-0.01983430835389302
1106,00:00:04.424,-0.01735954266041514
1107,00:00:04.428,0.00865361816249788
1108,00:00:04.432,0.01211919554043561
1109,00:00:04.436,0.00206734403036535
1110,00:00:04.44,0.009652650216594331
1111,00:00:04.444,-0.0026772744022309797
1112,00:00:04.448,-0.008710061199963088
1113,00:00:04.452,-0.01185762987006455
1114,00:00:04.456,-0.005385577911511061
1115,00:00:04.46,0.004344866290921347
1116,00:00:04.464,0.01483970694243908
1117,00:00:04.468,0.003136559389531621
1118,00:00:04.472,-0.00019163551041856083
1119,00:00:04.476,-0.009660828625783359
1120,00:00:04.48,0.0018216238822788
1121,00:00:04.484,0.0064311553142033535
1122,00:00:04.488,-0.014321519760414951
1123,00:00:04.492,0.005107895703986289
1124,00:00:04.496,0.0021924605825915846
1125,00:00:04.5,0.0037885862402617797
1126,00:00:04.504,0.005453408695757391
1127,00:00:04.508,-0.003067290999752001
1128,00:00:04.512,-0.007424057694151999
1129,00:00:04.516,-0.00994158920366317
1130,00:00:04.52,0.013024722691625351
1131,00:00:04.524,-0.0019305224996060103
1132,00:00:04.528,-0.0015318344812840202
1133,00:00:04.532,0.007766427952446972
1134,00:00:04.536,0.0030497204279527007
1135,00:00:04.54,-0.004849860444664949
1136,00:00:04.544,-0.005121324269566686
1137,00:00:04.548,-0.01057345711160451
1138,00:00:04.552,0.006411029957234859
1139,00:00:04.556,0.01885897037573159
1140,00:00:04.56,-0.0036094197494094295
1141,00:00:04.564,-0.012885553762316699
1142,00:00:04.568,0.00246799795422704
1143,00:00:04.572,-0.0035047925775870607
1144,00:00:04.576,-0.006801146606449037
1145,00:00:04.58,0.01275772252120078
1146,00:00:04.584,0.012758252443745741
1147,00:00:04.588,-0.004298805724829442
1148,00:00:04.592,-0.01519854832440615
1149,00:00:04.596,-0.0024578501470387
1150,00:00:04.6,0.007535348937381059
1151,00:00:04.604,-0.005894138710573312
1152,00:00:04.608,0.013566031877417091
1153,00:00:04.612,-0.000803214999905322
1154,00:00:04.616,-0.015628857887349988
1155,00:00:04.62,0.009916946699377142
1156,00:00:04.624,-0.0010589599260129048
1157,00:00:04.628,-0.0034960162010975204
1158,00:00:04.632,0.0025308104231953604
1159,00:00:04.636,0.009488569674431352
1160,00:00:04.64,-0.006502870208350943
1161,00:00:04.644,-0.0034464344498701467
1162,00:00:04.648,0.003705092502059415
1163,00:00:04.652,0.0013721797949983773
1164,00:00:04.656,-0.0037777666002512004
1165,00:00:04.66,-0.006912778131663799
1166,00:00:04.664,0.007913955836556859
1167,00:00:04.668,-0.003254721290431918
1168,00:00:04.672,0.007058338786009696
1169,00:00:04.676,0.00472166074905544
1170,00:00:04.68,-0.01937154168263078
1171,00:00:04.684,0.007393174455501142
1172,00:00:04.688,0.00376862054690719
1173,00:00:04.692,0.0032335186842829
1174,00:00:04.696,0.001790766022168105
1175,00:00:04.7,-0.00861519062891598
1176,00:00:04.704,-0.006457062729168682
1177,00:00:04.708,0.005691876169294109
1178,00:00:04.712,0.004120377590879792
1179,00:00:04.716,0.004418034281115977
1180,00:00:04.72,0.006764849757018966
1181,00:00:04.724,-0.008411789749516172
1182,00:00:04.728,-0.010169560438953352
1183,00:00:04.732,-0.00477880286052823
1184,00:00:04.736,0.00354453362524509
1185,00:00:04.74,0.017515856978207022
1186,00:00:04.744,-3.4010619856418046e-05
1187,00:00:04.748,-0.0019423202611505985
1188,00:00:04.752,-0.011435438529588282
1189,00:00:04.756,-0.0076496098190546105
1190,00:00:04.76,0.010104274420882551
1191,00:00:04.764,0.0053369097877293895
1192,00:00:04.768,-0.005930004292167729
1193,00:00:04.772,-0.0047600208781659594
1194,00:00:04.776,0.01439556898549198
1195,00:00:04.78,0.005926970043219625
1196,00:00:04.784,-0.0152405621483922
1197,00:00:04.788,-0.0011835085751954382
1198,00:00:04.792,-0.00897660257760435
1199,00:00:04.796,-0.0019280137094028807
1200,00:00:04.8,0.01989185053389519
1201,00:00:04.804,0.014595967135392133
1202,00:00:04.808,-0.01121628889814015
1203,00:00:04.812,-0.021585294511169174
1204,00:00:04.816,0.006001689078402708
1205,00:00:04.82,0.0019114161259494748
1206,00:00:04.824,0.002358640078455209
1207,00:00:04.828,-0.005681123868271247
1208,00:00:04.832,0.01586066628806293
1209,00:00:04.836,0.015485203126445402
1210,00:00:04.84,-0.01885410398244862
1211,00:00:04.844,-0.01246736472239721
1212,00:00:04.848,-0.00984608905855566
1213,00:00:04.852,0.015063146376633092
1214,00:00:04.856,0.0002018179657170484
1215,00:00:04.86,-0.002255249884910879
1216,00:00:04.864,0.01016698247985914
1217,00:00:04.868,-0.0038310719537548443
1218,00:00:04.872,-0.0013789867516606994
1219,00:00:04.876,0.0021044330205768295
1220,00:00:04.88,0.0004383476916700697
1221,00:00:04.884,-0.0014767214306630227
1222,00:00:04.888,7.170747267081987e-05
1223,00:00:04.892,-0.0032947832951322202
1224,00:00:04.896,0.002284644870087502
1225,00:00:04.9,-0.005607537575997421
1226,00:00:04.904,-0.0016754516400396898
1227,00:00:04.908,0.0028900133911520264
1228,00:00:04.912,0.008468866581097245
1229,00:00:04.916,0.003149142954498541
1230,00:00:04.92,-0.00874104187823832
1231,00:00:04.924,-0.0008530930135748339
1232,00:00:04.928,0.005321585209458137
1233,00:00:04.932,-0.00308521976694465
1234,00:00:04.936,-0.007334316615015269
1235,00:00:04.94,0.0011622333258856066
1236,00:00:04.944,0.00031952338758856015
1237,00:00:04.948,0.0056362061004620115
1238,00:00:04.952,0.01283184997737408
1239,00:00:04.956,0.00769785791635513
1240,00:00:04.96,-0.015952026195009232
1241,00:00:04.964,-0.014722303720191109
1242,00:00:04.968,-0.0088981541339308
1243,00:00:04.972,-0.0004552094615064572
1244,00:00:04.976,0.01434041932225227
1245,00:00:04.98,0.010659153107553682
1246,00:00:04.984,0.01491973886732015
1247,00:00:04.988,-0.004775036533828821
1248,00:00:04.992,-0.020429433323442932
1249,00:00:04.996,5.0821457989509104e-05
1250,00:00:05,0.0008932198397815193
1251,00:00:05.004,-0.00531684223096817
1252,00:00:05.008,0.00264849397353827
1253,00:00:05.012,0.00968250539153815
1254,00:00:05.016,0.0023747880477458295
1255,00:00:05.02,-0.0039688438409939365
1256,00:00:05.024,0.007178294355981055
1257,00:00:05.028,-0.01061560772359371
1258,00:00:05.032,-0.007247235276736321
1259,00:00:05.036,0.0046183398226276005
1260,00:00:05.04,0.00525359972380101
1261,00:00:05.044,-0.0020172013901174077
1262,00:00:05.048,0.001138764666393401
1263,00:00:05.052,0.0033230335684493175
1264,00:00:05.056,-0.003787952358834447
1265,00:00:05.06,-0.00026821659412234414
1266,00:00:05.064,0.00057418376673013
1267,00:00:05.068,0.00449606846086681
1268,00:00:05.072,-0.006089323083870109
1269,00:00:05.076,-0.001587530365213751
1270,00:00:05.08,-0.00104904593899846
1271,00:00:05.084,0.003721574525116008
1272,00:00:05.088,0.0028877321456093298
1273,00:00:05.092,-0.00985401566140353
1274,00:00:05.096,0.01491058757528663
1275,00:00:05.1,0.008945578243583439
1276,00:00:05.104,-0.015152685693465121
1277,00:00:05.108,-0.011716720880940551
1278,00:00:05.112,0.0006403497700375792
1279,00:00:05.116,0.009857351193204519
1280,00:00:05.12,-0.0006146331434138072
1281,00:00:05.124,-0.000763999472837896
1282,00:00:05.128,0.0009681747760623698
1283,00:00:05.132,-0.00046438863500952113
1284,00:00:05.136,0.007127629607566635
1285,00:00:05.14,0.01216208934783936
1286,00:00:05.144,-0.01776657067239284
1287,00:00:05.148,-0.017866564914584118
1288,00:00:05.152,0.00470196886453777
1289,00:00:05.156,0.01042884564958508
1290,00:00:05.16,0.003138154541375118
1291,00:00:05.164,0.011934192618355158
1292,00:00:05.168,0.003373340819962324
1293,00:00:05.172,-0.022291272180154954
1294,00:00:05.176,-0.00973726739175617
1295,00:00:05.18,0.013874792493879799
1296,00:00:05.184,0.001484088017605245
1297,00:00:05.188,-0.00021275412291288332
1298,00:00:05.192,0.006893447076436132
1299,00:00:05.196,-0.004835501917114019
1300,00:00:05.2,0.001946195872733369
1301,00:00:05.204,-0.008670879236888135
1302,00:00:05.208,-0.0052792860660702
1303,00:00:05.212,0.0114669220056385
1304,00:00:05.216,0.003337801608722657
1305,00:00:05.22,0.005562164820730682
1306,00:00:05.224,0.00038289466829155046
1307,00:00:05.228,-0.012509898981079431
1308,00:00:05.232,-0.01411476964130998
1309,00:00:05.236,0.00822555227205158
1310,00:00:05.24,0.0060217565041966745
1311,00:00:05.244,0.006470602704212071
1312,00:00:05.248,0.004230869933962819
1313,00:00:05.252,-0.00792557478416712
1314,00:00:05.256,0.005152206518687298
1315,00:00:05.26,0.0006241730879992319
1316,00:00:05.264,-0.017044899519532922
1317,00:00:05.268,-0.00400420243386179
1318,00:00:05.272,0.010546116565819831
1319,00:00:05.276,0.01348291279282422
1320,00:00:05.28,-0.0030728189449291425
1321,00:00:05.284,-0.003665985073894261
1322,00:00:05.288,-0.000992179033346478
1323,00:00:05.292,-0.005687492666766043
1324,00:00:05.296,0.00016804693404992316
1325,00:00:05.3,0.002222668466856703
1326,00:00:05.304,0.006151265813969074
1327,00:00:05.308,-0.00514349757577293
1328,00:00:05.312,-0.003542012196703578
1329,00:00:05.316,-0.003640805836766955
1330,00:00:05.32,0.008761797886108974
1331,00:00:05.324,0.01218019565567374
1332,00:00:05.328,0.0002028596063610175
1333,00:00:05.332,-0.022985888645052945
1334,00:00:05.336,-0.0017172523075714686
1335,00:00:05.34,0.006235600914806121
1336,00:00:05.344,0.010378672275692231
1337,00:00:05.348,0.0010792308021336798
1338,00:00:05.352,-0.005572146445047107
1339,00:00:05.356,-0.00195052905473858
1340,00:00:05.36,-0.010861231712624429
1341,00:00:05.364,0.012130639050155868
1342,00:00:05.368,0.006695935560856017
1343,00:00:05.372,-0.004412852926179763
1344,00:00:05.376,-0.004222692630719397
1345,00:00:05.38,-0.0031077557941898704
1346,00:00:05.384,0.0033042053109966253
1347,00:00:05.388,0.011845001776237048
1348,00:00:05.392,-0.002379999874392526
1349,00:00:05.396,-0.00916610262356698
1350,00:00:05.4,-0.003483665386738726
1351,00:00:05.404,-0.0019790111109614372
1352,00:00:05.408,-0.002420377357339019
1353,00:00:05.412,0.003395605075638741
1354,00:00:05.416,0.01447519136127086
1355,00:00:05.42,0.007233271549921481
1356,00:00:05.424,-0.010943809989839789
1357,00:00:05.428,-0.014481649035587909
1358,00:00:05.432,0.002548632910475139
1359,00:00:05.436,0.001619544491404676
1360,00:00:05.44,0.007415517931804064
1361,00:00:05.444,0.0015777022344991521
1362,00:00:05.448,0.0008844531839713398
1363,00:00:05.452,-0.0038082646206021404
1364,00:00:05.456,-0.0008687072840984867
1365,00:00:05.46,-0.0005085088778287194
1366,00:00:05.464,-0.006689419591566553
1367,00:00:05.468,0.00988933502230793
1368,00:00:05.472,-0.0029940034728497275
1369,00:00:05.476,-0.00045312719885259
1370,00:00:05.48,0.0007501284126192399
1371,00:00:05.484,0.011180940578526624
1372,00:00:05.488,-0.015802925685420643
1373,00:00:05.492,-0.006649773567914959
1374,00:00:05.496,0.009603418991900977
1375,00:00:05.5,0.009778778650797869
1376,00:00:05.504,0.0012970317620784096
1377,00:00:05.508,-0.01319117518141862
1378,00:00:05.512,-0.00018928910139947902
1379,00:00:05.516,-0.0012746080756187508
1380,00:00:05.52,-0.0002996880793944001
1381,00:00:05.524,0.009549931564833965
1382,00:00:05.528,0.012914274935610589
1383,00:00:05.532,-0.01611139776650817
1384,00:00:05.536,-0.011912083195056761
1385,00:00:05.54,-0.0004102658713236399
1386,00:00:05.544,0.013019696372793987
1387,00:00:05.548,0.003619932103902111
1388,00:00:05.552,0.0075167227769270505
1389,00:00:05.556,-0.00801390537526458
1390,00:00:05.56,-0.01876300061121584
1391,00:00:05.564,0.0149430490564555
1392,00:00:05.568,0.006011987861711528
1393,00:00:05.572,-0.01015059626661242
1394,00:00:05.576,-0.0010962190572172408
1395,00:00:05.58,0.004655582779378159
1396,00:00:05.584,-0.0034057628363370895
1397,00:00:05.588,0.0036099988501519
1398,00:00:05.592,0.004999774275347611
1399,00:00:05.596,0.0044663730077445386
1400,00:00:05.6,-0.011316995834931747
1401,00:00:05.604,-0.00513754459097982
1402,00:00:05.608,0.0007013765061856241
1403,00:00:05.612,0.001455946476198732
1404,00:00:05.616,0.009539878054056313
1405,00:00:05.62,-0.000596822006627917
1406,00:00:05.624,-0.009442986047361041
1407,00:00:05.628,0.001483595464378591
1408,00:00:05.632,0.010404631146229804
1409,00:00:05.636,-0.003260110504925251
1410,00:00:05.64,-0.0006032315432094051
1411,00:00:05.644,-0.0018160527106374502
1412,00:00:05.648,-0.00445412087719887
1413,00:00:05.652,0.006632962962612506
1414,00:00:05.656,-0.008611974073573952
1415,00:00:05.66,-0.01026958622969687
1416,00:00:05.664,0.008904780494049183
1417,00:00:05.668,0.017088419292122133
1418,00:00:05.672,-0.0007528489222750215
1419,00:00:05.676,-0.003937776491511617
1420,00:00:05.68,-0.0007087988196872162
1421,00:00:05.684,-0.005341754294931892
1422,00:00:05.688,-0.00431538582779467
1423,00:00:05.692,-0.003188871778547761
1424,00:00:05.696,-0.0026703203329816482
1425,00:00:05.7,0.010184903352637775
1426,00:00:05.704,0.0030962156597524894
1427,00:00:05.708,0.004596429876983171
1428,00:00:05.712,0.0016545453690923742
1429,00:00:05.716,-0.003995029372163121
1430,00:00:05.72,-0.010117777914274487
1431,00:00:05.724,-0.010602116934023801
1432,00:00:05.728,0.00602839305065572
1433,00:00:05.732,0.02033331315033136
1434,00:00:05.736,-0.0013249162002466632
1435,00:00:05.74,-0.011217027436941907
1436,00:00:05.744,-0.005420917063020171
1437,00:00:05.748,0.01206835068296641
1438,00:00:05.752,0.00326915108598769
1439,00:00:05.756,-0.00791637960355729
1440,00:00:05.76,-0.010004578623920676
1441,00:00:05.764,0.0033588124206289697
1442,00:00:05.768,0.008302988891955462
1443,00:00:05.772,-0.0021913009695708786
1444,00:00:05.776,-0.00338081666268408
1445,00:00:05.78,0.015619639074429849
1446,00:00:05.784,-0.006101573526393627
1447,00:00:05.788,-0.004183376513537957
1448,00:00:05.792,-0.0012710366863757307
1449,00:00:05.796,-0.0017296230653300842
1450,00:00:05.8,-0.007823315856512638
1451,00:00:05.804,0.0012471735244616892
1452,00:00:05.808,0.0053987205028534
1453,00:00:05.812,0.00494394853012637
1454,00:00:05.816,0.00634145189542324
1455,00:00:05.82,-0.0003590693231672041
1456,00:00:05.824,-0.00925767561420799
1457,00:00:05.828,-0.00983970519155263
1458,00:00:05.832,0.00200639467220753
1459,00:00:05.836,0.004657324192521625
1460,00:00:05.84,0.01597100892104209
1461,00:00:05.844,1.7585582099858416e-05
1462,00:00:05.848,-0.01769616245292127
1463,00:00:05.852,0.00258709769695998
1464,00:00:05.856,0.01296904438640923
1465,00:00:05.86,-0.01072967576328665
1466,00:00:05.864,-0.004146284743910656
1467,00:00:05.868,-0.00590977550018579
1468,00:00:05.872,-0.0021174084395170203
1469,00:00:05.876,0.01717060361988839
1470,00:00:05.88,0.014236134709790299
1471,00:00:05.884,-0.009569228859618311
1472,00:00:05.888,-0.011349881417118011
1473,00:00:05.892,0.0011775342281907762
1474,00:00:05.896,0.00357523257844148
1475,00:00:05.9,-0.010768916807137431
1476,00:00:05.904,0.0028330222703515998
1477,00:00:05.908,0.0012943934270879232
1478,00:00:05.912,0.0009914676193147802
1479,00:00:05.916,0.01573633076623082
1480,00:00:05.92,-0.002164596313377847
1481,00:00:05.924,-0.02035690355114642
1482,00:00:05.928,-0.0006207185797393283
1483,00:00:05.932,0.013773721060715659
1484,00:00:05.936,0.01163845090195536
1485,00:00:05.94,-0.00971206143731252
1486,00:00:05.944,-0.00971302448306232
1487,00:00:05.948,0.0032083024852909087
1488,00:00:05.952,-0.0012767249136231822
1489,00:00:05.956,-0.00031475082505494963
1490,00:00:05.96,0.0034202622482553094
1491,00:00:05.964,-6.302027031779116e-05
1492,00:00:05.968,-0.00443085515871643
1493,00:00:05.972,0.0020606456091627505
1494,00:00:05.976,0.0056546702980995196
1495,00:00:05.98,0.004329150891862817
1496,00:00:05.984,-0.009729991026688367
1497,00:00:05.988,0.0032340001052943972
1498,00:00:05.992,0.01058151945471764
1499,00:00:05.996,-0.01529798482079057
1500,00:00:06,-0.00134638499002904
1501,00:00:06.004,-0.004092807881534103
1502,00:00:06.008,-0.004736613715067501
1503,00:00:06.012,0.02163018379360441
1504,00:00:06.016,-0.00188859403715469
1505,00:00:06.02,-0.001206764311064033
1506,00:00:06.024,-0.0022033012937754297
1507,00:00:06.028,0.003762280335649849
1508,00:00:06.032,-0.009688684483990068
1509,00:00:06.036,-0.005507031455636031
1510,00:00:06.04,0.0014946765732020114
1511,00:00:06.044,0.007204005552921446
1512,00:00:06.048,0.011046446699765518
1513,00:00:06.052,-0.007428104116115713
1514,00:00:06.056,-0.009363197023049
1515,00:00:06.06,0.0042717831674963305
1516,00:00:06.064,0.004198193026240911
1517,00:00:06.068,-0.001464594388380643
1518,00:00:06.072,-0.006156873481813814
1519,00:00:06.076,0.00318698293995112
1520,00:00:06.08,0.005790163981146181
1521,00:00:06.084,0.001366277923807499
1522,00:00:06.088,-0.00663698057178408
1523,00:00:06.092,0.0004539228684734562
1524,00:00:06.096,-0.0135248526930809
1525,00:00:06.1,0.02213283861055974
1526,00:00:06.104,0.0029750675894320002
1527,00:00:06.108,-0.010023731971159622
1528,00:00:06.112,-0.004837639629840851
1529,00:00:06.116,0.0017381747893523488
1530,00:00:06.12,-0.00406748452223837
1531,00:00:06.124,0.0046836284454912
1532,00:00:06.128,0.006627718219533567
1533,00:00:06.132,-0.004688842105679209
1534,00:00:06.136,0.001070849597454064
1535,00:00:06.14,0.0008679545717313808
1536,00:00:06.144,0.0035672780359163893
1537,00:00:06.148,-0.0032149865874089327
1538,00:00:06.152,-0.004314491874538362
1539,00:00:06.156,-0.010618479689583179
1540,00:00:06.16,0.00811961269937455
1541,00:00:06.164,0.00209995987825096
1542,00:00:06.168,0.008591911522671579
1543,00:00:06.172,0.00487707322463394
1544,00:00:06.176,-0.00526039209216833
1545,00:00:06.18,-0.00916019384749234
1546,00:00:06.184,-0.01261789188720286
1547,00:00:06.188,0.00910010864026845
1548,00:00:06.192,0.008420321624726062
1549,00:00:06.196,0.00842741201631725
1550,00:00:06.2,-0.0019186180434189702
1551,00:00:06.204,-0.0036825861316174303
1552,00:00:06.208,-0.006827677687397232
1553,00:00:06.212,-0.0015110573731362802
1554,00:00:06.216,-0.0014520011609420198
1555,00:00:06.22,-0.0008969911723397679
1556,00:00:06.224,0.006780984782380986
1557,00:00:06.228,7.4614552431739e-05
1558,00:00:06.232,-0.004543802933767429
1559,00:00:06.236,0.008433583818259649
1560,00:00:06.24,0.004051679396070543
1561,00:00:06.244,-0.004571153607685122
1562,00:00:06.248,-0.0013256284873932583
1563,00:00:06.252,-0.010918690008111302
1564,00:00:06.256,-0.00327664858195931
1565,00:00:06.26,0.01088694529607892
1566,00:00:06.264,0.0033607489895075508
1567,00:00:06.268,-0.0018385997973382508
1568,00:00:06.272,0.011448575882241132
1569,00:00:06.276,-0.003103203351201958
1570,00:00:06.28,-0.02309621032327414
1571,00:00:06.284,-0.0012580961338244422
1572,00:00:06.288,0.015267767710611266
1573,00:00:06.292,0.0013983353273943101
1574,00:00:06.296,0.010013806459028277
1575,00:00:06.3,0.0072149980696849456
1576,00:00:06.304,-0.02326249703764915
1577,00:00:06.308,-0.01592415641061961
1578,00:00:06.312,0.014552251726854558
1579,00:00:06.316,0.010925140290055431
1580,00:00:06.32,0.0027866370728588693
1581,00:00:06.324,-0.0009304656996391766
1582,00:00:06.328,-0.014936792664229866
1583,00:00:06.332,-0.005307409039232873
1584,00:00:06.336,0.015543723246082632
1585,00:00:06.34,0.01136815594509244
1586,00:00:06.344,-0.01375491637736559
1587,00:00:06.348,-0.00719137606211007
1588,00:00:06.352,0.009147803299129016
1589,00:00:06.356,-0.0010338758584111881
1590,00:00:06.36,-0.00617540394887328
1591,00:00:06.364,0.00566220458131283
1592,00:00:06.368,0.004352428222773596
1593,00:00:06.372,0.0020943019189871804
1594,00:00:06.376,-0.002634324366226793
1595,00:00:06.38,-0.008669262722833075
1596,00:00:06.384,-0.009764897957211369
1597,00:00:06.388,0.0019306946196593266
1598,00:00:06.392,0.02588228834792971
1599,00:00:06.396,0.0035225329920649502
1600,00:00:06.4,-0.008596669940743587
1601,00:00:06.404,-0.0124031436862424
1602,00:00:06.408,-0.0019222212431486703
1603,00:00:06.412,-0.00696578354109083
1604,00:00:06.416,0.00560830219183117
1605,00:00:06.42,0.00991627178154887
1606,00:00:06.424,-0.005592938279733062
1607,00:00:06.428,0.00049458479043097
1608,00:00:06.432,0.01210714248009026
1609,00:00:06.436,0.007828471076209098
1610,00:00:06.44,-0.01136683649383485
1611,00:00:06.444,-0.022066812729462978
1612,00:00:06.448,0.00724989944137633
1613,00:00:06.452,0.01443157438188794
1614,00:00:06.456,-0.00163614226039499
1615,00:00:06.46,-0.00474670878611505
1616,00:00:06.464,-0.0067514411639422196
1617,00:00:06.468,0.00418693921528756
1618,00:00:06.472,0.0029821866191923696
1619,00:00:06.476,-0.0021087366621941315
1620,00:00:06.48,-0.001495451084338129
1621,00:00:06.484,0.010905730305239558
1622,00:00:06.488,0.004368867725133899
1623,00:00:06.492,0.004576967832690567
1624,00:00:06.496,-0.01277465815655887
1625,00:00:06.5,-0.018084578914567828
1626,00:00:06.504,-0.00843449111562222
1627,00:00:06.508,0.017887327354401312
1628,00:00:06.512,0.010645997128449377
1629,00:00:06.516,0.00540228839963674
1630,00:00:06.52,0.0044890170684084305
1631,00:00:06.524,-0.0134621593169868
1632,00:00:06.528,-0.008109174435958261
1633,00:00:06.532,-0.005621609918307513
1634,00:00:06.536,0.0005987543845549204
1635,00:00:06.54,0.01115961093455552
1636,00:00:06.544,0.010122643550857909
1637,00:00:06.548,0.005541867751162503
1638,00:00:06.552,-0.01109360402915626
1639,00:00:06.556,-0.0036465809680521514
1640,00:00:06.56,-0.01309529412537814
1641,00:00:06.564,-0.00045703235082328883
1642,00:00:06.568,0.01141122705303133
1643,00:00:06.572,0.012374577519949527
1644,00:00:06.576,-0.00260533357504755
1645,00:00:06.58,-0.00668461085297167
1646,00:00:06.584,-0.011093430570326746
1647,00:00:06.588,0.008753461996093389
1648,00:00:06.592,0.0023383364168694278
1649,00:00:06.596,-0.00667719601187855
1650,00:00:06.6,0.002780280658043921
1651,00:00:06.604,0.006215343484655029
1652,00:00:06.608,-0.0020731816766783595
1653,00:00:06.612,0.006042654917109754
1654,00:00:06.616,-6.467488128691803e-05
1655,00:00:06.62,-0.01577811676543208
1656,00:00:06.624,-0.00021454670059029794
1657,00:00:06.628,0.0028647698927670683
1658,00:00:06.632,0.002229535486549139
1659,00:00:06.636,0.00950360030401498
1660,00:00:06.64,-0.0031272356573026606
1661,00:00:06.644,0.0023671922972425883
1662,00:00:06.648,-0.005082525312900547
1663,00:00:06.652,-0.0018629569094628087
1664,00:00:06.656,-0.008797406306257471
1665,00:00:06.66,0.012258819420821961
1666,00:00:06.664,0.00938876112923022
1667,00:00:06.668,-0.014135914534563199
1668,00:00:06.672,0.0018662553993635841
1669,00:00:06.676,-0.0038497726200148507
1670,00:00:06.68,-0.002862122142687441
1671,00:00:06.684,0.006625139387324449
1672,00:00:06.688,0.0010538930073380449
1673,00:00:06.692,0.0027546635828912206
1674,00:00:06.696,0.009262254810892049
1675,00:00:06.7,-0.004830557620152829
1676,00:00:06.704,-0.01248271856456994
1677,00:00:06.708,-0.003560923738405113
1678,00:00:06.712,-0.00175764679443092
1679,00:00:06.716,0.008357675687875597
1680,00:00:06.72,0.006759874173440044
1681,00:00:06.724,-0.0003767230664379847
1682,00:00:06.728,0.0018520306912250802
1683,00:00:06.732,-0.012081615393981348
1684,00:00:06.736,-0.0002829524601111187
1685,00:00:06.74,0.01486773876240477
1686,00:00:06.744,-0.00985757599119098
1687,00:00:06.748,0.007764402311295268
1688,00:00:06.752,-0.00201245897915215
1689,00:00:06.756,-0.005259854020550849
1690,00:00:06.76,-0.01214918959885839
1691,00:00:06.764,0.00711349514313042
1692,00:00:06.768,-0.002191326639149333
1693,00:00:06.772,0.010960412313579583
1694,00:00:06.776,0.0045919866242911615
1695,00:00:06.78,-0.000977140793111172
1696,00:00:06.784,-0.00574616505764425
1697,00:00:06.788,0.0025578477652743493
1698,00:00:06.792,-0.004228562751450229
1699,00:00:06.796,-0.005285454564727841
1700,00:00:06.8,0.0017952101334230948
1701,00:00:06.804,0.0035392183344811305
1702,00:00:06.808,0.010743493912741538
1703,00:00:06.812,-0.01562340592499819
1704,00:00:06.816,0.0026372101856395602
1705,00:00:06.82,0.004753068322315813
1706,00:00:06.824,-0.002532764156057965
1707,00:00:06.828,0.00886054534930735
1708,00:00:06.832,-0.007026052917353811
1709,00:00:06.836,-0.00633384194225073
1710,00:00:06.84,0.0010052958532469356
1711,00:00:06.844,0.0049848142080009
1712,00:00:06.848,-0.00605022604577243
1713,00:00:06.852,0.0028799945430364546
1714,00:00:06.856,0.00835584837477654
1715,00:00:06.86,0.00019406195497139898
1716,00:00:06.864,-0.0015631460119038803
1717,00:00:06.868,-0.01608267077244815
1718,00:00:06.872,-0.0019522253351169662
1719,00:00:06.876,0.02022172394208614
1720,00:00:06.88,0.0118819703347981
1721,00:00:06.884,-0.01023905584588646
1722,00:00:06.888,-0.01847519818693399
1723,00:00:06.892,-0.0019733394146896847
1724,00:00:06.896,0.01003020559437574
1725,00:00:06.9,0.00276972260326147
1726,00:00:06.904,-0.005683856841642411
1727,00:00:06.908,0.007970106205902992
1728,00:00:06.912,0.008958710706792739
1729,00:00:06.916,-0.007367587037151683
1730,00:00:06.92,-0.005925149060203727
1731,00:00:06.924,-0.00921362522058189
1732,00:00:06.928,0.003777346457354721
1733,00:00:06.932,0.006510657258331774
1734,00:00:06.936,0.004102013073861601
1735,00:00:06.94,0.004731671884655963
1736,00:00:06.944,-0.00364480062853545
1737,00:00:06.948,-0.007601126737426963
1738,00:00:06.952,-0.007770854514092209
1739,00:00:06.956,0.004985858569853015
1740,00:00:06.96,0.00037576165050267913
1741,00:00:06.964,0.009341098717413841
1742,00:00:06.968,0.008836135617457339
1743,00:00:06.972,0.0005330636631697395
1744,00:00:06.976,-0.01622609538026149
1745,00:00:06.98,-0.01400507893413305
1746,00:00:06.984,0.01705683959880844
1747,00:00:06.988,-0.003927140845917157
1748,00:00:06.992,0.0015378682874143167
1749,00:00:06.996,0.00896702869795263
1750,00:00:07,-0.01054101716727019
1751,00:00:07.004,0.005128505872562522
1752,00:00:07.008,0.00144489656668156
1753,00:00:07.012,-0.011762830312363807
1754,00:00:07.016,0.0035540452226996296
1755,00:00:07.02,0.014869461301714178
1756,00:00:07.024,0.002064086671452963
1757,00:00:07.028,-0.01675275270827115
1758,00:00:07.032,-0.002042037871433417
1759,00:00:07.036,0.01179862406570464
1760,00:00:07.04,-0.00620838595204987
1761,00:00:07.044,-0.00893016299232841
1762,00:00:07.048,0.0067941885499749315
1763,00:00:07.052,0.01565016899257898
1764,00:00:07.056,-0.00738330464810133
1765,00:00:07.06,-0.004243727016728372
1766,00:00:07.064,-0.00034994853194802913
1767,00:00:07.068,-0.0028143958188593197
1768,00:00:07.072,-0.00331712746992707
1769,00:00:07.076,-0.0034020503517240295
1770,00:00:07.08,0.0032120204996317603
1771,00:00:07.084,0.0064689234131947194
1772,00:00:07.088,0.01341307838447392
1773,00:00:07.092,-0.00015990891552065218
1774,00:00:07.096,-0.0100140911526978
1775,00:00:07.1,-0.01057519885944202
1776,00:00:07.104,-0.003033957444131312
1777,00:00:07.108,0.013751257210969921
1778,00:00:07.112,0.00396653218194838
1779,00:00:07.116,-0.014031626284122469
1780,00:00:07.12,2.0591309294103275e-05
1781,00:00:07.124,0.002268867625389243
1782,00:00:07.128,-0.0006642696680501099
1783,00:00:07.132,0.008779030991718168
1784,00:00:07.136,-0.0018546723003964928
1785,00:00:07.14,0.012425767723470902
1786,00:00:07.144,-0.0056902738288044895
1787,00:00:07.148,-0.01431514974683528
1788,00:00:07.152,-0.00887617387343198
1789,00:00:07.156,0.00209499592892825
1790,00:00:07.16,0.008112163748592142
1791,00:00:07.164,0.013925676699727767
1792,00:00:07.168,-0.00228956970386207
1793,00:00:07.172,-0.001433065888704739
1794,00:00:07.176,-0.0013454756699502446
1795,00:00:07.18,-0.007893419591709978
1796,00:00:07.184,-0.01243478059768675
1797,00:00:07.188,0.01311195846938066
1798,00:00:07.192,0.012625018833205149
1799,00:00:07.196,-0.009054232155904169
1800,00:00:07.2,-0.00706890248693526
1801,00:00:07.204,-0.0021069003269076295
1802,00:00:07.208,0.01863879524171352
1803,00:00:07.212,0.004508870188146828
1804,00:00:07.216,-0.01750728627666831
1805,00:00:07.22,-0.0043956739245913454
1806,00:00:07.224,-0.002670993882929908
1807,00:00:07.228,0.004938744648825381
1808,00:00:07.232,0.005598799034487412
1809,00:00:07.236,0.0008613766985945399
1810,00:00:07.24,0.00189598021097481
1811,00:00:07.244,-0.00019970652647316933
1812,00:00:07.248,0.0022629940649494494
1813,00:00:07.252,-0.006081293104216459
1814,00:00:07.256,-0.002500303846318274
1815,00:00:07.26,-0.0004273360827937692
1816,00:00:07.264,0.0028249907772988094
1817,00:00:07.268,-0.0028849099762737803
1818,00:00:07.272,-0.0028144670650363007
1819,00:00:07.276,0.0059664646687451655
1820,00:00:07.28,-0.00390596431680024
1821,00:00:07.284,0.002021407184656708
1822,00:00:07.288,0.01222204323858023
1823,00:00:07.292,-0.00743863824754954
1824,00:00:07.296,-0.00036342471139505636
1825,00:00:07.3,0.0014949768665246683
1826,00:00:07.304,-0.0016222625563386802
1827,00:00:07.308,-0.011608634842559699
1828,00:00:07.312,0.005335735739208759
1829,00:00:07.316,0.008010550576727834
1830,00:00:07.32,-0.004363730244222099
1831,00:00:07.324,-0.0034583754604682404
1832,00:00:07.328,0.0002907602174673273
1833,00:00:07.332,0.0045717653702013195
1834,00:00:07.336,0.010849472018890093
1835,00:00:07.34,0.002032016207522245
1836,00:00:07.344,-0.0164327472448349
1837,00:00:07.348,-0.012910008139442649
1838,00:00:07.352,-0.004321053216699514
1839,00:00:07.356,0.010104148765094571
1840,00:00:07.36,0.010339411499444394
1841,00:00:07.364,0.015419016104715386
1842,00:00:07.368,-0.00596899492666126
1843,00:00:07.372,-0.013108135317452228
1844,00:00:07.376,0.01352794491685927
1845,00:00:07.38,0.005712365324143321
1846,00:00:07.384,-0.02268472500145435
1847,00:00:07.388,-0.01561641797889024
1848,00:00:07.392,0.010404245374957103
1849,00:00:07.396,0.008738874705159105
1850,00:00:07.4,0.004036966245621439
1851,00:00:07.404,0.0065228075254708485
1852,00:00:07.408,-0.00521257449872792
1853,00:00:07.412,0.01252939831465483
1854,00:00:07.416,-0.00998100207652896
1855,00:00:07.42,-0.01317069865763187
1856,00:00:07.424,-0.00640914734685794
1857,00:00:07.428,0.007897063449490817
1858,00:00:07.432,0.004459145537111912
1859,00:00:07.436,0.00791518576443195
1860,00:00:07.44,-0.0015826630406081703
1861,00:00:07.444,0.0012353677302598919
1862,00:00:07.448,-0.0034790385980159096
1863,00:00:07.452,0.000772336788941182
1864,00:00:07.456,-0.00951731926761567
1865,00:00:07.46,-0.003044721495825802
1866,00:00:07.464,0.01650606095790862
1867,00:00:07.468,0.004885084345005451
1868,00:00:07.472,-0.015295771299861378
1869,00:00:07.476,0.002047794929239901
1870,00:00:07.48,-0.0012732783798128401
1871,00:00:07.484,-0.000309052295051523
1872,00:00:07.488,-0.0029746400541625943
1873,00:00:07.492,0.007740510860458021
1874,00:00:07.496,0.0005023255653213675
1875,00:00:07.5,0.001092056889319796
1876,00:00:07.504,0.0015326367574743868
1877,00:00:07.508,-0.0098770260810852
1878,00:00:07.512,0.004718622541986411
1879,00:00:07.516,0.004003003006801009
1880,00:00:07.52,-0.0021936198463663502
1881,00:00:07.524,0.0014296987937996199
1882,00:00:07.528,-0.011278276331722733
1883,00:00:07.532,-0.0030696984613314314
1884,00:00:07.536,0.01381594501435756
1885,00:00:07.54,0.012486721388995661
1886,00:00:07.544,-0.011163895484060049
1887,00:00:07.548,-0.005590646236669269
1888,00:00:07.552,-0.00784889014903457
1889,00:00:07.556,0.002521824731957171
1890,00:00:07.56,0.01879317313432693
1891,00:00:07.564,0.0035367153759579845
1892,00:00:07.568,-0.013982783770188729
1893,00:00:07.572,-0.01040478271897882
1894,00:00:07.576,-0.009797703416552388
1895,00:00:07.58,0.01467254618182778
1896,00:00:07.584,0.01481544668786227
1897,00:00:07.588,-0.000896026569535026
1898,00:00:07.592,-0.003897057671565559
1899,00:00:07.596,-0.017430118488846357
1900,00:00:07.6,0.006185822348925287
1901,00:00:07.604,0.012781406985595828
1902,00:00:07.608,-0.010791124390379984
1903,00:00:07.612,0.0009299662779085303
1904,00:00:07.616,0.010208209045231339
1905,00:00:07.62,0.004919614875689139
1906,00:00:07.624,-0.01072695548646152
1907,00:00:07.628,0.0017402949742972903
1908,00:00:07.632,-0.01568895624950528
1909,00:00:07.636,0.0012837118702009264
1910,00:00:07.64,0.013541654916480192
1911,00:00:07.644,-0.005812514595163517
1912,00:00:07.648,0.0056630270555615494
1913,00:00:07.652,0.001595317036844789
1914,00:00:07.656,0.0010370975942350928
1915,00:00:07.66,-0.0018448116024956098
1916,00:00:07.664,-0.0072622656589373885
1917,00:00:07.668,0.0015778326196596
1918,00:00:07.672,0.0004970815498381841
1919,00:00:07.676,0.00305172894150018
1920,00:00:07.68,-0.0007766322232782815
1921,00:00:07.684,-0.0028787538176402398
1922,00:00:07.688,0.00823480426333844
1923,00:00:07.692,-0.0037487018853425997
1924,00:00:07.696,-0.012541073141619572
1925,00:00:07.7,0.0004922305233776493
1926,00:00:07.704,0.01593719387892632
1927,00:00:07.708,0.007889620668720456
1928,00:00:07.712,-0.0028521603089757264
1929,00:00:07.716,-0.01004403905244545
1930,00:00:07.72,-0.01332233916036785
1931,00:00:07.724,0.00039368029683828007
1932,00:00:07.728,0.009556903140037326
1933,00:00:07.732,0.026356153655797278
1934,00:00:07.736,-0.009294567164033648
1935,00:00:07.74,-0.02279143175110221
1936,00:00:07.744,-0.006052043085219339
1937,00:00:07.748,-0.003996660059783612
1938,00:00:07.752,0.011260174680501221
1939,00:00:07.756,0.01831320859491825
1940,00:00:07.76,-0.0021625921508530146
1941,00:00:07.764,-0.00598857598379254
1942,00:00:07.768,0.0004107423592358847
1943,00:00:07.772,0.003615882131271065
1944,00:00:07.776,-0.0019022348569706104
1945,00:00:07.78,-0.007370467763394119
1946,00:00:07.784,-0.01089477690402418
1947,00:00:07.788,0.003823949395155066
1948,00:00:07.792,0.0120034422725439
1949,00:00:07.796,-0.00453952536918223
1950,00:00:07.8,-0.0020705069473478865
1951,00:00:07.804,0.015083830570802089
1952,00:00:07.808,0.002593406999949368
1953,00:00:07.812,-0.013112243579143978
1954,00:00:07.816,-0.01125759514980018
1955,00:00:07.82,0.00113287661224604
1956,00:00:07.824,0.01037783175706863
1957,00:00:07.828,-0.0024408414028584996
1958,00:00:07.832,0.007316187256947161
1959,00:00:07.836,0.00046766101149841666
1960,00:00:07.84,-0.00956592708826065
1961,00:00:07.844,0.00634756055660546
1962,00:00:07.848,0.00718963658437134
1963,00:00:07.852,-0.01696465839631857
1964,00:00:07.856,-0.0023260382004082203
1965,00:00:07.86,0.004285089351469645
1966,00:00:07.864,0.0009168349206447593
1967,00:00:07.868,0.00685443659313024
1968,00:00:07.872,0.0014806410181336057
1969,00:00:07.876,0.005092098610475658
1970,00:00:07.88,0.00049138232134283
1971,00:00:07.884,-0.014343434944748852
1972,00:00:07.888,-0.00989051116630435
1973,00:00:07.892,0.0100233657285571
1974,00:00:07.896,0.004626851994544271
1975,00:00:07.9,-0.00030279019847511833
1976,00:00:07.904,3.1685922294859455e-06
1977,00:00:07.908,0.0007887356914579903
1978,00:00:07.912,0.009066743776202202
1979,00:00:07.916,-0.0077474176068790465
1980,00:00:07.92,-0.007042690878733991
1981,00:00:07.924,0.00475741247646511
1982,00:00:07.928,-0.0011458569206297406
1983,00:00:07.932,-0.0052207007538527216
1984,00:00:07.936,0.0022934821026865345
1985,00:00:07.94,0.004487226309720431
1986,00:00:07.944,0.005185071495361619
1987,00:00:07.948,0.008990103262476637
1988,00:00:07.952,-0.01075910963118076
1989,00:00:07.956,-0.02060016570612787
1990,00:00:07.96,0.01303106150589883
1991,00:00:07.964,0.005212951917201278
1992,00:00:07.968,-0.007266066502779724
1993,00:00:07.972,0.009181553963571789
1994,00:00:07.976,0.003416170831769704
1995,00:00:07.98,0.000321745348628613
1996,00:00:07.984,-0.007870877161622051
1997,00:00:07.988,-0.0007208761526271805
1998,00:00:07.992,-0.00170872744638473
1999,00:00:07.996,0.002005593421927193
2000,00:00:08,0.0015004184097051594
2001,00:00:08.004,-0.0018624761141836704
2002,00:00:08.008,0.001443067914806306
2003,00:00:08.012,-0.0030827561568003204
2004,00:00:08.016,0.0018273041932843621
2005,00:00:08.02,0.006643623113632189
2006,00:00:08.024,0.0034896070137619903
2007,00:00:08.028,-0.01570702274329961
2008,00:00:08.032,-0.00458276027347892
2009,00:00:08.036,0.004790999635588376
2010,00:00:08.04,0.013808124902425292
2011,00:00:08.044,0.011715736938640479
2012,00:00:08.048,-0.015763039875309907
2013,00:00:08.052,-0.008405402302742
2014,00:00:08.056,0.0004811357939615887
2015,00:00:08.06,0.0005143561575096153
2016,00:00:08.064,-0.00018201975035481155
2017,00:00:08.068,0.01261778746265918
2018,00:00:08.072,-0.00254036858677864
2019,00:00:08.076,-0.01204685066477396
2020,00:00:08.08,0.00442919647321105
2021,00:00:08.084,0.0027018971741199454
2022,00:00:08.088,-0.00341137987561524
2023,00:00:08.092,0.007618209929205479
2024,00:00:08.096,0.0005853871116414701
2025,00:00:08.1,-0.011705434939358375
2026,00:00:08.104,-0.004115047355298881
2027,00:00:08.108,0.010508740262594083
2028,00:00:08.112,-0.0029643781599588692
2029,00:00:08.116,0.01648591668345034
2030,00:00:08.12,0.00440237179282121
2031,00:00:08.124,-0.016745857254136316
2032,00:00:08.128,-0.01459030457772316
2033,00:00:08.132,0.00015350873582065973
2034,00:00:08.136,0.011428545243688857
2035,00:00:08.14,0.003537612908985474
2036,00:00:08.144,0.00484511000104249
2037,00:00:08.148,-0.00635090866126121
2038,00:00:08.152,-0.0019877530867233803
2039,00:00:08.156,0.00679892254993319
2040,00:00:08.16,-0.0004739982541650612
2041,00:00:08.164,-0.012136320234276358
2042,00:00:08.168,-0.001799237681552766
2043,00:00:08.172,0.007021891364274777
2044,00:00:08.176,0.012415450299158692
2045,00:00:08.18,-0.0059927679831162
2046,00:00:08.184,-0.0024258824996650193
2047,00:00:08.188,-0.005899873387534169
2048,00:00:08.192,-0.0014864922268316063
2049,00:00:08.196,0.0025608438591007213
2050,00:00:08.2,0.007838124525733289
2051,00:00:08.204,0.0026497389189899002
2052,00:00:08.208,-0.006808985228417476
2053,00:00:08.212,0.0035741453757509698
2054,00:00:08.216,0.00014528666724799699
2055,00:00:08.22,-0.01611330825835462
2056,00:00:08.224,0.0036316374753368975
2057,00:00:08.228,-0.00268049677833915
2058,00:00:08.232,0.00633045574068092
2059,00:00:08.236,0.02909486705902959
2060,00:00:08.24,-0.006531606806674975
2061,00:00:08.244,-0.024295612471178132
2062,00:00:08.248,-0.009578460740158334
2063,00:00:08.252,0.012033458217047151
2064,00:00:08.256,0.0033831748878583308
2065,00:00:08.26,0.001229518558830024
2066,00:00:08.264,0.006964215310290451
2067,00:00:08.268,0.002684611681615931
2068,00:00:08.272,-0.006810922175645829
2069,00:00:08.276,-0.01153298118151724
2070,00:00:08.28,-0.007820568862371147
2071,00:00:08.284,0.005766357353422794
2072,00:00:08.288,0.013937030686065551
2073,00:00:08.292,0.009176135470625017
2074,00:00:08.296,-0.00963414832949639
2075,00:00:08.3,-0.0015800835099071204
2076,00:00:08.304,-0.007133200851967562
2077,00:00:08.308,0.006537239125464113
2078,00:00:08.312,-0.0004241536953486511
2079,00:00:08.316,-0.003751803829800334
2080,00:00:08.32,-0.000849673469019767
2081,00:00:08.324,-0.00017471122555434986
2082,00:00:08.328,0.014933570753782993
2083,00:00:08.332,0.001679934794083244
2084,00:00:08.336,-0.0240880842320621
2085,00:00:08.34,0.0028630176093429405
2086,00:00:08.344,0.008062067092396324
2087,00:00:08.348,0.00462721660733223
2088,00:00:08.352,-0.010337057698052373
2089,00:00:08.356,0.00737106008455157
2090,00:00:08.36,0.01178703142795708
2091,00:00:08.364,-0.014735101198311895
2092,00:00:08.368,-0.00324829132296144
2093,00:00:08.372,0.0059035550802946
2094,00:00:08.376,0.004994012073439078
2095,00:00:08.38,-0.005396199063397949
2096,00:00:08.384,-0.00897719326894731
2097,00:00:08.388,-0.007395844513666816
2098,00:00:08.392,0.01311087829526513
2099,00:00:08.396,0.01963381934911013
2100,00:00:08.4,-0.0009889716748148194
2101,00:00:08.404,-0.01034848811104893
2102,00:00:08.408,-0.011967821512371309
2103,00:00:08.412,-0.01296589430421591
2104,00:00:08.416,0.008273845916846774
2105,00:00:08.42,0.01414507860317826
2106,00:00:08.424,0.007242733379825963
2107,00:00:08.428,-0.007186637958511713
2108,00:00:08.432,-0.0014762278588023089
2109,00:00:08.436,-0.0005137382831890162
2110,00:00:08.44,0.007544394116848711
2111,00:00:08.444,-0.01079376274719834
2112,00:00:08.448,-0.0009243667591363192
2113,00:00:08.452,-0.005103904404677452
2114,00:00:08.456,-0.0036607905058190196
2115,00:00:08.46,0.00675118190702051
2116,00:00:08.464,0.01877548251650301
2117,00:00:08.468,0.0030753114260733123
2118,00:00:08.472,-0.01213761320104823
2119,00:00:08.476,-0.012573443236760792
2120,00:00:08.48,0.004836502659600231
2121,00:00:08.484,-0.010049737291410562
2122,00:00:08.488,0.01831275038421154
2123,00:00:08.492,-0.0049637963529676225
2124,00:00:08.496,0.0036498900444712477
2125,00:00:08.5,-0.005093387968372558
2126,00:00:08.504,-0.015147775877267119
2127,00:00:08.508,0.023377358447760337
2128,00:00:08.512,0.01112151122651995
2129,00:00:08.516,-0.012774341885233301
2130,00:00:08.52,-0.01183383003808558
2131,00:00:08.524,-0.003392307320609701
2132,00:00:08.528,0.0013111663865856909
2133,00:00:08.532,0.011735464446246633
2134,00:00:08.536,0.008073308970779177
2135,00:00:08.54,0.0005472853117680716
2136,00:00:08.544,-0.013041727303061634
2137,00:00:08.548,-0.014647925272583961
2138,00:00:08.552,0.0037593473098240827
2139,00:00:08.556,0.011947853141464298
2140,00:00:08.56,0.007806231849826879
2141,00:00:08.564,0.0009309532470069839
2142,00:00:08.568,-0.003617000824306156
2143,00:00:08.572,0.0037140639033168606
2144,00:00:08.576,-0.01093926467001438
2145,00:00:08.58,-0.0031402008025906967
2146,00:00:08.584,-0.0057358485719305515
2147,00:00:08.588,0.0015921440208330803
2148,00:00:08.592,0.00243011536076665
2149,00:00:08.596,0.01872879441361874
2150,00:00:08.6,0.0026767971576191494
2151,00:00:08.604,-0.004485945450142021
2152,00:00:08.608,-0.01223959511844441
2153,00:00:08.612,-0.006802263669669632
2154,00:00:08.616,-0.00355659768683836
2155,00:00:08.62,0.0066358589683659375
2156,00:00:08.624,0.00605380639899521
2157,00:00:08.628,0.012822119286283823
2158,00:00:08.632,1.764914486558026e-05
2159,00:00:08.636,-0.00726183969527482
2160,00:00:08.64,-0.00359647069126367
2161,00:00:08.644,-0.014348878059536226
2162,00:00:08.648,-0.00146738020703197
2163,00:00:08.652,0.01326088688801974
2164,00:00:08.656,0.008733684197068211
2165,00:00:08.66,-0.00786812420119532
2166,00:00:08.664,-0.0029515074566006617
2167,00:00:08.668,0.00730558822397143
2168,00:00:08.672,0.0027154816780239305
2169,00:00:08.676,-0.0070904670283198305
2170,00:00:08.68,-0.009269011476135354
2171,00:00:08.684,-0.0026890002191066716
2172,00:00:08.688,0.01811263803392648
2173,00:00:08.692,0.0004473718581721165
2174,00:00:08.696,-0.004265716124791654
2175,00:00:08.7,-0.0033388121519237713
2176,00:00:08.704,0.007285406172741207
2177,00:00:08.708,-0.00308161089196805
2178,00:00:08.712,-0.009326542611233894
2179,00:00:08.716,0.0030901748687028807
2180,00:00:08.72,-0.004772491520270699
2181,00:00:08.724,0.00670186034403741
2182,00:00:08.728,0.0033303870877716617
2183,00:00:08.732,0.004867912505687856
2184,00:00:08.736,-0.0068964424281148275
2185,00:00:08.74,0.0014646116760559354
2186,00:00:08.744,-0.009988745150621977
2187,00:00:08.748,0.0019412396941334003
2188,00:00:08.752,0.00782141403760761
2189,00:00:08.756,0.006513323169201608
2190,00:00:08.76,-0.0023808418627595533
2191,00:00:08.764,-0.00685732637066394
2192,00:00:08.768,0.002707962557906284
2193,00:00:08.772,-0.005301641969708729
2194,00:00:08.776,0.0019343001404195093
2195,00:00:08.78,-0.0019335245870024632
2196,00:00:08.784,-0.0016490923007950271
2197,00:00:08.788,0.01484942389652132
2198,00:00:08.792,0.0026262643805239315
2199,00:00:08.796,-0.020929759368300428
2200,00:00:08.8,-0.00473679462447762
2201,00:00:08.804,0.016490138834342388
2202,00:00:08.808,0.0008710095135029392
2203,00:00:08.812,-0.00047642458230257034
2204,00:00:08.816,-0.0035842884099111004
2205,00:00:08.82,0.002424412989057604
2206,00:00:08.824,-0.0034502822672948293
2207,00:00:08.828,0.002331694879103449
2208,00:00:08.832,-0.001030607440043239
2209,00:00:08.836,-0.00527290150057524
2210,00:00:08.84,0.0037548202089965396
2211,00:00:08.844,0.00591058225836605
2212,00:00:08.848,-0.0008741649216972269
2213,00:00:08.852,-0.0028170607984065905
2214,00:00:08.856,-3.0189257813624092e-05
2215,00:00:08.86,-0.00671460921876133
2216,00:00:08.864,0.004970159614458671
2217,00:00:08.868,0.00836459372658282
2218,00:00:08.872,-0.01180024142377078
2219,00:00:08.876,0.010862851166166369
2220,00:00:08.88,-0.004095033509656783
2221,00:00:08.884,-0.009668809187132862
2222,00:00:08.888,-0.002209971993579531
2223,00:00:08.892,0.0065706531022442505
2224,00:00:08.896,0.0022004416678100803
2225,00:00:08.9,0.006480123745859604
2226,00:00:08.904,0.006350144511088732
2227,00:00:08.908,-0.0001466898684157076
2228,00:00:08.912,-0.015518652042374011
2229,00:00:08.916,-0.0024934989633038597
2230,00:00:08.92,0.0017655941192060657
2231,00:00:08.924,-0.005989753874018789
2232,00:00:08.928,-0.0008982750587165403
2233,00:00:08.932,0.012977418897207821
2234,00:00:08.936,0.0046361736021936
2235,00:00:08.94,0.0064387782476842395
2236,00:00:08.944,-0.0037593592205666902
2237,00:00:08.948,-0.005186170805245639
2238,00:00:08.952,-0.003423488931730381
2239,00:00:08.956,-0.0033259586198255424
2240,00:00:08.96,-0.008221936994232243
2241,00:00:08.964,0.00181863200850785
2242,00:00:08.968,0.008413647534325719
2243,00:00:08.972,0.009965516015654435
2244,00:00:08.976,-0.013334982329979539
2245,00:00:08.98,-0.001961921341717239
2246,00:00:08.984,0.012700435472652321
2247,00:00:08.988,0.0054281773045659005
2248,00:00:08.992,-0.00789999600965529
2249,00:00:08.996,-0.00145371537655592
2250,00:00:09,-0.008686442975886166
2251,00:00:09.004,-0.001254093600437049
2252,00:00:09.008,0.00087783928029239
2253,00:00:09.012,-0.00249726121546701
2254,00:00:09.016,0.005885094404220589
2255,00:00:09.02,0.01543063577264549
2256,00:00:09.024,0.006244724092539391
2257,00:00:09.028,-0.010694689932279304
2258,00:00:09.032,-0.01173089968506246
2259,00:00:09.036,-0.0035537641961127502
2260,00:00:09.04,-0.009394432243425396
2261,00:00:09.044,0.014819581643678251
2262,00:00:09.048,0.004907416092464704
2263,00:00:09.052,-0.005442766356281939
2264,00:00:09.056,0.00925139570608735
2265,00:00:09.06,0.0038780891336500606
2266,00:00:09.064,-0.011924302001716618
2267,00:00:09.068,-0.00493089965311811
2268,00:00:09.072,0.003298820462077856
2269,00:00:09.076,0.003922447271179404
2270,00:00:09.08,0.00589840879547409
2271,00:00:09.084,-0.0022905017249285602
2272,00:00:09.088,-0.008769211475737391
2273,00:00:09.092,-0.005493993638083351
2274,00:00:09.096,0.010631372453644879
2275,00:00:09.1,0.00665422296151519
2276,00:00:09.104,-0.0028668785234913278
2277,00:00:09.108,-0.004934727679938069
2278,00:00:09.112,-0.009324632876087018
2279,00:00:09.116,-0.0006765332072973219
2280,00:00:09.12,0.008152992581017315
2281,00:00:09.124,0.013376201502978798
2282,00:00:09.128,0.0006275269261095595
2283,00:00:09.132,-0.004427680047228931
2284,00:00:09.136,-0.007060264237225061
2285,00:00:09.14,-0.009653537767007943
2286,00:00:09.144,-0.00824201351497323
2287,00:00:09.148,0.008410336682572968
2288,00:00:09.152,0.015405200421810159
2289,00:00:09.156,0.00881242239847779
2290,00:00:09.16,-0.0047316383570432715
2291,00:00:09.164,-0.01290091266855597
2292,00:00:09.168,-0.004541756352409679
2293,00:00:09.172,0.0012916361092720763
2294,00:00:09.176,0.01191849843598901
2295,00:00:09.18,-0.008880895096808668
2296,00:00:09.184,0.00298138731159269
2297,00:00:09.188,-0.007820627768523991
2298,00:00:09.192,0.00525924353860318
2299,00:00:09.196,0.009997109300456941
2300,00:00:09.2,-0.0019474748623906583
2301,00:00:09.204,-0.0048021819675341205
2302,00:00:09.208,-0.007423457922413944
2303,00:00:09.212,0.003252887516282497
2304,00:00:09.216,0.006455744121922174
2305,00:00:09.22,0.010359855543356397
2306,00:00:09.224,-0.01620722468942404
2307,00:00:09.228,-0.006140943965874611
2308,00:00:09.232,0.0037692257901653613
2309,00:00:09.236,0.002910012019128774
2310,00:00:09.24,0.0004995658528059673
2311,00:00:09.244,0.0056488668778911216
2312,00:00:09.248,0.004128473530727208
2313,00:00:09.252,-0.00609113018799689
2314,00:00:09.256,-0.013650909066200251
2315,00:00:09.26,0.006500339808553696
2316,00:00:09.264,0.01031414873432368
2317,00:00:09.268,0.0034278446473763277
2318,00:00:09.272,0.0011361551878508124
2319,00:00:09.276,-0.019605407724157
2320,00:00:09.28,-0.0014884458505548537
2321,00:00:09.284,0.008588267897721385
2322,00:00:09.288,0.01107123866677283
2323,00:00:09.292,-0.00210134545341134
2324,00:00:09.296,0.002978369680931788
2325,00:00:09.3,-0.00740658352151516
2326,00:00:09.304,-0.01338027301244438
2327,00:00:09.308,-0.0028565234970301407
2328,00:00:09.312,0.00222600693814457
2329,00:00:09.316,0.02316046832129359
2330,00:00:09.32,0.0013532273005694203
2331,00:00:09.324,-0.006630111485719679
2332,00:00:09.328,-0.0023964461870491505
2333,00:00:09.332,-0.005067491554655128
2334,00:00:09.336,-0.0030292224837467074
2335,00:00:09.34,-0.00410116929560899
2336,00:00:09.344,-0.006471078493632369
2337,00:00:09.348,0.019580396357923788
2338,00:00:09.352,0.01600421871989966
2339,00:00:09.356,-0.01403045910410583
2340,00:00:09.36,-0.0005280625191517183
2341,00:00:09.364,-0.010963759690639566
2342,00:00:09.368,-0.011737394612282522
2343,00:00:09.372,0.0058875604154309275
2344,00:00:09.376,0.014789966866374009
2345,00:00:09.38,0.009636197988584172
2346,00:00:09.384,0.0007268215995281933
2347,00:00:09.388,-0.01376513042487204
2348,00:00:09.392,-0.01563976122997701
2349,00:00:09.396,0.00714626477565616
2350,00:00:09.4,0.011819565741461707
2351,00:00:09.404,0.00477623753249645
2352,00:00:09.408,-0.010561847942881284
2353,00:00:09.412,0.0027847930323332605
2354,00:00:09.416,-0.0017231913661817089
2355,00:00:09.42,-0.005097040848340839
2356,00:00:09.424,0.004605841822922219
2357,00:00:09.428,0.0005010032764403178
2358,00:00:09.432,0.0012367409653961602
2359,00:00:09.436,0.01418869104236364
2360,00:00:09.44,0.003738157072803011
2361,00:00:09.444,-0.0196493836119771
2362,00:00:09.448,-0.017513621016405558
2363,00:00:09.452,-0.0027799110393971213
2364,00:00:09.456,0.0252257327083498
2365,00:00:09.46,0.006236534100025845
2366,00:00:09.464,-0.0024177177692763464
2367,00:00:09.468,0.003664883581222963
2368,00:00:09.472,-0.015542901353910581
2369,00:00:09.476,0.0002147175837308203
2370,00:00:09.48,-0.00718738150317221
2371,00:00:09.484,0.01582933682948351
2372,00:00:09.488,-0.00194166344590485
2373,00:00:09.492,-0.00557103124447167
2374,00:00:09.496,0.001344842137768862
2375,00:00:09.5,0.00733598147053272
2376,00:00:09.504,0.00014363788068293745
2377,00:00:09.508,-0.00105232326313852
2378,00:00:09.512,-0.009311928006354718
2379,00:00:09.516,0.006919387466041377
2380,00:00:09.52,0.0014210016815923159
2381,00:00:09.524,-0.0024502518353983825
2382,00:00:09.528,-0.007223397144116463
2383,00:00:09.532,-0.003855493559967725
2384,00:00:09.536,0.007453643018379809
2385,00:00:09.54,0.004585093993227921
2386,00:00:09.544,-0.0022498801699839515
2387,00:00:09.548,0.005740998662076899
2388,00:00:09.552,0.001903451513499023
2389,00:00:09.556,-0.0007357143331319085
2390,00:00:09.56,-0.00437609027721919
2391,00:00:09.564,-0.00895135581959039
2392,00:00:09.568,0.00135228736326098
2393,00:00:09.572,-0.002752670534391661
2394,00:00:09.576,0.00204940710682422
2395,00:00:09.58,0.003201509534846994
2396,00:00:09.584,0.006678857607766981
2397,00:00:09.588,0.005598896706942467
2398,00:00:09.592,0.0034786289324983902
2399,00:00:09.596,-0.00460947270039468
2400,00:00:09.6,-0.00819602655246854
2401,00:00:09.604,-0.018769168062135577
2402,00:00:09.608,0.01202377071604134
2403,00:00:09.612,0.00772513775154949
2404,00:00:09.616,-0.0033213262213394063
2405,00:00:09.62,0.0012268804712221018
2406,00:00:09.624,0.0006367855239659609
2407,00:00:09.628,0.009959207964129739
2408,00:00:09.632,-0.0022086956741986866
2409,00:00:09.636,-0.005924078635871399
2410,00:00:09.64,0.007944841869175429
2411,00:00:09.644,-0.01529436907730996
2412,00:00:09.648,-0.015017742000054561
2413,00:00:09.652,0.01478203339502216
2414,00:00:09.656,0.0200164394918829
2415,00:00:09.66,-0.012566514895297583
2416,00:00:09.664,-0.0013206369476392865
2417,00:00:09.668,0.0009423173469258429
2418,00:00:09.672,-0.00395419518463313
2419,00:00:09.676,-0.0009107327787205503
2420,00:00:09.68,0.0021768898877780867
2421,00:00:09.684,0.009145839605480474
2422,00:00:09.688,0.0020783446379937214
2423,00:00:09.692,-0.012839973904192451
2424,00:00:09.696,-0.008729329128982494
2425,00:00:09.7,0.01864389795809984
2426,00:00:09.704,-0.003795507131144401
2427,00:00:09.708,0.002566557726822786
2428,00:00:09.712,-0.007303208927623919
2429,00:00:09.716,-0.012657026178203528
2430,00:00:09.72,0.00871435087174178
2431,00:00:09.724,0.012276093359105289
2432,00:00:09.728,0.0022304302328848328
2433,00:00:09.732,0.00289869087282568
2434,00:00:09.736,-0.008394534495892007
2435,00:00:09.74,-0.009950758190825578
2436,00:00:09.744,-0.002947802888229491
2437,00:00:09.748,0.0032631990034133252
2438,00:00:09.752,0.0012815079535357648
2439,00:00:09.756,0.01430078595876694
2440,00:00:09.76,0.0008139019191730789
2441,00:00:09.764,-0.00956832827068865
2442,00:00:09.768,-0.01007799204671755
2443,00:00:09.772,0.014414814068004489
2444,00:00:09.776,0.003130878088995821
2445,00:00:09.78,-0.012230725194967842
2446,00:00:09.784,-0.003683499060571191
2447,00:00:09.788,0.011381126241758481
2448,00:00:09.792,0.003508934038109151
2449,00:00:09.796,-0.006742361059878057
2450,00:00:09.8,-0.010883628623560078
2451,00:00:09.804,0.01212866953574121
2452,00:00:09.808,0.0017880266022984861
2453,00:00:09.812,0.0006813660729676494
2454,00:00:09.816,-0.0034290145849809003
2455,00:00:09.82,-0.00640121474862099
2456,00:00:09.824,0.005955652799457312
2457,00:00:09.828,0.012913355138152805
2458,00:00:09.832,-0.016059554764069624
2459,00:00:09.836,-0.003434150596149265
2460,00:00:09.84,0.00487830594647675
2461,00:00:09.844,0.0020515880314633207
2462,00:00:09.848,0.0008727249223738882
2463,00:00:09.852,0.00227829348295928
2464,00:00:09.856,-0.00220500165596604
2465,00:00:09.86,-0.006224362528882914
2466,00:00:09.864,0.007509354327339676
2467,00:00:09.868,0.0019871978438459285
2468,00:00:09.872,-0.008112550422083586
2469,00:00:09.876,0.0009480072185397202
2470,00:00:09.88,0.002919039689004429
2471,00:00:09.884,0.008002960123121749
2472,00:00:09.888,-0.0017034565098583703
2473,00:00:09.892,-0.018145731184631593
2474,00:00:09.896,0.0092092715203762
2475,00:00:09.9,0.0021551481331698596
2476,00:00:09.904,-0.00576274620834737
2477,00:00:09.908,0.012503465171903368
2478,00:00:09.912,0.0034868906950578
2479,00:00:09.916,-0.004072729730978612
2480,00:00:09.92,-0.0125257303006947
2481,00:00:09.924,-0.002544271408623901
2482,00:00:09.928,0.001757536258082836
2483,00:00:09.932,0.009400698356330391
2484,00:00:09.936,0.0011475357459858
2485,00:00:09.94,-0.0007985873526195082
2486,00:00:09.944,-0.0007768481154926041
2487,00:00:09.948,0.00991842220537364
2488,00:00:09.952,-0.003937679284717893
2489,00:00:09.956,-0.01022997172549367
2490,00:00:09.96,-0.009991354425437748
2491,00:00:09.964,0.002291231707204137
2492,00:00:09.968,0.007306339393835514
2493,00:00:09.972,0.002199985377956181
2494,00:00:09.976,0.006612827652134005
2495,00:00:09.98,0.006605723960092296
2496,00:00:09.984,-0.01034370809793472
2497,00:00:09.988,-0.0056363020557910195
2498,00:00:09.992,0.005575981456786399
2499,00:00:09.996,-0.00584252376575023
2500,00:00:10,0.005851137684658181
2501,00:00:10.004,0.011244943016208708
2502,00:00:10.008,-0.01588171045295898
2503,00:00:10.012,-0.014682802138850091
2504,00:00:10.016,0.00512676080688835
2505,00:00:10.02,0.01325808023102582
2506,00:00:10.024,0.01039407344069332
2507,00:00:10.028,-0.0013341108569875338
2508,00:00:10.032,-0.00802632467821236
2509,00:00:10.036,0.0027818691451102495
2510,00:00:10.04,-0.00891656428575515
2511,00:00:10.044,-0.0004317739512771342
2512,00:00:10.048,-0.004062064923346043
2513,00:00:10.052,0.005889325926546013
2514,00:00:10.056,0.007926741847768419
2515,00:00:10.06,-0.0018828033935278689
2516,00:00:10.064,0.005368874059058733
2517,00:00:10.068,-0.007093153893947606
2518,00:00:10.072,-0.00202551827533171
2519,00:00:10.076,-0.00531825970392675
2520,00:00:10.08,0.005261748144221204
2521,00:00:10.084,-0.0029111611656844633
2522,00:00:10.088,-0.002942478284239771
2523,00:00:10.092,-0.0020756488665938408
2524,00:00:10.096,0.010651666903868349
2525,00:00:10.1,0.013343853192054663
2526,00:00:10.104,-0.008051668875850737
2527,00:00:10.108,-0.0117041042540222
2528,00:00:10.112,0.004044526605866848
2529,00:00:10.116,0.0051779244095087095
2530,00:00:10.12,-0.01116756768897176
2531,00:00:10.124,-0.0007212737109512121
2532,00:00:10.128,0.008079183753579862
2533,00:00:10.132,-0.001920894021168346
2534,00:00:10.136,0.004924904846120619
2535,00:00:10.14,-0.006942659078049472
2536,00:00:10.144,0.0011263537453487567
2537,00:00:10.148,0.0025942570719053063
2538,00:00:10.152,0.00546195066999644
2539,00:00:10.156,-9.743386181071693e-05
2540,00:00:10.16,-0.01460513519123197
2541,00:00:10.164,0.00117954099550843
2542,00:00:10.168,0.01191398745868355
2543,00:00:10.172,0.0045899376273155195
2544,00:00:10.176,-0.011770652257837362
2545,00:00:10.18,-0.00886750966310505
2546,00:00:10.184,0.005537365883355959
2547,00:00:10.188,0.00955741014331579
2548,00:00:10.192,0.0019146029226249112
2549,00:00:10.196,-0.0040289419121109
2550,00:00:10.2,0.0011971234343945893
2551,00:00:10.204,-0.0023425153340213
2552,00:00:10.208,0.00204691686667502
2553,00:00:10.212,-0.0045559434220194695
2554,00:00:10.216,-0.00263819016981869
2555,00:00:10.22,0.000745509838452561
2556,00:00:10.224,0.002551787707488979
2557,00:00:10.228,0.0044654841767624
2558,00:00:10.232,-0.0008493950590491199
2559,00:00:10.236,-0.003914350207196555
2560,00:00:10.24,0.0029315604479052118
2561,00:00:10.244,-0.0004929101560264895
2562,00:00:10.248,0.001019023446133362
2563,00:00:10.252,-0.006650268682278691
2564,00:00:10.256,0.00656267907470465
2565,00:00:10.26,0.0037199788603175022
2566,00:00:10.264,-0.0035773431882262213
2567,00:00:10.268,-0.0060928222374059295
2568,00:00:10.272,0.00030623539350925965
2569,00:00:10.276,-0.0018188415560871293
2570,00:00:10.28,0.0017929720343090626
2571,00:00:10.284,0.0059887703973799805
2572,00:00:10.288,0.00542585784569382
2573,00:00:10.292,-0.01072801288682967
2574,00:00:10.296,0.003617977774410976
2575,00:00:10.3,0.01194453274365514
2576,00:00:10.304,-0.005835385643877091
2577,00:00:10.308,-0.017254244070500142
2578,00:00:10.312,0.0008797259069979195
2579,00:00:10.316,0.006684142921585584
2580,00:00:10.32,0.0014152751828078157
2581,00:00:10.324,0.014306467026472092
2582,00:00:10.328,-0.0034754983489619883
2583,00:00:10.332,-0.01040786667726933
2584,00:00:10.336,-0.00806227046996355
2585,00:00:10.34,-0.0019489097176119815
2586,00:00:10.344,0.01147408338147215
2587,00:00:10.348,0.009700521244667467
2588,00:00:10.352,-0.0058771236799657605
2589,00:00:10.356,0.0021630447590723703
2590,00:00:10.36,-0.007726587704382839
2591,00:00:10.364,-0.007004817016422752
2592,00:00:10.368,0.010651563061401251
2593,00:00:10.372,-0.00689870130736381
2594,00:00:10.376,-0.0008485301368637002
2595,00:00:10.38,0.007769734045723453
2596,00:00:10.384,0.00029897014610470035
2597,00:00:10.388,-0.0009985952046918118
2598,00:00:10.392,0.003594930545659735
2599,00:00:10.396,0.010489618638530368
2600,00:00:10.4,-0.0191673992667347
2601,00:00:10.404,-0.00997056323103607
2602,00:00:10.408,0.003930686216335745
2603,00:00:10.412,0.0038092778122518246
2604,00:00:10.416,0.0139680532738566
2605,00:00:10.42,0.00315109477378428
2606,00:00:10.424,-0.004353858996182722
2607,00:00:10.428,-0.0042945084278471855
2608,00:00:10.432,-0.01053065538872034
2609,00:00:10.436,-0.002952489769086235
2610,00:00:10.44,0.00018156915029976723
2611,00:00:10.444,0.020969257457181846
2612,00:00:10.448,0.00017984898295254014
2613,00:00:10.452,-0.00866070506162942
2614,00:00:10.456,-0.0037642905954271486
2615,00:00:10.46,-0.006834797270130365
2616,00:00:10.464,0.023496528505347662
2617,00:00:10.468,-0.01581456116400658
2618,00:00:10.472,-0.009945653990143912
2619,00:00:10.476,0.005205460489378318
2620,00:00:10.48,0.015588398673571643
2621,00:00:10.484,-0.004113349597901111
2622,00:00:10.488,-0.006844285409897571
2623,00:00:10.492,-0.011538601713255051
2624,00:00:10.496,0.008608310599811379
2625,00:00:10.5,0.011237680912017819
2626,00:00:10.504,0.001113320991862567
2627,00:00:10.508,-0.0039346406574622995
2628,00:00:10.512,-0.004526714328676461
2629,00:00:10.516,-0.0026344129000790348
2630,00:00:10.52,0.005943036405369641
2631,00:00:10.524,-0.01090741623193026
2632,00:00:10.528,0.0026103534619323983
2633,00:00:10.532,0.00759955064859241
2634,00:00:10.536,0.01182108779903502
2635,00:00:10.54,-0.017440445255488157
2636,00:00:10.544,-0.0062272145878523606
2637,00:00:10.548,0.006856548323412428
2638,00:00:10.552,0.00823562208097429
2639,00:00:10.556,-0.0024858977121766657
2640,00:00:10.56,-0.005772389878984542
2641,00:00:10.564,-0.001704638416413224
2642,00:00:10.568,0.004110194087843406
2643,00:00:10.572,-0.0009334441856481109
2644,00:00:10.576,0.006550415651872754
2645,00:00:10.58,0.004047031980007889
2646,00:00:10.584,-0.007121919421479109
2647,00:00:10.588,-0.002263586502522232
2648,00:00:10.592,-0.007897693547420205
2649,00:00:10.596,-0.0035834857262670994
2650,00:00:10.6,0.00844794348813593
2651,00:00:10.604,0.007644438475836067
2652,00:00:10.608,0.004562978341709822
2653,00:00:10.612,0.002349250251427296
2654,00:00:10.616,-0.017404973041266206
2655,00:00:10.62,-0.0021271844161675005
2656,00:00:10.624,0.006102629471570257
2657,00:00:10.628,0.00249071419239044
2658,00:00:10.632,0.0027928561321459633
2659,00:00:10.636,0.002037001482676711
2660,00:00:10.64,-0.008129143097903581
2661,00:00:10.644,-0.006091473682317879
2662,00:00:10.648,0.005796242272481317
2663,00:00:10.652,0.00816026248503477
2664,00:00:10.656,0.002344243461266159
2665,00:00:10.66,-0.0007386169163510099
2666,00:00:10.664,-0.00851203105412424
2667,00:00:10.668,-0.0028612671885639386
2668,00:00:10.672,-0.009752303303685036
2669,00:00:10.676,0.007791298674419524
2670,00:00:10.68,0.01204561186023056
2671,00:00:10.684,0.013449350226437628
2672,00:00:10.688,-0.01008901977911592
2673,00:00:10.692,-0.01835609553381799
2674,00:00:10.696,0.0002973139053210651
2675,00:00:10.7,0.0019183583790436502
2676,00:00:10.704,0.017333092284388812
2677,00:00:10.708,-0.0006666698900517076
2678,00:00:10.712,-0.008994017145596436
2679,00:00:10.716,-0.005961721821222461
2680,00:00:10.72,-0.00467831222340465
2681,00:00:10.724,0.011053931433707472
2682,00:00:10.728,-0.0012820042902603798
2683,00:00:10.732,0.0011246601352468098
2684,00:00:10.736,0.011854228796437381
2685,00:00:10.74,-0.01138462196104229
2686,00:00:10.744,-0.006740318116499106
2687,00:00:10.748,0.003833647933788601
2688,00:00:10.752,0.00357094896025956
2689,00:00:10.756,-0.00352080240554642
2690,00:00:10.76,0.00047715113032608986
2691,00:00:10.764,-0.000627705652732402
2692,00:00:10.768,0.002913478834670965
2693,00:00:10.772,-0.006569441640749575
2694,00:00:10.776,0.013835691963322471
2695,00:00:10.78,0.0033629253739491122
2696,00:00:10.784,-0.013738723197093334
2697,00:00:10.788,-0.0018876537214964698
2698,00:00:10.792,-0.00058706101845018
2699,00:00:10.796,0.0014604605676140575
2700,00:00:10.8,0.0002534298691898502
2701,00:00:10.804,0.0017700570169836196
2702,00:00:10.808,0.002303259214386339
2703,00:00:10.812,0.00769123918144032
2704,00:00:10.816,-0.0016662822454236448
2705,00:00:10.82,-0.009782400447875261
2706,00:00:10.824,-0.00917886558454483
2707,00:00:10.828,0.01350482879206535
2708,00:00:10.832,0.00599730340763922
2709,00:00:10.836,-0.01225457293912768
2710,00:00:10.84,0.00468836317304522
2711,00:00:10.844,0.001875644133178867
2712,00:00:10.848,-0.004792199702933431
2713,00:00:10.852,-0.0038372380076907575
2714,00:00:10.856,0.0018162372289225416
2715,00:00:10.86,0.013018487370572979
2716,00:00:10.864,0.00434427708387375
2717,00:00:10.868,-0.011076302966102961
2718,00:00:10.872,-0.01451550889760253
2719,00:00:10.876,0.01103355234954506
2720,00:00:10.88,0.004808672820217909
2721,00:00:10.884,0.00453900045249611
2722,00:00:10.888,-0.003544832521583886
2723,00:00:10.892,-0.01331149227917194
2724,00:00:10.896,0.0008619335712865004
2725,00:00:10.9,0.006304939726760497
2726,00:00:10.904,0.01175775250885636
2727,00:00:10.908,0.00452055165078491
2728,00:00:10.912,-0.020030329003930092
2729,00:00:10.916,-0.00569815654307604
2730,00:00:10.92,0.01267783064395188
2731,00:00:10.924,0.011893068556673821
2732,00:00:10.928,-0.009112123399972909
2733,00:00:10.932,-0.017445054138079293
2734,00:00:10.936,0.0052906448254361705
2735,00:00:10.94,0.01558958552777767
2736,00:00:10.944,-0.006866663228720429
2737,00:00:10.948,-0.0031290462939068697
2738,00:00:10.952,0.0011324002625769944
2739,00:00:10.956,0.011035936186090113
2740,00:00:10.96,0.002369994530454279
2741,00:00:10.964,-0.0100215149577707
2742,00:00:10.968,-0.00395252171438178
2743,00:00:10.972,-0.01414704252965748
2744,00:00:10.976,0.011663248063996389
2745,00:00:10.98,0.00458241067826748
2746,00:00:10.984,0.0022660012473352193
2747,00:00:10.988,0.0009631919674575429
2748,00:00:10.992,-0.00015085400082169988
2749,00:00:10.996,0.003238153323763977
2750,00:00:11,-0.0009370105108246199
2751,00:00:11.004,-0.010204001460806468
2752,00:00:11.008,-1.628708560019905e-05
2753,00:00:11.012,0.0092975446023047
2754,00:00:11.016,-0.0095433909446001
2755,00:00:11.02,-5.3534517064695035e-05
2756,00:00:11.024,0.012289459089515729
2757,00:00:11.028,-0.0021011931239627276
2758,00:00:11.032,-0.00704181147739292
2759,00:00:11.036,-0.0030074295937083657
2760,00:00:11.04,0.0035467619600240132
2761,00:00:11.044,0.001343761745374651
2762,00:00:11.048,0.00724899698980153
2763,00:00:11.052,-0.00521276268409565
2764,00:00:11.056,-0.00891406444134191
2765,00:00:11.06,0.0072151251370087205
2766,00:00:11.064,0.007481976877897981
2767,00:00:11.068,-0.004250972240697587
2768,00:00:11.072,-0.007365535064309361
2769,00:00:11.076,-0.006505600642412899
2770,00:00:11.08,0.004231454746332018
2771,00:00:11.084,0.009218955718097306
2772,00:00:11.088,0.011121846269816158
2773,00:00:11.092,-0.002484564436599621
2774,00:00:11.096,-0.020993129350244992
2775,00:00:11.1,0.00227451312821359
2776,00:00:11.104,0.00877869268879295
2777,00:00:11.108,0.010149049281608313
2778,00:00:11.112,-0.011592949274927381
2779,00:00:11.116,-0.010960663377773013
2780,00:00:11.12,-0.002618121390696616
2781,00:00:11.124,0.012720145110506557
2782,00:00:11.128,0.00929794742842205
2783,00:00:11.132,0.005391771817812696
2784,00:00:11.136,-0.014464861247688532
2785,00:00:11.14,-0.00074767030309886
2786,00:00:11.144,0.005270449764793741
2787,00:00:11.148,-0.006082207779400054
2788,00:00:11.152,-0.006315608334261924
2789,00:00:11.156,0.0004117481623779884
2790,00:00:11.16,0.004946660716086619
2791,00:00:11.164,0.00315790786407887
2792,00:00:11.168,0.00266332598403095
2793,00:00:11.172,0.00968294078484177
2794,00:00:11.176,-0.00608487473800778
2795,00:00:11.18,-0.005796492449007934
2796,00:00:11.184,-0.001743978526974387
2797,00:00:11.188,0.0010674339719116692
2798,00:00:11.192,-0.01079026632942259
2799,00:00:11.196,0.0043909347150474795
2800,00:00:11.2,0.00502321950625628
2801,00:00:11.204,-0.0001535802148282606
2802,00:00:11.208,0.016048026736825684
2803,00:00:11.212,-0.005007872940041123
2804,00:00:11.216,-0.017763179028406708
2805,00:00:11.22,0.00409628462512045
2806,00:00:11.224,0.010165843879804008
2807,00:00:11.228,-0.00411155804613372
2808,00:00:11.232,-0.009146556229097767
2809,00:00:11.236,-0.00997573044151068
2810,00:00:11.24,0.02091698860749604
2811,00:00:11.244,0.015164374664891508
2812,00:00:11.248,-0.011987188016064462
2813,00:00:11.252,-0.009894764516502619
2814,00:00:11.256,-0.0015343852574005751
2815,00:00:11.26,0.00785645842552185
2816,00:00:11.264,-0.0017748993268469405
2817,00:00:11.268,-0.007624323712661861
2818,00:00:11.272,-0.0018478261772543218
2819,00:00:11.276,0.0057582172448746895
2820,00:00:11.28,0.003239206969737999
2821,00:00:11.284,0.0018152764532715117
2822,00:00:11.288,0.004577041137963532
2823,00:00:11.292,-0.008797763148322696
2824,00:00:11.296,0.001527720305602997
2825,00:00:11.3,-0.006385727072483858
2826,00:00:11.304,0.00983182480558753
2827,00:00:11.308,0.01764820795506235
2828,00:00:11.312,-0.018291932763531797
2829,00:00:11.316,-0.02199981408193713
2830,00:00:11.32,-0.0030120448209345427
2831,00:00:11.324,0.034319058991968604
2832,00:00:11.328,0.007071408763295038
2833,00:00:11.332,-0.025349526666104818
2834,00:00:11.336,-0.008639713632874187
2835,00:00:11.34,0.015474189072847361
2836,00:00:11.344,-0.00014104018919169035
2837,00:00:11.348,0.003077198198297999
2838,00:00:11.352,0.0032021526712924086
2839,00:00:11.356,-0.00540783361066133
2840,00:00:11.36,0.0062090365681797205
2841,00:00:11.364,-0.0001304441830143402
2842,00:00:11.368,-0.01635588475619442
2843,00:00:11.372,-0.0007076167094055576
2844,00:00:11.376,-0.0054575980175286505
2845,00:00:11.38,0.01678345911204814
2846,00:00:11.384,0.0065911482088267795
2847,00:00:11.388,-0.004981084377504889
2848,00:00:11.392,0.003962679416872561
2849,00:00:11.396,-0.01089835667517036
2850,00:00:11.4,-0.0011753931466955724
2851,00:00:11.404,0.008966560824774211
2852,00:00:11.408,0.00733120180666446
2853,00:00:11.412,-0.01136075786780566
2854,00:00:11.416,-0.02130013215355575
2855,00:00:11.42,0.01506098126992587
2856,00:00:11.424,0.014559470117092169
2857,00:00:11.428,-0.0068582990206778
2858,00:00:11.432,-0.0034412192180752798
2859,00:00:11.436,0.010839654249139134
2860,00:00:11.44,-0.003650887316325675
2861,00:00:11.444,-0.00847442273516208
2862,00:00:11.448,-0.00792763149365782
2863,00:00:11.452,0.011691416497342288
2864,00:00:11.456,0.007490302436053749
2865,00:00:11.46,-0.00920118507929146
2866,00:00:11.464,-0.005845205829245973
2867,00:00:11.468,0.0009913803078234202
2868,00:00:11.472,0.008762211073189979
2869,00:00:11.476,0.004457535163965081
2870,00:00:11.48,0.0007654139772057499
2871,00:00:11.484,-0.004068155132699759
2872,00:00:11.488,-0.01156053855083883
2873,00:00:11.492,-0.003721280223544456
2874,00:00:11.496,0.0062339457217603905
2875,00:00:11.5,0.011113653425127271
2876,00:00:11.504,0.001591061940416692
2877,00:00:11.508,-0.003539015771821149
2878,00:00:11.512,-0.0023048204602673684
2879,00:00:11.516,-0.01087629760149866
2880,00:00:11.52,0.00389681162778289
2881,00:00:11.524,0.007994636311195796
2882,00:00:11.528,-0.0010832492262124998
2883,00:00:11.532,0.002068350004265089
2884,00:00:11.536,-0.00048057979438453913
2885,00:00:11.54,-0.00876997224986553
2886,00:00:11.544,-0.0007877800380811128
2887,00:00:11.548,0.0014356593601405603
2888,00:00:11.552,0.012123484397307038
2889,00:00:11.556,0.0019701549608726033
2890,00:00:11.56,-0.00876303296536208
2891,00:00:11.564,-0.003978786000516267
2892,00:00:11.568,-0.00036851654294877594
2893,00:00:11.572,-0.00261855591088534
2894,00:00:11.576,0.0016587723512202501
2895,00:00:11.58,0.00638044765219092
2896,00:00:11.584,0.008014238439500332
2897,00:00:11.588,0.004231831000652166
2898,00:00:11.592,-0.01377283851616085
2899,00:00:11.596,-0.00774228200316429
2900,00:00:11.6,-0.01522194081917406
2901,00:00:11.604,0.02363990619778634
2902,00:00:11.608,0.0140933261718601
2903,00:00:11.612,-0.006879669381305572
2904,00:00:11.616,-0.011244804132729769
2905,00:00:11.62,-0.00660021998919547
2906,00:00:11.624,0.012406594411004297
2907,00:00:11.628,0.0006164118531160005
2908,00:00:11.632,-0.0024376064538955697
2909,00:00:11.636,0.004448058549314729
2910,00:00:11.64,-0.008308273972943418
2911,00:00:11.644,0.0018614710425026732
2912,00:00:11.648,8.283439092339039e-05
2913,00:00:11.652,-0.004117864111321975
2914,00:00:11.656,-0.003961266716942189
2915,00:00:11.66,0.011744358111172911
2916,00:00:11.664,0.01151376107009127
2917,00:00:11.668,0.003548488108208399
2918,00:00:11.672,-0.022908316925168072
2919,00:00:11.676,-0.01071025640703737
2920,00:00:11.68,0.01321059605106711
2921,00:00:11.684,0.005561284080613407
2922,00:00:11.688,-0.00999981083441526
2923,00:00:11.692,0.0017783767543733098
2924,00:00:11.696,0.012217438663355989
2925,00:00:11.7,0.00904262554831803
2926,00:00:11.704,-0.009573899558745321
2927,00:00:11.708,-0.02071313280612231
2928,00:00:11.712,0.00558026426006108
2929,00:00:11.716,0.007685517892241481
2930,00:00:11.72,0.00712547812145199
2931,00:00:11.724,0.005458679719595241
2932,00:00:11.728,-0.011193888378329579
2933,00:00:11.732,-0.005586418948951181
2934,00:00:11.736,0.002127452720742438
2935,00:00:11.74,0.009321061443188226
2936,00:00:11.744,-0.010555695509538051
2937,00:00:11.748,0.005126196017954489
2938,00:00:11.752,-0.0004092088784091131
2939,00:00:11.756,-0.005235719494521616
2940,00:00:11.76,0.009960236027836801
2941,00:00:11.764,-0.004162110300967474
2942,00:00:11.768,-0.006003659742418682
2943,00:00:11.772,-0.006528320231154796
2944,00:00:11.776,0.020101844100281638
2945,00:00:11.78,0.009611030945961831
2946,00:00:11.784,-0.00504731453838758
2947,00:00:11.788,-0.019755333429202437
2948,00:00:11.792,-0.01591872535391304
2949,00:00:11.796,0.008941346139181412
2950,00:00:11.8,0.02038688072934752
2951,00:00:11.804,0.011286729946732531
2952,00:00:11.808,-0.005336328642442821
2953,00:00:11.812,-0.021096098935231553
2954,00:00:11.816,-0.006480339914560319
2955,00:00:11.82,0.01161547692026944
2956,00:00:11.824,0.007470061536878349
2957,00:00:11.828,-0.004232550534652546
2958,00:00:11.832,0.002044021006440748
2959,00:00:11.836,0.005918855953495953
2960,00:00:11.84,-0.006314774509519339
2961,00:00:11.844,-0.005073507898487152
2962,00:00:11.848,0.0055999049218371545
2963,00:00:11.852,0.006791681167669601
2964,00:00:11.856,-0.005767301365267482
2965,00:00:11.86,-0.015121300937607881
2966,00:00:11.864,0.0008306597592309104
2967,00:00:11.868,0.009614355396479368
2968,00:00:11.872,0.01124359178356826
2969,00:00:11.876,-0.0024140401383192477
2970,00:00:11.88,-0.00786102039273828
2971,00:00:11.884,-0.00412491918541491
2972,00:00:11.888,0.00473522569518536
2973,00:00:11.892,0.0031608159042661953
2974,00:00:11.896,-0.008590589677623944
2975,00:00:11.9,-0.00256402371451259
2976,00:00:11.904,0.01864684303291147
2977,00:00:11.908,-0.003659176043584006
2978,00:00:11.912,-0.009501428925432267
2979,00:00:11.916,0.004280188702978199
2980,00:00:11.92,-0.008112322597298771
2981,00:00:11.924,0.01006271282676607
2982,00:00:11.928,-0.00136188231408596
2983,00:00:11.932,-0.00747625948861242
2984,00:00:11.936,0.0023630089126527296
2985,00:00:11.94,0.0016889275502762736
2986,00:00:11.944,0.00589172355830669
2987,00:00:11.948,-0.004814913321752102
2988,00:00:11.952,-0.0030975760892033594
2989,00:00:11.956,0.011062062229029834
2990,00:00:11.96,-0.003163803601637481
2991,00:00:11.964,-0.01411384460516274
2992,00:00:11.968,0.006737410498317331
2993,00:00:11.972,0.008878270629793399
2994,00:00:11.976,-0.004849287797696889
2995,00:00:11.98,-0.010851868661120529
2996,00:00:11.984,0.013519763073418288
2997,00:00:11.988,0.013656340306624761
2998,00:00:11.992,-0.01723398733884095
2999,00:00:11.996,-0.017309983260929564
3000,00:00:12,0.005188605893636119
3001,00:00:12.004,0.014772077207453549
3002,00:00:12.008,0.009428107994608578
3003,00:00:12.012,-0.01401002774946392
3004,00:00:12.016,-0.00820246106013655
3005,00:00:12.02,0.01028176106046885
3006,00:00:12.024,-0.000944582163356242
3007,00:00:12.028,0.011919277538254391
3008,00:00:12.032,-0.006235524953808625
3009,00:00:12.036,-0.0036060829879716004
3010,00:00:12.04,-0.013436818262562189
3011,00:00:12.044,0.010033297236077491
3012,00:00:12.048,0.010086971335113049
3013,00:00:12.052,0.0004473855951800901
3014,00:00:12.056,-0.016344914911314838
3015,00:00:12.06,-0.006975773780141024
3016,00:00:12.064,0.004457585462660065
3017,00:00:12.068,0.01120672860997729
3018,00:00:12.072,0.01144007476978004
3019,00:00:12.076,-0.0031791313085705038
3020,00:00:12.08,-0.0048702093772590195
3021,00:00:12.084,-0.0007969303987920302
3022,00:00:12.088,-0.007035363669274371
3023,00:00:12.092,-0.01010810583829879
3024,00:00:12.096,0.008876241277903318
3025,00:00:12.1,0.006489844294264919
3026,00:00:12.104,-0.0017338153556920545
3027,00:00:12.108,0.007302188081666831
3028,00:00:12.112,-0.004924973036395385
3029,00:00:12.116,-0.004990751331206411
3030,00:00:12.12,0.006865330797154456
3031,00:00:12.124,0.003909289836883539
3032,00:00:12.128,-0.012044697941746568
3033,00:00:12.132,-0.00923723937012255
3034,00:00:12.136,0.001265431405045096
3035,00:00:12.14,0.009666087571531508
3036,00:00:12.144,0.00975200033280998
3037,00:00:12.148,0.002303798217326399
3038,00:00:12.152,-0.01414862647652626
3039,00:00:12.156,0.0021933597745373897
3040,00:00:12.16,0.006160679961794816
3041,00:00:12.164,0.005509109876584269
3042,00:00:12.168,-0.011013006325811139
3043,00:00:12.172,-0.0032646875479258545
3044,00:00:12.176,-0.0015864868182688995
3045,00:00:12.18,-0.0024277972988784296
3046,00:00:12.184,0.005147779127582902
3047,00:00:12.188,0.010053173522464931
3048,00:00:12.192,0.00111794855911284
3049,00:00:12.196,-0.0014993684599176093
3050,00:00:12.2,-0.012472639326006169
3051,00:00:12.204,0.0016729019116610293
3052,00:00:12.208,0.0022447353694587916
3053,00:00:12.212,0.00441000331193209
3054,00:00:12.216,0.00369889917783439
3055,00:00:12.22,-0.007312513364013291
3056,00:00:12.224,0.004197059432044629
3057,00:00:12.228,-0.004682146594859659
3058,00:00:12.232,-0.0069234083639457804
3059,00:00:12.236,0.009067401319043714
3060,00:00:12.24,0.01050264376681298
3061,00:00:12.244,-0.006214591005118559
3062,00:00:12.248,-0.003309379564598211
3063,00:00:12.252,-0.00906708487309516
3064,00:00:12.256,-0.00419288361445069
3065,00:00:12.26,0.012567235549795441
3066,00:00:12.264,0.003972809296101329
3067,00:00:12.268,0.0015870259630901256
3068,00:00:12.272,-0.00198409613221884
3069,00:00:12.276,-0.0013819920131936695
3070,00:00:12.28,-0.017139995936304376
3071,00:00:12.284,0.01341737346956506
3072,00:00:12.288,0.00218616396887228
3073,00:00:12.292,0.00390120176598429
3074,00:00:12.296,-0.00818930589593947
3075,00:00:12.3,0.00296876137144863
3076,00:00:12.304,0.0031709244940429913
3077,00:00:12.308,-0.0017423108220100394
3078,00:00:12.312,-0.006007853138726202
3079,00:00:12.316,0.011674656765535469
3080,00:00:12.32,0.0020619843271560932
3081,00:00:12.324,-0.011370915264706122
3082,00:00:12.328,-0.00678512221202254
3083,00:00:12.332,0.0008928910829126809
3084,00:00:12.336,0.009308711858466299
3085,00:00:12.34,0.0032328847446478877
3086,00:00:12.344,0.005600135111308187
