Elapsed Time,EMG1,EMG2,EMG3,BioRadio Event,
00:00:00,1.38869690895081,1.51739525794983,2.21278166770935,0,
00:00:00.004,-1.32149064540863,-1.44603645801544,-2.10984516143799,0,
00:00:00.008,-1.0985267162323,-1.19835805892944,-1.74439132213593,0,
00:00:00.012,-0.118438720703125,-0.127773061394691,-0.181186884641647,0,
00:00:00.016,0.559638202190399,0.614140629768372,0.88906592130661,0,
00:00:00.02,0.693512916564941,0.752332270145416,1.09271919727325,0,
00:00:00.024,0.423156231641769,0.45740532875061,0.670104563236237,0,
00:00:00.028,0.0574989169836044,0.0611200258135796,0.0837353244423866,0,
00:00:00.032,-0.209250181913376,-0.209460183978081,-0.31022110581398,0,
00:00:00.036,-0.278149366378784,-0.297333091497421,-0.438312202692032,0,
00:00:00.04,-0.20340096950531,-0.237759307026863,-0.318061053752899,0,
00:00:00.044,-0.0673480927944183,-0.0905817300081253,-0.12290258705616,0,
00:00:00.048,0.0445087254047394,0.0369121916592121,0.0464748069643974,0,
00:00:00.052,0.0719322562217712,0.101790852844715,0.13871568441391,0,
00:00:00.056,0.062291856855154,0.0947297438979149,0.106902442872524,0,
00:00:00.06,0.0346568264067173,0.0369975306093693,0.0534055568277836,0,
00:00:00.064,0.00253279344178736,-0.0239017121493816,0.00246647442691028,0,
00:00:00.068,-0.0110716139897704,-0.02524852193892,-0.0196275860071182,0,
00:00:00.072,-0.0125812077894807,-0.0119806425645947,-0.0377959124743938,0,
00:00:00.076,-0.0204163007438183,0.00669088074937463,-0.035994865000248,0,
00:00:00.08,-0.0151904756203294,-0.0223523173481226,-0.00734724616631866,0,
00:00:00.084,-0.00189976533874869,-0.0143402190878987,0.0118016237393022,0,
00:00:00.088,0.0056167421862483,0.00407612090930343,0.01036805100739,0,
00:00:00.092,0.005807064473629,0.0143149280920625,0.00887175090610981,0,
00:00:00.096,0.020746186375618,0.023917194455862,0.00720289628952742,0,
00:00:00.1,-0.00299387564882636,0.000719343195669353,-0.00333027518354356,0,
00:00:00.104,-0.00109878811053932,-0.0111552234739065,0.00209467019885778,0,
00:00:00.108,-0.00202650530263782,-0.00942218955606222,0.000361501704901457,0,
00:00:00.112,-0.0113533120602369,0.000734355475287884,-0.00667165918275714,0,
00:00:00.116,-0.00961028132587671,-0.000344012980349362,-0.00810295529663563,0,
00:00:00.12,0.0122384680435061,-0.00173323089256883,-0.00430326163768768,0,
00:00:00.124,0.0113192815333605,0.00512590678408742,0.00291713210754097,0,
00:00:00.128,-0.00745451264083385,0.000871571770403534,0.00843957718461752,0,
00:00:00.132,-0.00451832264661789,-0.000663227983750403,0.00961481500416994,0,
00:00:00.136,-0.00281106494367123,-0.000800633628387004,-0.00753027712926269,0,
00:00:00.14,0.00146771036088467,-0.00871464051306248,0.00629840278998017,0,
00:00:00.144,0.00563012901693583,0.0120507832616568,-0.014560479670763,0,
00:00:00.148,0.00307344668544829,0.0132110137492418,-0.00499262008816004,0,
00:00:00.152,-0.00670686038210988,-0.0143015226349235,0.0142070222645998,0,
00:00:00.156,0.00557083962485194,-0.0160653200000525,0.0011654895497486,0,
00:00:00.16,0.00882104877382517,0.00218218890950084,-0.00501020019873977,0,
00:00:00.164,-0.0123741896823049,0.010750244371593,-0.000635876320302486,0,
00:00:00.168,-0.00521500036120415,0.00939048640429974,0.000738984672352672,0,
00:00:00.172,-0.00248120399191976,-0.0008928551687859,-0.00138877343852073,0,
00:00:00.176,-0.00216963654384017,-0.00892433524131775,0.00425952346995473,0,
00:00:00.18,0.00805349089205265,0.00175045640207827,-0.00258550606667995,0,
00:00:00.184,0.00678337784484029,0.00148094887845218,0.00435681035742164,0,
00:00:00.188,0.00184290925972164,0.00332331703975797,-0.00355568621307611,0,
00:00:00.192,-0.00213144929148257,-0.00583001459017396,-0.00336120231077075,0,
00:00:00.196,-0.00766475731506944,-0.010907419025898,0.0013373662950471,0,
00:00:00.2,-0.00499871233478189,-0.00297244172543287,-0.00480465032160282,0,
00:00:00.204,0.0123459966853261,0.00900114141404629,0.00213955203071237,0,
00:00:00.208,0.0163248144090176,0.0161457937210798,0.0084934588521719,0,
00:00:00.212,-0.0191860441118479,0.0135295484215021,-0.000856993370689452,0,
00:00:00.216,-0.0154577950015664,-0.0174225457012653,0.00359017844311893,0,
00:00:00.22,-0.00178586633410305,-0.0159464664757252,-0.00546141341328621,0,
00:00:00.224,0.0076501932926476,-0.00664655771106482,-0.00713376281782985,0,
00:00:00.228,0.00939143542200327,0.0127962026745081,0.000443718105088919,0,
00:00:00.232,0.00786129385232925,-0.000790647871326655,0.00307444692589343,0,
00:00:00.236,0.00295122456736863,0.00907592568546534,0.000617869198322296,0,
00:00:00.24,-0.0124715929850936,0.0101769715547562,0.00104128930252045,0,
00:00:00.244,0.00506874779239297,-0.0127035612240434,0.00541791087016463,0,
00:00:00.248,0.0034900764003396,-0.0105750923976302,0.00303145032376051,0,
00:00:00.252,-0.0206365063786507,-0.00187588308472186,-0.00303563824854791,0,
00:00:00.256,-0.00572739215567708,0.00435461942106485,-0.0180782973766327,0,
00:00:00.26,0.0158847030252218,0.00369761325418949,0.00758203631266952,0,
00:00:00.264,0.0140256909653544,0.00985756702721119,0.00453736679628491,0,
00:00:00.268,0.00186158530414104,0.000429986161179841,0.000266404269495979,0,
00:00:00.272,-0.00883604120463133,0.00372701650485396,0.0067292358726263,0,
00:00:00.276,-0.0147215714678168,-0.0149924093857408,-0.00283673638477921,0,
00:00:00.28,-0.00181715295184404,-0.013626997359097,-0.00613892637193203,0,
00:00:00.284,0.00792980566620827,0.00671043898910284,0.00203141802921891,0,
00:00:00.288,0.005083411000669,0.0203948635607958,-0.00216841325163841,0,
00:00:00.292,0.00670346384868026,-0.0124830333516002,-0.000158322058268823,0,
00:00:00.296,0.00250955065712333,0.00203361734747887,0.00399150745943189,0,
00:00:00.3,-0.0167272128164768,0.000715247471816838,0.00235206796787679,0,
00:00:00.304,0.000977938296273351,-0.000202753595658578,-0.000296096986858174,0,
00:00:00.308,0.011058421805501,0.00565386656671762,-0.00179456535261124,0,
00:00:00.312,-0.0029465367551893,-0.0105869490653276,0.00441145617514849,0,
00:00:00.316,-0.00682884640991688,-0.00536715285852551,-0.0110333701595664,0,
00:00:00.32,-0.00211328896693885,0.0067280144430697,-0.00302988872863352,0,
00:00:00.324,-0.001740587875247,0.00633549829944968,0.00949958618730307,0,
00:00:00.328,0.0161294527351856,0.00400800444185734,-0.00078078405931592,0,
00:00:00.332,0.00850584823638201,-0.00163919595070183,0.000744419230613858,0,
00:00:00.336,-0.0195946265012026,-0.0087441885843873,0.000415836286265403,0,
00:00:00.34,-0.00766569515690207,-0.00843918509781361,-0.00238109286874533,0,
00:00:00.344,0.00416031153872609,0.00531090795993805,0.00542087759822607,0,
00:00:00.348,0.00826463289558887,0.0197960566729307,-0.000889336632099003,0,
00:00:00.352,-0.000378221971914172,-0.00581982638686895,-0.00542050879448652,0,
00:00:00.356,0.00279864715412259,-0.00990217458456755,-0.000758759444579482,0,
00:00:00.36,0.00196918635629117,-0.0093052675947547,-0.0054351813159883,0,
00:00:00.364,-0.00873240642249584,-0.00175626506097615,0.00274619902484119,0,
00:00:00.368,-0.0026684186886996,0.0169381871819496,0.0074527133256197,0,
00:00:00.372,-0.0027409722097218,0.015347633510828,0.0102069610729814,0,
00:00:00.376,0.0108901942148805,-0.0185893643647432,-0.00863598752766848,0,
00:00:00.38,0.00150835479144007,-0.00926965102553368,-0.0102614713832736,0,
00:00:00.384,-0.00838206522166729,0.000118528587336186,-0.000184730219189078,0,
00:00:00.388,0.00554024986922741,-0.00132632546592504,0.00626826845109463,0,
00:00:00.392,0.0057749580591917,0.0213206931948662,0.00421255035325885,0,
00:00:00.396,-0.00720742298290133,0.00798956397920847,0.00659397756680846,0,
00:00:00.4,-0.00543075567111373,-0.0218799635767937,-0.0100804744288325,0,
00:00:00.404,0.00178765063174069,-0.00531301833689213,-0.00333769083954394,0,
00:00:00.408,-0.00103884399868548,-0.00450516492128372,-0.00234817364253104,0,
00:00:00.412,0.0078856460750103,0.015597733668983,0.0029605571180582,0,
00:00:00.416,0.0118769817054272,-0.000467900856165215,-0.00127381575293839,0,
00:00:00.42,-0.0161525122821331,-0.0138295097276568,0.00299489474855363,0,
00:00:00.424,-0.0112907020375133,0.00816459022462368,0.000727591046597809,0,
00:00:00.428,0.00242160819470882,0.0148659143596888,0.00496680662035942,0,
00:00:00.432,0.0136289028450847,-0.00157264817971736,-0.00318548199720681,0,
00:00:00.436,0.00429529091343284,-0.0099371736869216,-0.000967532920185477,0,
00:00:00.44,-0.00669419672340155,-0.0131295481696725,-0.00270339543931186,0,
00:00:00.444,-0.00297532393597066,0.00275004655122757,0.00140100496355444,0,
00:00:00.448,-0.00257811904884875,0.00979216117411852,0.00128397718071938,0,
00:00:00.452,0.00269860867410898,0.00602866802364588,0.000137681883643381,0,
00:00:00.456,0.00260230340063572,0.0044220257550478,-0.000630596536211669,0,
00:00:00.46,-0.00541670434176922,-0.00304892845451832,-0.00487670162692666,0,
00:00:00.464,0.0156234726309776,-0.0151137616485357,0.00356534495949745,0,
00:00:00.468,0.00214464496821165,-0.00191957107745111,0.0116219809278846,0,
00:00:00.472,-0.0268871504813433,0.00225435220636427,-0.0093264626339078,0,
00:00:00.476,-0.00457217544317245,0.00710801500827074,-0.00386516307480633,0,
00:00:00.48,0.0127903549000621,0.000517330772709101,-0.00287381862290204,0,
00:00:00.484,0.0133006768301129,0.00659116310998797,0.00278319790959358,0,
00:00:00.488,-0.000500547932460904,0.00120699440594763,0.000894783937837929,0,
00:00:00.492,-0.00453366385772824,0.00018058305431623,-0.00295702693983912,0,
00:00:00.496,-0.00586943281814456,-0.0133702922612429,0.00315407244488597,0,
00:00:00.5,0.0107902688905597,-0.00896174553781748,0.00808905810117722,0,
00:00:00.504,-0.0037809161003679,0.00417459756135941,-0.00204996112734079,0,
00:00:00.508,-0.010855857282877,0.0083442684262991,-0.00170972640626132,0,
00:00:00.512,0.00639686267822981,0.016606904566288,-0.00211585336364806,0,
00:00:00.516,-0.00864578504115343,-0.00596531061455607,-0.00177851843181998,0,
00:00:00.52,-0.000123778299894184,-0.0139929195865989,0.00126180215738714,0,
00:00:00.524,0.00757434591650963,0.000446266116341576,-0.00594897149130702,0,
00:00:00.528,0.0039845141582191,-0.000926017703022808,0.00721080042421818,0,
00:00:00.532,0.0014805105747655,0.00164857867639512,0.00411520013585687,0,
00:00:00.536,0.00163681991398335,0.00519846100360155,-0.00967206340283155,0,
00:00:00.54,-0.00140524096786976,0.00475307507440448,-0.00228411937132478,0,
00:00:00.544,-0.00110787339508533,-0.0025779833085835,0.00710234371945262,0,
00:00:00.548,-0.00274701067246497,-0.00395713606849313,0.00026666242047213,0,
00:00:00.552,-0.00905311293900013,-0.00239900615997612,0.00770947197452188,0,
00:00:00.556,0.000363712752005085,-0.00649626087397337,-0.00790207833051682,0,
00:00:00.56,0.00918809603899717,0.00911259558051825,-0.00620300834998488,0,
00:00:00.564,0.00935340020805597,0.00021399644901976,-0.0025340907741338,0,
00:00:00.568,-0.0108168022707105,-0.00035433133598417,0.00941460207104683,0,
00:00:00.572,-0.00318188383243978,0.0213960073888302,0.00560868624597788,0,
00:00:00.576,0.00290681817568839,-0.00637115724384785,-0.00286527303978801,0,
00:00:00.58,-0.00203206180594862,-0.0320051312446594,-0.00434759678319097,0,
00:00:00.584,-0.000202571070985869,-0.0121277337893844,-0.00670697772875428,0,
00:00:00.588,0.00602108100429177,0.020074374973774,0.00789458211511374,0,
00:00:00.592,-0.0058723334223032,0.018495999276638,-0.00356131396256387,0,
00:00:00.596,0.00190004322212189,0.00394277134910226,0.0025504999794066,0,
00:00:00.6,0.0194454304873943,-0.000382213009288535,0.00431336555629969,0,
00:00:00.604,-0.0147223193198442,-0.0148980803787708,-0.00176385627128184,0,
00:00:00.608,-0.0138927809894085,-0.00425442354753613,-0.000789680518209934,0,
00:00:00.612,-0.00090831978013739,0.00129984633531421,-0.00155717367306352,0,
00:00:00.616,0.0013438870664686,0.000967590545769781,-0.0057591637596488,0,
00:00:00.62,0.0100245792418718,0.00237248768098652,0.00106422603130341,0,
00:00:00.624,0.00879895314574242,0.00880653504282236,0.00129379180725664,0,
00:00:00.628,-0.00341983675025404,-0.000274893798632547,0.000540529668796808,0,
00:00:00.632,-0.00516539486125112,-0.00882658641785383,0.00446695508435369,0,
00:00:00.636,0.00335822720080614,-0.00892008561640978,0.00695094559341669,0,
00:00:00.64,-0.00404818309471011,0.00698898360133171,0.00418789312243462,0,
00:00:00.644,-0.00353823881596327,0.00311720953322947,-0.00910286605358124,0,
00:00:00.648,-0.00271137058734894,0.0105295050889254,-0.0173574220389128,0,
00:00:00.652,0.00565616553649306,0.00171261839568615,0.000178381698788144,0,
00:00:00.656,0.00188975315541029,-0.014366258867085,0.0163570176810026,0,
00:00:00.66,-0.00820205174386501,-0.00192023976705968,-0.00203895731829107,0,
00:00:00.664,0.011486223898828,0.00587341049686074,-0.00074080191552639,0,
00:00:00.668,0.0103076370432973,-0.00420164037495852,0.00670964457094669,0,
00:00:00.672,-0.015010628849268,-0.00658021681010723,0.0030560155864805,0,
00:00:00.676,-0.0106039047241211,0.00325964810326695,-0.0126362824812531,0,
00:00:00.68,0.00417485181242228,0.0126596707850695,-0.00748316152021289,0,
00:00:00.684,0.00875229202210903,-0.00127315695863217,-0.00092642690287903,0,
00:00:00.688,0.00391865987330675,-0.00590112339705229,0.00782248005270958,0,
00:00:00.692,-0.00135420286096632,0.00596059206873178,0.00938707869499922,0,
00:00:00.696,-0.00784443784505129,-0.00241853157058358,0.00715740863233805,0,
00:00:00.7,-0.00335762789472938,-0.0016998469363898,-0.00468829413875937,0,
00:00:00.704,0.00391865149140358,-0.00811713095754385,-0.0102437948808074,0,
00:00:00.708,0.0082514975219965,0.00250843167304993,-0.00798435974866152,0,
00:00:00.712,-0.00436385115608573,0.0107736019417644,-2.32693219004432E-05,0,
00:00:00.716,-0.00609767762944102,-0.0073607531376183,0.00726001802831888,0,
00:00:00.72,0.00148711807560176,-0.0028279097750783,0.0058643096126616,0,
00:00:00.724,0.0139273665845394,0.00340895960107446,0.00382576417177916,0,
00:00:00.728,-0.00746755674481392,0.00293749663978815,-0.00143209216184914,0,
00:00:00.732,-0.0119960652664304,0.00472251977771521,-0.0125746028497815,0,
00:00:00.736,-0.000117535477329511,-0.00722742639482021,0.00401042774319649,0,
00:00:00.74,0.0183281023055315,-0.0112740732729435,0.00691677955910563,0,
00:00:00.744,0.00444744061678648,0.00805635284632444,-0.00909568648785353,0,
00:00:00.748,-0.0190070774406195,0.0143838878720999,0.00455966731533408,0,
00:00:00.752,-0.00578397791832685,-0.00362266460433602,0.00191525486297905,0,
00:00:00.756,0.00969503168016672,-0.00951825734227896,-4.76874083688017E-05,0,
00:00:00.76,0.00259988242760301,-0.00678287586197257,0.00114022102206945,0,
00:00:00.764,-0.00209865625947714,0.0113626634702086,-0.00705729518085718,0,
00:00:00.768,-0.000739883747883141,0.00388803775422275,-0.00231522624380887,0,
00:00:00.772,-0.00312003563158214,-0.0149413989856839,0.00707818241789937,0,
00:00:00.776,0.0137450154870749,-0.000997902592644095,0.00893944874405861,0,
00:00:00.78,0.00453817658126354,0.0228691101074219,0.0023170318454504,0,
00:00:00.784,-0.0142116481438279,-0.00918699335306883,-0.0121025703847408,0,
00:00:00.788,-0.0117734596133232,-0.0037058386951685,-0.00846533756703138,0,
00:00:00.792,-0.000352548173395917,0.000369424291420728,-0.00271734967827797,0,
00:00:00.796,0.0154720200225711,-0.0109207248315215,0.00232626893557608,0,
00:00:00.8,0.00631948187947273,-0.00605818582698703,0.00889150984585285,0,
00:00:00.804,-0.00597374234348536,0.0167842376977205,0.0149931749328971,0,
00:00:00.808,-0.00757180387154222,0.0224147122353315,0.00198321719653904,0,
00:00:00.812,0.00877845752984285,-0.00283136311918497,-0.0189768355339766,0,
00:00:00.816,0.00358756096102297,-0.0227735433727503,-0.0112064965069294,0,
00:00:00.82,-0.0139571530744433,-0.0178033206611872,0.00327024911530316,0,
00:00:00.824,-0.00449802493676543,0.00861191749572754,0.0122293410822749,0,
00:00:00.828,0.00361299235373735,0.0122266141697764,0.00237899506464601,0,
00:00:00.832,0.00636796560138464,0.000328214780893177,0.00298998830839992,0,
00:00:00.836,0.0109355449676514,-0.00238492782227695,-0.0078008440323174,0,
00:00:00.84,-0.0066666598431766,0.00501857418566942,-0.00255305599421263,0,
00:00:00.844,-0.00438073370605707,0.0133193479850888,0.00493669556453824,0,
00:00:00.848,0.00687139621004462,-0.00255115400068462,0.00831706821918488,0,
00:00:00.852,-0.00319457496516407,-0.0151374759152532,-0.0117081068456173,0,
00:00:00.856,-0.0113702826201916,-0.0206996686756611,-0.00811708997935057,0,
00:00:00.86,-0.00107489491347224,-0.00166489963885397,0.00249123759567738,0,
00:00:00.864,0.00910808239132166,0.0149026354774833,0.00564533052965999,0,
00:00:00.868,0.00385765638202429,0.0297688357532024,9.0356232249178E-05,0,
00:00:00.872,-0.00198958651162684,0.0100445793941617,0.00526038464158773,0,
00:00:00.876,0.000239195927861147,-0.0244486797600985,0.00224333396181464,0,
00:00:00.88,-0.000253954029176384,-0.0181896574795246,0.00253716995939612,0,
00:00:00.884,0.00112610310316086,-0.00489731412380934,-0.00313369673676789,0,
00:00:00.888,-0.0050795404240489,0.00301751354709268,-0.0121051697060466,0,
00:00:00.892,-0.0064818081445992,0.0104153072461486,-0.0048801121301949,0,
00:00:00.896,0.0135989114642143,0.00603730184957385,0.00328536541201174,0,
00:00:00.9,0.0045346231199801,0.00241726054809988,0.00873470492660999,0,
00:00:00.904,-0.0077056516893208,0.00365987350232899,0.00546525046229362,0,
00:00:00.908,-0.00641482044011354,-0.00398177793249488,0.000396533810999244,0,
00:00:00.912,-0.00134213082492352,-0.0054974714294076,-0.00700335809960961,0,
00:00:00.916,-0.00171238207258284,-0.00345786707475781,-0.00157103629317135,0,
00:00:00.92,0.007414435967803,-0.00055535021238029,0.0030438385438174,0,
00:00:00.924,0.00568142579868436,0.00145395519211888,0.00774813257157803,0,
00:00:00.928,0.00512201897799969,0.00201944797299802,-0.00872391741722822,0,
00:00:00.932,-0.00847567152231932,-0.00059622066328302,-0.00879413262009621,0,
00:00:00.936,-0.00879568886011839,-0.00165414426010102,0.00994270294904709,0,
00:00:00.94,0.00292864418588579,0.00532574905082583,0.00173213076777756,0,
00:00:00.944,0.00243793916888535,0.0090718287974596,-0.00596589175984263,0,
00:00:00.948,0.010440151207149,-0.0194270983338356,0.00182999041862786,0,
00:00:00.952,-0.0024884776212275,-0.000223339564399794,-0.00389955635182559,0,
00:00:00.956,-0.0124251116067171,0.0230379104614258,0.000351917085936293,0,
00:00:00.96,0.00150992884300649,0.00837338156998158,0.0142720239236951,0,
00:00:00.964,0.00604923302307725,-0.0270470399409533,-0.00169069669209421,0,
00:00:00.968,-0.00393552705645561,-0.0174815449863672,-0.00820257514715195,0,
00:00:00.972,-0.00185486907139421,0.000917525147087872,-0.00256755016744137,0,
00:00:00.976,0.00175588682759553,0.00765985297039151,-0.00165731064043939,0,
00:00:00.98,0.00313714006915689,0.0204900745302439,0.00344177964143455,0,
00:00:00.984,0.00848638452589512,0.00597448833286762,0.000870582065545022,0,
00:00:00.988,0.000768974598031491,0.001130141899921,0.000712966022547334,0,
00:00:00.992,-0.0159830916672945,-0.00819561071693897,-0.0034591075964272,0,
00:00:00.996,-0.00301962532103062,-0.00651389686390758,0.0229659136384726,0,
00:00:01,0.00405420828610659,-0.0106056118384004,-0.00634020706638694,0,
00:00:01.004,0.00956217292696238,0.00239334814250469,-0.0269492696970701,0,
00:00:01.008,0.00978633388876915,0.0100393574684858,-0.0105700418353081,0,
00:00:01.012,-0.0168289747089148,-0.00166286574676633,0.0179223828017712,0,
00:00:01.016,0.00011840664956253,-0.00409688567742705,0.0130949877202511,0,
00:00:01.02,-0.00180384411942214,-0.00401670020073652,-0.00260408758185804,0,
00:00:01.024,-0.00591472070664167,0.0195282958447933,-0.00158262078184634,0,
00:00:01.028,0.00596998725086451,0.00497314427047968,-0.000938550103455782,0,
00:00:01.032,0.0113166496157646,-0.0180044192820787,0.00553354760631919,0,
00:00:01.036,0.00156780844554305,-0.00947318691760302,-0.00236235838383436,0,
00:00:01.04,0.000273338897386566,0.000544681213796139,-0.00932927150279284,0,
00:00:01.044,-0.0108654340729117,0.00797261670231819,-0.00615425687283278,0,
00:00:01.048,-0.00226580095477402,0.0165138579905033,0.0103022241964936,0,
00:00:01.052,-0.00330405286513269,-0.0103200320154428,0.00469153001904488,0,
00:00:01.056,-0.000753530242945999,-0.0121756400913,-0.0108754560351372,0,
00:00:01.06,0.0104270847514272,-0.00236508925445378,0.00493838684633374,0,
00:00:01.064,0.00800509005784988,0.00317936111241579,0.00962668471038342,0,
00:00:01.068,-0.00711294263601303,0.0151554960757494,-0.00473071448504925,0,
00:00:01.072,-0.00237396289594471,0.0166383776813746,0.000708996900357306,0,
00:00:01.076,-0.00555386021733284,-0.0180172491818666,-0.00371051835827529,0,
00:00:01.08,-0.00116905628237873,-0.0145955672487617,-0.00764823751524091,0,
00:00:01.084,0.000686145445797592,-0.00644852640107274,0.000648179731797427,0,
00:00:01.088,0.0099045904353261,0.00153596664313227,0.00203862343914807,0,
00:00:01.092,0.0105382818728685,0.0184301193803549,0.00786531437188387,0,
00:00:01.096,-0.0125709995627403,0.000662912556435913,0.00141617120243609,0,
00:00:01.1,-0.0125908758491278,-0.00562611641362309,-0.00592403905466199,0,
00:00:01.104,0.00430333102121949,0.00770009541884065,0.0015215341700241,0,
00:00:01.108,0.00209885649383068,-0.00275840377435088,0.00579675240442157,0,
00:00:01.112,-0.00351965497247875,-0.0118669392541051,-0.00405310839414597,0,
00:00:01.116,0.0126318065449595,-0.00415895599871874,-0.0024776931386441,0,
00:00:01.12,0.0064478050917387,0.0101649351418018,-0.00780554208904505,0,
00:00:01.124,-0.000633047777228057,0.00502930860966444,0.00124615093227476,0,
00:00:01.128,-0.00490088574588299,0.000267791619990021,0.00929647590965033,0,
00:00:01.132,-0.0158702563494444,-0.000213259336305782,0.00681504840031266,0,
00:00:01.136,-0.00822030659765005,-0.0066365678794682,-0.00738666858524084,0,
00:00:01.14,0.0107156671583652,-0.00119958654977381,-0.00396659318357706,0,
00:00:01.144,0.00871155224740505,0.00333644333295524,-0.00701852887868881,0,
00:00:01.148,0.00414554635062814,-0.000272458972176537,0.000782319344580173,0,
00:00:01.152,-0.00223783310502768,-0.000540474080480635,0.024852866306901,0,
00:00:01.156,-0.000586613838095218,-0.00198832410387695,-0.00324456952512264,0,
00:00:01.16,-0.0012108493829146,-0.00165418395772576,-0.0155952349305153,0,
00:00:01.164,-0.00577251985669136,0.00196241401135921,-0.00662653706967831,0,
00:00:01.168,-0.00353124691173434,0.0159607771784067,0.00103487120941281,0,
00:00:01.172,0.0170586463063955,-0.00101376394741237,0.00254939729347825,0,
00:00:01.176,0.00802852027118206,-0.0131133869290352,0.00641222577542067,0,
00:00:01.18,-0.0211272090673447,-0.0127643225714564,0.00389429950155318,0,
00:00:01.184,-0.0110388416796923,0.00133807945530862,-0.00405018404126167,0,
00:00:01.188,-0.000422373123001307,0.0140473367646337,0.00581887364387512,0,
00:00:01.192,0.0122569175437093,0.00559482211247087,-0.00332774734124541,0,
00:00:01.196,0.0117266252636909,-0.00753243686631322,-0.00668503064662218,0,
00:00:01.2,-0.00365807465277612,-0.00869153067469597,-0.00040255460771732,0,
00:00:01.204,-0.000763171876315027,0.0152035364881158,0.0039662467315793,0,
00:00:01.208,0.00443237461149693,0.00523211667314172,-7.81356502557173E-05,0,
00:00:01.212,-0.0105277821421623,-0.0127140413969755,-0.00274815526790917,0,
00:00:01.216,-0.00493461918085814,-0.00603321427479386,-0.00440481957048178,0,
00:00:01.22,0.00247153197415173,0.00484681921079755,0.0058341883122921,0,
00:00:01.224,0.00117860839236528,0.00210002483800054,0.0199992600828409,0,
00:00:01.228,-0.00668829493224621,0.00270734308287501,-0.0102276094257832,0,
00:00:01.232,0.00124306546058506,3.73760594811756E-05,-0.0173513442277908,0,
00:00:01.236,0.0341434553265572,-0.00598065461963415,-0.00597693072631955,0,
00:00:01.24,-0.00831508729606867,-0.00217466079629958,0.0132298963144422,0,
00:00:01.244,-0.0240938905626535,0.00415747985243797,0.00719665177166462,0,
00:00:01.248,-0.00748767610639334,0.00576121499761939,-0.00578946154564619,0,
00:00:01.252,-0.000646047235932201,0.00115427246782929,-0.00152046768926084,0,
00:00:01.256,0.00924070738255978,-0.00678295828402042,0.00728569598868489,0,
00:00:01.26,0.0132809830829501,-0.00375663582235575,-0.000207887336728163,0,
00:00:01.264,0.00443844636902213,0.00494219083338976,-0.00804450176656246,0,
00:00:01.268,-0.0059778830036521,0.00120432325638831,-0.00189147633500397,0,
00:00:01.272,-0.00709342258051038,0.00169721595011652,-0.00263496767729521,0,
00:00:01.276,-0.0100993039086461,-0.00475879246369004,0.00634973449632525,0,
00:00:01.28,0.00579742854461074,-0.00220337556675076,0.00706024933606386,0,
00:00:01.284,0.0132584916427732,0.00126911629922688,0.000954696093685925,0,
00:00:01.288,-0.00086592510342598,0.00478661712259054,-0.0078083910048008,0,
00:00:01.292,-0.0120239146053791,0.00637007411569357,-0.0026860311627388,0,
00:00:01.296,-0.00512119382619858,-0.00901480484753847,0.00246928469277918,0,
00:00:01.3,0.0113076055422425,-0.00171071186196059,-0.000381708785425872,0,
00:00:01.304,0.00461859861388803,0.00707412278279662,-0.000175887616933323,0,
00:00:01.308,-0.00548606272786856,-0.0027056778781116,0.00055272423196584,0,
00:00:01.312,-0.00607064692303538,-0.010419650003314,0.000832323567010462,0,
00:00:01.316,0.01224853284657,-0.000221035530557856,-0.00355199025943875,0,
00:00:01.32,-0.00391829060390592,0.003234758740291,0.0041014738380909,0,
00:00:01.324,-0.00970352999866009,0.00961559824645519,0.0051430044695735,0,
00:00:01.328,0.00187467946670949,0.00663481140509248,-0.00198373221792281,0,
00:00:01.332,0.00457850424572825,-0.0015590462135151,-0.0036315533798188,0,
00:00:01.336,0.000925140629988164,-0.00831576995551586,-0.00237701879814267,0,
00:00:01.34,-0.00171719887293875,-0.0185405202209949,-0.00456147640943527,0,
00:00:01.344,0.000189913698704913,0.0105322804301977,0.00490868045017123,0,
00:00:01.348,0.0202789381146431,0.026587063446641,0.010847169905901,0,
00:00:01.352,-0.0100946528837085,-0.00118279526941478,-0.00460798293352127,0,
00:00:01.356,-0.0202885400503874,-0.0282535199075937,-0.00836948584765196,0,
00:00:01.36,-0.00504892971366644,-0.013446451164782,0.00125956500414759,0,
00:00:01.364,0.00815301388502121,0.00346057838760316,-0.0015694061294198,0,
00:00:01.368,0.0114543465897441,0.0368883199989796,0.00512978853657842,0,
00:00:01.372,0.00301648583263159,0.000114209608000237,-0.00319604272954166,0,
00:00:01.376,-0.00579762645065784,-0.0134093835949898,-0.00285809650085866,0,
00:00:01.38,-0.00123968522530049,-0.0117255365476012,0.0146312285214663,0,
00:00:01.384,0.00899052433669567,0.00213790289126337,0.00299741164781153,0,
00:00:01.388,-0.00706770829856396,0.00508921779692173,-0.0122442375868559,0,
00:00:01.392,-0.00218170275911689,0.00530573725700378,-0.00632253102958202,0,
00:00:01.396,-0.00708757527172565,-0.00359131535515189,-0.00658737402409315,0,
00:00:01.4,-0.000607622321695089,-0.00512485671788454,0.01100969966501,0,
00:00:01.404,0.0151843344792724,0.00582531234249473,0.00644071539863944,0,
00:00:01.408,0.00205495161935687,0.00540809659287333,0.00104863080196083,0,
00:00:01.412,-0.00876861065626144,-0.00733960513025522,-0.0023083274718374,0,
00:00:01.416,-0.00563395489007235,-0.0031559239141643,-0.00514579098671675,0,
00:00:01.42,0.004217728972435,0.000138931427500211,-0.00216523604467511,0,
00:00:01.424,-0.00264585623517632,0.00379373924806714,0.00517375441268086,0,
00:00:01.428,0.000164752345881425,0.00186079810373485,0.00256036245264113,0,
00:00:01.432,0.0134041421115398,-0.0047271060757339,0.000926460896153003,0,
00:00:01.436,0.00169434293638915,-0.00600853282958269,-0.0109392888844013,0,
00:00:01.44,-0.0145122185349464,-0.000569352123420686,4.12982735724654E-05,0,
00:00:01.444,-0.00162332993932068,0.0204869247972965,-0.000137628027005121,0,
00:00:01.448,-0.00609708903357387,0.0119499526917934,0.00341536570340395,0,
00:00:01.452,0.00798344612121582,-0.0191359203308821,0.0149496467784047,0,
00:00:01.456,0.0178447049111128,-0.0160414930433035,0.0055372673086822,0,
00:00:01.46,-0.00969277881085873,-0.00549312168732286,-0.019728435203433,0,
00:00:01.464,-0.0124588459730148,0.0142013020813465,-0.0123774837702513,0,
00:00:01.468,0.00731830950826406,0.010493335314095,0.00711823347955942,0,
00:00:01.472,-0.00520898774266243,-0.00477116322144866,0.00460591912269592,0,
00:00:01.476,-0.00355985155329108,-0.0068857972510159,0.00584393600001931,0,
00:00:01.48,0.0138201462104917,0.00517455581575632,0.00445970008149743,0,
00:00:01.484,0.00491684209555388,-0.0025910206604749,-0.00518886838108301,0,
00:00:01.488,-0.00710266083478928,-0.000915291195269674,-0.00449774647131562,0,
00:00:01.492,-0.00401950580999255,0.0182316340506077,0.00306353741325438,0,
00:00:01.496,-0.00142778805457056,-0.00726872775703669,-0.000466914905700833,0,
00:00:01.5,0.000349314534105361,-0.0177062638103962,0.00301993102766573,0,
00:00:01.504,-0.00301608513109386,-0.00434473808854818,-0.00657097017392516,0,
00:00:01.508,0.00504531664773822,0.00524440780282021,-0.00318451086059213,0,
00:00:01.512,0.00804799422621727,0.00999931618571281,0.00385202211327851,0,
00:00:01.516,-0.00559172453358769,0.00145243131555617,0.00406503304839134,0,
00:00:01.52,-0.00117412419058383,0.00584034761413932,0.0016815549461171,0,
00:00:01.524,-0.00515562947839499,0.00189109018538147,-0.00268489588052034,0,
00:00:01.528,0.000697224459145218,-0.00913902558386326,0.000303956214338541,0,
00:00:01.532,0.00243827677331865,-0.00744595425203443,0.000120715005323291,0,
00:00:01.536,-0.00432050600647926,-0.00808842480182648,-0.00263474881649017,0,
00:00:01.54,0.00656556710600853,0.00427626352757216,0.00535093899816275,0,
00:00:01.544,0.0149191971868277,0.0148824835196137,-0.000738332804758102,0,
00:00:01.548,-0.00599137041717768,0.00688212551176548,-0.0113693298771977,0,
00:00:01.552,-0.0215898882597685,-0.0026746850926429,0.00751406606286764,0,
00:00:01.556,0.0004525983822532,0.00330623774789274,0.00183685007505119,0,
00:00:01.56,0.00290189147926867,-0.0222402475774288,-0.00642062118276954,0,
00:00:01.564,0.00768880499526858,-0.0110538406297565,0.00952339544892311,0,
00:00:01.568,0.00322325085289776,0.00880359765142202,-0.0014316278975457,0,
00:00:01.572,0.000879657221958041,0.0101761240512133,-0.000828862597700208,0,
00:00:01.576,-0.000576526043005288,0.000985804828815162,0.000932752038352191,0,
00:00:01.58,0.00286000012420118,0.0123787429183722,-0.00308853853493929,0,
00:00:01.584,-0.00111903331708163,0.0116618378087878,-0.000201374277821742,0,
00:00:01.588,-0.00812666118144989,-0.0140100670978427,-0.00426399987190962,0,
00:00:01.592,-0.00189299683552235,-0.0219389274716377,-0.000523989961948246,0,
00:00:01.596,0.00153466011397541,-0.00541406171396375,0.00495339371263981,0,
00:00:01.6,0.00457037473097444,0.00851587112993002,0.00365021754987538,0,
00:00:01.604,-0.0021787341684103,0.0100185908377171,0.000581272994168103,0,
00:00:01.608,-0.00727894902229309,0.00349037512205541,-0.00366328889504075,0,
00:00:01.612,0.0132343582808971,0.00230099633336067,0.00400826707482338,0,
00:00:01.616,0.00707219960168004,0.000850837328471243,-0.007901924662292,0,
00:00:01.62,-0.0111450785771012,-0.00731067778542638,0.0025494412984699,0,
00:00:01.624,0.000367949483916163,-0.00274675944820046,0.000560948334168643,0,
00:00:01.628,0.000162055162945762,0.00197364622727036,0.000121825250971597,0,
00:00:01.632,-0.00377001939341426,0.00119376345537603,0.000175935667357408,0,
00:00:01.636,-0.0104170301929116,-0.00652779405936599,-0.00183657417073846,0,
00:00:01.64,0.00644152192398906,0.0008662577602081,0.00216272985562682,0,
00:00:01.644,0.00865176599472761,0.00201671337708831,0.00170697830617428,0,
00:00:01.648,0.00443140836432576,0.00349810137413442,0.00220466451719403,0,
00:00:01.652,-0.00252137752249837,0.0153674194589257,-0.00292115681804717,0,
00:00:01.656,-0.00117787811905146,0.00159032107330859,-0.00484182452782989,0,
00:00:01.66,-0.00166822166647762,-0.0204986166208982,0.00111397728323936,0,
00:00:01.664,0.000347424240317196,-0.012597044929862,0.000320407241815701,0,
00:00:01.668,-0.00718433363363147,0.000792174716480076,0.00557973561808467,0,
00:00:01.672,9.9826225778088E-05,0.00649961177259684,-0.00218188320286572,0,
00:00:01.676,0.00562487822026014,0.0109249362722039,-0.00218734634108841,0,
00:00:01.68,0.0077468347735703,0.0168378707021475,0.00178584922105074,0,
00:00:01.684,-0.00592177640646696,-0.00971045903861523,-0.000982528319582343,0,
00:00:01.688,-0.0054039228707552,-0.00377055210992694,0.0119561068713665,0,
00:00:01.692,0.00723380083218217,-0.0133912349119782,-0.0135298119857907,0,
00:00:01.696,-0.00164079375099391,-0.00746748456731439,-0.00922331959009171,0,
00:00:01.7,-0.00352632743306458,0.00977165624499321,0.00305565050803125,0,
00:00:01.704,-0.00820861384272575,0.00925792939960957,0.013161682523787,0,
00:00:01.708,-0.000101438323326875,-0.00311289168894291,0.00344271282665432,0,
00:00:01.712,0.010291863232851,-0.00649537658318877,-0.00528044765815139,0,
00:00:01.716,0.00908289104700089,0.0129156801849604,-0.00933710485696793,0,
00:00:01.72,-0.00350007205270231,0.00985540449619293,0.00193885073531419,0,
00:00:01.724,-0.00130168569739908,-0.0124240480363369,0.00412882631644607,0,
00:00:01.728,-0.00707464618608356,-0.0139578226953745,0.0024276883341372,0,
00:00:01.732,-0.00357420207001269,-0.00384974200278521,0.00219078199006617,0,
00:00:01.736,0.0030752255115658,0.00680268695577979,-0.00531156500801444,0,
00:00:01.74,0.0054423320107162,0.00551249831914902,-0.00318040070123971,0,
00:00:01.744,0.00154335470870137,0.00589158618822694,0.00258674356155097,0,
00:00:01.748,-0.00398537656292319,0.00566930649802089,0.00463604461401701,0,
00:00:01.752,-0.0133801437914371,-0.00619954289868474,0.000867401307914406,0,
00:00:01.756,0.0115600218996406,-0.0109537187963724,-0.00639483146369457,0,
00:00:01.76,0.0180161632597446,0.0030196716543287,-0.00518256612122059,0,
00:00:01.764,-0.0150890294462442,0.00208055437542498,0.0116090793162584,0,
00:00:01.768,0.000687006104271859,0.00340062100440264,-0.000853555276989937,0,
00:00:01.772,-0.012197925709188,-0.00343991490080953,-0.00558502739295363,0,
00:00:01.776,-0.00099031045101583,-0.00377612328156829,-0.00217820331454277,0,
00:00:01.78,0.0167345535010099,0.00929052755236626,0.0036280550993979,0,
00:00:01.784,0.0036347268614918,0.00416413741186261,0.00511014182120562,0,
00:00:01.788,-0.0100900549441576,-0.00900720246136189,0.000740836025215685,0,
00:00:01.792,-0.00791127607226372,-0.0100501161068678,-0.00892025884240866,0,
00:00:01.796,0.011321758851409,0.0063406559638679,0.000490199017804116,0,
00:00:01.8,0.00447946367785335,0.0135234957560897,0.00488540064543486,0,
00:00:01.804,-0.00200751633383334,-0.00103310670237988,-0.00212429347448051,0,
00:00:01.808,-0.0107651595026255,-0.014511663466692,0.000663603947032243,0,
00:00:01.812,-0.00180936988908798,0.000605544773861766,0.00280246022157371,0,
00:00:01.816,0.0118844136595726,0.00462084216997027,-0.00816601607948542,0,
00:00:01.82,-0.00746743567287922,-0.000792659760918468,0.00381955993361771,0,
00:00:01.824,-0.00604626163840294,0.0130082266405225,0.010438933968544,0,
00:00:01.828,0.0171327255666256,-0.0077981292270124,-0.00486487848684192,0,
00:00:01.832,0.00768603943288326,-0.00587244145572186,-0.00852135010063648,0,
00:00:01.836,-0.00710360426455736,-0.00399030093103647,0.00124563043937087,0,
00:00:01.84,-0.0145055195316672,0.00105490535497665,0.00683762272819877,0,
00:00:01.844,-0.012871902436018,0.0142452921718359,-0.00884532742202282,0,
00:00:01.848,0.0103853112086654,-0.00209694728255272,0.000445487850811332,0,
00:00:01.852,0.00965685490518808,-0.0104992873966694,-0.000443842698587105,0,
00:00:01.856,-0.00128051964566112,-0.00871316529810429,0.00705526070669293,0,
00:00:01.86,0.00601823721081018,0.00627598911523819,0.00432807067409158,0,
00:00:01.864,0.00426829513162375,0.0147372130304575,-0.00453462265431881,0,
00:00:01.868,-0.00461470009759068,-0.00133682892192155,0.00700070662423968,0,
00:00:01.872,-0.00413336511701345,-0.000989621970802546,-0.0039114891551435,0,
00:00:01.876,-0.00779917603358626,-0.00546666514128447,-0.00841783173382282,0,
00:00:01.88,-0.00630845967680216,-0.00613447371870279,-0.00603994401171803,0,
00:00:01.884,0.0154219912365079,-0.00309568480588496,0.00537662766873837,0,
00:00:01.888,0.0065143583342433,0.000810177065432072,0.00153589900583029,0,
00:00:01.892,-0.0106658954173326,0.0115842679515481,5.00364467370673E-06,0,
00:00:01.896,-0.00434229336678982,0.0164710283279419,0.0042594657279551,0,
00:00:01.9,-0.00279036234132946,-0.0073128086514771,0.00920960400253534,0,
00:00:01.904,0.00968481134623289,-0.0280551984906197,0.000442650722106919,0,
00:00:01.908,0.0146813578903675,0.00265092612244189,-0.0127232763916254,0,
00:00:01.912,-0.00183030171319842,0.0201501380652189,-0.00570203131064773,0,
00:00:01.916,-0.0186923164874315,-0.00327757000923157,0.000508257537148893,0,
00:00:01.92,-0.012251565232873,-0.015223897062242,0.00360532244667411,0,
00:00:01.924,0.00596584333106875,0.000648125365842134,0.00158715562429279,0,
00:00:01.928,0.00794588122516871,0.0075426478870213,0.00191097881179303,0,
00:00:01.932,0.0106184808537364,0.00900376029312611,0.00582103990018368,0,
00:00:01.936,-0.00113301782403141,0.00706313038244843,-0.00120762106962502,0,
00:00:01.94,-0.00191578560043126,-0.010829052887857,0.000546114810276777,0,
00:00:01.944,-0.000802844122517854,-0.00630569038912654,-0.00896042585372925,0,
00:00:01.948,-0.00662818318232894,0.00306598609313369,-0.00238970923237503,0,
00:00:01.952,-0.00306936167180538,0.00433935830369592,0.0038913197349757,0,
00:00:01.956,0.00346874282695353,-0.00856913719326258,-0.000937956909183413,0,
00:00:01.96,0.00352646550163627,-0.0015580584295094,-0.00147505267523229,0,
00:00:01.964,0.00345768569968641,0.00935521256178617,0.0124443285167217,0,
00:00:01.968,-0.00252136867493391,0.000226075062528253,0.00205196579918265,0,
00:00:01.972,-0.0050790342502296,-0.00647900393232703,-0.01144406106323,0,
00:00:01.976,-0.00144320330582559,6.44579486106522E-05,-0.00691116228699684,0,
00:00:01.98,-0.000181448034709319,0.00478262174874544,0.00273602060042322,0,
00:00:01.984,0.011099049821496,-0.00164856063202024,0.00495727499946952,0,
00:00:01.988,0.00600277911871672,0.00324858585372567,0.00329046603292227,0,
00:00:01.992,-0.0101737203076482,0.000969630084000528,0.00273655471391976,0,
00:00:01.996,-0.00865693762898445,0.00861376710236073,-0.00523941917344928,0,
00:00:02,-0.00406285002827644,-0.0104434648528695,0.00275550736114383,0,
00:00:02.004,0.000946905347518623,-0.0120167955756187,-0.00583142600953579,0,
00:00:02.008,0.0102160237729549,-0.00499578472226858,0.00135357899125665,0,
00:00:02.012,0.0129919117316604,0.000517590378876776,-0.00024738849606365,0,
00:00:02.016,-0.00545772444456816,0.0209161955863237,0.00245355977676809,0,
00:00:02.02,-0.0127086965367198,0.00220077950507402,-0.00514620309695601,0,
00:00:02.024,-0.00300877378322184,-0.00389133393764496,0.00324982451274991,0,
00:00:02.028,0.00711085367947817,0.00219737947918475,0.00563278840854764,0,
00:00:02.032,0.000503337243571877,-0.00597041705623269,0.00327879330143332,0,
00:00:02.036,0.00178412988316268,-0.00923251081258059,-0.00874079670757055,0,
00:00:02.04,0.00453601777553558,-0.00153230945579708,-0.00543360086157918,0,
00:00:02.044,-0.00491585955023766,0.00890468619763851,0.0067922449670732,0,
00:00:02.048,-0.00671540107578039,0.0125490240752697,4.35858164564706E-05,0,
00:00:02.052,0.000688172469381243,-0.00936038233339787,-0.00306637189351022,0,
00:00:02.056,0.0072585279121995,-0.00190473685506731,0.00174438825342804,0,
00:00:02.06,-0.00138510833494365,0.00122665008530021,-0.00616996828466654,0,
00:00:02.064,-0.00648004049435258,-0.00710718194022775,0.0149561669677496,0,
00:00:02.068,0.00316925393417478,-0.00254484382458031,0.010556080378592,0,
00:00:02.072,0.0039324788376689,0.0028603186365217,-0.0213592667132616,0,
00:00:02.076,-0.000593888631556183,0.00482364930212498,-0.0112396646291018,0,
00:00:02.08,0.00110108603257686,0.00355733698233962,0.00599974114447832,0,
00:00:02.084,-0.000218465909711085,0.00512739736586809,0.00658539682626724,0,
00:00:02.088,0.00276935705915093,0.0052728708833456,0.0151395164430141,0,
00:00:02.092,-0.00543983792886138,-0.0193280037492514,-0.00815517548471689,0,
00:00:02.096,-0.0124078681692481,-0.00424383860081434,-0.004937878344208,0,
00:00:02.1,0.00755622424185276,0.00129459158051759,-0.00487384526059031,0,
00:00:02.104,0.0108761694282293,0.0133327562361956,0.00526689505204558,0,
00:00:02.108,0.0118243349716067,0.00339316809549928,-0.00793381407856941,0,
00:00:02.112,-0.0214769765734673,-0.016033761203289,-0.0021302062086761,0,
00:00:02.116,-0.0042860028333962,0.00645690504461527,0.0170874837785959,0,
00:00:02.12,0.0136868553236127,6.49491485091858E-05,-0.00326424255035818,0,
00:00:02.124,-0.00941663887351751,0.00430945353582501,-0.00556749058887362,0,
00:00:02.128,-0.00973442848771811,0.00134085980243981,0.00410649413242936,0,
00:00:02.132,0.0128285642713308,-0.0122172515839338,-0.00689611909911036,0,
00:00:02.136,0.0142786493524909,0.00285314279608428,0.00344527140259743,0,
00:00:02.14,-0.00698310881853104,0.0142971342429519,0.000871087599080056,0,
00:00:02.144,-0.00644938088953495,0.00184078956954181,0.00610857410356402,0,
00:00:02.148,-0.0053970362059772,-0.0166446249932051,-0.0083213597536087,0,
00:00:02.152,0.00178214884363115,-0.00591636216267943,-0.00315885944291949,0,
00:00:02.156,0.00323667610064149,0.00979131832718849,-0.00101000210270286,0,
00:00:02.16,0.00412561697885394,0.00938422232866287,0.0047368323430419,0,
00:00:02.164,-0.00370838097296655,-0.00124833954032511,0.00395991606637836,0,
00:00:02.168,-0.00459378119558096,-0.00932484958320856,0.00316449697129428,0,
00:00:02.172,0.00437356485053897,-0.0065969773568213,-0.00112345197703689,0,
00:00:02.176,0.00359579967334867,0.00144868658389896,-0.00357917160727084,0,
00:00:02.18,0.00658331252634525,0.0142132891342044,-0.00538359489291906,0,
00:00:02.184,-0.00571674294769764,0.00798196345567703,-0.00573139917105436,0,
00:00:02.188,-0.00914293620735407,-0.00782541278749704,0.0121289482340217,0,
00:00:02.192,-0.00974912010133266,-0.026027662679553,0.00259893573820591,0,
00:00:02.196,0.00605983706191182,0.0152903106063604,-0.00626037921756506,0,
00:00:02.2,0.0156645961105824,0.016037929803133,-0.00321396230719984,0,
00:00:02.204,0.00204752641730011,-0.00841675139963627,0.00330739561468363,0,
00:00:02.208,-0.00617677764967084,-0.00855459086596966,0.00537790171802044,0,
00:00:02.212,-0.00288916146382689,-0.00186494784429669,-0.00091736827744171,0,
00:00:02.216,-0.0074571818113327,0.00946542341262102,-0.000469900143798441,0,
00:00:02.22,0.0119285248219967,-0.00144338875543326,-0.00380369974300265,0,
00:00:02.224,0.00143336888868362,3.51511662302073E-05,-4.88558907818515E-05,0,
00:00:02.228,-0.00580601207911968,0.00207900116220117,0.00250709499232471,0,
00:00:02.232,-0.00421764282509685,-0.000257684325333685,-0.00806768797338009,0,
00:00:02.236,-0.00669831968843937,-0.0103666838258505,7.71037230151705E-05,0,
00:00:02.24,0.012149166315794,0.00161939975805581,0.00453029619529843,0,
00:00:02.244,0.00770250987261534,0.00948031526058912,0.0107983304187655,0,
00:00:02.248,-0.00505669042468071,0.00835946667939425,0.00244341930374503,0,
00:00:02.252,-0.00585331907495856,-0.0101597234606743,-0.00512125110253692,0,
00:00:02.256,-0.00447696773335338,-0.0103209214285016,-0.0112896673381329,0,
00:00:02.26,-0.00336086843162775,0.00286311865784228,-0.00697621377184987,0,
00:00:02.264,0.0119776874780655,0.00752044841647148,0.00217428337782621,0,
00:00:02.268,0.0134623851627111,0.0013181553222239,0.00914336461573839,0,
00:00:02.272,-0.017281997948885,-0.00755166681483388,0.010752821341157,0,
00:00:02.276,-0.000562086293939501,-0.00408615451306105,-0.00880045350641012,0,
00:00:02.28,0.00227060378529131,0.018034253269434,0.00432488461956382,0,
00:00:02.284,-0.00338118872605264,0.0134754367172718,0.00321613624691963,0,
00:00:02.288,-0.000968949112575501,-0.0161180980503559,-0.00967936031520367,0,
00:00:02.292,-0.000134077869006433,-0.0265800692141056,-0.00875309575349092,0,
00:00:02.296,0.004792720079422,-0.00621254183351994,-0.000231339028687216,0,
00:00:02.3,0.0139029799029231,0.0218431539833546,0.00765043031424284,0,
00:00:02.304,-0.00315926410257816,0.0333591513335705,0.00844721402972937,0,
00:00:02.308,-0.0117038199678063,-0.0189257077872753,0.00210860185325146,0,
00:00:02.312,-0.014135560952127,-0.0221010874956846,-0.00314646237529814,0,
00:00:02.316,0.0049042678438127,0.000355875323293731,-0.00472676660865545,0,
00:00:02.32,0.00658122915774584,0.00562721397727728,-0.00957699678838253,0,
00:00:02.324,0.0032324050553143,0.0126769253984094,0.00295487861149013,0,
00:00:02.328,0.00227448437362909,-0.00611739372834563,0.00587699189782143,0,
00:00:02.332,0.00320926541462541,-0.00246200384572148,0.00387670588679612,0,
00:00:02.336,0.00197149254381657,0.0154017116874456,0.00899310689419508,0,
00:00:02.34,-0.004669941496104,-0.00358500704169273,-0.011494473554194,0,
00:00:02.344,-0.0109854005277157,-0.0160731915384531,-0.00671249534934759,0,
00:00:02.348,0.00797636900097132,-0.00771897844970226,-0.000583864748477936,0,
00:00:02.352,0.00359703158028424,0.000655578332953155,0.0051405974663794,0,
00:00:02.356,-0.0049241972155869,0.0117584746330976,-0.000436316797276959,0,
00:00:02.36,-0.000720946816727519,0.0106523390859365,0.00459589902311563,0,
00:00:02.364,-0.00102224003057927,-0.000382782251108438,-0.00436510844156146,0,
00:00:02.368,0.00321044959127903,-0.00713788066059351,0.00440914323553443,0,
00:00:02.372,0.00439178012311459,-0.00505396444350481,0.00204271171241999,0,
00:00:02.376,0.00237823417410254,0.00109171972144395,-0.00380548369139433,0,
00:00:02.38,-0.0109494617208838,0.00185847422108054,-0.00130534044001251,0,
00:00:02.384,0.00111388869117945,0.00500901276245713,-0.000874607008881867,0,
00:00:02.388,-0.0011785994283855,5.4120333516039E-05,-0.013012832030654,0,
00:00:02.392,0.00533577287569642,-0.0140316225588322,0.0180265568196774,0,
00:00:02.396,0.000883423024788499,-0.000258097687037662,0.00848541874438524,0,
00:00:02.4,-0.00493505271151662,0.0122426329180598,-0.00927991792559624,0,
00:00:02.404,0.00920034758746624,0.00626395968720317,-0.00844012200832367,0,
00:00:02.408,0.000938724726438522,-0.00807149615138769,-0.00423462316393852,0,
00:00:02.412,-0.0106967845931649,-0.0101542510092258,0.00471971137449145,0,
00:00:02.416,-0.00748847797513008,0.00980978365987539,0.0100094182416797,0,
00:00:02.42,0.00388481165282428,0.00467082252725959,0.00130548840388656,0,
00:00:02.424,0.00702925631776452,-0.0112305022776127,-0.0052831987850368,0,
00:00:02.428,0.00902031920850277,0.00854222662746906,-0.00601623393595219,0,
00:00:02.432,0.001253392547369,-0.000970686378423125,0.00126187631394714,0,
00:00:02.436,-0.00490607507526875,0.00401314767077565,0.00520818075165153,0,
00:00:02.44,-0.0103773791342974,-0.00258687138557434,0.000181099254405126,0,
00:00:02.444,-0.00204923050478101,-0.00834730360656977,-0.00329026626423001,0,
00:00:02.448,0.00053261814173311,-0.000763123796787113,0.00513873342424631,0,
00:00:02.452,0.00154317426495254,0.00503089977428317,-0.00471579562872648,0,
00:00:02.456,0.0143978428095579,0.00136859703343362,0.00111103767994791,0,
00:00:02.46,0.00450328039005399,0.000267008261289448,0.00711222551763058,0,
00:00:02.464,-0.0182317197322845,-0.00208841823041439,-0.0105261662974954,0,
00:00:02.468,-0.0075924601405859,0.00186603551264852,-0.00618550274521112,0,
00:00:02.472,0.00097217335132882,0.00147015682887286,0.00590783823281527,0,
00:00:02.476,0.0218746569007635,-0.00209459755569696,0.00394242024049163,0,
00:00:02.48,0.00834082718938589,0.000964128063060343,-3.16902660415508E-05,0,
00:00:02.484,-0.0152153372764587,0.00258574401959777,0.000186813122127205,0,
00:00:02.488,-0.0170867666602135,-0.00453892070800066,0.00897513329982758,0,
00:00:02.492,-0.00748289003968239,-0.00680235866457224,-0.00741274794563651,0,
00:00:02.496,0.0197450742125511,0.00254937401041389,-0.00250324560329318,0,
00:00:02.5,0.0138008678331971,0.0221618078649044,0.000992501503787935,0,
00:00:02.504,-0.00547414179891348,-0.0159185137599707,-0.00448996527120471,0,
00:00:02.508,-0.00359051814302802,0.00211806455627084,-0.00162882218137383,0,
00:00:02.512,-0.00360475666821003,0.000842988607473671,-0.00226383469998837,0,
00:00:02.516,-0.00687149679288268,-0.00924469344317913,0.00509779155254364,0,
00:00:02.52,-0.00122175668366253,-0.0105086294934154,0.0160043556243181,0,
00:00:02.524,0.00572970043867826,0.0104120597243309,-0.00099620595574379,0,
00:00:02.528,0.00285770697519183,0.0125804338604212,-0.0168514996767044,0,
00:00:02.532,0.00147706409916282,0.00166366877965629,-7.47627564123832E-05,0,
00:00:02.536,0.00240635615773499,-0.0102320164442062,-0.00106414686888456,0,
00:00:02.54,0.003690225770697,-0.00102050509303808,0.00151003582868725,0,
00:00:02.544,-0.00232088309712708,0.00394522538408637,0.00306204077787697,0,
00:00:02.548,-0.0160897020250559,-0.00449142139405012,0.00266832043416798,0,
00:00:02.552,-0.001203628256917,0.000688650354277343,-0.000927988556213677,0,
00:00:02.556,0.0144874965772033,0.00460102688521147,0.00576055934652686,0,
00:00:02.56,0.00300308875739574,0.00412259669974446,-0.00348837394267321,0,
00:00:02.564,-0.0110512962564826,-0.00512647815048695,-0.000150725521962158,0,
00:00:02.568,-6.813454820076E-05,-0.00212996709160507,-0.0079364376142621,0,
00:00:02.572,0.0102776670828462,0.00354711944237351,-0.00286111398600042,0,
00:00:02.576,-0.000318893726216629,-0.0078956438228488,0.00702216476202011,0,
00:00:02.58,0.000501469592563808,-0.000864365487359464,0.00308488705195487,0,
00:00:02.584,-0.0131684076040983,0.0054485066793859,-0.00573205016553402,0,
00:00:02.588,-0.00251544732600451,0.0081834951415658,0.00920577254146338,0,
00:00:02.592,0.013307779096067,-0.0074390210211277,0.00599396321922541,0,
00:00:02.596,0.00491674058139324,-0.00102398940362036,-0.00541670201346278,0,
00:00:02.6,-0.00844547338783741,0.00691028032451868,-0.00795003678649664,0,
00:00:02.604,-0.0135356932878494,-0.00538770388811827,-0.0111338375136256,0,
00:00:02.608,0.029362803325057,-0.00490301661193371,-0.00281286658719182,0,
00:00:02.612,0.00309287197887897,-0.00910905934870243,0.011312909424305,0,
00:00:02.616,-0.0260866340249777,0.0122309885919094,0.0103104114532471,0,
00:00:02.62,-0.00946575496345758,0.0117188328877091,0.0016248325118795,0,
00:00:02.624,0.00437627593055367,0.00122361839748919,0.00809126440435648,0,
00:00:02.628,0.013882857747376,-0.0186865236610174,-0.0130533808842301,0,
00:00:02.632,0.00395145360380411,-0.00806296616792679,-0.0105905057862401,0,
00:00:02.636,-0.000349799665855244,0.0214662570506334,0.00431340280920267,0,
00:00:02.64,0.00436775386333466,0.0191300604492426,-0.00369575619697571,0,
00:00:02.644,-0.00575142772868276,-0.0249562598764896,0.00697862962260842,0,
00:00:02.648,-0.00608923053368926,-0.0186772346496582,0.00511352671310306,0,
00:00:02.652,-0.0046440246514976,-0.000910639762878418,-0.00168675789609551,0,
00:00:02.656,0.000778524263296276,0.0125640602782369,-0.00277458806522191,0,
00:00:02.66,0.00821669865399599,0.0160858016461134,-0.00157050834968686,0,
00:00:02.664,0.00218643294647336,0.00325356237590313,-9.99647963908501E-05,0,
00:00:02.668,-0.00113092304673046,-0.00678414339199662,-0.00133684277534485,0,
00:00:02.672,-0.00416852068156004,-0.00272989924997091,0.00488538295030594,0,
00:00:02.676,0.000400252611143515,-0.00927568506449461,0.00429484155029058,0,
00:00:02.68,0.00524882739409804,0.00520036416128278,-0.00330891273915768,0,
00:00:02.684,-0.00347710447385907,0.00366000435315073,-0.00861380249261856,0,
00:00:02.688,-0.00762449204921722,-0.00897901505231857,-0.000529897573869675,0,
00:00:02.692,-0.00308392336592078,-0.00323687260970473,0.00332164647988975,0,
00:00:02.696,0.0167684741318226,0.00585863552987576,0.00355171761475503,0,
00:00:02.7,0.00545962387695909,0.0187580529600382,-0.000198561887373216,0,
00:00:02.704,-0.00865477602928877,-0.00692922389134765,0.00609943084418774,0,
00:00:02.708,-0.00595432007685304,-0.0167466998100281,-0.0034806584008038,0,
00:00:02.712,-0.00872327201068401,-0.00556034734472632,-0.00445620389655232,0,
00:00:02.716,0.00428912369534373,0.0157138295471668,5.36675179318991E-06,0,
00:00:02.72,0.0047267465852201,0.00740467524155974,-0.00153555767610669,0,
00:00:02.724,0.00612012948840857,0.00483857234939933,-0.00203213025815785,0,
00:00:02.728,0.0062596770003438,-0.0135327782481909,0.00548389833420515,0,
00:00:02.732,-0.00777075486257672,-0.0183771252632141,0.00339485006406903,0,
00:00:02.736,-0.00044676658581011,0.0066979480907321,-0.00660976860672235,0,
00:00:02.74,-0.00534474989399314,0.0114316763356328,-0.00485468981787562,0,
00:00:02.744,-0.00872662011533976,0.00678653037175536,0.0166182778775692,0,
00:00:02.748,0.00509668933227658,-0.00156832695938647,0.0041508344002068,0,
00:00:02.752,0.00785902235656977,-0.00557349761947989,-0.0125782052055001,0,
00:00:02.756,0.0109660169109702,0.00773119926452637,-0.00523754581809044,0,
00:00:02.76,-0.00348116038367152,0.0011473826598376,-0.00933631137013435,0,
00:00:02.764,-0.0114708673208952,-0.0139675503596663,0.00296728708781302,0,
00:00:02.768,0.0070662940852344,-0.00525915203616023,0.0146045628935099,0,
00:00:02.772,-0.00385463144630194,0.00445322319865227,-0.000846632523462176,0,
00:00:02.776,-0.0086694722995162,-0.000574787787627429,-0.00017221798771061,0,
00:00:02.78,-0.00154387508518994,0.00702703045681119,0.00393988657742739,0,
00:00:02.784,0.00470677157863975,0.00509921973571181,-0.000425286067184061,0,
00:00:02.788,0.00620905356481671,0.000618351274169981,-0.00399928586557508,0,
00:00:02.792,0.00398334208875895,-0.00462690414860845,-0.00845498871058226,0,
00:00:02.796,0.00476133730262518,-0.00547630898654461,0.00164978217799217,0,
00:00:02.8,-0.00372384185902774,0.00957115646451712,-0.000727755425032228,0,
00:00:02.804,-0.00579502852633595,-0.000995142851024866,0.00806385092437267,0,
00:00:02.808,0.000264722330030054,-0.00673583522439003,0.00158051657490432,0,
00:00:02.812,-0.000628321897238493,-0.005830611102283,-0.00824947282671928,0,
00:00:02.816,-0.00997007824480534,0.000499373883940279,-0.000949161767493933,0,
00:00:02.82,0.00246259826235473,0.000394965551095083,0.0134243108332157,0,
00:00:02.824,0.00419861963018775,0.0107446415349841,-0.00440153805539012,0,
00:00:02.828,0.0025739420671016,0.0182887800037861,-0.00848779920488596,0,
00:00:02.832,0.0070065357722342,-0.0152958855032921,-0.000726750702597201,0,
00:00:02.836,0.00219349446706474,-0.0130696203559637,0.00478081265464425,0,
00:00:02.84,-0.000722976168617606,-0.00438701082020998,-0.00115742429625243,0,
00:00:02.844,-0.00245341216214001,0.000708717037923634,0.00597918592393398,0,
00:00:02.848,-0.00912767834961414,0.00131964450702071,-0.000466159399366006,0,
00:00:02.852,-0.00465405732393265,0.0100651923567057,-0.00935085397213697,0,
00:00:02.856,-0.000773906998801976,0.0130918622016907,-0.00308601278811693,0,
00:00:02.86,0.00639505591243505,0.00299125607125461,0.0139003721997142,0,
00:00:02.864,0.00585805019363761,-0.0165108349174261,0.00199276907369494,0,
00:00:02.868,0.00022859156888444,-0.0138055179268122,-0.00817236211150885,0,
00:00:02.872,0.00101196928881109,0.00482257688418031,-0.00705212401226163,0,
00:00:02.876,0.00331758405081928,0.00953804142773151,0.00656235637143254,0,
00:00:02.88,-0.00811532139778137,-0.00419964920729399,0.00524354679509997,0,
00:00:02.884,-0.00744149927049875,0.00640686834231019,0.000440019532106817,0,
00:00:02.888,0.00424188701435924,0.000701417215168476,-0.00476865749806166,0,
00:00:02.892,0.00522919371724129,-0.00660212943330407,-0.00733989058062434,0,
00:00:02.896,0.0022964715026319,-0.00302228657528758,0.0058563444763422,0,
00:00:02.9,-0.000628049368970096,0.00152246735524386,0.00304346298798919,0,
00:00:02.904,0.00424419436603785,0.00757844559848309,0.00278767826966941,0,
00:00:02.908,-0.00564745394513011,0.000845306611154228,0.00150206009857357,0,
00:00:02.912,-0.0139515856280923,-0.00440979516133666,-0.00667467387393117,0,
00:00:02.916,-0.00231874943710864,-0.00070911628426984,-0.00427951663732529,0,
00:00:02.92,0.0263473447412252,-0.00197030580602586,0.000183807598659769,0,
00:00:02.924,-0.0038267073687166,-0.0021400754339993,0.000762358598876745,0,
00:00:02.928,-0.0106747420504689,0.0117256855592132,0.00290509802289307,0,
00:00:02.932,-0.0022006812505424,0.00367854768410325,0.00732981553301215,0,
00:00:02.936,0.00661333836615086,-0.0154761122539639,-0.00221859407611191,0,
00:00:02.94,0.00767569011077285,-0.00411047507077456,-0.00341715011745691,0,
00:00:02.944,-0.0133799901232123,0.00273598218336701,0.00451487768441439,0,
00:00:02.948,-0.000791895086877048,0.00473302323371172,-0.00376544077880681,0,
00:00:02.952,0.00324652064591646,0.00347771379165351,0.00442346325144172,0,
00:00:02.956,0.000780436850618571,-0.00306303123943508,-0.0132337510585785,0,
00:00:02.96,0.00298886396922171,0.00519398972392082,0.000644044310320169,0,
00:00:02.964,0.00110212166327983,-0.000303375389194116,0.000589001982007176,0,
00:00:02.968,-0.000988345476798713,-0.00681489519774914,0.00568945566192269,0,
00:00:02.972,0.000257224368397146,0.00559694273397326,0.00243709329515696,0,
00:00:02.976,-0.00548713374882936,-0.00181435444392264,0.00319254188798368,0,
00:00:02.98,0.0018984405323863,-0.00271094287745655,-0.00187803874723613,0,
00:00:02.984,-0.0105830701068044,0.000989453052170575,-0.000266135670244694,0,
00:00:02.988,0.00371042545884848,-0.00759154697880149,0.00509084854274988,0,
00:00:02.992,0.0376032516360283,0.00565427774563432,-0.00342629477381706,0,
00:00:02.996,-0.0130661791190505,0.0100891245529056,-0.0142798125743866,0,
00:00:03,-0.0294516608119011,3.07625596178696E-05,-0.00231562717817724,0,
00:00:03.004,-0.00317827449180186,-0.0110194189473987,0.00782689917832613,0,
00:00:03.008,0.00142146332655102,-0.00717608584091067,0.00542399054393172,0,
00:00:03.012,0.0123511841520667,0.0167461577802897,0.0029908805154264,0,
00:00:03.016,0.0053914594464004,0.00152943411376327,0.0108687998726964,0,
00:00:03.02,0.0105841318145394,-0.00488862255588174,-0.00701681012287736,0,
00:00:03.024,-0.00368190789595246,-0.0174649246037006,-0.0182347912341356,0,
00:00:03.028,-0.00991316512227058,0.0137358773499727,-0.00178779079578817,0,
00:00:03.032,-0.00595329469069839,0.012685320340097,0.00847057159990072,0,
00:00:03.036,0.00178862840402871,-0.0123355155810714,0.0156032731756568,0,
00:00:03.04,0.00943266972899437,-0.00444765668362379,-0.0054705603979528,0,
00:00:03.044,-0.00808295980095863,0.000967771396972239,-0.00609548250213265,0,
00:00:03.048,-0.00476148352026939,-0.00322398450225592,-0.005847601685673,0,
00:00:03.052,0.00397553201764822,0.00843992363661528,-0.00293510081246495,0,
00:00:03.056,0.009346560575068,0.00588705996051431,0.00486036110669374,0,
00:00:03.06,0.011237945407629,0.00216760230250657,0.00536168646067381,0,
00:00:03.064,-0.0153663605451584,-0.00145010638516396,0.000504583760630339,0,
00:00:03.068,-0.0142479417845607,-0.0117708742618561,0.00157528684940189,0,
00:00:03.072,0.00252682669088244,-0.00806512869894505,-0.000374683004338294,0,
00:00:03.076,0.00753561966121197,0.00581458676606417,-0.00190428388305008,0,
00:00:03.08,-0.000418434618040919,0.00736685702577233,-0.00204451638273895,0,
00:00:03.084,0.00779917323961854,0.00584786804392934,-0.00325707625597715,0,
00:00:03.088,0.00777943152934313,-0.00843252148479223,0.00395625270903111,0,
00:00:03.092,-0.00390031305141747,-0.000211619553738274,-0.00385238858871162,0,
00:00:03.096,-0.0120083829388022,0.0145513908937573,0.00537655223160982,0,
00:00:03.1,0.00217602658085525,-0.00623215921223164,0.00087520299712196,0,
00:00:03.104,-0.00863863155245781,-0.011636508628726,0.000809758261311799,0,
00:00:03.108,0.00262713152915239,-0.00717174680903554,-0.00146645621862262,0,
00:00:03.112,-0.00240934593603015,0.00202473625540733,-0.0107458177953959,0,
00:00:03.116,0.0163928233087063,0.00699628610163927,0.00819269847124815,0,
00:00:03.12,0.0100728906691074,0.00444708904251456,0.00418263394385576,0,
00:00:03.124,-0.00971413962543011,0.00913125090301037,-0.00228168349713087,0,
00:00:03.128,-0.0128521574661136,-0.000884860171936452,-0.00247621233575046,0,
00:00:03.132,-0.00478789675980806,-0.00154158647637814,-0.0028276089578867,0,
00:00:03.136,0.00286049908027053,-0.00949945487082005,0.0026598796248436,0,
00:00:03.14,0.00590083422139287,-0.0019078841432929,0.00279196025803685,0,
00:00:03.144,0.0130680724978447,-0.00203227973543108,0.00100952421780676,0,
00:00:03.148,8.71259471750818E-05,-0.00580297503620386,0.00145502958912402,0,
00:00:03.152,-0.0154981864616275,-8.25515744509175E-05,-0.00534768542274833,0,
00:00:03.156,-0.00585267785936594,0.0174829531461,-0.00283288024365902,0,
00:00:03.16,0.00452420022338629,0.00470603024587035,0.00297619169577956,0,
00:00:03.164,0.00790885370224714,-0.00317847798578441,0.00486235227435827,0,
00:00:03.168,-0.00089804787421599,-0.00563960475847125,0.000890358991455287,0,
00:00:03.172,-0.00586803164333105,-0.0084696039557457,-0.00650565745308995,0,
00:00:03.176,0.00560531951487064,-0.00176569342147559,0.000901265593711287,0,
00:00:03.18,0.00809077452868223,0.00798824988305569,-0.00479747075587511,0,
00:00:03.184,-0.00445116357877851,0.00957923103123903,0.00406321650370955,0,
00:00:03.188,-0.00225444114767015,0.00464313896372914,0.0124935023486614,0,
00:00:03.192,-0.0095094833523035,-0.0161795355379581,-0.00859793834388256,0,
00:00:03.196,0.00088265142403543,-0.0103411115705967,-0.00775045249611139,0,
00:00:03.2,-0.00468896282836795,0.00476079480722547,-0.00117895822040737,0,
00:00:03.204,0.00445934245362878,-0.00107906898483634,0.00556295644491911,0,
00:00:03.208,0.0197133980691433,0.00796987023204565,0.00448287930339575,0,
00:00:03.212,-0.000678306561894715,0.0130207175388932,0.00111083430238068,0,
00:00:03.216,-0.0128328828141093,0.0022184494882822,0.00267841084860265,0,
00:00:03.22,-0.0060486146248877,-0.00890751369297504,-0.0124664455652237,0,
00:00:03.224,-0.00641160039231181,-0.0173451229929924,0.00302206818014383,0,
00:00:03.228,0.00258557987399399,-0.00664802687242627,0.00411519221961498,0,
00:00:03.232,0.0244411490857601,0.0235211737453938,-0.00516762444749475,0,
00:00:03.236,0.00164301774930209,0.00651072710752487,0.00244777882471681,0,
00:00:03.24,-0.015948886051774,-0.00384116778150201,0.00489893835037947,0,
00:00:03.244,-0.00860932376235724,-0.00680760759860277,0.00509298965334892,0,
00:00:03.248,-0.00264840922318399,-0.0111004328355193,-0.0084493039175868,0,
00:00:03.252,0.00396348023787141,-0.00160805834457278,-0.0107222283259034,0,
00:00:03.256,0.00628467695787549,0.01232994440943,0.00316565181128681,0,
00:00:03.26,0.0108624203130603,0.00589884258806705,0.00442037079483271,0,
00:00:03.264,-0.00455659069120884,-4.35516849393025E-05,0.00425044307485223,0,
00:00:03.268,-0.00626245979219675,-0.00732176331803203,0.00860561337321997,0,
00:00:03.272,-0.000915665586944669,-0.00154687580652535,-0.00999246910214424,0,
00:00:03.276,-0.00156450609210879,0.0032783264759928,0.00378945842385292,0,
00:00:03.28,0.00871220882982016,0.0100685553625226,-0.00294828927144408,0,
00:00:03.284,-0.00614941725507379,-0.00641759764403105,-0.00328831328079104,0,
00:00:03.288,-0.00276087550446391,-0.0123148709535599,-0.00325214839540422,0,
00:00:03.292,-0.00183711794670671,-0.00388375227339566,0.00281616626307368,0,
00:00:03.296,0.00574191799387336,0.00422711577266455,0.00127058604266495,0,
00:00:03.3,-0.000735626264940947,0.00909704808145761,0.0077589638531208,0,
00:00:03.304,-0.000701436423696578,0.00320439436472952,-0.00249701738357544,0,
00:00:03.308,0.00672844704240561,0.00815839227288961,-0.00840300507843494,0,
00:00:03.312,-0.0028635102789849,-0.00546251237392426,0.00159302935935557,0,
00:00:03.316,-0.00625524250790477,-0.0145271541550756,-0.000842023291625082,0,
00:00:03.32,-0.000106483363197185,-0.00543195707723498,0.0140045061707497,0,
00:00:03.324,0.00402460526674986,0.0123565010726452,-0.000621928309556097,0,
00:00:03.328,-0.000228742661420256,-0.000241183763137087,-0.0154811795800924,0,
00:00:03.332,-0.00506485812366009,-0.00275572203099728,-0.00496708881109953,0,
00:00:03.336,0.00358839915134013,0.0134860277175903,0.00562881212681532,0,
00:00:03.34,0.00766678247600794,0.00389919709414244,0.00241980468854308,0,
00:00:03.344,-0.00521619012579322,-0.0168999265879393,0.00727223372086883,0,
00:00:03.348,-0.00887605827301741,0.000252372672548518,0.00511902384459972,0,
00:00:03.352,0.00733060669153929,-0.0106733394786716,-0.00175596715416759,0,
00:00:03.356,0.00966661237180233,0.00545093975961208,-0.00765361450612545,0,
00:00:03.36,-0.0082615977153182,0.00418562302365899,-0.00524423504248261,0,
00:00:03.364,-0.00498869968578219,0.0129834460094571,-0.00284552201628685,0,
00:00:03.368,-0.000859169056639075,-0.000352647330146283,0.00430007604882121,0,
00:00:03.372,-0.000308913120534271,-0.00754741253331304,0.000574730802327394,0,
00:00:03.376,0.00436150375753641,0.00310014141723514,0.0104035912081599,0,
00:00:03.38,0.0011845821281895,-0.00871970411390066,-0.00299375434406102,0,
00:00:03.384,0.00464386632665992,-0.00036923578591086,-0.00257654231972992,0,
00:00:03.388,-0.00167066010180861,4.09891981689725E-05,-2.53682856055093E-06,0,
00:00:03.392,-0.00747108086943626,-0.000239519227761775,-0.00104792311321944,0,
00:00:03.396,0.0037055138964206,0.00236896867863834,-0.00583943864330649,0,
00:00:03.4,0.00490132765844464,0.00122285971883684,0.000684768485371023,0,
00:00:03.404,-0.0044863666407764,0.00625208020210266,0.00303494860418141,0,
00:00:03.408,-0.0060307877138257,0.00413648085668683,0.000524557428434491,0,
00:00:03.412,-0.0048950188793242,-0.00239697843790054,0.0050926273688674,0,
00:00:03.416,0.0114552238956094,-0.00779761979356408,-0.00485615478828549,0,
00:00:03.42,0.0138219781219959,-0.00291727506555617,-0.000634042080491781,0,
00:00:03.424,-0.00412423722445965,-0.00441327365115285,0.00948505010455847,0,
00:00:03.428,-0.0201460253447294,-0.00322532653808594,-0.00463115097954869,0,
00:00:03.432,-0.00360681861639023,0.00856888480484486,-0.00813047587871552,0,
00:00:03.436,0.00806317571550608,0.0162722896784544,-0.00477142445743084,0,
00:00:03.44,0.00793958269059658,-0.000998694566078484,0.00863135699182749,0,
00:00:03.444,0.00331926322542131,2.2919772163732E-05,0.00411035353317857,0,
00:00:03.448,-0.00311572826467454,-0.0280255358666182,-0.00183708930853754,0,
00:00:03.452,-0.00319357123225927,-0.00640346901491284,0.00227568880654871,0,
00:00:03.456,0.000748443300835788,0.0241191834211349,-0.00233012321405113,0,
00:00:03.46,-0.00583887239918113,0.00813141278922558,-0.00263989088125527,0,
00:00:03.464,0.003254733979702,-0.00625235075131059,-0.00324501236900687,0,
00:00:03.468,0.0246544182300568,-0.00391701608896255,0.00231954012997448,0,
00:00:03.472,-0.0162057187408209,-0.00577647425234318,0.00481766788288951,0,
00:00:03.476,-0.0233938712626696,0.00187364360317588,-0.00697391340509057,0,
00:00:03.48,0.000789592741057277,0.0122354747727513,0.00191734393592924,0,
00:00:03.484,0.0100953606888652,-0.00107373448554426,0.00570557080209255,0,
00:00:03.488,0.0051304860971868,-0.014204771257937,0.00621642312034965,0,
00:00:03.492,0.00391722051426768,-0.00118635199032724,-0.00158355222083628,0,
00:00:03.496,0.0167487002909184,0.0150533802807331,-0.0187843907624483,0,
00:00:03.5,-0.00966161210089922,-0.00908941682428122,0.00176385557278991,0,
00:00:03.504,-0.0171122141182423,0.00441714702174068,0.0153944799676538,0,
00:00:03.508,-0.00466892216354609,0.000359368568751961,-0.00488582486286759,0,
00:00:03.512,0.0038850016426295,-0.0102661335840821,-0.00752264074981213,0,
00:00:03.516,0.0148190390318632,0.00164409575518221,0.00540229538455606,0,
00:00:03.52,0.00104230258148164,0.0136721888557076,0.000389086519135162,0,
00:00:03.524,-0.0111249601468444,-0.00178400450386107,0.00221072533167899,0,
00:00:03.528,-0.00324568198993802,-0.00959109142422676,0.000726264202967286,0,
00:00:03.532,0.00440239300951362,-0.00380363711155951,-0.00299094803631306,0,
00:00:03.536,0.00407804502174258,0.00667714420706034,0.00459315907210112,0,
00:00:03.54,0.00124635337851942,0.011337598785758,-0.00556336203590035,0,
00:00:03.544,-0.00108585855923593,-0.00324182398617268,-0.00153365125879645,0,
00:00:03.548,-0.0039844480343163,-0.0155692948028445,0.000713819696102291,0,
00:00:03.552,-0.00572360772639513,0.00697978073731065,0.0014047937002033,0,
00:00:03.556,0.0153583502396941,-0.0046482034958899,0.00109546701423824,0,
00:00:03.56,0.00166298297699541,0.00530804879963398,0.00456865364685655,0,
00:00:03.564,-0.0143035901710391,0.00203605135902762,-0.00618449738249183,0,
00:00:03.568,-0.00506112491711974,-0.00185857410542667,0.000347177498042583,0,
00:00:03.572,0.0111041916534305,0.00343558448366821,-0.00522567797452211,0,
00:00:03.576,-0.00217698467895389,-0.00317580997943878,0.0018977380823344,0,
00:00:03.58,-0.00207802816294134,-0.00210057571530342,0.00421902164816856,0,
00:00:03.584,0.000804614624939859,0.00863079074770212,0.00723983952775598,0,
00:00:03.588,0.00438566319644451,-0.00629856251180172,-0.0032221747096628,0,
00:00:03.592,0.00201081763952971,-0.00718981353566051,-0.000277044629910961,0,
00:00:03.596,-0.000979524105787277,0.00597848650068045,-0.00405422458425164,0,
00:00:03.6,-0.000308601505821571,0.00696896202862263,-0.00504156248643994,0,
00:00:03.604,-0.00613534729927778,-0.00360788288526237,-0.000576791411731392,0,
00:00:03.608,-0.002651542192325,-0.00837379787117243,0.000816715182736516,0,
00:00:03.612,-0.00254700821824372,0.000384985003620386,0.0159306656569242,0,
00:00:03.616,0.0156641900539398,0.00416759354993701,-0.0060233878903091,0,
00:00:03.62,0.0106013659387827,0.00590247148647904,-0.00982746668159962,0,
00:00:03.624,-0.0233084801584482,0.00374289485625923,0.00332050025463104,0,
00:00:03.628,-0.00486002024263144,-0.00622130418196321,-0.00266671623103321,0,
00:00:03.632,0.00391798838973045,-0.00103730044793338,0.00643498171120882,0,
00:00:03.636,0.00357055990025401,0.00110595766454935,0.00537884514778852,0,
00:00:03.64,0.00351598463021219,-0.00948786176741123,-0.00335764908231795,0,
00:00:03.644,0.00640726136043668,0.00759669439867139,-0.00724677043035626,0,
00:00:03.648,-0.0014521621633321,-0.00125068193301558,-0.00737469736486673,0,
00:00:03.652,-0.00626719137653708,-0.00751645117998123,0.00528415571898222,0,
00:00:03.656,0.0026903182733804,0.00447905343025923,0.0108755053952336,0,
00:00:03.66,-0.0056840842589736,0.00858496222645044,-0.00472562992945313,0,
00:00:03.664,-0.0026286996435374,0.00777101563289762,0.00238047237507999,0,
00:00:03.668,0.00801453087478876,-0.0016265285667032,-0.00351600465364754,0,
00:00:03.672,-0.00222531077452004,-0.0156684666872025,-0.00426142290234566,0,
00:00:03.676,0.000130119369714521,-0.00131603179033846,0.00023150046763476,0,
00:00:03.68,-0.00147255905903876,-0.00104310864116997,0.00940986815840006,0,
00:00:03.684,-0.00397678650915623,0.000696376548148692,0.00975009519606829,0,
00:00:03.688,0.00118828983977437,0.0126842763274908,-0.00907131284475327,0,
00:00:03.692,0.0210438333451748,0.00122337823268026,-0.0188281442970037,0,
00:00:03.696,0.00686311908066273,-0.00356728723272681,0.00321172224357724,0,
00:00:03.7,-0.0294737629592419,-0.00387898785993457,0.0079652676358819,0,
00:00:03.704,-0.0151896411553025,-0.00208857515826821,-0.00106088723987341,0,
00:00:03.708,0.00708686234429479,-0.00216202600859106,0.0068308706395328,0,
00:00:03.712,0.0123002268373966,0.00308003183454275,-0.0010779082076624,0,
00:00:03.716,0.00621516304090619,-0.00328696635551751,-0.00213747541420162,0,
00:00:03.72,0.00592507561668754,0.0110869649797678,0.00101554754655808,0,
00:00:03.724,0.00107776315417141,0.00447387062013149,0.00219834176823497,0,
00:00:03.728,-0.0137648647651076,-0.0100814364850521,-0.00720097543671727,0,
00:00:03.732,-0.00145393144339323,0.000974840950220823,0.000958772259764373,0,
00:00:03.736,-0.000396806135540828,-0.00853139907121658,0.00643404154106975,0,
00:00:03.74,-0.000743968354072422,-0.00699056638404727,-0.00904066581279039,0,
00:00:03.744,0.00403340393677354,0.0138627542182803,0.00246613030321896,0,
00:00:03.748,0.00328587298281491,0.0074827061034739,0.00585277937352657,0,
00:00:03.752,-0.00122775905765593,-0.0103994039818645,-0.00462585827335715,0,
00:00:03.756,0.00299017340876162,0.00366880837827921,0.00154694973025471,0,
00:00:03.76,-0.00202847691252828,0.00786437466740608,0.0117917517200112,0,
00:00:03.764,-0.00275259534828365,0.000229949277127162,-0.0121460594236851,0,
00:00:03.768,-0.00562841910868883,-0.0097734434530139,-0.0115657970309258,0,
00:00:03.772,0.0040142354555428,-0.0126973204314709,0.00147441308945417,0,
00:00:03.776,0.0021719925571233,0.00981781631708145,0.0091140316799283,0,
00:00:03.78,0.00546898040920496,0.00883395690470934,0.00642766337841749,0,
00:00:03.784,0.00278122071176767,-0.00655901897698641,0.0011327121173963,0,
00:00:03.788,-0.0135836955159903,-0.00374563364312053,-0.00673266546800733,0,
00:00:03.792,0.00840999279171228,0.00587543565779924,0.000406427832785994,0,
00:00:03.796,-0.00196593627333641,0.0105627877637744,0.00496941199526191,0,
00:00:03.8,-0.00975328031927347,-0.00370624964125454,-0.00428941752761602,0,
00:00:03.804,-0.00383715145289898,-0.0136527316644788,-0.00635554641485214,0,
00:00:03.808,0.0178366899490356,-0.00327010406181216,-0.00335951382294297,0,
00:00:03.812,0.00301883718930185,0.00585298892110586,0.00911647640168667,0,
00:00:03.816,-0.00140047259628773,0.00989344250410795,0.00177162874024361,0,
00:00:03.82,-0.0084978137165308,-0.00372981280088425,0.0016529243439436,0,
00:00:03.824,-0.00443529710173607,-0.00216948846355081,0.00769836083054543,0,
00:00:03.828,0.0050726025365293,-0.0051346137188375,-0.0182260200381279,0,
00:00:03.832,0.00171604682691395,0.00171156518626958,-0.00270985462702811,0,
00:00:03.836,0.000124258469440974,0.00345335016027093,0.0109898382797837,0,
00:00:03.84,-0.00458034966140985,0.0105685414746404,0.00600066874176264,0,
00:00:03.844,0.0055939769372344,-0.00137847627047449,-0.00974525138735771,0,
00:00:03.848,0.00315971206873655,-0.0135846547782421,-0.00130054575856775,0,
00:00:03.852,-0.00535500003024936,-0.00709447031840682,-0.000149372310261242,0,
00:00:03.856,-0.00765701336786151,0.0017901569372043,0.00405300594866276,0,
00:00:03.86,0.00629274128004909,0.0145889045670629,0.00261559151113033,0,
00:00:03.864,0.00785609893500805,-8.98648613656405E-06,2.31582835112931E-05,0,
00:00:03.868,0.0012922891182825,-0.00587112968787551,-0.00157901854254305,0,
00:00:03.872,-0.00589015893638134,-0.00705796759575605,-0.0038400455377996,0,
00:00:03.876,0.00125170184765011,0.00895820930600166,0.000943320745136589,0,
00:00:03.88,-0.00944454781711102,0.00807457137852907,-0.00468838261440396,0,
00:00:03.884,0.000554743106476963,0.00151882856152952,0.0128474067896605,0,
00:00:03.888,0.00160414818674326,-0.0162764899432659,-0.00324450666084886,0,
00:00:03.892,-0.00113884615711868,-0.00816621538251638,-0.00919143948704004,0,
00:00:03.896,0.00884509459137917,0.00922374147921801,0.00819658394902945,0,
00:00:03.9,0.000640058657154441,0.00439266627654433,0.00457875616848469,0,
00:00:03.904,-0.00570309022441506,0.00436972640454769,-2.70814944087761E-05,0,
00:00:03.908,0.0108159286901355,0.00084981374675408,-0.0174711309373379,0,
00:00:03.912,-0.00121723674237728,-0.00200915662571788,0.00205362983979285,0,
00:00:03.916,-0.00827859435230494,-0.00491588190197945,0.00254812254570425,0,
00:00:03.92,-0.0117294806987047,0.0040991879068315,0.00852846913039684,0,
00:00:03.924,0.00752614438533783,0.00123634864576161,-0.00199798936955631,0,
00:00:03.928,0.00994468946009874,-0.0106748919934034,0.00268084579147398,0,
00:00:03.932,-0.00365415681153536,0.00046901116729714,-0.0010974631877616,0,
00:00:03.936,-0.00383738148957491,0.000291368312900886,-0.00156880368012935,0,
00:00:03.94,-0.00264334375970066,0.00782399345189333,0.00324424030259252,0,
00:00:03.944,0.0078632403165102,0.00895952247083187,0.00209583155810833,0,
00:00:03.948,0.00807525683194399,-0.0041943802498281,-0.00899242516607046,0,
00:00:03.952,-0.00988293811678886,-0.00863093044608831,-0.00500464765354991,0,
00:00:03.956,-0.00785866193473339,0.000177174981217831,0.0012959442101419,0,
00:00:03.96,0.00531179690733552,-0.00480863871052861,0.00456008035689592,0,
00:00:03.964,-0.00212355144321918,0.00230484362691641,0.00837384629994631,0,
00:00:03.968,0.00177719595376402,0.0107013080269098,0.00419992953538895,0,
00:00:03.972,0.00236362311989069,0.00351077737286687,-0.0158770587295294,0,
00:00:03.976,-0.00286837317980826,-0.00800567213445902,0.00513351988047361,0,
00:00:03.98,0.00804757140576839,-0.00649212999269366,-0.00372602371498942,0,
00:00:03.984,0.000549325544852763,-0.00551901711151004,0.0093767112120986,0,
00:00:03.988,-0.00794912036508322,0.00222884467802942,-0.00103535922244191,0,
00:00:03.992,-0.00646866811439395,0.00655333232134581,-0.00637585436925292,0,
00:00:03.996,0.0111391944810748,0.0203858073800802,-0.00332599878311157,0,
00:00:04,-0.000621594430413097,-0.00312922126613557,-0.00126640009693801,0,
00:00:04.004,-0.0050460803322494,-0.0142127182334661,0.00490664271637797,0,
00:00:04.008,-0.00377553119324148,-0.0144895212724805,0.00024146237410605,0,
00:00:04.012,0.00168262177612633,-0.00448476849123836,0.00335939368233085,0,
00:00:04.016,0.0148371113464236,0.010943035595119,0.00836677849292755,0,
00:00:04.02,0.00632156105712056,0.0129068810492754,0.000115102964628022,0,
00:00:04.024,-0.0167155712842941,0.000531033263541758,-0.0146530885249376,0,
00:00:04.028,-0.0116618936881423,-0.00315221794880927,-0.00336537440307438,0,
00:00:04.032,-0.000488082470837981,-0.0029287226498127,0.000400531687773764,0,
00:00:04.036,0.00241600349545479,0.00267400359734893,0.00591732561588287,0,
00:00:04.04,0.0134547185152769,3.20270264637657E-05,0.00237653218209744,0,
00:00:04.044,0.0138856703415513,-0.00673580169677734,0.000953517854213715,0,
00:00:04.048,-0.00476162182167172,0.00315179419703782,0.0063048885203898,0,
00:00:04.052,-0.0126640638336539,-0.00222283229231834,-0.0043672164902091,0,
00:00:04.056,-0.00392657984048128,-0.0011022868566215,-0.00559445237740874,0,
00:00:04.06,-0.00895487423986197,-0.00103821291122586,-0.000684313359670341,0,
00:00:04.064,0.00244052289053798,-0.0022507575340569,0.000503161048982292,0,
00:00:04.068,0.00555695360526443,0.00503507582470775,-0.00358699448406696,0,
00:00:04.072,0.012852999381721,0.0220951698720455,0.00230585085228086,0,
00:00:04.076,0.00880314968526363,-0.00507808616384864,0.00143467308953404,0,
00:00:04.08,-0.0140682104974985,-0.0219511091709137,0.00204636924900115,0,
00:00:04.084,-0.00664489017799497,-0.00860777404159307,0.00797750055789948,0,
00:00:04.088,-0.00326308608055115,-0.000691926223225892,-0.00321523146703839,0,
00:00:04.092,0.00791809894144535,0.0124600557610393,-0.0074119889177382,0,
00:00:04.096,0.00227634375914931,0.0208771880716085,-0.00121268548537046,0,
00:00:04.1,-0.00329563627019525,0.00380182242952287,0.00344946840777993,0,
00:00:04.104,-0.00639395928010345,-0.0208233147859573,-0.00230401265434921,0,
00:00:04.108,-6.17171535850503E-05,-0.0142043167725205,0.00140913249924779,0,
00:00:04.112,0.0129230543971062,-0.000897294259630144,-0.00246603274717927,0,
00:00:04.116,0.0116373728960752,0.00960545428097248,0.00670253019779921,0,
00:00:04.12,-0.0178519114851952,0.00880483165383339,0.00514683034271002,0,
00:00:04.124,-0.010517630726099,0.00566449947655201,-0.00599274225533009,0,
00:00:04.128,5.69419717066921E-05,-0.00320697156712413,-0.0078826854005456,0,
00:00:04.132,0.0102147348225117,-0.00722597958520055,-0.00196501379832625,0,
00:00:04.136,0.00248559401370585,-0.00562240183353424,0.00305061298422515,0,
00:00:04.14,0.000162328156875446,-0.00146336201578379,0.00241361488588154,0,
00:00:04.144,0.00581528013572097,0.0228839181363583,0.0154321938753128,0,
00:00:04.148,-0.00439347745850682,-0.00577166816219687,-0.001325155608356,0,
00:00:04.152,-0.00537991104647517,-0.00870740134268999,-0.0130441961809993,0,
00:00:04.156,-0.000475386157631874,-0.00571427121758461,-0.0125220734626055,0,
00:00:04.16,-0.00564742833375931,-0.00527305249124765,0.00568438367918134,0,
00:00:04.164,0.000206933633307926,0.00197328673675656,0.00391723681241274,0,
00:00:04.168,0.0111617045477033,-0.00202525430358946,0.00400498788803816,0,
00:00:04.172,0.00774737820029259,0.0220561996102333,0.00500991195440292,0,
00:00:04.176,-0.00378220668062568,0.00963263399899006,0.00312664895318449,0,
00:00:04.18,-0.0070830094628036,-0.0144327199086547,-0.00643207458779216,0,
00:00:04.184,-0.00917804893106222,-0.0131745785474777,-0.00101101060863584,0,
00:00:04.188,-0.00143129483330995,-0.00407530227676034,-0.0029681995511055,0,
00:00:04.192,0.00270081614144146,0.00750731350854039,-0.00551085267215967,0,
00:00:04.196,0.0122988000512123,0.0103244101628661,0.00253742933273315,0,
00:00:04.2,0.00577668566256762,-0.00658691534772515,0.0131581602618098,0,
00:00:04.204,-0.000213999199331738,-0.00118793384172022,-0.000323367479722947,0,
00:00:04.208,-0.00803768448531628,-0.00396980810910463,-0.00765537843108177,0,
00:00:04.212,-0.0110940374433994,-2.52718768933846E-06,-0.00512432400137186,0,
00:00:04.216,-0.00469783786684275,0.00516846170648932,-0.000458544585853815,0,
00:00:04.22,0.00662476569414139,0.00349043752066791,-0.00160022720228881,0,
00:00:04.224,0.0187520962208509,0.000227145355893299,0.00909569300711155,0,
00:00:04.228,-0.00298974174074829,0.0001567696017446,0.005288599524647,0,
00:00:04.232,-0.00995006132870913,-0.00219831545837224,-0.00295931729488075,0,
00:00:04.236,-0.00937827490270138,-0.00714943092316389,-0.00639898516237736,0,
00:00:04.24,0.00468578655272722,-0.0022001601755619,-0.000565375667065382,0,
00:00:04.244,0.0111763598397374,0.00484444899484515,-0.000687568332068622,0,
00:00:04.248,0.00408411910757422,0.00244370382279158,0.00331887206993997,0,
00:00:04.252,0.00306161376647651,-0.000545257702469826,0.00431340560317039,0,
00:00:04.256,-0.0118048945441842,0.0129929883405566,-0.00396796548739076,0,
00:00:04.26,-0.0135655971243978,-0.00847088918089867,-0.00300607131794095,0,
00:00:04.264,-0.0021121057216078,-0.00881796702742577,0.00201269029639661,0,
00:00:04.268,0.00686715869233012,0.00362535589374602,0.00598663697019219,0,
00:00:04.272,0.0109726907685399,0.00494917947798967,-0.00572819262742996,0,
00:00:04.276,0.00581074226647615,-0.00647489260882139,-0.00625859387218952,0,
00:00:04.28,-0.000579606625251472,-0.0100775668397546,0.0125280832871795,0,
00:00:04.284,-5.66450216865633E-05,0.00713225407525897,-0.00336909829638898,0,
00:00:04.288,-0.00632575433701277,0.0108462264761329,-0.00713283289223909,0,
00:00:04.292,-0.00992042664438486,0.0020487995352596,0.000145128258736804,0,
00:00:04.296,-0.000335146876750514,-0.00264475261792541,0.0029212657827884,0,
00:00:04.3,0.00433960324153304,-0.00371938617900014,0.00265502254478633,0,
00:00:04.304,0.00465311063453555,-0.00257288059219718,0.00318677979521453,0,
00:00:04.308,0.0025828864891082,-0.00075911107705906,0.00182862626388669,0,
00:00:04.312,0.000160350595251657,0.00269758165813982,-0.00873401574790478,0,
00:00:04.316,-0.00343510415405035,-0.00290264072827995,-0.00458434270694852,0,
00:00:04.32,-0.00592355290427804,-0.00286616268567741,0.00770679302513599,0,
00:00:04.324,0.0126603180542588,0.00998878572136164,0.000549056101590395,0,
00:00:04.328,0.00714923068881035,0.00235567498020828,-0.00512755056843162,0,
00:00:04.332,-0.0170071944594383,-0.0112806698307395,0.00342240044847131,0,
00:00:04.336,-0.0103337056934834,0.00358070828951895,0.0013385855127126,0,
00:00:04.34,0.00785548146814108,0.00165398605167866,0.004809002391994,0,
00:00:04.344,0.00634461548179388,0.000111154346086551,0.00658681197091937,0,
00:00:04.348,0.00721263932064176,0.00146853632759303,-0.0113743003457785,0,
00:00:04.352,0.000217205830267631,-0.000525505107361823,-0.0152378277853131,0,
00:00:04.356,-0.0130609078332782,0.00439112214371562,0.00671114632859826,0,
00:00:04.36,-0.00158815132454038,-0.0158881153911352,0.0112870298326015,0,
00:00:04.364,0.00134039821568877,-0.00594893656671047,0.000334890646627173,0,
00:00:04.368,0.00995318032801151,0.0122786005958915,-0.00454158475622535,0,
00:00:04.372,-0.00651280442252755,0.0127194682136178,0.000103719510661904,0,
00:00:04.376,0.00279796728864312,0.00710475631058216,0.00112549227196723,0,
00:00:04.38,0.00665577640756965,-0.0130130192264915,-0.0014831927837804,0,
00:00:04.384,-0.0103807989507914,-0.0127238566055894,-0.000280327105429024,0,
00:00:04.388,0.00896418187767267,0.00386362546123564,0.00302447518333793,0,
00:00:04.392,-0.00127067894209176,0.00362514308653772,0.00125134759582579,0,
00:00:04.396,-0.0115055060014129,0.00244656298309565,0.00527190789580345,0,
00:00:04.4,-0.00454349722713232,0.00718489242717624,-0.00778440060093999,0,
00:00:04.404,0.0014060401590541,-0.00821865443140268,-0.00639239279553294,0,
00:00:04.408,0.00864056963473558,-0.0057975766249001,-0.00725145498290658,0,
00:00:04.412,0.0130697144195437,0.000257736101048067,0.0108923390507698,0,
00:00:04.416,0.0001016136011458,0.00590490316972137,0.00885725114494562,0,
00:00:04.42,-0.00483320979401469,0.00816686265170574,0.00362862064503133,0,
00:00:04.424,-0.0113779017701745,-0.00771197443827987,-0.0097817312926054,0,
00:00:04.428,-0.00566732464358211,-0.00341890752315521,-0.00669357599690557,0,
00:00:04.432,0.00140010146424174,0.00866149086505175,0.00182605592999607,0,
00:00:04.436,0.0050398726016283,-0.00382832670584321,0.0079371789470315,0,
00:00:04.44,0.000657311407849193,-0.00469630770385265,-0.00350866303779185,0,
00:00:04.444,0.00428474089130759,0.000506805838085711,-0.00496505666524172,0,
00:00:04.448,0.00924946740269661,-0.0089787170290947,0.0105648385360837,0,
00:00:04.452,-0.00154903833754361,0.00864085089415312,-0.00621743779629469,0,
00:00:04.456,-0.0190183632075787,0.0144939078018069,0.00382304540835321,0,
00:00:04.46,0.00585707183927298,-0.00162051094230264,-0.000858468818478286,0,
00:00:04.464,0.0155344223603606,-0.00961616914719343,-0.00467677181586623,0,
00:00:04.468,-0.00402248837053776,-0.0106618581339717,-0.00211296044290066,0,
00:00:04.472,-0.019384665414691,0.00930094532668591,-0.00104124762583524,0,
00:00:04.476,0.00191818061284721,-0.00183429743628949,-0.00178751593921334,0,
00:00:04.48,0.00537773268297315,-0.0030543552711606,0.0138250328600407,0,
00:00:04.484,0.00529986899346113,0.00580325024202466,0.006165511906147,0,
00:00:04.488,0.00292926165275276,0.00239815399982035,-0.00371595565229654,0,
00:00:04.492,-0.00188155216164887,0.00453039538115263,-0.0120662171393633,0,
00:00:04.496,-0.00165898818522692,0.00150292855687439,-0.0107171721756458,0,
00:00:04.5,0.00788857415318489,-0.00830475054681301,0.00277833291329443,0,
00:00:04.504,-0.00962865259498358,-0.00617161113768816,0.0123265273869038,0,
00:00:04.508,-0.00209016213193536,-0.00714584020897746,0.00503272609785199,0,
00:00:04.512,0.00738855032250285,0.0149427661672235,0.00157021346967667,0,
00:00:04.516,-0.00411877548322082,0.00267041428014636,-0.00715277064591646,0,
00:00:04.52,-0.00580628542229533,-0.00192045979201794,0.00137718429323286,0,
00:00:04.524,0.0017486676806584,-0.000370963331079111,-0.00212124665267766,0,
00:00:04.528,0.00177715171594173,-0.003328378777951,-0.00645767105743289,0,
00:00:04.532,-0.00150528980884701,-0.00798888690769672,0.00100158678833395,0,
00:00:04.536,0.0144582632929087,0.00841041561216116,-0.000350485148373991,0,
00:00:04.54,0.000336425175191835,0.00447690393775702,0.00304284645244479,0,
00:00:04.544,-0.0148970279842615,0.000322422099998221,0.0105882827192545,0,
00:00:04.548,0.00736146047711372,4.75784108857624E-05,0.00322391209192574,0,
00:00:04.552,-0.00271570798940957,-0.00640407390892506,-0.00216738623566926,0,
00:00:04.556,-0.0100636091083288,0.00513907196000218,-0.00872074626386166,0,
00:00:04.56,0.00248795840889215,-0.00259280810132623,-0.0127434274181724,0,
00:00:04.564,0.00600663246586919,-0.00941433385014534,0.000292475364403799,0,
00:00:04.568,0.000205105738132261,-0.00341723021119833,0.0133801512420177,0,
00:00:04.572,0.00715952878817916,0.0159370359033346,0.0055918637663126,0,
00:00:04.576,0.00205375673249364,0.00700506335124373,-0.00713055720552802,0,
00:00:04.58,-0.00130676804110408,-0.0039828815497458,0.00213167909532785,0,
00:00:04.584,-0.011263363994658,-0.0060648019425571,-0.00064492947421968,0,
00:00:04.588,-0.00131884205620736,-0.00378083367832005,-0.00533540081232786,0,
00:00:04.592,-0.00400751456618309,-0.0026891534216702,0.00739614106714725,0,
00:00:04.596,0.00426124082878232,0.0055372822098434,0.00135798472911119,0,
00:00:04.6,0.0103336004540324,-0.000394732516724616,-0.00662700505927205,0,
00:00:04.604,0.00620547076687217,0.00399294588714838,-0.005434675142169,0,
00:00:04.608,-0.00868648570030928,-0.000937615404836833,0.0053133349865675,0,
00:00:04.612,-0.00716774258762598,-0.00823698565363884,0.00722614163532853,0,
00:00:04.616,-0.00349216931499541,0.00671252515166998,0.00163630943279713,0,
00:00:04.62,0.0150405485183001,0.00482766563072801,-0.00508418865501881,0,
00:00:04.624,0.00163962750229985,-0.0025682095438242,-0.00432223966345191,0,
00:00:04.628,-0.0136767439544201,-0.00366387260146439,0.000839102664031088,0,
00:00:04.632,-0.000125018646940589,0.00427004229277372,-0.000741430034395307,0,
00:00:04.636,0.00140232569538057,-0.00790817849338055,-0.00162503309547901,0,
00:00:04.64,-0.00158702558837831,-0.00583435501903296,0.00133832881692797,0,
00:00:04.644,0.00624840520322323,0.010589181445539,0.00504377111792564,0,
00:00:04.648,0.00853274203836918,0.000777140608988702,0.00254130153916776,0,
00:00:04.652,-0.00583510892465711,0.00555034913122654,0.00132875167764723,0,
00:00:04.656,0.000263472116785124,-0.00384192727506161,-0.00441584829241037,0,
00:00:04.66,-0.00569329969584942,-0.00227242382243276,-0.00186530919745564,0,
00:00:04.664,-0.00538192735984921,-0.00579301360994577,-0.00536171533167362,0,
00:00:04.668,0.00043604799429886,-0.00311489496380091,0.00127716083079576,0,
00:00:04.672,0.00839197542518377,0.00509260734543204,-0.000841429515276104,0,
00:00:04.676,-0.00160482327919453,0.0119351902976632,-0.00179809250403196,0,
00:00:04.68,-0.00731475651264191,-0.00113635859452188,0.0224054455757141,0,
00:00:04.684,0.0214661695063114,-0.00538448244333267,0.00271320110186934,0,
00:00:04.688,0.00526395114138722,-0.00649598613381386,-0.0203981846570969,0,
00:00:04.692,-0.0155834499746561,0.00245307106524706,-0.00825518369674683,0,
00:00:04.696,-0.0134780276566744,0.00254677492193878,0.00530130229890347,0,
00:00:04.7,-0.00799380429089069,-0.00367491762153804,-0.00270887324586511,0,
00:00:04.704,0.00386601383797824,-0.00114039983600378,0.00167195592075586,0,
00:00:04.708,0.00999673083424568,0.00402631843462586,0.0115732103586197,0,
00:00:04.712,0.00887700729072094,0.00298553914763033,0.00120327237527817,0,
00:00:04.716,0.0100766764953732,0.0024431289639324,0.00149633444380015,0,
00:00:04.72,-0.00500200828537345,-0.00549682881683111,-0.00899792648851871,0,
00:00:04.724,-0.00656957970932126,-0.00565046072006226,-0.00101191631983966,0,
00:00:04.728,-0.00583212124183774,0.00629540998488665,0.00098133331630379,0,
00:00:04.732,-0.00716318702325225,-0.00622958736494184,-0.00128770538140088,0,
00:00:04.736,0.00196574768051505,0.00931126717478037,0.00425107451155782,0,
00:00:04.74,0.00521836476400495,0.0216860976070166,0.00367752206511796,0,
00:00:04.744,0.0022320004645735,-0.0199465285986662,-0.00766066601499915,0,
00:00:04.748,-0.000481978408060968,-0.0228749718517065,-0.00236326083540916,0,
00:00:04.752,0.00702917808666825,-0.00475668860599399,-0.000868610572069883,0,
00:00:04.756,0.00804236344993114,0.013924615457654,0.000246652110945433,0,
00:00:04.76,-0.0158253535628319,0.0199364144355059,0.00749202771112323,0,
00:00:04.764,-0.00430146884173155,-0.00627593696117401,0.00829657260328531,0,
00:00:04.768,-0.00335805700160563,-0.000688621774315834,-0.00272402190603316,0,
00:00:04.772,0.00628436263650656,0.00108022848144174,-0.00672767963260412,0,
00:00:04.776,0.00324547127820551,-0.00405475776642561,-0.0115619851276278,0,
00:00:04.78,-0.000760160619392991,0.000371219852240756,0.00416556792333722,0,
00:00:04.784,0.00405209697782993,-0.0115935085341334,1.2764291568601E-05,0,
00:00:04.788,-0.00726981461048126,-0.000761503120884299,0.00702698761597276,0,
00:00:04.792,0.00983578711748123,0.0123141705989838,0.00669765565544367,0,
00:00:04.796,-0.000556398939806968,0.00712780468165874,-0.00183707871474326,0,
00:00:04.8,-0.0109464563429356,-0.000921354163438082,-0.00437485426664352,0,
00:00:04.804,0.00178577017504722,-0.00943137053400278,-0.00541428895667195,0,
00:00:04.808,-0.00282090296968818,-0.00121201516594738,0.00295070535503328,0,
00:00:04.812,0.00319879152812064,-0.00337786017917097,0.00245611765421927,0,
00:00:04.816,0.0125108035281301,0.000509602134115994,0.00216359901241958,0,
00:00:04.82,0.00276278052479029,0.00133142189588398,-0.00952470954507589,0,
00:00:04.824,-0.0186601933091879,0.00760844629257917,-0.0012042400194332,0,
00:00:04.828,-0.00488324323669076,0.00567332189530134,0.00399049837142229,0,
00:00:04.832,0.00827330630272627,0.000658509961795062,0.00473043089732528,0,
00:00:04.836,0.00682504009455442,-0.00332232471555471,0.00472790328785777,0,
00:00:04.84,-0.00469671748578548,-0.0128842396661639,0.00632885470986366,0,
00:00:04.844,0.00153164111543447,-0.0163532644510269,-0.00917422398924828,0,
00:00:04.848,0.00565960351377726,0.0186825282871723,-0.00661463476717472,0,
00:00:04.852,-0.00202881707809865,0.00685025239363313,-0.00685351481661201,0,
00:00:04.856,-0.00445959158241749,0.0121153434738517,0.000511265825480223,0,
00:00:04.86,-0.00739908637478948,-0.00839236006140709,0.0055509340018034,0,
00:00:04.864,-0.000972208159510046,-0.019998712465167,0.0100889783352613,0,
00:00:04.868,0.00841385871171951,0.00797851011157036,0.003441974055022,0,
00:00:04.872,0.00344450701959431,0.00972634833306074,-0.00933104567229748,0,
00:00:04.876,-0.00407563243061304,0.00314069609157741,0.000392042944440618,0,
00:00:04.88,-0.0017538481624797,-0.0046800933778286,0.000671441259328276,0,
00:00:04.884,0.00550104584544897,-0.00881150085479021,-0.00710090855136514,0,
00:00:04.888,0.0129317948594689,0.00212582875974476,0.00235959235578775,0,
00:00:04.892,-0.00938728265464306,0.00612907251343131,0.00593078741803765,0,
00:00:04.896,-0.0177534725517035,0.000285467074718326,-0.00406905869022012,0,
00:00:04.9,0.00277189002372324,-0.00372849078848958,0.00220503215678036,0,
00:00:04.904,0.000267246010480449,-0.00364749017171562,0.00388620467856526,0,
00:00:04.908,0.00146931293420494,0.00503920111805201,-0.00629281951114535,0,
00:00:04.912,0.00702415173873305,0.00785791873931885,0.00919852592051029,0,
00:00:04.916,0.0136019578203559,0.000300461484584957,-0.00625721830874681,0,
00:00:04.92,-0.0109454812481999,-0.0115097425878048,-0.00820932164788246,0,
00:00:04.924,-0.00895758531987667,-0.00619042152538896,-0.0014170998474583,0,
00:00:04.928,0.0156798902899027,0.00149106897879392,0.00403408473357558,0,
00:00:04.932,0.000897224934305996,0.00333469943143427,0.00319826626218855,0,
00:00:04.936,-0.0180781334638596,0.0132112102583051,0.00739672686904669,0,
00:00:04.94,-0.00655352044850588,0.0021440067794174,0.0146797122433782,0,
00:00:04.944,0.00605445634573698,-0.0133760292083025,-0.0147945759817958,0,
00:00:04.948,0.00605733599513769,-0.000692528206855059,-0.0146116372197866,0,
00:00:04.952,0.00266117043793201,0.00862464401870966,-0.00670043658465147,0,
00:00:04.956,0.00404659425839782,-0.00841233879327774,0.00382902007550001,0,
00:00:04.96,0.0114815263077617,0.0116943437606096,0.00862376485019922,0,
00:00:04.964,-0.00340748694725335,-0.00768245896324515,0.00936980359256268,0,
00:00:04.968,-0.0190832577645779,-0.0180078968405724,-0.00111489125993103,0,
00:00:04.972,-0.0119087640196085,0.00412626098841429,0.00123292277567089,0,
00:00:04.976,0.00865115039050579,0.0153858996927738,0.00039573002140969,0,
00:00:04.98,0.00648954091593623,0.00253512314520776,0.000585233792662621,0,
00:00:04.984,0.00300926039926708,0.00321304728277028,-0.0129490224644542,0,
00:00:04.988,0.00877631176263094,0.00510451244190335,-0.00877328682690859,0,
00:00:04.992,0.00807030778378248,-0.0100345918908715,0.00420818943530321,0,
00:00:04.996,-0.0105875683948398,-0.0111697968095541,0.0124938702210784,0,
00:00:05,-0.0197017267346382,-0.00497926911339164,0.00230346550233662,0,
00:00:05.004,0.000908216112293303,0.00807656906545162,0.00276154279708862,0,
00:00:05.008,0.0101178828626871,0.00999329891055822,-0.00389465200714767,0,
00:00:05.012,0.00295566045679152,-0.000981780583970249,-0.00875527411699295,0,
00:00:05.016,0.00317902956157923,0.00108897581230849,0.00562673388049006,0,
00:00:05.02,0.000562137633096427,-0.00166016898583621,0.00555812008678913,0,
00:00:05.024,-0.00164753443095833,-0.00541467126458883,-0.00739141972735524,0,
00:00:05.028,-0.00646350206807256,-0.0112039316445589,-0.00944303255528212,0,
00:00:05.032,0.00642206240445375,0.00426222803071141,0.00410565547645092,0,
00:00:05.036,0.00293838721700013,0.0191205851733685,0.00683212652802467,0,
00:00:05.04,-0.0127252200618386,0.000429423409514129,0.00416941707953811,0,
00:00:05.044,-0.000692800444085151,0.00576214771717787,-0.00166258541867137,0,
00:00:05.048,0.0151683315634727,-0.0223312322050333,-0.00212815101258457,0,
00:00:05.052,-0.00290628639049828,-0.01079470384866,0.00521705206483603,0,
00:00:05.056,-0.00369552848860621,0.000635937612969428,-0.00177418335806578,0,
00:00:05.06,-0.00893962662667036,0.0112556889653206,-0.00431024096906185,0,
00:00:05.064,-0.0012464274186641,0.00807610061019659,-0.00950226373970509,0,
00:00:05.068,0.00725131435319781,0.0101861944422126,0.00300521240569651,0,
00:00:05.072,0.016868457198143,0.0105625055730343,0.00598765816539526,0,
00:00:05.076,-0.00350954220630229,-0.0234243981540203,-0.000137245166115463,0,
00:00:05.08,-0.0158129241317511,-0.0148625131696463,0.00889978837221861,0,
00:00:05.084,-0.00330469245091081,0.000939606223255396,-0.00213704654015601,0,
00:00:05.088,0.000781206181272864,0.00750340474769473,-0.0050586243160069,0,
00:00:05.092,0.00407934794202447,0.00717067904770374,-0.00359601574018598,0,
00:00:05.096,0.00848961528390646,0.00356101198121905,-0.000893199990969151,0,
00:00:05.1,-0.0015314674237743,-0.00431681936606765,-0.00303475838154554,0,
00:00:05.104,-0.00530522782355547,-0.00247547938488424,0.0078116157092154,0,
00:00:05.108,0.0167408958077431,0.00264615495689213,0.00268328003585339,0,
00:00:05.112,-0.00807185657322407,0.0144362254068255,-0.00492046400904655,0,
00:00:05.116,-0.0201801564544439,-0.00573195097967982,0.00186955858953297,0,
00:00:05.12,-0.00644561648368835,-0.0193270649760962,-0.00264333793893456,0,
00:00:05.124,0.0112925982102752,-0.00355494394898415,0.00354500906541944,0,
00:00:05.128,0.0140489526093006,0.00739804236218333,0.00593766896054149,0,
00:00:05.132,0.00144172762520611,0.00110673613380641,-0.00498401373624802,0,
00:00:05.136,-0.000782709161285311,0.00916269514709711,-0.00349284987896681,0,
00:00:05.14,-0.00513210473582149,0.0022292910143733,-0.00209931004792452,0,
00:00:05.144,-0.00771712651476264,-0.00826591812074184,-0.00462448364123702,0,
00:00:05.148,0.00529692368581891,0.000516242114827037,0.00269596232101321,0,
00:00:05.152,0.0211509894579649,0.0126676950603724,0.00040238126530312,0,
00:00:05.156,-0.0174597669392824,-0.00459708413109183,0.00704736821353436,0,
00:00:05.16,-0.0176648702472448,-0.0146491946652532,0.00810995791107416,0,
00:00:05.164,-0.00478184316307306,-0.00339364097453654,-0.00678641069680452,0,
00:00:05.168,0.00629340345039964,0.00438522733747959,-0.00677065923810005,0,
00:00:05.172,0.0288579408079386,0.00645204773172736,-0.000103875965578482,0,
00:00:05.176,0.0108177196234465,0.0127165103331208,0.00172787986230105,0,
00:00:05.18,-0.0192099548876286,-0.0047903792001307,-0.00067329773446545,0,
00:00:05.184,-0.0126132490113378,-0.00800498574972153,0.000400284101488069,0,
00:00:05.188,-0.00862569268792868,-0.0088531244546175,0.00550143141299486,0,
00:00:05.192,0.00156163214705884,0.00364074879325926,-0.000601376406848431,0,
00:00:05.196,0.00967020727694035,0.00982750952243805,-0.000583555782213807,0,
00:00:05.2,0.00976826809346676,-0.00282669416628778,-0.00413903594017029,0,
00:00:05.204,-0.00167079840321094,-0.00742122065275908,-0.000295449135592207,0,
00:00:05.208,0.000477669265819713,0.00966927502304316,-0.00581406708806753,0,
00:00:05.212,-0.00618082797154784,0.011286960914731,0.00415496295318007,0,
00:00:05.216,-0.00367945362813771,-0.0146534768864512,0.00707845250144601,0,
00:00:05.22,0.00859210547059774,-0.0090489350259304,-0.00181489926762879,0,
00:00:05.224,-0.00543159525841475,-0.0047469143755734,-0.00443489383906126,0,
00:00:05.228,-0.00618234695866704,0.00436980044469237,0.00340113788843155,0,
00:00:05.232,0.00869882665574551,0.0125432088971138,0.00863129273056984,0,
00:00:05.236,0.00306608038954437,0.0088952649384737,-0.00842116121202707,0,
00:00:05.24,-0.00555979134514928,0.0012390777701512,-0.00291654141619802,0,
00:00:05.244,-0.00733952643349767,-0.0149850621819496,-0.00699222879484296,0,
00:00:05.248,0.00268659181892872,-0.00898710917681456,0.00200518872588873,0,
00:00:05.252,0.0142670897766948,0.00898829288780689,0.0116609325632453,0,
00:00:05.256,0.01096276845783,0.00439380900934339,0.000575660145841539,0,
00:00:05.26,-0.0152827324345708,-0.0022339834831655,-0.00535339815542102,0,
00:00:05.264,-0.017853194847703,-0.00237652682699263,-0.00109040108509362,0,
00:00:05.268,0.00242769275791943,-0.000575019104871899,-0.00798931997269392,0,
00:00:05.272,0.00369542604312301,0.000872648786753416,0.0125151854008436,0,
00:00:05.276,0.00774802919477224,-0.000794505758676678,0.00698994565755129,0,
00:00:05.28,0.00916372705250978,0.00285567110404372,-0.00446079950779676,0,
00:00:05.284,-0.00330640724860132,0.00184402626473457,-0.00909126084297895,0,
00:00:05.288,-0.00769579876214266,0.00400853576138616,-0.004509671125561,0,
00:00:05.292,-0.00560032110661268,-0.00530090369284153,-0.00105574342887849,0,
00:00:05.296,0.00513593107461929,-0.00887128617614508,0.00584464380517602,0,
00:00:05.3,0.00902155693620443,0.000712185981683433,0.00535784894600511,0,
00:00:05.304,-0.00265122018754482,0.00689502153545618,-2.18097302422393E-05,0,
00:00:05.308,-0.00691160885617137,0.00656881090253592,-0.00312480051070452,0,
00:00:05.312,-0.00911954138427973,0.00248178746551275,0.00536503223702312,0,
00:00:05.316,0.011544693261385,-0.0120924012735486,0.00356764835305512,0,
00:00:05.32,0.014627730473876,-0.00642715720459819,-0.00916694384068251,0,
00:00:05.324,-0.00375219108536839,0.00810734089463949,-0.00620861537754536,0,
00:00:05.328,-0.0202416572719812,0.00827720016241074,0.00417507067322731,0,
00:00:05.332,0.000282290071481839,-0.00348931760527194,0.00196585804224014,0,
00:00:05.336,0.00601184368133545,-0.0110509302467108,-0.00108615099452436,0,
00:00:05.34,0.00060248066438362,0.0120323169976473,0.0044660815037787,0,
00:00:05.344,0.00135102088097483,-0.0024111233651638,-0.00239331321790814,0,
00:00:05.348,0.00217295973561704,-0.00830195937305689,-0.00800939090549946,0,
00:00:05.352,0.0120214503258467,0.00453218119218946,0.0103210611268878,0,
00:00:05.356,-0.00746060907840729,0.00242112553678453,0.0189020112156868,0,
00:00:05.36,-0.0130673246458173,-0.0033388331066817,-0.0194545909762383,0,
00:00:05.364,-0.00183049112092704,0.0016440445324406,-0.0157151315361261,0,
00:00:05.368,0.00874561071395874,0.00666309287771583,0.00461631780490279,0,
00:00:05.372,0.00789229851216078,-0.00476526375859976,0.010309967212379,0,
00:00:05.376,-0.00587987154722214,0.00252647418528795,-0.00126929685939103,0,
00:00:05.38,-0.004965805914253,0.00649411417543888,-0.00137694098521024,0,
00:00:05.384,0.00152959348633885,-0.0146386679261923,0.000748965481761843,0,
00:00:05.388,0.00456347223371267,-0.0123570933938026,0.00379521516151726,0,
00:00:05.392,-0.000732129730749875,0.0147007675841451,0.00133287394419312,0,
00:00:05.396,-0.00597813306376338,0.0218810494989157,-0.00141660345252603,0,
00:00:05.4,0.00285097351297736,-0.0211323853582144,-0.00456150807440281,0,
00:00:05.404,0.0156765915453434,-0.0123361805453897,-0.00203999318182468,0,
00:00:05.408,-0.0130084129050374,0.0101547390222549,0.000862907734699547,0,
00:00:05.412,-0.010985772125423,0.0137264812365174,0.00421801907941699,0,
00:00:05.416,-0.00118437642231584,-0.00575831113383174,-0.000171971551026218,0,
00:00:05.42,0.00556475995108485,-0.00674882298335433,0.0115048689767718,0,
00:00:05.424,0.00254588341340423,-0.00627039466053247,-0.00821829028427601,0,
00:00:05.428,0.0141678107902408,0.00987883564084768,-0.0138044394552708,0,
00:00:05.432,0.00808455236256123,0.0106559498235583,-0.00619187857955694,0,
00:00:05.436,-0.0228049457073212,-0.00868774112313986,0.0130992373451591,0,
00:00:05.44,-0.00311039364896715,-0.00395725714042783,0.00360821094363928,0,
00:00:05.444,0.00480230106040835,-0.00997763779014349,0.000995856942608953,0,
00:00:05.448,0.000809165241662413,-0.000592743803281337,0.000231736252317205,0,
00:00:05.452,-0.0045422650873661,0.0214375294744968,0.00181460415478796,0,
00:00:05.456,-0.0024760109372437,0.00450594816356897,0.00151850434485823,0,
00:00:05.46,0.0074463440105319,-0.0107212802395225,-0.00640877103433013,0,
00:00:05.464,0.00577383441850543,-0.0154845528304577,-0.00415625097230077,0,
00:00:05.468,0.000924882013350725,-0.00296633620746434,-0.00406399043276906,0,
00:00:05.472,-0.00258728163316846,0.0134608959779143,0.0148736294358969,0,
00:00:05.476,-0.00761763006448746,0.0264842007309198,0.00440726336091757,0,
00:00:05.48,0.00573090510442853,-0.0164911039173603,-0.010619854554534,0,
00:00:05.484,0.00494099827483296,-0.0197410695254803,-0.013546459376812,0,
00:00:05.488,-0.0122809670865536,-0.00149356597103179,0.0140586458146572,0,
00:00:05.492,0.000291572010610253,0.00652974704280496,0.00541776604950428,0,
00:00:05.496,0.00349397072568536,0.00700324773788452,-0.00323835178278387,0,
00:00:05.5,-0.00571551639586687,0.00374991470016539,-0.00382793275639415,0,
00:00:05.504,0.00861188396811485,-0.00406292546540499,0.000511056161485612,0,
00:00:05.508,0.00595336547121406,-0.00438189646229148,-0.0034532742574811,0,
00:00:05.512,-0.00237119873054326,0.0129737546667457,0.0018710542935878,0,
00:00:05.516,-0.00833106879144907,0.0039879628457129,0.000717885792255402,0,
00:00:05.52,0.00120495166629553,-0.0103163970634341,0.00148249603807926,0,
00:00:05.524,0.00479409750550985,-0.0156730525195599,0.00363326328806579,0,
00:00:05.528,0.00347040197812021,-0.00338894268497825,0.00295145972631872,0,
00:00:05.532,-0.0100600030273199,0.0112516330555081,-0.00580784492194653,0,
00:00:05.536,-0.00264837313443422,0.0100816208869219,-0.00430622324347496,0,
00:00:05.54,0.00896020885556936,0.00764336064457893,0.00163109018467367,0,
00:00:05.544,-0.0017027921276167,-0.00404047733172774,0.00426353653892875,0,
00:00:05.548,0.00209531956352293,-0.0138715067878366,-0.0031026320066303,0,
00:00:05.552,-0.00181845342740417,-0.00178925460204482,9.00198574527167E-05,0,
00:00:05.556,-0.00386892049573362,0.00318486825563014,0.00279261847026646,0,
00:00:05.56,0.00351515109650791,-0.00257805734872818,-0.00158602045848966,0,
00:00:05.564,-0.00190306326840073,0.0100377006456256,0.000389910390367731,0,
00:00:05.568,0.00344611634500325,0.0114307450130582,-0.00863745715469122,0,
00:00:05.572,-0.00278234039433301,-0.0141154145821929,0.000738044152967632,0,
00:00:05.576,-0.001543570891954,-0.00440950877964497,0.0200098622590303,0,
00:00:05.58,0.00698538823053241,-0.00239788554608822,-0.00246911263093352,0,
00:00:05.584,-0.00416105985641479,-0.00103700091131032,-0.0152873769402504,0,
00:00:05.588,-0.00147265451960266,0.00277653569355607,-0.00290455808863044,0,
00:00:05.592,0.00408876920118928,0.010453381575644,0.00310908444225788,0,
00:00:05.596,-0.00969413295388222,-0.00703034549951553,8.18857879494317E-05,0,
00:00:05.6,0.00106853689067066,-0.00228386814706028,0.00663655670359731,0,
00:00:05.604,0.0130575392395258,0.0181594360619783,0.00380394118838012,0,
00:00:05.608,4.92527178721502E-05,-0.0132161807268858,0.00145086238626391,0,
00:00:05.612,-0.00730524491518736,-0.00533291697502136,-0.00507952040061355,0,
00:00:05.616,-0.00497870426625013,-0.00320983678102493,-0.00267147249542177,0,
00:00:05.62,-0.000500326103065163,0.000893860240466893,-0.00586143601685762,0,
00:00:05.624,0.000346659362548962,-0.00299268122762442,-0.00294860731810331,0,
00:00:05.628,-0.00337776937521994,0.00702048512175679,0.00540998438373208,0,
00:00:05.632,0.00516132637858391,0.0106357708573341,0.00812648795545101,0,
00:00:05.636,0.03166114538908,0.00639673275873065,0.011374294757843,0,
00:00:05.64,-0.0096134701743722,-0.0172048285603523,-0.00988051667809486,0,
00:00:05.644,-0.0320064201951027,-0.00641382671892643,-0.014784318394959,0,
00:00:05.648,-0.00300473952665925,0.00969941169023514,-0.000105166385765187,0,
00:00:05.652,0.00789047125726938,-0.00545653142035007,0.00533075723797083,0,
00:00:05.656,0.00414703181013465,0.00349399819970131,0.00499798124656081,0,
00:00:05.66,0.00620470056310296,0.00488283624872565,-0.00186730944551528,0,
00:00:05.664,0.00333810178562999,-0.00405563227832317,0.00153354811482131,0,
00:00:05.668,-0.00030841730767861,-0.0138483121991158,0.00771337980404496,0,
00:00:05.672,-0.00247110659256577,0.0198272671550512,-0.0015982937766239,0,
00:00:05.676,-0.000623158703092486,0.00418159551918507,-0.00980719272047281,0,
00:00:05.68,-0.00778500828891993,-0.0133440848439932,-0.00923619139939547,0,
00:00:05.684,-0.00216146791353822,-0.00731945689767599,0.0114075671881437,0,
00:00:05.688,0.0139001505449414,0.00609322544187307,0.00593007355928421,0,
00:00:05.692,0.00153535604476929,0.00666750269010663,-0.0023438292555511,0,
00:00:05.696,-0.00444014742970467,0.000541165936738253,-0.00350526766851544,0,
00:00:05.7,-0.0132169956341386,-0.00751595525071025,-0.00387713103555143,0,
00:00:05.704,0.0033086952753365,0.0129315638914704,-0.00410072645172477,0,
00:00:05.708,0.0108378231525421,0.00874048005789518,0.0129131525754929,0,
00:00:05.712,0.000122070530778728,-0.0180926006287336,0.00859827175736427,0,
00:00:05.716,-0.00292694079689682,-0.0109143061563373,-0.0109444139525294,0,
00:00:05.72,-0.0044034430757165,-0.00258007156662643,-0.00685310270637274,0,
00:00:05.724,0.00334230740554631,0.00573681900277734,-0.00545961735770106,0,
00:00:05.728,0.00434721494093537,0.0103458678349853,0.00627337954938412,0,
00:00:05.732,-0.00653834966942668,0.00589332496747375,0.00445437151938677,0,
00:00:05.736,-0.00367429782636464,0.00199700868688524,0.00457958970218897,0,
00:00:05.74,0.00124980334658176,-0.00565132685005665,0.000576940481550992,0,
00:00:05.744,0.00779060972854495,-0.00577804958447814,-0.000442065269453451,0,
00:00:05.748,-0.000812246871646494,-0.0068680327385664,-0.00312298559583724,0,
00:00:05.752,-0.00417180638760328,0.00226759281940758,-0.00573454098775983,0,
00:00:05.756,0.00926048774272203,0.00936600472778082,-0.00434081722050905,0,
00:00:05.76,-0.0040696170181036,0.00832011178135872,0.00136053049936891,0,
00:00:05.764,-0.00779144885018468,-0.018286457285285,0.00670606130734086,0,
00:00:05.768,-0.00482104020193219,-8.48514391691424E-05,0.00236221682280302,0,
00:00:05.772,0.0104500260204077,0.0242521334439516,0.00242688017897308,0,
00:00:05.776,-0.000184706354048103,-0.0112365856766701,0.0036126677878201,0,
00:00:05.78,0.00253810733556747,-0.0196754597127438,-0.00648328848183155,0,
00:00:05.784,0.0060474737547338,-0.00269649690017104,-0.0121189272031188,0,
00:00:05.788,-0.0124896438792348,0.010425878688693,0.00622984161600471,0,
00:00:05.792,-0.00772649701684713,0.0186348017305136,0.0108511205762625,0,
00:00:05.796,0.00327077647671103,-0.00130756758153439,-0.00410260166972876,0,
00:00:05.8,0.00205854093655944,-0.00772922625765204,-0.0094642024487257,0,
00:00:05.804,0.00832222029566765,-0.00644386140629649,-0.00208453042432666,0,
00:00:05.808,0.00645352061837912,-0.00244093197397888,0.0126737290993333,0,
00:00:05.812,-0.000928399909753352,-0.00108303572051227,-0.00197423598729074,0,
00:00:05.816,-0.0116987247020006,0.000328823254676536,0.00128984416369349,0,
00:00:05.82,-0.00376961869187653,0.00575848901644349,0.00401447620242834,0,
00:00:05.824,0.00602131523191929,0.00858827214688063,-0.00566911045461893,0,
00:00:05.828,0.00194244342856109,0.00323461066000164,-0.0052825091406703,0,
00:00:05.832,0.00185881496872753,-0.00472962437197566,-0.0036354789044708,0,
00:00:05.836,0.00128616695292294,-0.0138356331735849,0.00354532501660287,0,
00:00:05.84,-0.00836512632668018,-0.00577522907406092,0.00226814509369433,0,
00:00:05.844,-0.00169905927032232,0.00537417875602841,0.00427050841972232,0,
00:00:05.848,0.00230910535901785,0.00521508231759071,-0.0004801421018783,0,
00:00:05.852,0.00322046945802867,0.00639069871976972,0.000762074254453182,0,
00:00:05.856,4.02502300858032E-05,0.00637529045343399,-0.000739245966542512,0,
00:00:05.86,-0.005894276779145,-0.0140203917399049,-0.0059316516853869,0,
00:00:05.864,0.0149771803990006,0.00951955374330282,0.00440113013610244,0,
00:00:05.868,0.0100058978423476,-0.00450116489082575,0.000579298299271613,0,
00:00:05.872,-0.0220848452299833,-0.00535028148442507,0.00306733581237495,0,
00:00:05.876,-0.0138082606717944,-0.00375351379625499,-0.00508958334103227,0,
00:00:05.88,0.01409603189677,-0.000534259888809174,-0.00374645087867975,0,
00:00:05.884,0.00664752768352628,0.0105283549055457,-0.000128125146147795,0,
00:00:05.888,-0.00363485561683774,0.00371161242946982,-0.0019000539323315,0,
00:00:05.892,-0.00268980115652084,0.000742792908567935,0.00861320458352566,0,
00:00:05.896,0.00452996697276831,-0.00530942343175411,0.00285380380228162,0,
00:00:05.9,-0.00194088858552277,-0.00449878862127662,-0.00110886734910309,0,
00:00:05.904,0.000585556903388351,-0.00557137373834848,0.00153780356049538,0,
00:00:05.908,-0.00378190469928086,0.000924433930777013,-0.010315177962184,0,
00:00:05.912,0.00774157699197531,0.0176371186971664,-0.000295916688628495,0,
00:00:05.916,0.00277920672670007,-0.000478383502922952,0.00105942867230624,0,
00:00:05.92,-0.00952585320919752,-0.0195520780980587,0.00482053635641932,0,
00:00:05.924,-0.00769719062373042,0.00356987887062132,0.000746775127481669,0,
00:00:05.928,0.00708440039306879,0.0198686867952347,0.00597388157621026,0,
00:00:05.932,0.0104899499565363,-0.0101722870022058,-0.00418827636167407,0,
00:00:05.936,-0.0108590656891465,-0.00639572041109204,-0.00510185956954956,0,
00:00:05.94,-0.00802206713706255,-0.00627495627850294,-0.00646396772935987,0,
00:00:05.944,0.0149941490963101,-0.0054222303442657,0.00454673264175653,0,
00:00:05.948,0.0169289577752352,0.0154675021767616,0.00324790412560105,0,
00:00:05.952,-0.0185434743762016,0.0106174172833562,0.00634771306067705,0,
00:00:05.956,-0.0127841206267476,-0.00392809929326177,-0.00310105411335826,0,
00:00:05.96,0.00263139209710062,-0.00648179138079286,-0.00572183867916465,0,
00:00:05.964,0.0059700277633965,0.00230394909158349,0.00683303084224463,0,
00:00:05.968,-0.00433003529906273,-0.0044203819707036,0.0046666469424963,0,
00:00:05.972,0.00671077333390713,-0.00332196825183928,-0.0112460497766733,0,
00:00:05.976,0.00321241817437112,-0.00431019766256213,-0.00684940349310637,0,
00:00:05.98,0.00457682413980365,0.00805775728076696,-0.000944777159020305,0,
00:00:05.984,-0.0010993821779266,0.0078963078558445,0.00956911034882069,0,
00:00:05.988,-0.00697587337344885,-0.00782827567309141,0.00708413543179631,0,
00:00:05.992,-0.00495488150045276,0.00120293255895376,0.00120111997239292,0,
00:00:05.996,-0.00291593023575842,-0.00498571572825313,0.0032519125379622,0,
00:00:06,-0.00216058269143105,-0.000911187380552292,-0.012025959789753,0,
00:00:06.004,0.00628960225731134,0.0134397642686963,-0.00570692354813218,0,
00:00:06.008,0.0173096228390932,0.00231515243649483,0.000390790752135217,0,
00:00:06.012,0.00803583208471537,-0.00968834757804871,0.00147361715789884,0,
00:00:06.016,-0.0185174364596605,-0.0155495628714561,0.00356861879117787,0,
00:00:06.02,-0.0192579813301563,0.0109432842582464,0.00150155590381473,0,
00:00:06.024,-0.00133459246717393,0.0120330210775137,0.00798360630869865,0,
00:00:06.028,0.0171883571892977,-0.00847341772168875,0.0037315390072763,0,
00:00:06.032,0.00635473290458322,-0.00399975199252367,-0.010507027618587,0,
00:00:06.036,-0.00884548388421535,0.005008346401155,-0.00574003159999847,0,
00:00:06.04,0.00248351879417896,0.00318395998328924,-0.00506819970905781,0,
00:00:06.044,0.001253955764696,-0.00264029367826879,0.0060082022100687,0,
00:00:06.048,0.000615530821960419,-0.00475133582949638,0.00815515220165253,0,
00:00:06.052,0.00205931649543345,-0.000962222460657358,-0.00379789900034666,0,
00:00:06.056,0.0037387318443507,0.00429479358717799,0.00125082151498646,0,
00:00:06.06,-0.00412104604765773,0.000972341920714825,0.00476794643327594,0,
00:00:06.064,-0.0096456753090024,-0.00396979181095958,-0.00280995154753327,0,
00:00:06.068,-0.00328656891360879,0.0143223777413368,-0.0109828449785709,0,
00:00:06.072,0.00316472607664764,-0.00674672797322273,0.000774507352616638,0,
00:00:06.076,0.00968282483518124,-0.00399305950850248,0.010684959590435,0,
00:00:06.08,0.000249429023824632,-0.0047819884493947,-0.00229332013987005,0,
00:00:06.084,0.00219246675260365,-0.00337859243154526,-0.00779433781281114,0,
00:00:06.088,0.0028880201280117,0.00380235025659204,0.00066783424699679,0,
00:00:06.092,-0.0116568068042397,0.00456820894032717,0.00837054010480642,0,
00:00:06.096,-0.00468065030872822,0.00864365138113499,-0.000259350141277537,0,
00:00:06.1,-0.000677943811751902,-0.00597006222233176,0.000131370397866704,0,
00:00:06.104,0.00395834958180785,-0.0167720280587673,-0.00317062879912555,0,
00:00:06.108,0.00930531974881887,0.00771079165861011,0.00233707879669964,0,
00:00:06.112,-0.00267402036115527,0.013890671543777,-0.0016908593242988,0,
00:00:06.116,0.00132838799618185,-0.00223656720481813,-0.00196295254863799,0,
00:00:06.12,0.00402675289660692,-0.003241210244596,-0.00488790730014443,0,
00:00:06.124,-0.00166737695690244,0.00110591435804963,-0.00180043093860149,0,
00:00:06.128,-0.0156677030026913,-0.00572304893285036,0.0164559260010719,0,
00:00:06.132,-0.00113756419159472,0.000604777131229639,0.00439731311053038,0,
00:00:06.136,0.0184641629457474,-0.00353467068634927,-0.00753548135980964,0,
00:00:06.14,-0.00741068599745631,-0.00675050262361765,-0.0166490338742733,0,
00:00:06.144,-0.00442260829731822,0.00843968708068132,-0.00234511191956699,0,
00:00:06.148,0.000504523515701294,0.0123450281098485,0.01523357629776,0,
00:00:06.152,-0.00112661090679467,-0.00337613676674664,0.00895852129906416,0,
00:00:06.156,0.0108846900984645,-0.00555385928601027,-0.00934894476085901,0,
00:00:06.16,0.0108177931979299,-0.000762036128435284,-0.00681560486555099,0,
00:00:06.164,-0.00921499449759722,0.000249280914431438,0.010337021201849,0,
00:00:06.168,-0.0156045770272613,8.8923225121107E-05,-0.00382838607765734,0,
00:00:06.172,-0.00380976195447147,-0.00221766368485987,-0.00607299292460084,0,
00:00:06.176,0.00192281510680914,-0.000259476102655753,0.00774832163006067,0,
00:00:06.18,0.00826236139982939,0.0098170442506671,-0.000133472785819322,0,
00:00:06.184,0.00622973777353764,-0.00399339478462934,-0.00633710250258446,0,
00:00:06.188,0.00162540492601693,-0.00748992338776588,0.00243035238236189,0,
00:00:06.192,-0.00193276652134955,0.00180385226849467,0.00514626828953624,0,
00:00:06.196,-0.00939365476369858,-0.00145793100818992,-0.00302698533050716,0,
00:00:06.2,0.00345129240304232,-0.00126439123414457,-0.000488026009406894,0,
00:00:06.204,0.0122655015438795,0.00872024893760681,-2.11157639569137E-05,0,
00:00:06.208,-0.00700943265110254,0.00635829614475369,-0.00426629325374961,0,
00:00:06.212,-0.0101775415241718,-0.00590963661670685,0.00584704196080565,0,
00:00:06.216,-0.00709832040593028,-0.0126747619360685,0.00327615137211978,0,
00:00:06.22,0.0116355549544096,0.0053543015383184,-0.00531770475208759,0,
00:00:06.224,-0.00126920954789966,0.00394135992974043,0.000664699706248939,0,
00:00:06.228,0.0236506331712008,0.0015276096528396,-0.00365715054795146,0,
00:00:06.232,-0.00560267036780715,0.00588000938296318,0.00122274551540613,0,
00:00:06.236,-0.0243486613035202,-0.00292058847844601,0.00215756054967642,0,
00:00:06.24,-0.00220240722410381,-0.0161359738558531,-0.000781528302468359,0,
00:00:06.244,0.00377461384050548,-0.000440574629465118,0.00416677864268422,0,
00:00:06.248,0.00385355716571212,0.00707504898309708,-0.00302869407460094,0,
00:00:06.252,0.00657613528892398,0.00513887125998735,-0.000243423608480953,0,
00:00:06.256,0.00338917993940413,0.00342734763398767,0.000139624709845521,0,
00:00:06.26,-0.000575539190322161,0.0176801402121782,-0.000108335298136808,0,
