,Elapsed Time,EMG
0,00:00:00,1.492486000061037
1,00:00:00.004,-1.4285598993301347
2,00:00:00.008,-1.1872580051422115
3,00:00:00.012,-0.07991008087992682
4,00:00:00.016,0.5945255756378192
5,00:00:00.02,0.713414669036865
6,00:00:00.024,0.408285796642303
7,00:00:00.028,0.08733556047081933
8,00:00:00.032,-0.1720402389764779
9,00:00:00.036,-0.27944046258926303
10,00:00:00.04,-0.24512328207492906
11,00:00:00.044,-0.0795811414718627
12,00:00:00.048,-0.0051017676014452965
13,00:00:00.052,0.08076108247041683
14,00:00:00.056,0.13030702620744716
15,00:00:00.06,0.027101490879431395
16,00:00:00.064,-0.0438167117536068
17,00:00:00.068,0.022230214439332478
18,00:00:00.072,0.0410250835120678
19,00:00:00.076,-0.0819431655108928
20,00:00:00.08,-0.06248848885297772
21,00:00:00.084,0.027183663332834812
22,00:00:00.088,0.053512524813413544
23,00:00:00.092,-0.001388434786349528
24,00:00:00.096,-0.013782714726403321
25,00:00:00.1,0.014691313728690151
26,00:00:00.104,0.007905670172476634
27,00:00:00.108,-0.027692978503182482
28,00:00:00.112,-0.00815799832344053
29,00:00:00.116,0.042696440126746935
30,00:00:00.12,-0.040619899053126546
31,00:00:00.124,-0.0005931897321715999
32,00:00:00.128,0.02297274158627261
33,00:00:00.132,-0.01831607380881901
34,00:00:00.136,0.012238055467605586
35,00:00:00.14,-0.006175638176500787
36,00:00:00.144,-0.0172580587677658
37,00:00:00.148,0.029525897931307582
38,00:00:00.152,0.021473589353263375
39,00:00:00.156,-0.01062948931939902
40,00:00:00.16,-0.0006600851193071001
41,00:00:00.164,-0.033210249617695725
42,00:00:00.168,-0.057198773138225065
43,00:00:00.172,0.06943050492554899
44,00:00:00.176,0.01409288076683879
45,00:00:00.18,-0.029373452067375228
46,00:00:00.184,0.027627183124423096
47,00:00:00.188,0.037847091443836675
48,00:00:00.192,-0.0002720681950450221
49,00:00:00.196,-0.04477900266647336
50,00:00:00.2,-0.07977934926748272
51,00:00:00.204,-0.0031117009857553075
52,00:00:00.208,0.14084968250244853
53,00:00:00.212,0.046749091241508715
54,00:00:00.216,-0.1057649377326016
55,00:00:00.22,-0.08419343689456574
56,00:00:00.224,0.0175325281452388
57,00:00:00.228,0.05432620551437141
58,00:00:00.232,0.0166623494587839
59,00:00:00.236,0.01907626981846988
60,00:00:00.24,0.0506613460020163
61,00:00:00.244,-0.023038038983941102
62,00:00:00.248,-0.082099266233854
63,00:00:00.252,-0.03464282676577568
64,00:00:00.256,0.041019597090780756
65,00:00:00.26,0.03473041718825705
66,00:00:00.264,-0.012399622704833708
67,00:00:00.268,-0.025723005295731103
68,00:00:00.272,0.02513203141279517
69,00:00:00.276,0.036838368047028835
70,00:00:00.28,0.01898091559996825
71,00:00:00.284,-0.045356257352977936
72,00:00:00.288,-0.0463058445602656
73,00:00:00.292,0.0007601520046590995
74,00:00:00.296,0.0301725454628467
75,00:00:00.3,0.0010853335261344042
76,00:00:00.304,-0.005140216555446449
77,00:00:00.308,0.029661988373845857
78,00:00:00.312,-0.001398026011884202
79,00:00:00.316,-0.003537726712238503
80,00:00:00.32,-0.01607446232810612
81,00:00:00.324,-0.014804659120272845
82,00:00:00.328,-0.01575872045941649
83,00:00:00.332,0.01401217281818393
84,00:00:00.336,0.037880690768361036
85,00:00:00.34,0.01026973593980074
86,00:00:00.344,-0.0004045790992677112
87,00:00:00.348,-0.014782731886953109
88,00:00:00.352,-0.043094671098515364
89,00:00:00.356,-0.014974235091358368
90,00:00:00.36,0.006047978997230603
91,00:00:00.364,0.0497111892327666
92,00:00:00.368,0.061813789652660475
93,00:00:00.372,-0.0516444044187665
94,00:00:00.376,-0.06944415811449291
95,00:00:00.38,-0.0177662391215563
96,00:00:00.384,0.0740973511710763
97,00:00:00.388,0.06223885994404548
98,00:00:00.392,-0.04902650369331246
99,00:00:00.396,-0.0654815398156643
100,00:00:00.4,-0.0131978883873671
101,00:00:00.404,0.04701252793893218
102,00:00:00.408,0.04054011497646566
103,00:00:00.412,0.01550906803458933
104,00:00:00.416,-0.03343603928806263
105,00:00:00.42,-0.038312550634145695
106,00:00:00.424,-0.01010065292939543
107,00:00:00.428,0.0195936607196927
108,00:00:00.432,0.00825504399836061
109,00:00:00.436,0.0526922140270471
110,00:00:00.44,0.005602377932518769
111,00:00:00.444,-0.0484804389998317
112,00:00:00.448,-0.05287776468321687
113,00:00:00.452,-0.0008211932145059112
114,00:00:00.456,0.02382414508610961
115,00:00:00.46,0.04438490280881527
116,00:00:00.464,0.013919468910899046
117,00:00:00.468,-0.0033491086214780287
118,00:00:00.472,0.003245931118726803
119,00:00:00.476,-0.02780336095020179
120,00:00:00.48,-0.0487019550055266
121,00:00:00.484,0.01254958403296769
122,00:00:00.488,0.0164193296805023
123,00:00:00.492,0.02174158999696374
124,00:00:00.496,0.00354174617677927
125,00:00:00.5,0.01369440741837022
126,00:00:00.504,0.007316880393773336
127,00:00:00.508,-0.018629166297614602
128,00:00:00.512,-0.0455389071721584
129,00:00:00.516,0.01345173170557249
130,00:00:00.52,0.014932254940504283
131,00:00:00.524,0.045285886968486004
132,00:00:00.528,-0.0572941210120916
133,00:00:00.532,-0.010262775176670461
134,00:00:00.536,0.0370130632072687
135,00:00:00.54,-0.0017404472455382321
136,00:00:00.544,0.0025073505821637805
137,00:00:00.548,-0.015316793695092219
138,00:00:00.552,-0.029773871763609377
139,00:00:00.556,0.0275344811379909
140,00:00:00.56,0.0532567818881944
141,00:00:00.564,0.005962274037301469
142,00:00:00.568,-0.041727749630808844
143,00:00:00.572,-0.05426010582596062
144,00:00:00.576,-0.0034278491511941
145,00:00:00.58,0.01381216431036589
146,00:00:00.584,0.03500963095575571
147,00:00:00.588,0.01337339170277119
148,00:00:00.592,0.0468246228992939
149,00:00:00.596,-0.006930453004315501
150,00:00:00.6,-0.06759830727241929
151,00:00:00.604,-0.05346315074712041
152,00:00:00.608,0.015854067576583517
153,00:00:00.612,0.035372667480260134
154,00:00:00.616,0.051842682994902106
155,00:00:00.62,0.05218722438439727
156,00:00:00.624,-0.0688585247844458
157,00:00:00.628,-0.07671445980668071
158,00:00:00.632,-0.00046373438090076963
159,00:00:00.636,0.04637948982417579
160,00:00:00.64,0.030370032414793947
161,00:00:00.644,-0.005169170908629901
162,00:00:00.648,0.003039117436856
163,00:00:00.652,0.02509814756922426
164,00:00:00.656,-0.03280671895481651
165,00:00:00.66,-0.03356406406965111
166,00:00:00.664,-0.014001273550093219
167,00:00:00.668,0.00831500359345229
168,00:00:00.672,0.006347441580146541
169,00:00:00.676,0.04097091685980558
170,00:00:00.68,0.024537628283724175
171,00:00:00.684,-0.015097991563379796
172,00:00:00.688,-0.03036779398098588
173,00:00:00.692,-0.0019118082709610289
174,00:00:00.696,-0.01284829620271919
175,00:00:00.7,-0.005130288191139802
176,00:00:00.704,0.02396104927174745
177,00:00:00.708,0.0279715151991695
178,00:00:00.712,-0.016141818370670098
179,00:00:00.716,0.0012662485241890023
180,00:00:00.72,-0.05273463204503057
181,00:00:00.724,-0.018726266920566597
182,00:00:00.728,0.0867927893996239
183,00:00:00.732,0.025542667135596227
184,00:00:00.736,-0.05089112068526446
185,00:00:00.74,-0.058079621288925375
186,00:00:00.744,0.024832806549966398
187,00:00:00.748,0.08766975160688159
188,00:00:00.752,0.02245083241723482
189,00:00:00.756,-0.09047836437821391
190,00:00:00.76,-0.06379706831648951
191,00:00:00.764,0.02122437441721558
192,00:00:00.768,0.029104362241923837
193,00:00:00.772,0.05102409026585524
194,00:00:00.776,-0.002958496101200501
195,00:00:00.78,-0.00948151666671038
196,00:00:00.784,0.0179662744048983
197,00:00:00.788,-0.014966404996812302
198,00:00:00.792,0.01017914246767763
199,00:00:00.796,-0.042142902500927476
200,00:00:00.8,-0.05687583796679974
201,00:00:00.804,0.0084134070202709
202,00:00:00.808,0.05445992015302178
203,00:00:00.812,0.0425767526030541
204,00:00:00.816,0.0009829401969909685
205,00:00:00.82,-0.0307485066587105
206,00:00:00.824,-0.00128897791728377
207,00:00:00.828,0.022169240051880472
208,00:00:00.832,-0.02622163540218029
209,00:00:00.836,0.014361960114911192
210,00:00:00.84,-0.0106353424489498
211,00:00:00.844,-0.055066921282559675
212,00:00:00.848,-0.010019786714110506
213,00:00:00.852,0.06653271988034248
214,00:00:00.856,0.06115900096483527
215,00:00:00.86,-0.03728967253118745
216,00:00:00.864,-0.052617285400628995
217,00:00:00.868,-0.049827940296381726
218,00:00:00.872,0.06970418943092223
219,00:00:00.876,0.07789932470768687
220,00:00:00.88,-0.007097623310983131
221,00:00:00.884,-0.059547840617597096
222,00:00:00.888,-0.055056563578546054
223,00:00:00.892,-0.018914535641670203
224,00:00:00.896,0.035681982233654666
225,00:00:00.9,0.035326119977980894
226,00:00:00.904,0.024003038182854687
227,00:00:00.908,-0.00831932690925894
228,00:00:00.912,0.02604140178300437
229,00:00:00.916,-0.04590369435027238
230,00:00:00.92,-0.0312664583325386
231,00:00:00.924,0.004606004571542069
232,00:00:00.928,0.01106875546975068
233,00:00:00.932,0.03313445130334004
234,00:00:00.936,0.017843244364485103
235,00:00:00.94,-0.04133179457858205
236,00:00:00.944,-0.0183310164138675
237,00:00:00.948,0.019112330061034292
238,00:00:00.952,-0.02197547769173979
239,00:00:00.956,-0.004008618649095291
240,00:00:00.96,0.09114658785983923
241,00:00:00.964,0.03322297288104889
242,00:00:00.968,-0.07307632826268672
243,00:00:00.972,-0.0788365732878447
244,00:00:00.976,-0.00045009143650536973
245,00:00:00.98,0.026679387316107722
246,00:00:00.984,0.0158714251592755
247,00:00:00.988,0.00170543836429715
248,00:00:00.992,0.02633263869211073
249,00:00:00.996,0.02026405325159436
250,00:00:01,0.0690580140799283
251,00:00:01.004,-0.045698774047196
252,00:00:01.008,-0.10877387039363391
253,00:00:01.012,-0.06236977409571412
254,00:00:01.016,0.0713214511051774
255,00:00:01.02,0.07393432548269628
256,00:00:01.024,0.00844426266849038
257,00:00:01.028,-0.02787120500579479
258,00:00:01.032,0.009026236366480549
259,00:00:01.036,-0.0204892666079104
260,00:00:01.04,0.032653898000717205
261,00:00:01.044,-0.009189284057356382
262,00:00:01.048,-0.07335139857605104
263,00:00:01.052,0.0007845908403397023
264,00:00:01.056,0.0670929215848446
265,00:00:01.06,-0.0032264580950140988
266,00:00:01.064,-0.02442111168056726
267,00:00:01.068,-0.004143445286899772
268,00:00:01.072,0.008525449724402282
269,00:00:01.076,0.0230178751226049
270,00:00:01.08,0.033497221535071765
271,00:00:01.084,-0.0163809061050415
272,00:00:01.088,-0.007785282563418122
273,00:00:01.092,-0.06223610043525697
274,00:00:01.096,-0.028660092037171098
275,00:00:01.1,0.022922984324395677
276,00:00:01.104,0.023009313270449618
277,00:00:01.108,0.028047467116266447
278,00:00:01.112,0.02017766889184712
279,00:00:01.116,0.02126554888673126
280,00:00:01.12,-0.0037480397149920602
281,00:00:01.124,-0.02437064721016218
282,00:00:01.128,-0.06432387803215532
283,00:00:01.132,-0.0178800085559487
284,00:00:01.136,0.044588442891836194
285,00:00:01.14,0.035629854537546635
286,00:00:01.144,-0.01880972390063106
287,00:00:01.148,0.02442425442859531
288,00:00:01.152,-0.0012597683817147966
289,00:00:01.156,-0.04829197749495501
290,00:00:01.16,-0.03557361196726559
291,00:00:01.164,0.026403232710436007
292,00:00:01.168,0.06330151483416559
293,00:00:01.172,0.03257717192173001
294,00:00:01.176,-0.02243782277219
295,00:00:01.18,0.004440328106284171
296,00:00:01.184,-0.04866837896406647
297,00:00:01.188,-0.07989751547575
298,00:00:01.192,0.0029804867226630397
299,00:00:01.196,0.05854846886359147
300,00:00:01.2,0.04795574955642229
301,00:00:01.204,0.019857836014125493
302,00:00:01.208,-0.0146840075030923
303,00:00:01.212,-0.028536614961922203
304,00:00:01.216,0.004798396024852963
305,00:00:01.22,0.004691712092608151
306,00:00:01.224,0.005287630483508101
307,00:00:01.228,-0.060874311719089705
308,00:00:01.232,-0.010998958721756902
309,00:00:01.236,0.06819731928408143
310,00:00:01.24,0.011988556012511269
311,00:00:01.244,-0.02690952556440611
312,00:00:01.248,-0.02031724713742732
313,00:00:01.252,0.010419668862596178
314,00:00:01.256,0.0963274831883609
315,00:00:01.26,-0.014820476993918402
316,00:00:01.264,-0.1180649930611252
317,00:00:01.268,-0.047139085712842664
318,00:00:01.272,0.03848850075155497
319,00:00:01.276,0.07730832882225513
320,00:00:01.28,0.01631507789716125
321,00:00:01.284,-0.02490046306047593
322,00:00:01.288,-0.004876121412962639
323,00:00:01.292,0.021852410864084976
324,00:00:01.296,-0.01563130086287861
325,00:00:01.3,0.0226829808671027
326,00:00:01.304,-0.0398564161732793
327,00:00:01.308,-0.08455669693648811
328,00:00:01.312,0.04040311649441718
329,00:00:01.316,0.0361865144222975
330,00:00:01.32,0.01560203195549544
331,00:00:01.324,0.02051349729299546
332,00:00:01.328,0.04665651812683789
333,00:00:01.332,0.025792282191105152
334,00:00:01.336,-0.11251253308728336
335,00:00:01.34,-0.0677279867231846
336,00:00:01.344,0.011950948741287009
337,00:00:01.348,0.04741114331409333
338,00:00:01.352,0.07014078926295036
339,00:00:01.356,-0.00010383687913426143
340,00:00:01.36,-0.0461313943378628
341,00:00:01.364,-0.031135787256062097
342,00:00:01.368,0.0014894176274538092
343,00:00:01.372,0.01393608888611198
344,00:00:01.376,0.024122395552694832
345,00:00:01.38,0.07260164851322767
346,00:00:01.384,0.019510725411237186
347,00:00:01.388,-0.1327578658238054
348,00:00:01.392,-0.09648586576804517
349,00:00:01.396,0.046348769217729506
350,00:00:01.4,0.08732299599796534
351,00:00:01.404,0.10607125237584152
352,00:00:01.408,-0.062722148373723
353,00:00:01.412,-0.062343601835891604
354,00:00:01.416,-0.015416010515764293
355,00:00:01.42,0.01397428428754207
356,00:00:01.424,0.01442122668959201
357,00:00:01.428,-0.01873194240033629
358,00:00:01.432,0.014457762707024778
359,00:00:01.436,0.0237403167411685
360,00:00:01.44,-0.021539313718676633
361,00:00:01.444,-0.0014143316075206011
362,00:00:01.448,0.0036265358794480597
363,00:00:01.452,0.037797051714733215
364,00:00:01.456,0.01435183687135577
365,00:00:01.46,-0.0662529766559601
366,00:00:01.464,-0.052093477919697796
367,00:00:01.468,0.01741651701740921
368,00:00:01.472,0.0426038317382335
369,00:00:01.476,0.029383541550487283
370,00:00:01.48,0.041648879647255
371,00:00:01.484,-0.027021847199648577
372,00:00:01.488,-0.05240557529032227
373,00:00:01.492,0.010579460562439639
374,00:00:01.496,-0.014301355462521361
375,00:00:01.5,-0.009422030299901893
376,00:00:01.504,0.0014607890043407705
377,00:00:01.508,-0.019222570583224304
378,00:00:01.512,0.0520826019346714
379,00:00:01.516,0.08427566289901732
380,00:00:01.52,-0.034013891592621796
381,00:00:01.524,-0.07574406964704394
382,00:00:01.528,-0.014743076637387272
383,00:00:01.532,-0.0031346855685113924
384,00:00:01.536,0.024068130180239712
385,00:00:01.54,0.076346505433321
386,00:00:01.544,-0.03375646541826432
387,00:00:01.548,-0.07012060005217788
388,00:00:01.552,-0.012440573889762198
389,00:00:01.556,0.02983409864827983
390,00:00:01.56,0.03152902302099393
391,00:00:01.564,0.0485752243548632
392,00:00:01.568,-0.014542298973538
393,00:00:01.572,-0.0549211567267775
394,00:00:01.576,-0.016572728753089898
395,00:00:01.58,0.028672812739387203
396,00:00:01.584,0.02121395000722262
397,00:00:01.588,-0.02131707686930901
398,00:00:01.592,-0.014528903178870699
399,00:00:01.596,-0.01711627491749824
400,00:00:01.6,0.0054379105567932086
401,00:00:01.604,0.025799433002248393
402,00:00:01.608,0.04173158411867914
403,00:00:01.612,0.0008830837905406995
404,00:00:01.616,-0.00991413043811919
405,00:00:01.62,-0.0030582328327000492
406,00:00:01.624,-0.08206759067252284
407,00:00:01.628,-0.010512676090002102
408,00:00:01.632,0.0060584018938243216
409,00:00:01.636,0.059296159073710504
410,00:00:01.64,0.08174816658720371
411,00:00:01.644,0.022850768640637408
412,00:00:01.648,-0.11420335574075577
413,00:00:01.652,-0.05587831092998384
414,00:00:01.656,-0.01117593911476432
415,00:00:01.66,0.07483961668913255
416,00:00:01.664,0.02688227081671352
417,00:00:01.668,-0.05509851337410507
418,00:00:01.672,0.049186203221324776
419,00:00:01.676,0.04734886996448038
420,00:00:01.68,-0.040252424310892834
421,00:00:01.684,-0.02428123122081161
422,00:00:01.688,-0.02806163753848523
423,00:00:01.692,-0.0401116339489817
424,00:00:01.696,0.016018529888242542
425,00:00:01.7,0.04433875461108983
426,00:00:01.704,0.06891907658427947
427,00:00:01.708,-0.0347656449303031
428,00:00:01.712,-0.0576243065297603
429,00:00:01.716,0.0771112153306603
430,00:00:01.72,0.02023052144795658
431,00:00:01.724,-0.08712157164700327
432,00:00:01.728,-0.0813718112185598
433,00:00:01.732,0.0347410319373012
434,00:00:01.736,0.07754912134259939
435,00:00:01.74,0.005305327009409656
436,00:00:01.744,0.003498069883789862
437,00:00:01.748,-0.006700650323182351
438,00:00:01.752,-0.059441379271447686
439,00:00:01.756,0.058682558126747594
440,00:00:01.76,0.1783127095550302
441,00:00:01.764,-0.11435026070103096
442,00:00:01.768,-0.20169002190232252
443,00:00:01.772,-0.05828583333641289
444,00:00:01.776,0.08930611051619051
445,00:00:01.78,0.10601598955690861
446,00:00:01.784,0.05231543909758336
447,00:00:01.788,0.02474400529172276
448,00:00:01.792,-0.03467468533199285
449,00:00:01.796,-0.048111577634699663
450,00:00:01.8,-0.05958045227453119
451,00:00:01.804,0.004678484983742298
452,00:00:01.808,0.094542495906353
453,00:00:01.812,0.03889607451856139
454,00:00:01.816,-0.09747673329548028
455,00:00:01.82,-0.06302562681958077
456,00:00:01.824,-0.010465338826179494
457,00:00:01.828,0.05061503243632608
458,00:00:01.832,0.0594913866370916
459,00:00:01.836,0.020447453018277918
460,00:00:01.84,-0.01424993202090267
461,00:00:01.844,-0.03319324160111137
462,00:00:01.848,0.02869089134037495
463,00:00:01.852,0.027183229103684405
464,00:00:01.856,-0.0773018291220069
465,00:00:01.86,-0.03628595778718592
466,00:00:01.864,0.0730819655582309
467,00:00:01.868,-0.034352056682109805
468,00:00:01.872,0.023837480694055592
469,00:00:01.876,-0.03767143050208684
470,00:00:01.88,0.0271730050444602
471,00:00:01.884,0.0070656128227711
472,00:00:01.888,0.02107028476893901
473,00:00:01.892,0.00447426829487093
474,00:00:01.896,-0.0007064803503453662
475,00:00:01.9,-0.004510869272053242
476,00:00:01.904,-0.04250081814825534
477,00:00:01.908,-0.009315845556557196
478,00:00:01.912,0.0017881374806166007
479,00:00:01.916,0.07326723099686211
480,00:00:01.92,0.03507798537611964
481,00:00:01.924,-0.09159985557198526
482,00:00:01.928,-0.0768276061862708
483,00:00:01.932,0.024980994872748803
484,00:00:01.936,0.08731953660026191
485,00:00:01.94,0.012151900678873104
486,00:00:01.944,-0.019086383632384157
487,00:00:01.948,0.02016138104954733
488,00:00:01.952,-0.01894876267761
489,00:00:01.956,-0.036435562185943106
490,00:00:01.96,-0.006916020764037991
491,00:00:01.964,0.01885237975511699
492,00:00:01.968,-0.0037194263422861695
493,00:00:01.972,-0.0035145906731486503
494,00:00:01.976,0.03814626205712552
495,00:00:01.98,0.00656671402975917
496,00:00:01.984,-0.01132325688377019
497,00:00:01.988,0.00124832277651875
498,00:00:01.992,-0.03251905646175144
499,00:00:01.996,-0.0744839385151862
500,00:00:02,0.03225941536948081
501,00:00:02.004,0.1527455355972051
502,00:00:02.008,0.01265098992735152
503,00:00:02.012,-0.13110264204442507
504,00:00:02.016,-0.0478857732377947
505,00:00:02.02,0.0355973411351443
506,00:00:02.024,0.01742708543315534
507,00:00:02.028,-0.0023262444883584508
508,00:00:02.032,0.024281538440845962
509,00:00:02.036,0.006924731191247707
510,00:00:02.04,-0.007666622870601679
511,00:00:02.044,0.01160482689738274
512,00:00:02.048,0.03180920309387147
513,00:00:02.052,-0.02332393545657398
514,00:00:02.056,-0.036075126379728345
515,00:00:02.06,-0.05532069737091663
516,00:00:02.064,0.046929454430937795
517,00:00:02.068,0.03378636296838522
518,00:00:02.072,0.002360927173867823
519,00:00:02.076,-0.011311198119074092
520,00:00:02.08,-0.025944045046344427
521,00:00:02.084,0.010754583869129388
522,00:00:02.088,0.02951508527621631
523,00:00:02.092,-0.013447537319734661
524,00:00:02.096,0.0025771130240173287
525,00:00:02.1,-0.029231376945972387
526,00:00:02.104,-0.00015271781012417968
527,00:00:02.108,0.024099843576550498
528,00:00:02.112,0.03473924286663535
529,00:00:02.116,0.005593297071754912
530,00:00:02.12,-0.05025440713507119
531,00:00:02.124,-0.049794825725257376
532,00:00:02.128,-0.00963969330769033
533,00:00:02.132,0.0443625934422016
534,00:00:02.136,0.06382775981910527
535,00:00:02.14,0.03144636657088994
536,00:00:02.144,-0.044147181091830155
537,00:00:02.148,-0.06273304624482995
538,00:00:02.152,-0.020613497734302634
539,00:00:02.156,0.03670862270519136
540,00:00:02.16,0.04705431219190362
541,00:00:02.164,-0.00400105270091444
542,00:00:02.168,-0.01775584276765583
543,00:00:02.172,-0.015700557269155962
544,00:00:02.176,-0.01916411530692126
545,00:00:02.18,0.007432062644511461
546,00:00:02.184,0.03019445529207586
547,00:00:02.188,-0.014584130083676422
548,00:00:02.192,-0.014873686246573904
549,00:00:02.196,0.04394970716384709
550,00:00:02.2,0.008623175090178934
551,00:00:02.204,-0.054317578091286116
552,00:00:02.208,-0.0036165514029562716
553,00:00:02.212,0.041698506101965904
554,00:00:02.216,0.0318339355289936
555,00:00:02.22,-0.06331446208059781
556,00:00:02.224,-0.04105360805988306
557,00:00:02.228,4.042475484311234e-05
558,00:00:02.232,0.07178179197944702
559,00:00:02.236,0.029768220148980604
560,00:00:02.24,-0.02220062934793529
561,00:00:02.244,-0.04206693824380637
562,00:00:02.248,0.0017711450345813816
563,00:00:02.252,0.0099970116280019
564,00:00:02.256,0.032891457201913
565,00:00:02.26,-0.0167647376656532
566,00:00:02.264,-0.03336070757359267
567,00:00:02.268,0.0035665679897647295
568,00:00:02.272,0.026391083840280768
569,00:00:02.276,-0.042829611717024756
570,00:00:02.28,0.009922160621499632
571,00:00:02.284,0.08409901033155619
572,00:00:02.288,-0.009615879505872754
573,00:00:02.292,-0.03456357028335337
574,00:00:02.296,-0.02803339960519228
575,00:00:02.3,-0.0227417545393109
576,00:00:02.304,-0.016578716691583395
577,00:00:02.308,0.04243708029389383
578,00:00:02.312,0.05354103073477742
579,00:00:02.316,-0.026206973008811488
580,00:00:02.32,-0.015192550141364338
581,00:00:02.324,-0.01504895649850365
582,00:00:02.328,0.0028119916096330105
583,00:00:02.332,0.0250407159328461
584,00:00:02.336,-0.007251528557389961
585,00:00:02.34,0.013784764334559501
586,00:00:02.344,-0.04297402361407876
587,00:00:02.348,-0.0289775258861482
588,00:00:02.352,0.03360794298350807
589,00:00:02.356,0.07224249816499653
590,00:00:02.36,0.0296283960342407
591,00:00:02.364,-0.1107533052563667
592,00:00:02.368,-0.059121817350387525
593,00:00:02.372,0.06748760957270852
594,00:00:02.376,0.02164599485695368
595,00:00:02.38,0.006686083273962142
596,00:00:02.384,0.005357750778784955
597,00:00:02.388,0.027468133717775296
598,00:00:02.392,-0.05708592198789109
599,00:00:02.396,0.03921319288201633
600,00:00:02.4,-0.0241607744246721
601,00:00:02.404,-0.04544965055538341
602,00:00:02.408,0.004129680339246969
603,00:00:02.412,0.04319039732217783
604,00:00:02.416,-0.0013338294811546837
605,00:00:02.42,-0.014941758010536422
606,00:00:02.424,0.061146163381636184
607,00:00:02.428,0.000735433772206296
608,00:00:02.432,-0.029216967981483245
609,00:00:02.436,-0.03007367532700299
610,00:00:02.44,-0.0505559714511037
611,00:00:02.444,0.01605605799704786
612,00:00:02.448,0.02951502113137399
613,00:00:02.452,0.01812328910455107
614,00:00:02.456,0.01651392178609968
615,00:00:02.46,0.0006694807671010911
616,00:00:02.464,0.01446256425697353
617,00:00:02.468,0.011941534467041406
618,00:00:02.472,-0.03703918680548668
619,00:00:02.476,-0.04096954176202419
620,00:00:02.48,-0.02279492688830941
621,00:00:02.484,0.016892709594685605
622,00:00:02.488,0.03487699246034026
623,00:00:02.492,0.0195852201431989
624,00:00:02.496,-0.0016711531206965082
625,00:00:02.5,-0.024809152702800888
626,00:00:02.504,-0.014175822958350138
627,00:00:02.508,0.08334540505893528
628,00:00:02.512,0.034412712790071937
629,00:00:02.516,-0.07630793936550616
630,00:00:02.52,-0.0965641289949417
631,00:00:02.524,-0.02677724324166781
632,00:00:02.528,0.08989888802170755
633,00:00:02.532,0.04963956866413359
634,00:00:02.536,-0.005704046692699201
635,00:00:02.54,-0.006409469875507046
636,00:00:02.544,-0.017137055750936266
637,00:00:02.548,-0.015616223041433834
638,00:00:02.552,-0.006765097437892113
639,00:00:02.556,0.00441520661115646
640,00:00:02.56,0.038526952033862485
641,00:00:02.564,0.01773090381175276
642,00:00:02.568,-0.007459445856511621
643,00:00:02.572,-0.07026729080826044
644,00:00:02.576,-0.042516715824604104
645,00:00:02.58,0.027927538380026797
646,00:00:02.584,0.1064249966293571
647,00:00:02.588,0.018003166653215913
648,00:00:02.592,-0.0694108004681766
649,00:00:02.596,-0.035547430627047974
650,00:00:02.6,-0.017555376645759756
651,00:00:02.604,-0.00433647888712589
652,00:00:02.608,0.11064153723418721
653,00:00:02.612,-0.01937271992937893
654,00:00:02.616,-0.0369643196463585
655,00:00:02.62,-0.0380027155624702
656,00:00:02.624,0.0227818433195353
657,00:00:02.628,0.04462056141346697
658,00:00:02.632,-0.0065627957228571185
659,00:00:02.636,-0.054113043472170844
660,00:00:02.64,-0.012874361127615
661,00:00:02.644,0.03737283311784273
662,00:00:02.648,0.04218388628214599
663,00:00:02.652,-0.010280622169375418
664,00:00:02.656,-0.04498157091438777
665,00:00:02.66,-0.0015288623981177798
666,00:00:02.664,0.010069868236314514
667,00:00:02.668,0.0145106418058276
668,00:00:02.672,0.0034492702689021687
669,00:00:02.676,0.015405503567308148
670,00:00:02.68,-0.031193520408123777
671,00:00:02.684,0.0019278870895505593
672,00:00:02.688,-0.026636906899511772
673,00:00:02.692,0.019239671528339303
674,00:00:02.696,0.00897898559924218
675,00:00:02.7,0.013756009982898856
676,00:00:02.704,0.044732289388775784
677,00:00:02.708,-0.03300319705158472
678,00:00:02.712,-0.05115144653245807
679,00:00:02.716,-0.0025014998391270013
680,00:00:02.72,0.007553826551884399
681,00:00:02.724,0.0196916503773537
682,00:00:02.728,0.020823231898248206
683,00:00:02.732,-0.01851047715172173
684,00:00:02.736,-0.016188700683414898
685,00:00:02.74,0.0436923210509122
686,00:00:02.744,-0.01000222517177461
687,00:00:02.748,-0.0011732780840247896
688,00:00:02.752,0.0066698230803013
689,00:00:02.756,-0.04549916321411725
690,00:00:02.76,-0.02620592433959245
691,00:00:02.764,0.0230381796136499
692,00:00:02.768,0.06105412030592565
693,00:00:02.772,0.01414808258414271
694,00:00:02.776,-0.041233139345422415
695,00:00:02.78,-0.06993354950100185
696,00:00:02.784,0.010449524503201262
697,00:00:02.788,0.14514280948787953
698,00:00:02.792,0.04195462726056577
699,00:00:02.796,-0.1598457284271712
700,00:00:02.8,-0.10568889789283278
701,00:00:02.804,0.0438805166631937
702,00:00:02.808,0.0771427610889078
703,00:00:02.812,0.036311511648818795
704,00:00:02.816,0.024142327252775465
705,00:00:02.82,0.0350805884227156
706,00:00:02.824,-0.051914381794631606
707,00:00:02.828,-0.09457030147314069
708,00:00:02.832,0.01750153675675397
709,00:00:02.836,0.05477262684144089
710,00:00:02.84,-0.005879594405996676
711,00:00:02.844,-0.00582076725549991
712,00:00:02.848,0.027002726099453804
713,00:00:02.852,-0.02258393331430853
714,00:00:02.856,-0.05203128745779391
715,00:00:02.86,0.00880313292145729
716,00:00:02.864,0.03451462835073473
717,00:00:02.868,0.04165797075256705
718,00:00:02.872,0.04795755818486211
719,00:00:02.876,-0.07096207328140736
720,00:00:02.88,-0.04580089473165576
721,00:00:02.884,-0.01203844510018822
722,00:00:02.888,0.01861508854199198
723,00:00:02.892,0.01720493542961776
724,00:00:02.896,0.0017207908676937188
725,00:00:02.9,0.00874527782434598
726,00:00:02.904,0.01537613803520796
727,00:00:02.908,0.020697676809504635
728,00:00:02.912,0.010314625687897198
729,00:00:02.916,0.00011440739035600139
730,00:00:02.92,-0.12498827464878551
731,00:00:02.924,0.00027839280664919766
732,00:00:02.928,0.0281525058671832
733,00:00:02.932,0.042375015676952836
734,00:00:02.936,0.053702041856013266
735,00:00:02.94,0.02488736342638738
736,00:00:02.944,-0.0371617523487657
737,00:00:02.948,-0.06061113160103565
738,00:00:02.952,-0.02462818589992813
739,00:00:02.956,0.02467887522652746
740,00:00:02.96,0.04507771751377732
741,00:00:02.964,0.002382529899477997
742,00:00:02.968,-0.014074737846385662
743,00:00:02.972,-0.007425192743539815
744,00:00:02.976,-0.03487435868009922
745,00:00:02.98,-0.006813820451497979
746,00:00:02.984,0.044241527793929064
747,00:00:02.988,0.03950034175068137
748,00:00:02.992,0.0049171037971973905
749,00:00:02.996,-0.025089622708037412
750,00:00:03,-0.051975059323012815
751,00:00:03.004,-0.01386690023355189
752,00:00:03.008,0.030437182635068904
753,00:00:03.012,-0.00967393536120653
754,00:00:03.016,-0.011379978153854628
755,00:00:03.02,0.04090570099651809
756,00:00:03.024,0.062036556715611424
757,00:00:03.028,-0.018167843110859398
758,00:00:03.032,-0.06607368588447575
759,00:00:03.036,-0.023442083504050956
760,00:00:03.04,0.028457081876695198
761,00:00:03.044,0.0044173586647957615
762,00:00:03.048,-0.011489150987472378
763,00:00:03.052,0.001985803363368224
764,00:00:03.056,0.037392015918157925
765,00:00:03.06,-0.0009842364815995101
766,00:00:03.064,0.017289465409703535
767,00:00:03.068,-0.041716636507771895
768,00:00:03.072,-0.06071615917608142
769,00:00:03.076,0.0283934082835913
770,00:00:03.08,0.08109933696687219
771,00:00:03.084,0.0033146864734589798
772,00:00:03.088,-0.0625478103756905
773,00:00:03.092,-0.03299546334892513
774,00:00:03.096,0.02084422879852353
775,00:00:03.1,0.0354093797504902
776,00:00:03.104,0.01033381931483746
777,00:00:03.108,-0.02339451923035086
778,00:00:03.112,0.045189796803470086
779,00:00:03.116,-1.4901161190031265e-07
780,00:00:03.12,-0.06968332739779724
781,00:00:03.124,-0.027495933725731444
782,00:00:03.128,0.007946644444018668
783,00:00:03.132,0.04768474027514452
784,00:00:03.136,0.02296026027761403
785,00:00:03.14,-0.01227291487157347
786,00:00:03.144,0.010351971723139328
787,00:00:03.148,0.02850973699241875
788,00:00:03.152,-0.03764233435504141
789,00:00:03.156,-0.0451712179929018
790,00:00:03.16,0.010199300479143891
791,00:00:03.164,-0.007998787797987458
792,00:00:03.168,-0.005358986556530032
793,00:00:03.172,0.02598637039773168
794,00:00:03.176,0.0285136979073286
795,00:00:03.18,0.03646711306646474
796,00:00:03.184,-0.01697623962536451
797,00:00:03.188,-0.022852679714560502
798,00:00:03.192,-0.04058481287211178
799,00:00:03.196,-0.013461736962199204
800,00:00:03.2,-0.007911653257906402
801,00:00:03.204,0.023432896472513648
802,00:00:03.208,0.065685760229826
803,00:00:03.212,0.02470086410176012
804,00:00:03.216,-0.04685375757981096
805,00:00:03.22,-0.032961580902338
806,00:00:03.224,-0.04112287610769281
807,00:00:03.228,0.007135909516364311
808,00:00:03.232,0.0395992677658796
809,00:00:03.236,0.0339090023189783
810,00:00:03.24,0.001296840957365934
811,00:00:03.244,-0.02144916681572799
812,00:00:03.248,0.008204914163798139
813,00:00:03.252,0.011345614679157739
814,00:00:03.256,-0.046188892796635656
815,00:00:03.26,-0.012854895088821698
816,00:00:03.264,0.002185795456171079
817,00:00:03.268,0.0216559981927275
818,00:00:03.272,0.025979373895097545
819,00:00:03.276,0.008430188056081532
820,00:00:03.28,-0.015999172348529142
821,00:00:03.284,-0.005914240260608491
822,00:00:03.288,-0.00023031793534753105
823,00:00:03.292,0.0009440542780794243
824,00:00:03.296,-0.04582992475479841
825,00:00:03.3,0.03990774461999529
826,00:00:03.304,0.03199902665801349
827,00:00:03.308,-0.03148367232643069
828,00:00:03.312,-0.00728637725114824
829,00:00:03.316,0.02547900378704066
830,00:00:03.32,-0.02758591203019027
831,00:00:03.324,-0.009503192733973214
832,00:00:03.328,0.019023834960535217
833,00:00:03.332,0.004546618787571821
834,00:00:03.336,-0.0046183418016880785
835,00:00:03.34,-0.01415237085893747
836,00:00:03.344,0.01793277589604254
837,00:00:03.348,0.0253742886707186
838,00:00:03.352,-0.033032602630555685
839,00:00:03.356,-0.005092805251479117
840,00:00:03.36,0.0014743986539543005
841,00:00:03.364,-0.0022568686399608894
842,00:00:03.368,0.03246627887710928
843,00:00:03.372,0.0205901861190796
844,00:00:03.376,0.019860709086060496
845,00:00:03.38,-0.09816260635852808
846,00:00:03.384,-0.051454056520014994
847,00:00:03.388,0.013496669009327934
848,00:00:03.392,0.07205314864404495
849,00:00:03.396,0.05803771084174513
850,00:00:03.4,-0.02554738477920184
851,00:00:03.404,0.0033164145424962087
852,00:00:03.408,0.0254199784249068
853,00:00:03.412,-0.07300403527915476
854,00:00:03.416,-0.007731626275926789
855,00:00:03.42,-0.04044381016865373
856,00:00:03.424,-0.004526706528849907
857,00:00:03.428,0.06878004409372812
858,00:00:03.432,0.03141641430556773
859,00:00:03.436,0.010035434159362921
860,00:00:03.44,-0.022333247354254182
861,00:00:03.444,-0.044554418884217795
862,00:00:03.448,-0.02565900678746405
863,00:00:03.452,0.0792047582217492
864,00:00:03.456,0.08001906517893081
865,00:00:03.46,-0.06882952153682707
866,00:00:03.464,-0.13168193586170682
867,00:00:03.468,-0.0139831509441138
868,00:00:03.472,0.05816063703969118
869,00:00:03.476,0.052996010053902844
870,00:00:03.48,0.02859412459656592
871,00:00:03.484,0.02076797187328338
872,00:00:03.488,-0.017831273376941674
873,00:00:03.492,-0.017865412519313388
874,00:00:03.496,0.002503022551536541
875,00:00:03.5,-0.0658379653468728
876,00:00:03.504,-0.020328633487224593
877,00:00:03.508,0.06109577216557231
878,00:00:03.512,-0.013801399778458293
879,00:00:03.516,0.0014237761497497073
880,00:00:03.52,0.028997622430324548
881,00:00:03.524,0.008871475431078631
882,00:00:03.528,0.013363436795771098
883,00:00:03.532,-0.026661962270736694
884,00:00:03.536,-0.02420935151167209
885,00:00:03.54,-0.01610616594552992
886,00:00:03.544,0.020112251862883603
887,00:00:03.548,0.026369528844952604
888,00:00:03.552,0.02831634692847723
889,00:00:03.556,-0.024600956588983557
890,00:00:03.56,-0.10116718523204332
891,00:00:03.564,0.06849238136783245
892,00:00:03.568,0.0005863606929779053
893,00:00:03.572,-0.001590100117027697
894,00:00:03.576,0.02728759031742816
895,00:00:03.58,0.002521111164242069
896,00:00:03.584,0.02208570856600995
897,00:00:03.588,0.0019595795311033682
898,00:00:03.592,-0.0196017622947693
899,00:00:03.596,-0.057949221576563986
900,00:00:03.6,-0.03415693691931666
901,00:00:03.604,0.046077265869826085
902,00:00:03.608,0.014896146021783399
903,00:00:03.612,0.04694902081973856
904,00:00:03.616,-0.0048827589489519214
905,00:00:03.62,-0.03068638639524581
906,00:00:03.624,-0.019091584952548132
907,00:00:03.628,0.04062037664698436
908,00:00:03.632,0.022349594160914404
909,00:00:03.636,-0.046157790347933804
910,00:00:03.64,-0.01215701084584
911,00:00:03.644,-0.05229810159653431
912,00:00:03.648,-0.0075516036013141205
913,00:00:03.652,0.08157075894996521
914,00:00:03.656,0.03788928594440225
915,00:00:03.66,0.0010066393297165094
916,00:00:03.664,-0.01743378303945065
917,00:00:03.668,-0.014508929220028239
918,00:00:03.672,-0.018418619409203564
919,00:00:03.676,-0.033082834444940104
920,00:00:03.68,-0.0055362007115035885
921,00:00:03.684,0.01840822957456114
922,00:00:03.688,0.0368985440582037
923,00:00:03.692,0.0167940482497215
924,00:00:03.696,-0.020501803606748498
925,00:00:03.7,-0.0028885591309517414
926,00:00:03.704,-0.0013910725247115014
927,00:00:03.708,-0.01785802270751445
928,00:00:03.712,-0.0024419627152383197
929,00:00:03.716,-0.01848667371086779
930,00:00:03.72,0.037946885451674475
931,00:00:03.724,0.045794614125043105
932,00:00:03.728,0.007696495857089701
933,00:00:03.732,-0.0862716278061271
934,00:00:03.736,-0.03343642549589279
935,00:00:03.74,0.0011360878124833038
936,00:00:03.744,0.04313697107136254
937,00:00:03.748,0.0652401018887758
938,00:00:03.752,0.024192036129534203
939,00:00:03.756,-0.03700095159001649
940,00:00:03.76,-0.03969469387084242
941,00:00:03.764,-0.03811289102304726
942,00:00:03.768,0.0023420276120305217
943,00:00:03.772,0.005215396173298321
944,00:00:03.776,0.03367014857940375
945,00:00:03.78,0.04960911720991136
946,00:00:03.784,0.008089941693469879
947,00:00:03.788,-0.06159454258158803
948,00:00:03.792,-0.040262486785650295
949,00:00:03.796,0.00585844414308666
950,00:00:03.8,0.04727485775947579
951,00:00:03.804,0.02321559668052945
952,00:00:03.808,-0.01717509306035936
953,00:00:03.812,-0.02926655253395438
954,00:00:03.816,0.004380804835818699
955,00:00:03.82,0.02354723378084599
956,00:00:03.824,-0.0033057411201298406
957,00:00:03.828,-0.01587372785434133
958,00:00:03.832,-0.006503987126052451
959,00:00:03.836,0.010226010344922497
960,00:00:03.84,0.018865143880248084
961,00:00:03.844,-0.039235632284544346
962,00:00:03.848,0.00168262142688036
963,00:00:03.852,0.06836677994579075
964,00:00:03.856,0.008273564802948368
965,00:00:03.86,-0.07134961662814017
966,00:00:03.864,-0.039618252310901894
967,00:00:03.868,0.02281849645078178
968,00:00:03.872,0.0192019823007285
969,00:00:03.876,0.046279446192784186
970,00:00:03.88,0.028533435426652466
971,00:00:03.884,-0.05836081225425006
972,00:00:03.888,-0.02424821467138822
973,00:00:03.892,0.00554904388263822
974,00:00:03.896,-0.014152290532365478
975,00:00:03.9,0.005548645858652888
976,00:00:03.904,0.04704190511256461
977,00:00:03.908,0.028669808001723158
978,00:00:03.912,0.0032004088861867694
979,00:00:03.916,-0.0952781029045582
980,00:00:03.92,-0.04782229289412499
981,00:00:03.924,0.07417599949985748
982,00:00:03.928,0.08201813185587516
983,00:00:03.932,-0.02254347433336077
984,00:00:03.936,-0.04779524262994529
985,00:00:03.94,-0.033113266108557526
986,00:00:03.944,-0.002012236451264471
987,00:00:03.948,0.043195115169510266
988,00:00:03.952,0.020676837535574977
989,00:00:03.956,-0.03026433615013959
990,00:00:03.96,-0.00789121817797429
991,00:00:03.964,0.029308713390491972
992,00:00:03.968,0.025333407334983293
993,00:00:03.972,-0.029186079045757683
994,00:00:03.976,-0.055486759752966484
995,00:00:03.98,-0.01072934083640571
996,00:00:03.984,0.04158984223613517
997,00:00:03.988,0.0280177108943462
998,00:00:03.992,-0.005766305606812192
999,00:00:03.996,0.012055708095431352
1000,00:00:04,0.03100295970216395
1001,00:00:04.004,-0.0021871668286621224
1002,00:00:04.008,-0.07629817421548069
1003,00:00:04.012,-0.0776955578476191
1004,00:00:04.016,0.035777497570961714
1005,00:00:04.02,0.08224619843531408
1006,00:00:04.024,0.02899953117594119
1007,00:00:04.028,-0.014412816148251267
1008,00:00:04.032,-0.012913647573441312
1009,00:00:04.036,-0.010880354660912424
1010,00:00:04.04,-0.021902057342231288
1011,00:00:04.044,0.035469691792968695
1012,00:00:04.048,0.01069621276110409
1013,00:00:04.052,-0.046667142305523136
1014,00:00:04.056,-0.03691294847521939
1015,00:00:04.06,-0.004644972970709249
1016,00:00:04.064,0.03507873881608248
1017,00:00:04.068,0.08465829398483041
1018,00:00:04.072,-0.01243859878741204
1019,00:00:04.076,-0.06823596544563759
1020,00:00:04.08,0.0028777089901268482
1021,00:00:04.084,0.06917479494586587
1022,00:00:04.088,-0.0046139862388372005
1023,00:00:04.092,-0.1297709885984657
1024,00:00:04.096,0.0787279948708601
1025,00:00:04.1,0.011841067112982297
1026,00:00:04.104,-0.043158292770385805
1027,00:00:04.108,0.003762595821172039
1028,00:00:04.112,0.02382017718628058
1029,00:00:04.116,0.01691412134096025
1030,00:00:04.12,-0.0005977391265332603
1031,00:00:04.124,-0.0017795161111280316
1032,00:00:04.128,0.0220838461536914
1033,00:00:04.132,0.014682271052151957
1034,00:00:04.136,-0.013988058082759328
1035,00:00:04.14,-0.04025683365762239
1036,00:00:04.144,-0.0356642324477434
1037,00:00:04.148,-0.047076426446437905
1038,00:00:04.152,0.047538716346025404
1039,00:00:04.156,0.06391702964901921
1040,00:00:04.16,0.019536127336323202
1041,00:00:04.164,0.017585984431207104
1042,00:00:04.168,-0.012253063730895603
1043,00:00:04.172,-0.05684686452150349
1044,00:00:04.176,-0.028719591908156896
1045,00:00:04.18,0.04849811503663659
1046,00:00:04.184,-0.000643476843833919
1047,00:00:04.188,-0.014292639680206729
1048,00:00:04.192,-0.00919671915471553
1049,00:00:04.196,-0.011858963407576056
1050,00:00:04.2,0.03759420383721588
1051,00:00:04.204,-0.01232914277352395
1052,00:00:04.208,-0.0029258850263431703
1053,00:00:04.212,0.02900906186550858
1054,00:00:04.216,-0.0037566556129605168
1055,00:00:04.22,-0.0015917897690087505
1056,00:00:04.224,-0.025153026916086677
1057,00:00:04.228,-0.015911072492599498
1058,00:00:04.232,0.029589766170829528
1059,00:00:04.236,0.006096009165048623
1060,00:00:04.24,-0.036617809673771234
1061,00:00:04.244,-0.013244942412711663
1062,00:00:04.248,0.03080574690829965
1063,00:00:04.252,0.051815381739288575
1064,00:00:04.256,0.004419446922838679
1065,00:00:04.26,-0.048077623359859004
1066,00:00:04.264,-0.04937793454155323
1067,00:00:04.268,0.015174730215221647
1068,00:00:04.272,0.0485393479466438
1069,00:00:04.276,-0.00856816116720439
1070,00:00:04.28,0.0048354780301451804
1071,00:00:04.284,0.011847881600260698
1072,00:00:04.288,-0.041323927114717704
1073,00:00:04.292,-0.02682917146012185
1074,00:00:04.296,0.05677173845469945
1075,00:00:04.3,0.07576484023593363
1076,00:00:04.304,-0.06455314900085797
1077,00:00:04.308,-0.11795481224544346
1078,00:00:04.312,-0.002418545540422242
1079,00:00:04.316,0.11859515006653965
1080,00:00:04.32,0.06603033561259507
1081,00:00:04.324,-0.0653790850192308
1082,00:00:04.328,-0.03787705115973952
1083,00:00:04.332,0.00207132659852512
1084,00:00:04.336,0.00792683567851778
1085,00:00:04.34,0.02253169170580801
1086,00:00:04.344,0.025707959488499917
1087,00:00:04.348,-0.0534854913130403
1088,00:00:04.352,-0.026154187042266155
1089,00:00:04.356,-0.006418081931769924
1090,00:00:04.36,0.008471232373267395
1091,00:00:04.364,0.03235832089558238
1092,00:00:04.368,0.03249643417075277
1093,00:00:04.372,0.018593365326523798
1094,00:00:04.376,-0.028698660957161302
1095,00:00:04.38,-0.01166802790248767
1096,00:00:04.384,-0.0147451842203737
1097,00:00:04.388,-0.03776888735592361
1098,00:00:04.392,0.02124525909312067
1099,00:00:04.396,0.08024653443135316
1100,00:00:04.4,-0.0186065249145031
1101,00:00:04.404,-0.06467642541974788
1102,00:00:04.408,-0.005010645138099793
1103,00:00:04.412,-0.0034518300089985098
1104,00:00:04.416,0.0121243540197611
1105,00:00:04.42,0.01710708951577545
1106,00:00:04.424,0.025201030424796052
1107,00:00:04.428,-0.007308848900720512
1108,00:00:04.432,0.02513050206471237
1109,00:00:04.436,0.030509653035551344
1110,00:00:04.44,-0.0675544873811305
1111,00:00:04.444,-0.051473956555128146
1112,00:00:04.448,-0.012349836528301218
1113,00:00:04.452,0.04169271001592275
1114,00:00:04.456,0.026950513944029794
1115,00:00:04.46,0.006668074987828721
1116,00:00:04.464,-0.0017299349128734268
1117,00:00:04.468,0.014302741270512329
1118,00:00:04.472,-0.0115148238837719
1119,00:00:04.476,-0.01687285699881614
1120,00:00:04.48,0.00844329618848862
1121,00:00:04.484,-0.02479506111558294
1122,00:00:04.488,0.01538355834782119
1123,00:00:04.492,0.04241562169045212
1124,00:00:04.496,-0.02631092292722316
1125,00:00:04.5,-0.04821316665038462
1126,00:00:04.504,-0.023290127515792743
1127,00:00:04.508,0.0834196452051401
1128,00:00:04.512,-0.013534997589886197
1129,00:00:04.516,-0.014723444473929669
1130,00:00:04.52,0.0008334708400070702
1131,00:00:04.524,0.0114011843688786
1132,00:00:04.528,0.03906628105323765
1133,00:00:04.532,0.0034937346354126687
1134,00:00:04.536,-0.02069592266343532
1135,00:00:04.54,-0.1069451933726668
1136,00:00:04.544,-0.03597880760207778
1137,00:00:04.548,0.0692539112642407
1138,00:00:04.552,0.114716992713511
1139,00:00:04.556,0.010335018858313613
1140,00:00:04.56,-0.0585368787869812
1141,00:00:04.564,-0.04999865964055049
1142,00:00:04.568,-0.007851436035707579
1143,00:00:04.572,0.03714457293972372
1144,00:00:04.576,0.02384639019146564
1145,00:00:04.58,-0.008746040519326918
1146,00:00:04.584,-0.0026770820259116833
1147,00:00:04.588,-0.0337300831452012
1148,00:00:04.592,-0.01809922582469877
1149,00:00:04.596,0.02618203079327936
1150,00:00:04.6,0.00903229112736885
1151,00:00:04.604,0.0020756516605615607
1152,00:00:04.608,0.01256117597222329
1153,00:00:04.612,-0.00768557423725725
1154,00:00:04.616,0.00514798809308554
1155,00:00:04.62,0.0695435972884297
1156,00:00:04.624,-0.03868291311664511
1157,00:00:04.628,-0.1067963854875416
1158,00:00:04.632,-0.0377336898818613
1159,00:00:04.636,0.05299281748011709
1160,00:00:04.64,0.06429135496728117
1161,00:00:04.644,0.02278291713446379
1162,00:00:04.648,0.00997827120590959
1163,00:00:04.652,0.01142529211938384
1164,00:00:04.656,-0.022978032473474727
1165,00:00:04.66,-0.07575838360935452
1166,00:00:04.664,0.027613101992756177
1167,00:00:04.668,0.004320082487538429
1168,00:00:04.672,-0.01937916874885563
1169,00:00:04.676,0.021292693912983
1170,00:00:04.68,0.01470303907990456
1171,00:00:04.684,0.0021542839822358867
1172,00:00:04.688,-0.02006114646792415
1173,00:00:04.692,0.0093066887930036
1174,00:00:04.696,-0.03764850087463852
1175,00:00:04.7,0.02468544698785989
1176,00:00:04.704,0.1173749382578535
1177,00:00:04.708,0.008598232605436342
1178,00:00:04.712,-0.1348546333611012
1179,00:00:04.716,-0.09761863871244715
1180,00:00:04.72,0.03553184308111663
1181,00:00:04.724,0.06289677694439887
1182,00:00:04.728,0.05043958872556684
1183,00:00:04.732,0.013603385421447407
1184,00:00:04.736,-0.03295439248904588
1185,00:00:04.74,0.011277829762548208
1186,00:00:04.744,0.052510034467559294
1187,00:00:04.748,0.017698212162940735
1188,00:00:04.752,-0.0971143450587987
1189,00:00:04.756,-0.0819076430052519
1190,00:00:04.76,-0.035952437669038696
1191,00:00:04.764,0.0528651466593146
1192,00:00:04.768,0.0754627194255591
1193,00:00:04.772,0.058548239991068896
1194,00:00:04.776,0.014587133191525981
1195,00:00:04.78,-0.03002092824317521
1196,00:00:04.784,-0.0504118138924241
1197,00:00:04.788,-0.02558528864756229
1198,00:00:04.792,0.03163480106741182
1199,00:00:04.796,-0.002447492443025108
1200,00:00:04.8,0.03335768822580576
1201,00:00:04.804,-0.0318910146597773
1202,00:00:04.808,-0.0560399629175663
1203,00:00:04.812,0.00357959279790521
1204,00:00:04.816,0.03968505529337557
1205,00:00:04.82,0.0350493509322405
1206,00:00:04.824,0.013035302807111269
1207,00:00:04.828,-0.0176510289311409
1208,00:00:04.832,-0.023435798939317513
1209,00:00:04.836,-0.005760778964031457
1210,00:00:04.84,0.00130553846247494
1211,00:00:04.844,0.0014231307432055517
1212,00:00:04.848,0.005316531984135451
1213,00:00:04.852,0.05156494386028495
1214,00:00:04.856,-0.011165493633598091
1215,00:00:04.86,-0.08065797807648775
1216,00:00:04.864,0.025765579193830504
1217,00:00:04.868,-0.0321505386382341
1218,00:00:04.872,0.07829372631385927
1219,00:00:04.876,-0.0340098515152931
1220,00:00:04.88,-0.02653346396982671
1221,00:00:04.884,0.02188709937036041
1222,00:00:04.888,0.050554600544273826
1223,00:00:04.892,0.02205268252873789
1224,00:00:04.896,-0.021091510774567702
1225,00:00:04.9,-0.06582824885845188
1226,00:00:04.904,-0.041806999128311866
1227,00:00:04.908,0.00789440388325607
1228,00:00:04.912,0.03406218253076081
1229,00:00:04.916,0.043644525459967554
1230,00:00:04.92,0.017590261064469773
1231,00:00:04.924,-0.006285305600613352
1232,00:00:04.928,0.0009978506714106022
1233,00:00:04.932,-0.01987923833075907
1234,00:00:04.936,-0.020731613971293018
1235,00:00:04.94,-0.02915418846532699
1236,00:00:04.944,-0.012312452308833592
1237,00:00:04.948,0.03147770871873941
1238,00:00:04.952,0.021407073014415808
1239,00:00:04.956,0.03405051492154594
1240,00:00:04.96,0.0129810189828276
1241,00:00:04.964,-0.04842811683192847
1242,00:00:04.968,-0.024556504678912516
1243,00:00:04.972,0.019656511023640657
1244,00:00:04.976,-0.037140531465411165
1245,00:00:04.98,0.018110313452780198
1246,00:00:04.984,0.05561489798128609
1247,00:00:04.988,0.030235326848924212
1248,00:00:04.992,-0.02973903156816962
1249,00:00:04.996,-0.0817010756582022
1250,00:00:05,-0.025672713496533096
1251,00:00:05.004,0.05610714125214143
1252,00:00:05.008,0.03992969263345008
1253,00:00:05.012,0.014792706351727181
1254,00:00:05.016,-0.006338455248624109
1255,00:00:05.02,-0.026753194630146
1256,00:00:05.024,-0.03265904076397425
1257,00:00:05.028,-0.012077658437192438
1258,00:00:05.032,0.017388800159096697
1259,00:00:05.036,0.02337805042043333
1260,00:00:05.04,0.03562092315405602
1261,00:00:05.044,0.005664628930389881
1262,00:00:05.048,0.003515044227242508
1263,00:00:05.052,-0.06977435620501636
1264,00:00:05.056,-0.0375656448304654
1265,00:00:05.06,0.061867647804319796
1266,00:00:05.064,0.02254068152979015
1267,00:00:05.068,-0.03816094738431276
1268,00:00:05.072,-0.01858646236360072
1269,00:00:05.076,0.020944029092788682
1270,00:00:05.08,0.05676178075373166
1271,00:00:05.084,0.01420812634751203
1272,00:00:05.088,-0.048301141941919895
1273,00:00:05.092,-0.037786216125823543
1274,00:00:05.096,0.004822929855436021
1275,00:00:05.1,-0.018312143161892898
1276,00:00:05.104,0.01343277236446733
1277,00:00:05.108,0.07621938176453114
1278,00:00:05.112,0.00848331385350322
1279,00:00:05.116,-0.03327704034745694
1280,00:00:05.12,-0.05083007132634524
1281,00:00:05.124,-0.0358509276993573
1282,00:00:05.128,0.04284558305516836
1283,00:00:05.132,0.08104083221405742
1284,00:00:05.136,-0.000691569061018589
1285,00:00:05.14,-0.07714322399779407
1286,00:00:05.144,-0.055387040600180695
1287,00:00:05.148,0.015338346478529288
1288,00:00:05.152,0.09391897730529311
1289,00:00:05.156,0.049999035894870696
1290,00:00:05.16,-0.0388114377856254
1291,00:00:05.164,-0.08144044410437352
1292,00:00:05.168,-0.02291876217350357
1293,00:00:05.172,0.012127363588660948
1294,00:00:05.176,0.03127510962076483
1295,00:00:05.18,0.02829201612621545
1296,00:00:05.184,0.02323696715757246
1297,00:00:05.188,0.0017583756707608492
1298,00:00:05.192,-0.06684435158967969
1299,00:00:05.196,-0.007386709563434129
1300,00:00:05.2,0.1249800641089677
1301,00:00:05.204,-0.025786220794543627
1302,00:00:05.208,-0.1180735863745213
1303,00:00:05.212,-0.02710581198334699
1304,00:00:05.216,0.02567175775766374
1305,00:00:05.22,0.03635262907482679
1306,00:00:05.224,0.021522005088627307
1307,00:00:05.228,0.042303343303501564
1308,00:00:05.232,0.022259593941271288
1309,00:00:05.236,-0.06178011745214468
1310,00:00:05.24,0.0225533731281758
1311,00:00:05.244,0.0182224968448281
1312,00:00:05.248,-0.06793668586760766
1313,00:00:05.252,-0.07636467833071946
1314,00:00:05.256,0.01735199976246804
1315,00:00:05.26,0.06874069455079743
1316,00:00:05.264,0.03728679986670614
1317,00:00:05.268,0.01076916046440603
1318,00:00:05.272,-0.009644713718444152
1319,00:00:05.276,0.013744674623012501
1320,00:00:05.28,0.022449149284511784
1321,00:00:05.284,-0.04641635995358228
1322,00:00:05.288,-0.0787340048700571
1323,00:00:05.292,0.008466592058539401
1324,00:00:05.296,0.01513939537107941
1325,00:00:05.3,0.01804715325124562
1326,00:00:05.304,0.0468343291431665
1327,00:00:05.308,0.0215325020253658
1328,00:00:05.312,-0.030024482868611806
1329,00:00:05.316,-0.031603404553607106
1330,00:00:05.32,-0.002908437978476299
1331,00:00:05.324,-0.0010638426756486921
1332,00:00:05.328,0.04675260547082877
1333,00:00:05.332,-0.00832750182598836
1334,00:00:05.336,0.006400633603334397
1335,00:00:05.34,0.023654101416468606
1336,00:00:05.344,-0.1192366620525717
1337,00:00:05.348,-0.047141756862402004
1338,00:00:05.352,0.0825866851955652
1339,00:00:05.356,0.07655365113168956
1340,00:00:05.36,0.020884741097688654
1341,00:00:05.364,-0.017009528353810303
1342,00:00:05.368,-0.0367385651916266
1343,00:00:05.372,-0.02313630888238548
1344,00:00:05.376,0.006288990378379801
1345,00:00:05.38,0.004079204052686731
1346,00:00:05.384,-0.031022628478240222
1347,00:00:05.388,0.00748426467180255
1348,00:00:05.392,0.018785302527248783
1349,00:00:05.396,0.03517306828871368
1350,00:00:05.4,-0.027337173931300612
1351,00:00:05.404,-0.00535252760164441
1352,00:00:05.408,0.027068242430686982
1353,00:00:05.412,0.016449769958853694
1354,00:00:05.416,-0.03958011139184241
1355,00:00:05.42,-0.0355182774364949
1356,00:00:05.424,0.003221878316253389
1357,00:00:05.428,0.02227531326934698
1358,00:00:05.432,0.00881252822000533
1359,00:00:05.436,0.007056761300191308
1360,00:00:05.44,-0.013831834890879701
1361,00:00:05.444,0.03320846101269128
1362,00:00:05.448,0.021056520577985773
1363,00:00:05.452,-0.02147950185462836
1364,00:00:05.456,-0.02176261134445667
1365,00:00:05.46,-0.03858239110559225
1366,00:00:05.464,0.05771460756659506
1367,00:00:05.468,-0.0677829477936029
1368,00:00:05.472,-0.048282656731316764
1369,00:00:05.476,0.0803300599218346
1370,00:00:05.48,0.09527635388076303
1371,00:00:05.484,0.005905591882765279
1372,00:00:05.488,-0.09001873806118973
1373,00:00:05.492,-0.027511654654517773
1374,00:00:05.496,0.01433244533836843
1375,00:00:05.5,-0.0077890744432807316
1376,00:00:05.504,0.008172733709216139
1377,00:00:05.508,0.0251660281792283
1378,00:00:05.512,0.0015306144487112695
1379,00:00:05.516,-0.008809646184090525
1380,00:00:05.52,0.01850781962275496
1381,00:00:05.524,-0.02478331956081099
1382,00:00:05.528,-0.013068402739008902
1383,00:00:05.532,0.01998717570677403
1384,00:00:05.536,0.04110646736808114
1385,00:00:05.54,-0.030148091027513153
1386,00:00:05.544,-0.0453768046572805
1387,00:00:05.548,-0.0016645344439894108
1388,00:00:05.552,0.026253364980220822
1389,00:00:05.556,0.0045504719018936435
1390,00:00:05.56,-0.015677039336878813
1391,00:00:05.564,0.01140380743891003
1392,00:00:05.568,0.0544124422594905
1393,00:00:05.572,0.013240077765658487
1394,00:00:05.576,-0.03719863900914787
1395,00:00:05.58,-0.0761163169518113
1396,00:00:05.584,-0.01986069310805761
1397,00:00:05.588,0.052051999606192105
1398,00:00:05.592,0.013816011138260377
1399,00:00:05.596,0.03900738246738905
1400,00:00:05.6,0.039677401189692305
1401,00:00:05.604,-0.0488856950832996
1402,00:00:05.608,-0.046951195225119646
1403,00:00:05.612,-0.01759298844262956
1404,00:00:05.616,0.006961776078242115
1405,00:00:05.62,0.0599551731720567
1406,00:00:05.624,0.017299908213317353
1407,00:00:05.628,-0.07345105102285736
1408,00:00:05.632,0.002752363332547199
1409,00:00:05.636,0.04484701063483957
1410,00:00:05.64,0.008364003617316474
1411,00:00:05.644,0.00033012218773367016
1412,00:00:05.648,-0.044349997770041304
1413,00:00:05.652,-0.03061786701437085
1414,00:00:05.656,0.03265309100970626
1415,00:00:05.66,0.011729437159374304
1416,00:00:05.664,0.03918001661077147
1417,00:00:05.668,0.04879409400746223
1418,00:00:05.672,-0.0731985997408629
1419,00:00:05.676,-0.06746762804687027
1420,00:00:05.68,0.0026498488150537205
1421,00:00:05.684,0.0473080752417446
1422,00:00:05.688,0.0011317014577798198
1423,00:00:05.692,0.005024007288739051
1424,00:00:05.696,0.0552524984814226
1425,00:00:05.7,-0.04672286851564421
1426,00:00:05.704,-0.01517112512374294
1427,00:00:05.708,0.02074340591207148
1428,00:00:05.712,-0.01491648051887751
1429,00:00:05.716,0.023083906620740904
1430,00:00:05.72,-0.021181757561862448
1431,00:00:05.724,-0.03803358413279062
1432,00:00:05.728,-0.014717996120452895
1433,00:00:05.732,0.06387966498732563
1434,00:00:05.736,0.00021427054889504088
1435,00:00:05.74,-0.01993240509182211
1436,00:00:05.744,0.048060045577585704
1437,00:00:05.748,0.016896775458008096
1438,00:00:05.752,-0.028013566043227932
1439,00:00:05.756,-0.05035005253739651
1440,00:00:05.76,-0.0176645424216986
1441,00:00:05.764,-0.00703368335962289
1442,00:00:05.768,0.007328846491873247
1443,00:00:05.772,0.029078715946525308
1444,00:00:05.776,0.0366618395783007
1445,00:00:05.78,0.01574706914834679
1446,00:00:05.784,-0.007252411043737079
1447,00:00:05.788,-0.010698826052248502
1448,00:00:05.792,-0.0280496925115586
1449,00:00:05.796,-0.02889383307774545
1450,00:00:05.8,-0.0024859639815986104
1451,00:00:05.804,0.033812976907938705
1452,00:00:05.808,0.05077530542621386
1453,00:00:05.812,-0.07057663984596729
1454,00:00:05.816,-0.03693657228723163
1455,00:00:05.82,0.06676889583468439
1456,00:00:05.824,0.0806168168783188
1457,00:00:05.828,-0.04387094918638469
1458,00:00:05.832,-0.10858515463769436
1459,00:00:05.836,-0.010534886969253419
1460,00:00:05.84,0.07949863513931629
1461,00:00:05.844,0.0138046556385234
1462,00:00:05.848,-0.00414585042744875
1463,00:00:05.852,0.004763239063322538
1464,00:00:05.856,-0.03001729678362616
1465,00:00:05.86,-0.013048436958342749
1466,00:00:05.864,0.05566353560425337
1467,00:00:05.868,-0.00022852251277072355
1468,00:00:05.872,-0.0199867966584861
1469,00:00:05.876,-0.03261239873245354
1470,00:00:05.88,-0.03542451746761795
1471,00:00:05.884,0.03416666388511658
1472,00:00:05.888,0.018935731553938233
1473,00:00:05.892,-0.003971576690673852
1474,00:00:05.896,0.019523872062564
1475,00:00:05.9,0.02856346569024025
1476,00:00:05.904,-0.014187223277986091
1477,00:00:05.908,-0.005671959370374727
1478,00:00:05.912,0.02183501375839118
1479,00:00:05.916,-0.05102296266704802
1480,00:00:05.92,-0.09125432744622229
1481,00:00:05.924,0.014138465514406529
1482,00:00:05.928,0.09196103317663071
1483,00:00:05.932,0.035376798361539785
1484,00:00:05.936,-0.003251409245422111
1485,00:00:05.94,-0.00795175787061452
1486,00:00:05.944,-0.01548701291903853
1487,00:00:05.948,-0.030507903546094894
1488,00:00:05.952,-0.02938320417888459
1489,00:00:05.956,0.02852142741903667
1490,00:00:05.96,0.022208709269761966
1491,00:00:05.964,0.046640864573419205
1492,00:00:05.968,0.01231999834999439
1493,00:00:05.972,-0.06365123763680461
1494,00:00:05.976,-0.0696857385337353
1495,00:00:05.98,-0.01786245824769142
1496,00:00:05.984,0.013346102321520458
1497,00:00:05.988,0.0929732834920287
1498,00:00:05.992,0.0718067763373256
1499,00:00:05.996,-0.01550511317327622
1500,00:00:06,-0.07226690463721754
1501,00:00:06.004,-0.01948630163678901
1502,00:00:06.008,-0.04257077723741529
1503,00:00:06.012,0.029110726434737437
1504,00:00:06.016,0.036819934204686426
1505,00:00:06.02,0.018048078985884737
1506,00:00:06.024,-0.0003859050339087705
1507,00:00:06.028,-0.02981291292235257
1508,00:00:06.032,-0.011644982732832432
1509,00:00:06.036,0.01177070057019594
1510,00:00:06.04,-0.015081431716680499
1511,00:00:06.044,-0.03492397727677597
1512,00:00:06.048,0.0458615953102708
1513,00:00:06.052,0.07226256094872961
1514,00:00:06.056,0.02783615246880801
1515,00:00:06.06,-0.04181729094125334
1516,00:00:06.064,-0.12794013693928719
1517,00:00:06.068,-0.039938997477293
1518,00:00:06.072,0.07385109574534006
1519,00:00:06.076,0.0845691803842783
1520,00:00:06.08,-0.0041745733469725
1521,00:00:06.084,-0.005780354142189092
1522,00:00:06.088,-0.02035852940753099
1523,00:00:06.092,-0.024700821319129308
1524,00:00:06.096,0.005759520921856123
1525,00:00:06.1,0.006834966130554596
1526,00:00:06.104,0.015807738527655595
1527,00:00:06.108,0.03792996145784851
1528,00:00:06.112,-0.021557475440204178
1529,00:00:06.116,-0.1170789748430251
1530,00:00:06.12,-0.029294581385329383
1531,00:00:06.124,0.10885608941316602
1532,00:00:06.128,0.0656950157135724
1533,00:00:06.132,-0.0007721562869847098
1534,00:00:06.136,-0.0210922537371516
1535,00:00:06.14,-0.029624315444379972
1536,00:00:06.144,-0.04562028171494606
1537,00:00:06.148,-0.00546974630560725
1538,00:00:06.152,0.05656834179535509
1539,00:00:06.156,0.05679018422961231
1540,00:00:06.16,-0.05878277056035585
1541,00:00:06.164,-0.06793197803199291
1542,00:00:06.168,0.02270594413857912
1543,00:00:06.172,-0.0022405181080103025
1544,00:00:06.176,0.036877269856631804
1545,00:00:06.18,0.02334594028070569
1546,00:00:06.184,0.004219594411551952
1547,00:00:06.188,-0.01558443857356906
1548,00:00:06.192,0.011080138589022718
1549,00:00:06.196,-0.002343212370760737
1550,00:00:06.2,-0.03380503575317563
1551,00:00:06.204,-0.01061727874912323
1552,00:00:06.208,0.01853876980021598
1553,00:00:06.212,-0.012203763006255062
1554,00:00:06.216,-0.02978600561618798
1555,00:00:06.22,0.03964018309488896
1556,00:00:06.224,0.005748816765844905
1557,00:00:06.228,0.03538783034309743
1558,00:00:06.232,0.003428370575420542
1559,00:00:06.236,-0.015284505672752859
1560,00:00:06.24,-0.0044638422550633515
1561,00:00:06.244,-0.020334368571639103
1562,00:00:06.248,-0.0001748781651258499
1563,00:00:06.252,-0.034963205922394894
1564,00:00:06.256,-0.007739350199699398
1565,00:00:06.26,0.01994559727609159
1566,00:00:06.264,0.0028677474474533837
1567,00:00:06.268,0.05694570299237969
1568,00:00:06.272,0.03250500292051588
1569,00:00:06.276,-0.01169617101550104
1570,00:00:06.28,-0.05832868209108709
1571,00:00:06.284,-0.05924597242847086
1572,00:00:06.288,0.016229318571276997
1573,00:00:06.292,0.01730849227169528
1574,00:00:06.296,0.0561465801438316
1575,00:00:06.3,-0.0063844732940197026
1576,00:00:06.304,-0.009596251416951439
1577,00:00:06.308,0.0150720430538058
1578,00:00:06.312,-0.024038773990469067
1579,00:00:06.316,-0.03800100320950149
1580,00:00:06.32,0.033460099686635617
1581,00:00:06.324,0.034704412566497846
1582,00:00:06.328,-0.03578807390294977
1583,00:00:06.332,-0.029237826354801738
1584,00:00:06.336,0.0017862804234027585
1585,00:00:06.34,0.03531579440459612
1586,00:00:06.344,0.08202321082353589
1587,00:00:06.348,-0.0619944343343377
1588,00:00:06.352,-0.03893144661560653
1589,00:00:06.356,-0.05757061779149808
1590,00:00:06.36,0.002408771775663003
1591,00:00:06.364,0.08036569226533168
1592,00:00:06.368,0.035158224636688856
1593,00:00:06.372,-0.01256251183804125
1594,00:00:06.376,-0.021695418749004623
1595,00:00:06.38,-0.00022517889738074906
1596,00:00:06.384,-0.03308385796844959
1597,00:00:06.388,0.037720038555562496
1598,00:00:06.392,-0.03141014231368897
1599,00:00:06.396,-0.0288949580863119
1600,00:00:06.4,0.024229522561654417
1601,00:00:06.404,0.0380181407090276
1602,00:00:06.408,0.012702341191470559
1603,00:00:06.412,-0.0004810009922948458
1604,00:00:06.416,-0.047642638906836524
1605,00:00:06.42,-0.023271736688911897
1606,00:00:06.424,0.05671083624474705
1607,00:00:06.428,0.00972145667765295
1608,00:00:06.432,0.0010907142423093145
1609,00:00:06.436,-0.040885662427172106
1610,00:00:06.44,-0.02957405569031838
1611,00:00:06.444,0.01222079084254797
1612,00:00:06.448,0.026610078173689527
1613,00:00:06.452,0.026698481291532503
1614,00:00:06.456,0.02328690327703949
1615,00:00:06.46,-0.011321476544253533
1616,00:00:06.464,-0.04039129684679215
1617,00:00:06.468,-0.02849864982999857
1618,00:00:06.472,-0.01459120959043507
1619,00:00:06.476,0.054760297760367393
1620,00:00:06.48,0.01827587583102286
1621,00:00:06.484,-0.006735367700457521
1622,00:00:06.488,-0.01721937209367748
1623,00:00:06.492,-0.00539916753768923
1624,00:00:06.496,-0.02438587858341638
1625,00:00:06.5,0.0076036090031266195
1626,00:00:06.504,0.04400123469531539
1627,00:00:06.508,0.02454569248948245
1628,00:00:06.512,-0.027828396297991283
1629,00:00:06.516,-0.0376476775854826
1630,00:00:06.52,0.03944254806265238
1631,00:00:06.524,-0.01810218824539331
1632,00:00:06.528,-0.05248654726892711
1633,00:00:06.532,-0.0009898901917040105
1634,00:00:06.536,0.06490469397976989
1635,00:00:06.54,0.01513433037325745
1636,00:00:06.544,-0.05126581783406436
1637,00:00:06.548,0.03842277918010955
1638,00:00:06.552,0.03526765760034322
1639,00:00:06.556,-0.007417281332891472
1640,00:00:06.56,-0.0350316334515811
1641,00:00:06.564,-0.05009275302290919
1642,00:00:06.568,-0.004945253313053405
1643,00:00:06.572,0.01418124791234732
1644,00:00:06.576,0.022257328499108553
1645,00:00:06.58,0.015972527733538296
1646,00:00:06.584,0.00969932659063492
1647,00:00:06.588,-0.018911653663963093
1648,00:00:06.592,-0.0013687731698154779
1649,00:00:06.596,0.09563513752073052
1650,00:00:06.6,-0.027308702468872133
1651,00:00:06.604,-0.08950608922168621
1652,00:00:06.608,-0.045583372004330144
1653,00:00:06.612,-0.012301156588364377
1654,00:00:06.616,0.0462903371080757
1655,00:00:06.62,0.0624602648895234
1656,00:00:06.624,0.030760827008634785
1657,00:00:06.628,-0.012113083037547717
1658,00:00:06.632,-0.0968132028356195
1659,00:00:06.636,0.03288924728985873
1660,00:00:06.64,0.16780181508511302
1661,00:00:06.644,-0.05463008093647665
1662,00:00:06.648,-0.1873533651232719
1663,00:00:06.652,-0.05863116620457732
1664,00:00:06.656,0.06671385164372626
1665,00:00:06.66,0.096940204501152
1666,00:00:06.664,0.06072199889968028
1667,00:00:06.668,0.009911303408443928
1668,00:00:06.672,-0.06183371879160408
1669,00:00:06.676,-0.04789481451734905
1670,00:00:06.68,0.015536050545051673
1671,00:00:06.684,0.0724254278466105
1672,00:00:06.688,-0.017531254794448555
1673,00:00:06.692,-0.1051730569452047
1674,00:00:06.696,-0.02888695616275069
1675,00:00:06.7,0.06976455822587022
1676,00:00:06.704,0.0393220130354167
1677,00:00:06.708,0.01595490332692867
1678,00:00:06.712,0.010346536990255128
1679,00:00:06.716,-0.03642996540293097
1680,00:00:06.72,-0.036554541438818006
1681,00:00:06.724,-0.01839360059238972
1682,00:00:06.728,0.062054969370365205
1683,00:00:06.732,0.09982152003794899
1684,00:00:06.736,-0.0501705557107925
1685,00:00:06.74,-0.0944895688444379
1686,00:00:06.744,-0.08311012666672468
1687,00:00:06.748,0.005357420071959607
1688,00:00:06.752,0.0946434559300542
1689,00:00:06.756,0.06914033368229867
1690,00:00:06.76,0.02188942546490582
1691,00:00:06.764,-0.0402928283438087
1692,00:00:06.768,-0.041775994002819054
1693,00:00:06.772,-0.0324011882767081
1694,00:00:06.776,0.01352689950726926
1695,00:00:06.78,0.05585150257684294
1696,00:00:06.784,0.01982267107814548
1697,00:00:06.788,-0.03910811847890733
1698,00:00:06.792,-0.05394097301177678
1699,00:00:06.796,0.009131662664003672
1700,00:00:06.8,0.01841798610985285
1701,00:00:06.804,-0.057662651874124976
1702,00:00:06.808,0.05110607482492931
1703,00:00:06.812,0.0850189235061407
1704,00:00:06.816,0.009649470157455636
1705,00:00:06.82,-0.047724626027047606
1706,00:00:06.824,-0.0578143950551748
1707,00:00:06.828,-0.0030367079889402696
1708,00:00:06.832,0.06787638919195163
1709,00:00:06.836,-0.006413380382582552
1710,00:00:06.84,-0.06441316939890379
1711,00:00:06.844,0.0018782750703394478
1712,00:00:06.848,0.04002587590366598
1713,00:00:06.852,0.012368260417133573
1714,00:00:06.856,-0.021826158917974646
1715,00:00:06.86,-0.055099787190556596
1716,00:00:06.864,0.052135009318590185
1717,00:00:06.868,0.052567293401807554
1718,00:00:06.872,0.006707133259624222
1719,00:00:06.876,-0.0308791790157556
1720,00:00:06.88,-0.028885598294436907
1721,00:00:06.884,-0.00812201341614127
1722,00:00:06.888,-0.04037481767591086
1723,00:00:06.892,0.025812495499849333
1724,00:00:06.896,0.08732060645706952
1725,00:00:06.9,0.0115461042150854
1726,00:00:06.904,-0.11788889439776545
1727,00:00:06.908,0.005602097604423749
1728,00:00:06.912,0.051771570928394725
1729,00:00:06.916,0.0123482737690211
1730,00:00:06.92,-0.004483840661123426
1731,00:00:06.924,-0.023293789941817532
1732,00:00:06.928,0.0173581377603114
1733,00:00:06.932,-0.005555512150749502
1734,00:00:06.936,-0.040227615274488926
1735,00:00:06.94,0.03788916254416114
1736,00:00:06.944,0.03505369415506717
1737,00:00:06.948,-0.03495139069855212
1738,00:00:06.952,-0.02233280986547465
1739,00:00:06.956,-0.027436045929789522
1740,00:00:06.96,0.0629854723811149
1741,00:00:06.964,0.013071068911813182
1742,00:00:06.968,-0.02057454024907197
1743,00:00:06.972,0.0012067251373083193
1744,00:00:06.976,0.0007834986317902977
1745,00:00:06.98,-0.01843716669827704
1746,00:00:06.984,-0.01064681727439164
1747,00:00:06.988,0.018829900771379398
1748,00:00:06.992,0.02081750426441428
1749,00:00:06.996,-0.02907754806801674
1750,00:00:07,-0.011191921425052001
1751,00:00:07.004,0.02368025411851695
1752,00:00:07.008,0.010414455638965587
1753,00:00:07.012,-0.012678632745519261
1754,00:00:07.016,0.012214135815156658
1755,00:00:07.02,0.018112896126694932
1756,00:00:07.024,-0.05065538873896011
1757,00:00:07.028,-0.038713205896783606
1758,00:00:07.032,0.057697030249983
1759,00:00:07.036,0.020845235791057366
1760,00:00:07.04,-0.016610195394605357
1761,00:00:07.044,-0.01594711188226941
1762,00:00:07.048,0.0004116581985726917
1763,00:00:07.052,0.03107924573123456
1764,00:00:07.056,0.021477271337062093
1765,00:00:07.06,-0.0212042527273298
1766,00:00:07.064,-0.027591079939156743
1767,00:00:07.068,-0.03796408302150667
1768,00:00:07.072,0.013829842035192986
1769,00:00:07.076,0.033787351101636866
1770,00:00:07.08,0.00313637126237158
1771,00:00:07.084,0.007758564781397579
1772,00:00:07.088,-0.00263250363059341
1773,00:00:07.092,0.013611118542030471
1774,00:00:07.096,0.015553489327430758
1775,00:00:07.1,-0.05856390576809638
1776,00:00:07.104,-0.006837537046521911
1777,00:00:07.108,0.00044454308226709975
1778,00:00:07.112,-0.005306042032316329
1779,00:00:07.116,0.03426553029567004
1780,00:00:07.12,0.016860957723110963
1781,00:00:07.124,-0.022403164766729003
1782,00:00:07.128,0.02529270760715011
1783,00:00:07.132,0.01041754521429543
1784,00:00:07.136,0.00274904374964533
1785,00:00:07.14,-0.05101328855380417
1786,00:00:07.144,-0.0569950379431248
1787,00:00:07.148,0.02780508913565428
1788,00:00:07.152,0.0552266631275416
1789,00:00:07.156,-0.002947872038930657
1790,00:00:07.16,0.0003865170292555991
1791,00:00:07.164,0.07068060990422964
1792,00:00:07.168,-0.06270798901095989
1793,00:00:07.172,-0.03583021787926555
1794,00:00:07.176,-0.02096677012741564
1795,00:00:07.18,-4.0904153138402594e-05
1796,00:00:07.184,0.020830729918088802
1797,00:00:07.188,0.0331335882656276
1798,00:00:07.192,0.048840091098099954
1799,00:00:07.196,-0.0360113056376576
1800,00:00:07.2,-0.09694495052099225
1801,00:00:07.204,0.026141749694943504
1802,00:00:07.208,0.1020065918564797
1803,00:00:07.212,0.03364462312310937
1804,00:00:07.216,-0.06913044000975781
1805,00:00:07.22,-0.08153380732983351
1806,00:00:07.224,-0.0247216010466218
1807,00:00:07.228,0.03478008275851606
1808,00:00:07.232,0.05170417530462142
1809,00:00:07.236,0.03739793365821243
1810,00:00:07.24,0.005619077011942909
1811,00:00:07.244,-0.01941755937878048
1812,00:00:07.248,-0.031822333112359005
1813,00:00:07.252,-0.011267698020674292
1814,00:00:07.256,0.011293101357296059
1815,00:00:07.26,0.01324014901183545
1816,00:00:07.264,0.05981751461513344
1817,00:00:07.268,-0.059673884883522904
1818,00:00:07.272,-0.1010631881654262
1819,00:00:07.276,0.0372078754007817
1820,00:00:07.28,0.04587427526712419
1821,00:00:07.284,0.03102557361125946
1822,00:00:07.288,0.02148305444279689
1823,00:00:07.292,-0.01327906805090602
1824,00:00:07.296,-0.03607838880270721
1825,00:00:07.3,-0.007660939823836088
1826,00:00:07.304,0.04376439470797777
1827,00:00:07.308,0.01500259805470696
1828,00:00:07.312,-0.0511167920194566
1829,00:00:07.316,-0.045192640041932484
1830,00:00:07.32,-0.002829396529705268
1831,00:00:07.324,0.04999852331820875
1832,00:00:07.328,0.03333127440419045
1833,00:00:07.332,-0.022149566095322405
1834,00:00:07.336,0.005385596537962549
1835,00:00:07.34,0.0007459493353961996
1836,00:00:07.344,0.0093289082869887
1837,00:00:07.348,-0.01042226934805511
1838,00:00:07.352,-0.03035317978356028
1839,00:00:07.356,-0.012945047114044449
1840,00:00:07.36,0.028307362459600017
1841,00:00:07.364,0.03038861742243168
1842,00:00:07.368,-0.00017156265676020882
1843,00:00:07.372,-0.05530090443789959
1844,00:00:07.376,-0.0327147576026618
1845,00:00:07.38,0.065992096439004
1846,00:00:07.384,0.0359407318755985
1847,00:00:07.388,-0.01641904329881073
1848,00:00:07.392,-0.01482413243502377
1849,00:00:07.396,-0.028436677530407902
1850,00:00:07.4,-0.004934914410114372
1851,00:00:07.404,0.03282869420945637
1852,00:00:07.408,0.01244586519896987
1853,00:00:07.412,-0.012252506799995852
1854,00:00:07.416,-0.013381152413785461
1855,00:00:07.42,0.013026522938162054
1856,00:00:07.424,-0.018018890172243042
1857,00:00:07.428,-0.005409222561866049
1858,00:00:07.432,0.002924524247646311
1859,00:00:07.436,0.01051806705072518
1860,00:00:07.44,0.012223375961184502
1861,00:00:07.444,-0.022469865332823257
1862,00:00:07.448,0.026487410068511907
1863,00:00:07.452,0.00833451305516061
1864,00:00:07.456,-0.00731128593906763
1865,00:00:07.46,-0.05231029225979002
1866,00:00:07.464,0.02974229492247101
1867,00:00:07.468,0.005145583301782698
1868,00:00:07.472,0.01335600099992007
1869,00:00:07.476,0.018980202265083828
1870,00:00:07.48,-0.0541110560297967
1871,00:00:07.484,-0.026009252062067376
1872,00:00:07.488,0.0490969950333238
1873,00:00:07.492,0.05381680931895973
1874,00:00:07.496,-0.02455006167292591
1875,00:00:07.5,-0.04736926266923547
1876,00:00:07.504,-0.02239905623719097
1877,00:00:07.508,0.03997569764032955
1878,00:00:07.512,0.012505582359153776
1879,00:00:07.516,0.01958104269579058
1880,00:00:07.52,-0.027574422769248468
1881,00:00:07.524,-0.019525817479007005
1882,00:00:07.528,-0.004597079940140251
1883,00:00:07.532,0.027301318943500543
1884,00:00:07.536,-0.005377879424486314
1885,00:00:07.54,-0.016657809726893902
1886,00:00:07.544,0.00397745927330106
1887,00:00:07.548,0.01649414142593741
1888,00:00:07.552,0.012059534899890444
1889,00:00:07.556,0.02661479322705416
1890,00:00:07.56,-0.04872164921835063
1891,00:00:07.564,-0.02116078883409511
1892,00:00:07.568,0.03241317835636432
1893,00:00:07.572,0.026378166861832145
1894,00:00:07.576,-0.05317060835659497
1895,00:00:07.58,-0.0172573933377862
1896,00:00:07.584,0.004221980459988121
1897,00:00:07.588,0.026493092067539713
1898,00:00:07.592,0.04621834773570293
1899,00:00:07.596,-0.00251553487032652
1900,00:00:07.6,-0.011981961317360398
1901,00:00:07.604,-0.028751854726578978
1902,00:00:07.608,-0.01166879408992829
1903,00:00:07.612,-0.025658623315393928
1904,00:00:07.616,0.006135453004389961
1905,00:00:07.62,0.044102551182731965
1906,00:00:07.624,0.02728700172156095
1907,00:00:07.628,-0.004698844277299941
1908,00:00:07.632,-0.05524314055219293
1909,00:00:07.636,-0.03914380131755031
1910,00:00:07.64,0.09732552617788315
1911,00:00:07.644,0.0524086253717541
1912,00:00:07.648,-0.06826728442683822
1913,00:00:07.652,-0.05334473401308052
1914,00:00:07.656,-0.01762006571516399
1915,00:00:07.66,0.04958339664153749
1916,00:00:07.664,-0.012898704502731569
1917,00:00:07.668,-0.014489468419924378
1918,00:00:07.672,0.03934431541711085
1919,00:00:07.676,0.05329351709224284
1920,00:00:07.68,-0.001997170795220937
1921,00:00:07.684,-0.07578102895058689
1922,00:00:07.688,-0.0382291667629034
1923,00:00:07.692,0.007016427116468488
1924,00:00:07.696,0.06103948864620175
1925,00:00:07.7,0.0195247996598482
1926,00:00:07.704,-0.030766481766477203
1927,00:00:07.708,-0.025161455851048262
1928,00:00:07.712,-0.0166969886049628
1929,00:00:07.716,0.05814831424504513
1930,00:00:07.72,0.028362237615510776
1931,00:00:07.724,-0.0483718859031797
1932,00:00:07.728,-0.01021555524766882
1933,00:00:07.732,0.0017444768454879804
1934,00:00:07.736,0.03892722382443025
1935,00:00:07.74,-0.0019018966704606975
1936,00:00:07.744,-0.0625024074688554
1937,00:00:07.748,-0.0091912448406219
1938,00:00:07.752,0.0315528158098459
1939,00:00:07.756,0.03913433477282531
1940,00:00:07.76,-0.016352007165551304
1941,00:00:07.764,-0.015324755571782499
1942,00:00:07.768,0.025191115681081972
1943,00:00:07.772,-0.0377588691189884
1944,00:00:07.776,0.011725420132279396
1945,00:00:07.78,0.005274217575788443
1946,00:00:07.784,-0.002137671341188253
1947,00:00:07.788,0.016660023480653843
1948,00:00:07.792,0.0012063663452864205
1949,00:00:07.796,-0.03680753055959935
1950,00:00:07.8,-0.006179432850331047
1951,00:00:07.804,0.02067129256829508
1952,00:00:07.808,0.028917183168232455
1953,00:00:07.812,0.014946190640330322
1954,00:00:07.816,-0.020186255322187204
1955,00:00:07.82,-0.03859425708651541
1956,00:00:07.824,-0.00908150244504214
1957,00:00:07.828,0.011883607134223012
1958,00:00:07.832,0.02183207217603926
1959,00:00:07.836,0.02496160124428571
1960,00:00:07.84,-0.026327653089538227
1961,00:00:07.844,-0.03456719312816859
1962,00:00:07.848,0.008869188139215119
1963,00:00:07.852,0.0828555515035987
1964,00:00:07.856,0.0550777716562151
1965,00:00:07.86,-0.0967904441058636
1966,00:00:07.864,-0.10942235030233857
1967,00:00:07.868,-0.03859771520365033
1968,00:00:07.872,0.0955298142507673
1969,00:00:07.876,0.0838841935619711
1970,00:00:07.88,0.0008487233426421889
1971,00:00:07.884,0.005950379512796708
1972,00:00:07.888,-0.044260079972446006
1973,00:00:07.892,-0.022744770627468824
1974,00:00:07.896,-0.004120013909414404
1975,00:00:07.9,0.03540120879188173
1976,00:00:07.904,-0.023198698181659053
1977,00:00:07.908,-0.021615840494632707
1978,00:00:07.912,-0.004445593804120983
1979,00:00:07.916,-0.00041095772758121055
1980,00:00:07.92,0.04538225522264833
1981,00:00:07.924,0.02873648074455559
1982,00:00:07.928,-0.0182295385748148
1983,00:00:07.932,-0.038098488003015504
1984,00:00:07.936,-0.02588146552443512
1985,00:00:07.94,0.01778824790380895
1986,00:00:07.944,0.07952975155785684
1987,00:00:07.948,0.017350686714053203
1988,00:00:07.952,-0.10606406116858126
1989,00:00:07.956,-0.03572472668020056
1990,00:00:07.96,0.06092307902872561
1991,00:00:07.964,0.0015293108299374407
1992,00:00:07.968,-0.03380196169018747
1993,00:00:07.972,0.04051410686224697
1994,00:00:07.976,0.02009960822761064
1995,00:00:07.98,-0.01235281792469324
1996,00:00:07.984,-0.013717017747694672
1997,00:00:07.988,-0.0032579340040683694
1998,00:00:07.992,0.027036001905798888
1999,00:00:07.996,0.02113801520317789
2000,00:00:08,-0.0321477528814285
2001,00:00:08.004,-0.03753277496434753
2002,00:00:08.008,0.01606423314660788
2003,00:00:08.012,-0.021389814093709002
2004,00:00:08.016,-0.000973912887275101
2005,00:00:08.02,0.025851220590993793
2006,00:00:08.024,0.0089105144143104
2007,00:00:08.028,0.03704361990094181
2008,00:00:08.032,0.01755058986600489
2009,00:00:08.036,-0.047390056774020195
2010,00:00:08.04,-0.0164799373596907
2011,00:00:08.044,-0.02272771405114332
2012,00:00:08.048,-0.012002398667391376
2013,00:00:08.052,0.03137752134352921
2014,00:00:08.056,0.02509926306083797
2015,00:00:08.06,0.005906198406592017
2016,00:00:08.064,-0.014225064544007168
2017,00:00:08.068,-0.02866121055558327
2018,00:00:08.072,0.012397578917443752
2019,00:00:08.076,0.07457807706668973
2020,00:00:08.08,-0.0068645112914964505
2021,00:00:08.084,-0.06944284774363041
2022,00:00:08.088,-0.04382214765064419
2023,00:00:08.092,-0.016497614793479498
2024,00:00:08.096,0.057835623621940606
2025,00:00:08.1,0.03237703163176779
2026,00:00:08.104,0.012859883252531252
2027,00:00:08.108,-0.012849248480051723
2028,00:00:08.112,0.005075802677311001
2029,00:00:08.116,-0.01410880894400181
2030,00:00:08.12,-0.056223463267088
2031,00:00:08.124,0.05348252737894661
2032,00:00:08.128,0.06024420447647573
2033,00:00:08.132,-0.0006268243305384991
2034,00:00:08.136,-0.11073342990130186
2035,00:00:08.14,-0.0485749868676066
2036,00:00:08.144,0.023370733717456498
2037,00:00:08.148,0.0487017072737218
2038,00:00:08.152,0.07273071631789207
2039,00:00:08.156,0.019616535224486142
2040,00:00:08.16,-0.042137054726481445
2041,00:00:08.164,-0.04911485686898232
2042,00:00:08.168,0.009757464751601268
2043,00:00:08.172,0.039605091325938646
2044,00:00:08.176,-0.011240680702030693
2045,00:00:08.18,-0.017518159467726967
2046,00:00:08.184,-0.026993048144504435
2047,00:00:08.188,-0.0017498517408967105
2048,00:00:08.192,0.008994934149086432
2049,00:00:08.196,0.002834392013028322
2050,00:00:08.2,0.022561221383512
2051,00:00:08.204,0.00467099389061336
2052,00:00:08.208,0.00641242426354442
2053,00:00:08.212,-0.0051733623258769495
2054,00:00:08.216,-0.005117265973240142
2055,00:00:08.22,-0.004854820203036081
2056,00:00:08.224,0.011194320366485043
2057,00:00:08.228,0.005715626291930693
2058,00:00:08.232,-0.024489118135534175
2059,00:00:08.236,0.04419370135292411
2060,00:00:08.24,-0.10631411336362369
2061,00:00:08.244,0.01096647698432211
2062,00:00:08.248,0.056800292804837206
2063,00:00:08.252,0.011299213161692065
2064,00:00:08.256,0.019991053268313397
2065,00:00:08.26,-0.001211583614349334
2066,00:00:08.264,-0.0296364659443498
2067,00:00:08.268,-0.017336662625893978
2068,00:00:08.272,0.011339702410623431
2069,00:00:08.276,0.011371591128408898
2070,00:00:08.28,0.013503661379218141
2071,00:00:08.284,0.005417659296654203
2072,00:00:08.288,-0.02297521627042439
2073,00:00:08.292,-0.02721430268138653
2074,00:00:08.296,0.02224308671429754
2075,00:00:08.3,-0.022642028052359767
2076,00:00:08.304,0.018931813770905172
2077,00:00:08.308,-0.006471481174230503
2078,00:00:08.312,0.001807010325137439
2079,00:00:08.316,0.03341508191078907
2080,00:00:08.32,0.0098197218030691
2081,00:00:08.324,-0.016329125734046095
2082,00:00:08.328,-0.006944955326616761
2083,00:00:08.332,-0.01200473774224514
2084,00:00:08.336,-0.02171739796176552
2085,00:00:08.34,0.024159285705536597
2086,00:00:08.344,0.002128445194102817
2087,00:00:08.348,0.025407317909412072
2088,00:00:08.352,-0.015219939639791829
2089,00:00:08.356,-0.06495676189661019
2090,00:00:08.36,0.07025769352912906
2091,00:00:08.364,0.01581024657934902
2092,00:00:08.368,-0.0731822969391942
2093,00:00:08.372,0.023577910847961903
2094,00:00:08.376,0.03674581646919251
2095,00:00:08.38,0.0036385197890921525
2096,00:00:08.384,-0.02176089496060744
2097,00:00:08.388,-0.02147808251902461
2098,00:00:08.392,0.01692509721033273
2099,00:00:08.396,0.02766067627817389
2100,00:00:08.4,0.015699325711466372
2101,00:00:08.404,-0.05460999766364694
2102,00:00:08.408,-0.048711231909692294
2103,00:00:08.412,0.03642661496996885
2104,00:00:08.416,0.0697166844038293
2105,00:00:08.42,0.01573383715003729
2106,00:00:08.424,-0.0488034347072243
2107,00:00:08.428,-0.031451686285436195
2108,00:00:08.432,-0.02122828587016556
2109,00:00:08.436,0.030231807846576024
2110,00:00:08.44,0.026795991696417335
2111,00:00:08.444,-0.021563137415796487
2112,00:00:08.448,0.024261953891255
2113,00:00:08.452,0.0026090585161001427
2114,00:00:08.456,-0.009922598721459537
2115,00:00:08.46,-0.02406555414199831
2116,00:00:08.464,0.01141752023249866
2117,00:00:08.468,0.01601240423042327
2118,00:00:08.472,-0.0223583751358092
2119,00:00:08.476,-0.034126790240407004
2120,00:00:08.48,0.017587729264050722
2121,00:00:08.484,0.0688993404619396
2122,00:00:08.488,0.00610260292887688
2123,00:00:08.492,-0.02556558465585117
2124,00:00:08.496,-0.05145428376272327
2125,00:00:08.5,-0.01486722519621253
2126,00:00:08.504,0.0414309063926339
2127,00:00:08.508,0.04006744991056617
2128,00:00:08.512,0.01959195663221177
2129,00:00:08.516,-0.09685032442212099
2130,00:00:08.52,-0.042514791479334235
2131,00:00:08.524,0.05567672662436963
2132,00:00:08.528,0.09115803660824894
2133,00:00:08.532,0.01592816994525488
2134,00:00:08.536,-0.0757254119962454
2135,00:00:08.54,-0.06856318749487406
2136,00:00:08.544,-0.00466698796662967
2137,00:00:08.548,0.05744662461802357
2138,00:00:08.552,0.02862368139903989
2139,00:00:08.556,-0.008582474663853621
2140,00:00:08.56,0.0022492429707199205
2141,00:00:08.564,0.06223126687109469
2142,00:00:08.568,-0.04283636715263128
2143,00:00:08.572,-0.0603951625525951
2144,00:00:08.576,-0.008876365434844005
2145,00:00:08.58,0.0139770600944758
2146,00:00:08.584,0.001288252824451777
2147,00:00:08.588,0.01734357478562744
2148,00:00:08.592,0.03487996687181293
2149,00:00:08.596,-0.006994887731707427
2150,00:00:08.6,-0.04648702999111269
2151,00:00:08.604,0.01739503059070556
2152,00:00:08.608,0.04060842678882182
2153,00:00:08.612,-0.019596300015109546
2154,00:00:08.616,0.014815364498645085
2155,00:00:08.62,-0.0556089645251632
2156,00:00:08.624,-0.016571532003581548
2157,00:00:08.628,-0.008686978369951201
2158,00:00:08.632,0.0523722544312476
2159,00:00:08.636,0.034603814594447634
2160,00:00:08.64,-0.01773639768362049
2161,00:00:08.644,-0.03510832600295549
2162,00:00:08.648,0.030748639896046356
2163,00:00:08.652,0.03448497457429762
2164,00:00:08.656,-0.0007492736913263789
2165,00:00:08.66,-0.0592002711491659
2166,00:00:08.664,-0.04090605769306427
2167,00:00:08.668,0.011812062934040999
2168,00:00:08.672,0.01802570559084415
2169,00:00:08.676,0.03662463626824322
2170,00:00:08.68,-0.003746616421267439
2171,00:00:08.684,-0.012761950609274209
2172,00:00:08.688,-0.019943246443290236
2173,00:00:08.692,0.0745363133028149
2174,00:00:08.696,0.005553379654884304
2175,00:00:08.7,-0.06302444334141916
2176,00:00:08.704,-0.005728452466428301
2177,00:00:08.708,-0.0069911999162287
2178,00:00:08.712,0.0001560002565383599
2179,00:00:08.716,-0.009972365573048602
2180,00:00:08.72,0.0036303892266005503
2181,00:00:08.724,0.0268460977822543
2182,00:00:08.728,0.02387545909732575
2183,00:00:08.732,-0.01091512199491266
2184,00:00:08.736,-0.004288950924092208
2185,00:00:08.74,-0.012975967489182937
2186,00:00:08.744,0.029832676053047187
2187,00:00:08.748,0.01043722219765193
2188,00:00:08.752,-0.0556086711585522
2189,00:00:08.756,-0.049958849325776114
2190,00:00:08.76,0.0562164131551981
2191,00:00:08.764,0.0543415322899819
2192,00:00:08.768,-0.04475068673491476
2193,00:00:08.772,-0.0457020755857229
2194,00:00:08.776,0.0509067932143808
2195,00:00:08.78,0.0300365104340016
2196,00:00:08.784,-0.012280379480216652
2197,00:00:08.788,-0.013868489302694763
2198,00:00:08.792,-0.02635603188537061
2199,00:00:08.796,-0.01087197009474046
2200,00:00:08.8,0.02534102415665987
2201,00:00:08.804,0.02407554583624001
2202,00:00:08.808,-0.0023925933055579003
2203,00:00:08.812,-0.01137727126479153
2204,00:00:08.816,0.0007538041099905517
2205,00:00:08.82,-0.0116046806797385
2206,00:00:08.824,-0.00468537071719766
2207,00:00:08.828,-0.0068939812481403975
2208,00:00:08.832,-0.020898717251839123
2209,00:00:08.836,0.0445543583482504
2210,00:00:08.84,0.044023317284882
2211,00:00:08.844,-0.03846332890680057
2212,00:00:08.848,-0.03092222171835611
2213,00:00:08.852,-0.02619445510208615
2214,00:00:08.856,0.0442071044817567
2215,00:00:08.86,0.1113651692867279
2216,00:00:08.864,-0.04201362933963538
2217,00:00:08.868,-0.09122174605727189
2218,00:00:08.872,-0.09873923845589164
2219,00:00:08.876,0.01577780966181308
2220,00:00:08.88,0.06945290975272658
2221,00:00:08.884,0.0749474065378308
2222,00:00:08.888,0.06133065652102229
2223,00:00:08.892,-0.030719063477590694
2224,00:00:08.896,-0.07656775042414664
2225,00:00:08.9,-0.0040227863937616504
2226,00:00:08.904,0.021789603866636788
2227,00:00:08.908,-0.0391100002452731
2228,00:00:08.912,-0.02197528863325713
2229,00:00:08.916,0.027990713715553294
2230,00:00:08.92,0.024899491807445866
2231,00:00:08.924,0.01854348450433462
2232,00:00:08.928,0.00238917162641886
2233,00:00:08.932,-0.00515951681882143
2234,00:00:08.936,-0.02864804910495878
2235,00:00:08.94,-0.014463974162936209
2236,00:00:08.944,0.00010199612006544958
2237,00:00:08.948,0.0383249800652265
2238,00:00:08.952,0.08115094667300582
2239,00:00:08.956,-0.04975314997136589
2240,00:00:08.96,-0.1072352984920144
2241,00:00:08.964,-0.0073031280189752995
2242,00:00:08.968,0.03121666982769966
2243,00:00:08.972,0.02287478570360694
2244,00:00:08.976,0.01645075948908925
2245,00:00:08.98,0.03563607600517568
2246,00:00:08.984,0.006666782079264511
2247,00:00:08.988,-0.02551200776360938
2248,00:00:08.992,-0.018062811694107964
2249,00:00:08.996,-0.01647348655387762
2250,00:00:09,-0.02961900469381356
2251,00:00:09.004,0.0668361439711589
2252,00:00:09.008,0.01696107862517237
2253,00:00:09.012,-0.022177968872711028
2254,00:00:09.016,-0.02047238359227781
2255,00:00:09.02,-0.03398250835016377
2256,00:00:09.024,0.03154096659272909
2257,00:00:09.028,0.014461417682468898
2258,00:00:09.032,-0.010846869088709365
2259,00:00:09.036,-0.007245061919093142
2260,00:00:09.04,0.00607136823236947
2261,00:00:09.044,0.009161762893199978
2262,00:00:09.048,0.007495806086808428
2263,00:00:09.052,-0.008269796613603853
2264,00:00:09.056,-0.01192175131291149
2265,00:00:09.06,0.036984930047765416
2266,00:00:09.064,-0.0031507117673754
2267,00:00:09.068,-0.03506836760789155
2268,00:00:09.072,0.024675048887729603
2269,00:00:09.076,-0.0499620679765939
2270,00:00:09.08,-0.006674028933048304
2271,00:00:09.084,0.0358479935675859
2272,00:00:09.088,0.006017390638589859
2273,00:00:09.092,0.02653832291252913
2274,00:00:09.096,-0.00667366664856673
2275,00:00:09.1,-0.03142375533934682
2276,00:00:09.104,0.00733529427088791
2277,00:00:09.108,0.03304837690666321
2278,00:00:09.112,-0.031795722723472856
2279,00:00:09.116,-0.028938141185790342
2280,00:00:09.12,0.003418820444494458
2281,00:00:09.124,0.05805601784959433
2282,00:00:09.128,0.015289801172912197
2283,00:00:09.132,0.020136965671554194
2284,00:00:09.136,-0.0747868344187736
2285,00:00:09.14,-0.1029312694445252
2286,00:00:09.144,0.046504799276590306
2287,00:00:09.148,0.057607289403676994
2288,00:00:09.152,0.0446922420524061
2289,00:00:09.156,0.01047900319099429
2290,00:00:09.16,0.00508721056394283
2291,00:00:09.164,-0.0354665089398623
2292,00:00:09.168,-0.03818929358385505
2293,00:00:09.172,-0.01030449150130152
2294,00:00:09.176,0.029111643321812198
2295,00:00:09.18,0.0264150938019157
2296,00:00:09.184,0.01406352524645626
2297,00:00:09.188,-0.0683605745434761
2298,00:00:09.192,-0.04115611524321144
2299,00:00:09.196,0.051202836912125335
2300,00:00:09.2,0.05684369895607235
2301,00:00:09.204,-0.0010667238384485037
2302,00:00:09.208,-0.03025967814028262
2303,00:00:09.212,0.0296097695827484
2304,00:00:09.216,-0.0040276371873915265
2305,00:00:09.22,-0.08839674631599342
2306,00:00:09.224,-0.0032721078023315135
2307,00:00:09.228,0.0535690039396287
2308,00:00:09.232,0.032591748982667874
2309,00:00:09.236,0.00208742776885628
2310,00:00:09.24,0.021882527107663908
2311,00:00:09.244,-0.06719603203237061
2312,00:00:09.248,-0.03737654443830252
2313,00:00:09.252,0.06404565740376707
2314,00:00:09.256,0.011722108349204098
2315,00:00:09.26,-0.01263014366850259
2316,00:00:09.264,-0.013185275252908489
2317,00:00:09.268,0.03850723826326424
2318,00:00:09.272,-0.0016735191456974108
2319,00:00:09.276,-0.06847319612279539
2320,00:00:09.28,0.0026285224594175803
2321,00:00:09.284,0.023403899744153037
2322,00:00:09.288,0.0250317174941302
2323,00:00:09.292,-0.030575584620237357
2324,00:00:09.296,-0.0015093740075827079
2325,00:00:09.3,0.0406649420037865
2326,00:00:09.304,0.01526667107827963
2327,00:00:09.308,-0.026248257607221603
2328,00:00:09.312,-0.035337643232196556
2329,00:00:09.316,0.021988498978316805
2330,00:00:09.32,0.021152528934180827
2331,00:00:09.324,-0.01098366826772694
2332,00:00:09.328,-0.04375091288238764
2333,00:00:09.332,0.00031159678474074106
2334,00:00:09.336,0.03039882099255927
2335,00:00:09.34,0.09948529279790821
2336,00:00:09.344,-0.026790837757289496
2337,00:00:09.348,-0.12095449492335321
2338,00:00:09.352,-0.0457016285508871
2339,00:00:09.356,0.05357916280627252
2340,00:00:09.36,0.0467660333961248
2341,00:00:09.364,0.02917706593871126
2342,00:00:09.368,0.0340283242985606
2343,00:00:09.372,0.0019104494713246892
2344,00:00:09.376,-0.03170951036736372
2345,00:00:09.38,-0.04984073864761743
2346,00:00:09.384,-0.07366260327398781
2347,00:00:09.388,0.03831451549194758
2348,00:00:09.392,0.01949707604944701
2349,00:00:09.396,0.03038919623941186
2350,00:00:09.4,0.04110904317349205
2351,00:00:09.404,0.013537819962948588
2352,00:00:09.408,-0.030924470920581367
2353,00:00:09.412,-0.04143358510918912
2354,00:00:09.416,0.01877876048911278
2355,00:00:09.42,-0.021217444802459764
2356,00:00:09.424,-0.0026063043624162587
2357,00:00:09.428,0.0476611675694585
2358,00:00:09.432,-0.01420668791979556
2359,00:00:09.436,0.006343104178085939
2360,00:00:09.44,-0.03114649513736367
2361,00:00:09.444,-0.018146825779695026
2362,00:00:09.448,0.01249669073149562
2363,00:00:09.452,0.03381519397953525
2364,00:00:09.456,0.01747122174128894
2365,00:00:09.46,-0.030931123998016063
2366,00:00:09.464,-0.01052699948195368
2367,00:00:09.468,0.06538022845052188
2368,00:00:09.472,-0.05170644074678418
2369,00:00:09.476,-0.05820556903199753
2370,00:00:09.48,0.04515274334698914
2371,00:00:09.484,0.026079537346959197
2372,00:00:09.488,-0.020731171360239428
2373,00:00:09.492,-0.008064865716733056
2374,00:00:09.496,0.004985576262697578
2375,00:00:09.5,0.013714233529753971
2376,00:00:09.504,-0.0158072744961828
2377,00:00:09.508,-0.013235500548034868
2378,00:00:09.512,0.0971831204369665
2379,00:00:09.516,-0.01906356029212476
2380,00:00:09.52,-0.0540249282494187
2381,00:00:09.524,-0.03305883659049864
2382,00:00:09.528,-0.03536826884374026
2383,00:00:09.532,0.0171788819134236
2384,00:00:09.536,0.050440693739801604
2385,00:00:09.54,0.01930139260366559
2386,00:00:09.544,0.02493230719119303
2387,00:00:09.548,-0.00747074233368042
2388,00:00:09.552,-0.07974802691023791
2389,00:00:09.556,0.04381175804883239
2390,00:00:09.56,0.098795703612268
2391,00:00:09.564,-0.08296236721798728
2392,00:00:09.568,-0.09331352869048716
2393,00:00:09.572,0.0041275608236901705
2394,00:00:09.576,0.04012244427576658
2395,00:00:09.58,0.0436335317790508
2396,00:00:09.584,0.022695807274430973
2397,00:00:09.588,0.0011278070887783512
2398,00:00:09.592,-0.035542706493288306
2399,00:00:09.596,0.0180851491168141
2400,00:00:09.6,-0.0552820786833764
2401,00:00:09.604,0.0123131461441517
2402,00:00:09.608,0.10227938788011669
2403,00:00:09.612,-0.01448945834999903
2404,00:00:09.616,-0.06414150085765866
2405,00:00:09.62,-0.0636586062610149
2406,00:00:09.624,-0.01838641101494435
2407,00:00:09.628,0.03545554867014287
2408,00:00:09.632,0.040218592621386016
2409,00:00:09.636,0.0505182128399611
2410,00:00:09.64,0.0035241411533207326
2411,00:00:09.644,0.03230925626121462
2412,00:00:09.648,-0.0721395325381309
2413,00:00:09.652,-0.02435163687914606
2414,00:00:09.656,0.01023812638595704
2415,00:00:09.66,0.0030470811761915398
2416,00:00:09.664,-0.03877536475192753
2417,00:00:09.668,-0.013624353334307643
2418,00:00:09.672,0.050771190319210305
2419,00:00:09.676,0.0360785592347384
2420,00:00:09.68,0.014279032126069128
2421,00:00:09.684,-0.022665538766886997
2422,00:00:09.688,-0.036652714945375975
2423,00:00:09.692,0.02913352579344069
2424,00:00:09.696,-0.004523400682955991
2425,00:00:09.7,-0.04502598382532594
2426,00:00:09.704,-0.006459455937147099
2427,00:00:09.708,0.06439686426892882
2428,00:00:09.712,0.0344445928931236
2429,00:00:09.716,-0.028492165729403503
2430,00:00:09.72,-0.0228225598111749
2431,00:00:09.724,-0.0567575693130494
2432,00:00:09.728,-0.009722438640892521
2433,00:00:09.732,0.028998869471251992
2434,00:00:09.736,0.03797946870326994
2435,00:00:09.74,0.026329682208597674
2436,00:00:09.744,0.030787261668592743
2437,00:00:09.748,-0.040486511890776455
2438,00:00:09.752,-0.02854980062693361
2439,00:00:09.756,-0.017261991277336998
2440,00:00:09.76,-0.00813022116199135
2441,00:00:09.764,0.03757159365341067
2442,00:00:09.768,-0.0008426252752542981
2443,00:00:09.772,0.03707892680540681
2444,00:00:09.776,-0.0331807025941089
2445,00:00:09.78,-0.04845528583973649
2446,00:00:09.784,0.005509632639586957
2447,00:00:09.788,0.011563830601517153
2448,00:00:09.792,0.01943545229732993
2449,00:00:09.796,0.027129190042614996
2450,00:00:09.8,0.015643172664567828
2451,00:00:09.804,-0.008389975875616063
2452,00:00:09.808,-0.029405447654426098
2453,00:00:09.812,-0.000825725495815291
2454,00:00:09.816,-0.062022209167480497
2455,00:00:09.82,0.0020277723670006007
2456,00:00:09.824,0.0634895181283355
2457,00:00:09.828,0.04676026338711381
2458,00:00:09.832,-0.013472640886902802
2459,00:00:09.836,-0.0352490348741412
2460,00:00:09.84,-0.010860351147130099
2461,00:00:09.844,-0.007236558943986891
2462,00:00:09.848,0.00013073848094791564
2463,00:00:09.852,0.024270500987768145
2464,00:00:09.856,0.03071224642917511
2465,00:00:09.86,-0.02847797842696309
2466,00:00:09.864,-0.002516435459256103
2467,00:00:09.868,-0.07094704359769823
2468,00:00:09.872,-0.0196389798074961
2469,00:00:09.876,0.056933645159006105
2470,00:00:09.88,0.09346139352419418
2471,00:00:09.884,0.02866781083866957
2472,00:00:09.888,-0.0662796236574649
2473,00:00:09.892,-0.05443520843982701
2474,00:00:09.896,-0.029126878827810204
2475,00:00:09.9,-0.0005097378743812511
2476,00:00:09.904,0.045721930451691165
2477,00:00:09.908,0.020851592882536338
2478,00:00:09.912,0.0117576285265386
2479,00:00:09.916,-0.015842145308852227
2480,00:00:09.92,-0.014750660862773662
2481,00:00:09.924,-0.013265476096421489
2482,00:00:09.928,0.04417268140241501
2483,00:00:09.932,0.0390349049121142
2484,00:00:09.936,-0.011910552158951758
2485,00:00:09.94,-0.08904309151694181
2486,00:00:09.944,-0.08176267519593242
2487,00:00:09.948,0.0484815556555986
2488,00:00:09.952,0.08423456549644472
2489,00:00:09.956,0.051761694252491
2490,00:00:09.96,-0.008716269279830161
2491,00:00:09.964,-0.0723459217697382
2492,00:00:09.968,-0.01969997212290766
2493,00:00:09.972,0.01075564860366287
2494,00:00:09.976,0.054750864394009106
2495,00:00:09.98,0.06154495431110268
2496,00:00:09.984,-0.07585334591567516
2497,00:00:09.988,-0.06954800337553019
2498,00:00:09.992,-0.02408397250110276
2499,00:00:09.996,0.02583451638929541
2500,00:00:10,0.04869653191417458
2501,00:00:10.004,0.03625461691990498
2502,00:00:10.008,0.014187894761562299
2503,00:00:10.012,-0.03414731356315315
2504,00:00:10.016,-0.0180775225162506
2505,00:00:10.02,0.009355692192912098
2506,00:00:10.024,0.044630385003983995
2507,00:00:10.028,-0.07453582249581814
2508,00:00:10.032,0.013537010352592919
2509,00:00:10.036,-0.006805418059229799
2510,00:00:10.04,-0.020038032904267197
2511,00:00:10.044,0.016804501879960302
2512,00:00:10.048,0.02062925091013309
2513,00:00:10.052,0.008978823665529479
2514,00:00:10.056,0.012790896929800458
2515,00:00:10.06,0.004910044721327719
2516,00:00:10.064,-0.00919146498199556
2517,00:00:10.068,-0.04187880901736205
2518,00:00:10.072,-0.012727857567369922
2519,00:00:10.076,0.05360068753361701
2520,00:00:10.08,0.05186133366078142
2521,00:00:10.084,-0.0446755792945623
2522,00:00:10.088,-0.04377792868763201
2523,00:00:10.092,0.007446547504514437
2524,00:00:10.096,-0.031009048223495494
2525,00:00:10.1,-0.0371036808937788
2526,00:00:10.104,0.0757314162328839
2527,00:00:10.108,0.05291700456291443
2528,00:00:10.112,-0.0020639495924115007
2529,00:00:10.116,-0.01886641420423981
2530,00:00:10.12,-0.01794296223670248
2531,00:00:10.124,-0.03965036594308915
2532,00:00:10.128,0.03697486221790319
2533,00:00:10.132,0.062483576824888504
2534,00:00:10.136,-0.07878635905217382
2535,00:00:10.14,-0.08248009718954569
2536,00:00:10.144,0.030555457866285014
2537,00:00:10.148,0.0657471921294928
2538,00:00:10.152,0.0532994456589222
2539,00:00:10.156,0.014551813714206259
2540,00:00:10.16,-0.0499995462596417
2541,00:00:10.164,-0.0567343439906836
2542,00:00:10.168,-0.005228023044765003
2543,00:00:10.172,0.017457347421441196
2544,00:00:10.176,0.0013538578059523595
2545,00:00:10.18,0.06948662083596
2546,00:00:10.184,-0.0035689771175384313
2547,00:00:10.188,-0.047271097660996
2548,00:00:10.192,-0.03814153047278532
2549,00:00:10.196,0.01982533512637022
2550,00:00:10.2,0.04943245300091802
2551,00:00:10.204,0.02036660118028517
2552,00:00:10.208,-0.05785142444074158
2553,00:00:10.212,-0.03276341059245168
2554,00:00:10.216,-0.007182194225606509
2555,00:00:10.22,0.0599574530497193
2556,00:00:10.224,0.05367794557241719
2557,00:00:10.228,-0.0266898316331208
2558,00:00:10.232,-0.055857010011095554
2559,00:00:10.236,-0.0353072939906269
2560,00:00:10.24,0.02543539484031494
2561,00:00:10.244,0.027121263556182423
2562,00:00:10.248,0.03410512499976908
2563,00:00:10.252,0.002944572130218149
2564,00:00:10.256,-0.028532374184578622
2565,00:00:10.26,-0.024148735683411353
2566,00:00:10.264,-0.02816359046846624
2567,00:00:10.268,0.05125678889453411
2568,00:00:10.272,0.01302931352984156
2569,00:00:10.276,-0.015994719811715127
2570,00:00:10.28,0.01196261751465502
2571,00:00:10.284,0.0055136415176093604
2572,00:00:10.288,-0.049878444522619254
2573,00:00:10.292,-0.00537359854206443
2574,00:00:10.296,0.07321810908615595
2575,00:00:10.3,-0.004423106554895669
2576,00:00:10.304,-0.05644185224082319
2577,00:00:10.308,-0.01418415332591393
2578,00:00:10.312,0.009902320045512216
2579,00:00:10.316,0.02981324773281815
2580,00:00:10.32,0.018407612107694142
2581,00:00:10.324,0.0007153170881792903
2582,00:00:10.328,0.008267529308795929
2583,00:00:10.332,-0.019572432036511593
2584,00:00:10.336,-0.05303176585584874
2585,00:00:10.34,0.027202971279621083
2586,00:00:10.344,0.012445855943951756
2587,00:00:10.348,-0.0178577231708914
2588,00:00:10.352,0.0123570635914802
2589,00:00:10.356,0.02284267870709293
2590,00:00:10.36,0.00634450942743569
2591,00:00:10.364,-0.019130860455334152
2592,00:00:10.368,-0.003490246832370791
2593,00:00:10.372,0.021738680079579374
2594,00:00:10.376,0.01231991348322481
2595,00:00:10.38,-0.0336957098625135
2596,00:00:10.384,-0.03272835304960607
2597,00:00:10.388,-0.021036871243268262
2598,00:00:10.392,0.02241210546344521
2599,00:00:10.396,0.046877116430550834
2600,00:00:10.4,0.028063701465725982
2601,00:00:10.404,-0.016848902218043898
2602,00:00:10.408,-0.01510919991414994
2603,00:00:10.412,0.007564689964056102
2604,00:00:10.416,-0.03998028312344103
2605,00:00:10.42,-0.009945441503077775
2606,00:00:10.424,0.019655831245472637
2607,00:00:10.428,0.02215042151510708
2608,00:00:10.432,-0.022407016716897488
2609,00:00:10.436,-0.001504881423898029
2610,00:00:10.44,0.01764115737751127
2611,00:00:10.444,0.0226103588938713
2612,00:00:10.448,0.001066347089363265
2613,00:00:10.452,-0.023382045677863093
2614,00:00:10.456,-0.007506259251385903
2615,00:00:10.46,0.0089396999683231
2616,00:00:10.464,0.017853051540441815
2617,00:00:10.468,-0.0844023646786809
2618,00:00:10.472,-0.01719481637701396
2619,00:00:10.476,0.10188436135649678
2620,00:00:10.48,0.007991271093487705
2621,00:00:10.484,0.017352129332721195
2622,00:00:10.488,-0.03834460547659553
2623,00:00:10.492,-0.03048456273972989
2624,00:00:10.496,0.01862705266103147
2625,00:00:10.5,-0.00025910488329827916
2626,00:00:10.504,-0.01627684663981195
2627,00:00:10.508,0.00648238346911962
2628,00:00:10.512,0.0011615704279393096
2629,00:00:10.516,0.03586049703881149
2630,00:00:10.52,0.0141833438538015
2631,00:00:10.524,-0.04524212889373306
2632,00:00:10.528,-0.03276886069215833
2633,00:00:10.532,0.03710867743939164
2634,00:00:10.536,-0.0171441538259387
2635,00:00:10.54,0.0117793129757046
2636,00:00:10.544,0.035084607312455746
2637,00:00:10.548,-0.02002310380339629
2638,00:00:10.552,-0.017355537042021703
2639,00:00:10.556,-0.001833155751228277
2640,00:00:10.56,0.018302211537957233
2641,00:00:10.564,0.013317188364453619
2642,00:00:10.568,-0.05954911699518563
2643,00:00:10.572,0.02996509056538349
2644,00:00:10.576,0.03583809616975484
2645,00:00:10.58,-0.011443912982940696
2646,00:00:10.584,-0.014569012448191723
2647,00:00:10.588,-0.0033525372855365302
2648,00:00:10.592,-0.02484438754618164
2649,00:00:10.596,0.01181606180034577
2650,00:00:10.6,0.033969040960073436
2651,00:00:10.604,-0.012694020755588979
2652,00:00:10.608,-0.01169999688863755
2653,00:00:10.612,-0.008776240283623362
2654,00:00:10.616,0.02445456618443136
2655,00:00:10.62,0.00272751599550238
2656,00:00:10.624,0.015418362308992075
2657,00:00:10.628,-0.0195756712928414
2658,00:00:10.632,-0.057127425447106354
2659,00:00:10.636,-0.015290282201021958
2660,00:00:10.64,0.0690035335719585
2661,00:00:10.644,0.02567365253344175
2662,00:00:10.648,-0.027046592906117495
2663,00:00:10.652,0.021817830856889472
2664,00:00:10.656,0.010021346621215331
2665,00:00:10.66,0.009771124965482169
2666,00:00:10.664,-0.033855452202260446
2667,00:00:10.668,-0.0761502087116242
2668,00:00:10.672,-0.004274314909707757
2669,00:00:10.676,0.0206891504349187
2670,00:00:10.68,0.04287000419572
2671,00:00:10.684,0.02733192220330235
2672,00:00:10.688,0.01246209442615515
2673,00:00:10.692,-0.00022074393928048046
2674,00:00:10.696,0.02969980007037521
2675,00:00:10.7,0.013424962780845774
2676,00:00:10.704,-0.0995913036167622
2677,00:00:10.708,-0.11412654072046281
2678,00:00:10.712,0.033046802738681436
2679,00:00:10.716,0.09233273589052265
2680,00:00:10.72,0.06038898066617551
2681,00:00:10.724,0.019438144750893102
2682,00:00:10.728,-0.022195385769009604
2683,00:00:10.732,-0.03164303593803193
2684,00:00:10.736,-0.04989365767687566
2685,00:00:10.74,-0.034787496551871286
2686,00:00:10.744,0.052769098430871894
2687,00:00:10.748,0.1269121672958137
2688,00:00:10.752,-0.036389309912919984
2689,00:00:10.756,-0.1295652780681849
2690,00:00:10.76,-0.029223220888525206
2691,00:00:10.764,0.027721671387553194
2692,00:00:10.768,0.04723503254354
2693,00:00:10.772,0.033667117124423364
2694,00:00:10.776,0.03241478698328137
2695,00:00:10.78,-0.02042299346067014
2696,00:00:10.784,-0.04404885694384571
2697,00:00:10.788,-0.023382243467494818
2698,00:00:10.792,-0.0056977063504745976
2699,00:00:10.796,0.03905747528187932
2700,00:00:10.8,0.1506565809249879
2701,00:00:10.804,-0.09891101496759802
2702,00:00:10.808,-0.1830757409334186
2703,00:00:10.812,-0.021980062127113297
2704,00:00:10.816,0.1430374290794134
2705,00:00:10.82,0.09531805803999299
2706,00:00:10.824,-0.032224887865595554
2707,00:00:10.828,-0.06032721605151892
2708,00:00:10.832,-0.012628794065676689
2709,00:00:10.836,0.022566094994544997
2710,00:00:10.84,-0.014990825031418301
2711,00:00:10.844,0.02127949357964098
2712,00:00:10.848,0.0323964431881905
2713,00:00:10.852,-0.04357855650596322
2714,00:00:10.856,-0.01821735827252269
2715,00:00:10.86,0.003218794241547602
2716,00:00:10.864,0.0038580186665058067
2717,00:00:10.868,-0.0003137770108878179
2718,00:00:10.872,-0.004906778049189603
2719,00:00:10.876,-0.015181413444224745
2720,00:00:10.88,0.03738378547132021
2721,00:00:10.884,0.07583037100266667
2722,00:00:10.888,-0.026468003168702132
2723,00:00:10.892,-0.06922046095132829
2724,00:00:10.896,-0.046935574617236804
2725,00:00:10.9,0.008954750141128943
2726,00:00:10.904,0.08524930989369756
2727,00:00:10.908,0.02258169674314562
2728,00:00:10.912,-0.05605206312611697
2729,00:00:10.916,-0.06805053539574153
2730,00:00:10.92,0.02840649196878072
2731,00:00:10.924,0.0827209930866957
2732,00:00:10.928,0.02351917012128982
2733,00:00:10.932,-0.016944415168836758
2734,00:00:10.936,-0.0668612179579213
2735,00:00:10.94,-0.0774828279390931
2736,00:00:10.944,0.047711027786135604
2737,00:00:10.948,0.040898006409406704
2738,00:00:10.952,0.0623999033123255
2739,00:00:10.956,0.02737600309774281
2740,00:00:10.96,-0.05596634931862353
2741,00:00:10.964,-0.0593498195521534
2742,00:00:10.968,0.01961872167885305
2743,00:00:10.972,-0.024521235143765748
2744,00:00:10.976,-0.015414312016218928
2745,00:00:10.98,0.0346781853586435
2746,00:00:10.984,0.02576017891988157
2747,00:00:10.988,0.02365681575611235
2748,00:00:10.992,0.04885916458442807
2749,00:00:10.996,-0.0565969310700893
2750,00:00:11,-0.07248360384255649
2751,00:00:11.004,0.013712163083255319
2752,00:00:11.008,0.04236894519999619
2753,00:00:11.012,0.003968999721109961
2754,00:00:11.016,0.012642597197554992
2755,00:00:11.02,-0.039326024241745465
2756,00:00:11.024,-0.017055314499884816
2757,00:00:11.028,0.0074237019289284875
2758,00:00:11.032,0.03909322689287361
2759,00:00:11.036,0.02710252534598112
2760,00:00:11.04,-0.022960676462389466
2761,00:00:11.044,-0.029974992619827376
2762,00:00:11.048,-0.009281040634959948
2763,00:00:11.052,-0.001944198273122262
2764,00:00:11.056,0.00513572664931417
2765,00:00:11.06,0.02946808363776659
2766,00:00:11.064,0.03814960829913615
2767,00:00:11.068,-0.009218059480190268
2768,00:00:11.072,-0.03977975994348528
2769,00:00:11.076,-0.0406133499927819
2770,00:00:11.08,-0.018010980100371
2771,00:00:11.084,0.05989055614918472
2772,00:00:11.088,0.01099313888698812
2773,00:00:11.092,-0.02387950150296095
2774,00:00:11.096,0.04441999178379781
2775,00:00:11.1,-0.026225181296467753
2776,00:00:11.104,-0.020737805753015044
2777,00:00:11.108,0.04372240137308836
2778,00:00:11.112,-0.0148572251200676
2779,00:00:11.116,-0.009565601125359499
2780,00:00:11.12,-0.036244797054678174
2781,00:00:11.124,-0.020037885755300473
2782,00:00:11.128,0.03263623267412189
2783,00:00:11.132,0.030990451574325534
2784,00:00:11.136,0.04436053708195693
2785,00:00:11.14,-0.0231423475779593
2786,00:00:11.144,-0.053110612556338296
2787,00:00:11.148,-0.01893341052345937
2788,00:00:11.152,0.022631658066529753
2789,00:00:11.156,0.009508912480669096
2790,00:00:11.16,0.015641888137906762
2791,00:00:11.164,-0.00886291195638478
2792,00:00:11.168,0.0052391886711120415
2793,00:00:11.172,0.023511754494393286
2794,00:00:11.176,-0.007846573833376171
2795,00:00:11.18,-0.0375038348138332
2796,00:00:11.184,-0.009376061614602851
2797,00:00:11.188,0.015723271761089532
2798,00:00:11.192,-0.039032712113112246
2799,00:00:11.196,0.0070084724575280675
2800,00:00:11.2,0.0852527208626271
2801,00:00:11.204,0.04192917991895234
2802,00:00:11.208,-0.025217899121344096
2803,00:00:11.212,-0.08385632466524841
2804,00:00:11.216,-0.035243246704339995
2805,00:00:11.22,0.005106039345264463
2806,00:00:11.224,0.03175987582653758
2807,00:00:11.228,0.0474221967160702
2808,00:00:11.232,-0.008765527920331808
2809,00:00:11.236,-0.012618220876902281
2810,00:00:11.24,-0.02659873175434772
2811,00:00:11.244,0.059441261691972606
2812,00:00:11.248,0.06861950503662229
2813,00:00:11.252,-0.12091847928240892
2814,00:00:11.256,-0.08949633827432993
2815,00:00:11.26,0.02504783915355805
2816,00:00:11.264,0.060599126096349216
2817,00:00:11.268,0.07371402811259033
2818,00:00:11.272,0.0001916997134685395
2819,00:00:11.276,-0.05389186693355446
2820,00:00:11.28,0.011604468338191582
2821,00:00:11.284,0.00760631030425429
2822,00:00:11.288,-0.0209994781762362
2823,00:00:11.292,-0.01593874086393044
2824,00:00:11.296,-0.002003581030294287
2825,00:00:11.3,0.003667623212095347
2826,00:00:11.304,-0.01926077622920273
2827,00:00:11.308,0.02697478956542908
2828,00:00:11.312,0.0357409380376339
2829,00:00:11.316,0.0038248596247285587
2830,00:00:11.32,-0.01774365920573469
2831,00:00:11.324,-0.05634155496954919
2832,00:00:11.328,-0.003487993264570787
2833,00:00:11.332,0.0739341638982296
2834,00:00:11.336,-0.0084236906841397
2835,00:00:11.34,0.04016000156116206
2836,00:00:11.344,-0.003748522140085704
2837,00:00:11.348,-0.095895541831851
2838,00:00:11.352,-0.04282804136164482
2839,00:00:11.356,0.02254716167226431
2840,00:00:11.36,0.03184464760124682
2841,00:00:11.364,0.05263931537047031
2842,00:00:11.368,0.028865147032774943
2843,00:00:11.372,-0.00757249718299138
2844,00:00:11.376,-0.0482873404398561
2845,00:00:11.38,-0.029871147184167023
2846,00:00:11.384,0.05538506095763296
2847,00:00:11.388,-0.005319542542565602
2848,00:00:11.392,-0.07179597299545999
2849,00:00:11.396,0.09266853146255019
2850,00:00:11.4,-0.006995150819420898
2851,00:00:11.404,-0.08272069506347161
2852,00:00:11.408,0.006356037221848899
2853,00:00:11.412,0.014847614802420098
2854,00:00:11.416,0.04831456253305077
2855,00:00:11.42,0.0231379419565201
2856,00:00:11.424,-0.03496058471500876
2857,00:00:11.428,-0.005727817711885979
2858,00:00:11.432,-0.01240482856519524
2859,00:00:11.436,-0.02035260049160572
2860,00:00:11.44,0.03524911007843913
2861,00:00:11.444,0.0779038653708995
2862,00:00:11.448,-0.021347847767174223
2863,00:00:11.452,-0.07599528218270288
2864,00:00:11.456,-0.08494608104228969
2865,00:00:11.46,0.0344879291951656
2866,00:00:11.464,0.0479757161810994
2867,00:00:11.468,0.030190236313501328
2868,00:00:11.472,0.011651040869764998
2869,00:00:11.476,0.017864953435491774
2870,00:00:11.48,0.01790987700223918
2871,00:00:11.484,-0.03259174589766191
2872,00:00:11.488,-0.07069665170274682
2873,00:00:11.492,0.01613181829452519
2874,00:00:11.496,0.0440586311742664
2875,00:00:11.5,-0.03615321964025492
2876,00:00:11.504,-0.02325473350356331
2877,00:00:11.508,0.02223967667669057
2878,00:00:11.512,0.03146290243603287
2879,00:00:11.516,0.018356099491938928
2880,00:00:11.52,0.002191812731325628
2881,00:00:11.524,-0.005553225520998229
2882,00:00:11.528,-0.00934411981143058
2883,00:00:11.532,-0.05113038187846543
2884,00:00:11.536,-0.00290049845352767
2885,00:00:11.54,-0.003457099199295103
2886,00:00:11.544,0.06119779404252773
2887,00:00:11.548,0.00748955539893359
2888,00:00:11.552,-0.014587712939828638
2889,00:00:11.556,-0.007791394076775704
2890,00:00:11.56,-0.005821315571665698
2891,00:00:11.564,0.006631727155763683
2892,00:00:11.568,-0.004778726957738442
2893,00:00:11.572,-0.02968335628975176
2894,00:00:11.576,0.0224543735384941
2895,00:00:11.58,0.010946496622636913
2896,00:00:11.584,-0.018695999868214103
2897,00:00:11.588,0.05643013492226609
2898,00:00:11.592,-0.02288367645815011
2899,00:00:11.596,-0.05893641326110808
2900,00:00:11.6,-0.004977985750883809
2901,00:00:11.604,0.03772723977454008
2902,00:00:11.608,0.02466578641906384
2903,00:00:11.612,0.03472431236878043
2904,00:00:11.616,-0.03545949375256898
2905,00:00:11.62,-0.026772370270919096
2906,00:00:11.624,-0.0216559723485261
2907,00:00:11.628,-0.0003833302762359398
2908,00:00:11.632,0.0394282508641482
2909,00:00:11.636,-0.01082809292711318
2910,00:00:11.64,-0.009215660626068722
2911,00:00:11.644,0.03819377394393084
2912,00:00:11.648,0.02342309942469006
2913,00:00:11.652,-0.05098342197015885
2914,00:00:11.656,-0.043824360589496805
2915,00:00:11.66,0.01950450963340702
2916,00:00:11.664,0.0133430007845164
2917,00:00:11.668,0.03233294794335959
2918,00:00:11.672,0.05023295804858216
2919,00:00:11.676,-0.04841913399286572
2920,00:00:11.68,-0.07474818429909649
2921,00:00:11.684,-0.010207467916188763
2922,00:00:11.688,0.03074583737179641
2923,00:00:11.692,0.044199940399266766
2924,00:00:11.696,0.021237397100776493
2925,00:00:11.7,0.031088043935596943
2926,00:00:11.704,-0.042460635304450906
2927,00:00:11.708,-0.040026860777288724
2928,00:00:11.712,-0.030002394225448356
2929,00:00:11.716,0.030993606429547068
2930,00:00:11.72,0.016213902737945353
2931,00:00:11.724,-0.0005598166026175022
2932,00:00:11.728,0.04701083805412055
2933,00:00:11.732,-0.03729584440588946
2934,00:00:11.736,-0.03685523814056069
2935,00:00:11.74,0.003068608260946362
2936,00:00:11.744,-0.002722609788179401
2937,00:00:11.748,0.0665586553514004
2938,00:00:11.752,0.0033024046570062984
2939,00:00:11.756,-0.0270221873797709
2940,00:00:11.76,-0.0505133662372827
2941,00:00:11.764,0.012769494671374563
2942,00:00:11.768,0.03326448425650604
2943,00:00:11.772,-0.00587571039795878
2944,00:00:11.776,-0.017219008877873428
2945,00:00:11.78,0.010275336098857226
2946,00:00:11.784,0.0167988510802388
2947,00:00:11.788,0.009013932896777991
2948,00:00:11.792,-0.01669900573324412
2949,00:00:11.796,-0.03486530296504503
2950,00:00:11.8,-0.010911787860095501
2951,00:00:11.804,0.0566707579419017
2952,00:00:11.808,0.02391744288615883
2953,00:00:11.812,-0.028193055652081894
2954,00:00:11.816,-0.035265180922578965
2955,00:00:11.82,0.0033947462216020047
2956,00:00:11.824,0.0031044697389006593
2957,00:00:11.828,0.003211514791473699
2958,00:00:11.832,0.02684263326227664
2959,00:00:11.836,-0.0008430657908319941
2960,00:00:11.84,0.009060547716217109
2961,00:00:11.844,0.003328145880004787
2962,00:00:11.848,-0.055580140324309475
2963,00:00:11.852,-0.004838902881601825
2964,00:00:11.856,0.01706184120848775
2965,00:00:11.86,0.062208637595176704
2966,00:00:11.864,-0.006328495539491944
2967,00:00:11.868,-0.05127778276801115
2968,00:00:11.872,-0.02827158756554124
2969,00:00:11.876,0.021312181372195493
2970,00:00:11.88,0.05436174746137114
2971,00:00:11.884,-0.013843186199665097
2972,00:00:11.888,-0.039579940959811155
2973,00:00:11.892,-0.01169920712709423
2974,00:00:11.896,0.0060339581687003305
2975,00:00:11.9,0.029670672869542634
2976,00:00:11.904,0.04364620801061388
2977,00:00:11.908,-0.01502663409337401
2978,00:00:11.912,-0.05760978255420923
2979,00:00:11.916,-0.001966429408639678
2980,00:00:11.92,0.04928379366174343
2981,00:00:11.924,-0.0007964647375047831
2982,00:00:11.928,-0.042762799654155956
2983,00:00:11.932,-0.018246719613671348
2984,00:00:11.936,0.030118960421532344
2985,00:00:11.94,-0.0065531139262020414
2986,00:00:11.944,0.0096407951787114
2987,00:00:11.948,0.0038163294084370093
2988,00:00:11.952,0.0038011481519789193
2989,00:00:11.956,0.0693612750619649
2990,00:00:11.96,0.0371575001627207
2991,00:00:11.964,-0.08652778252144337
2992,00:00:11.968,-0.1379384566098451
2993,00:00:11.972,-0.0036094030365346995
2994,00:00:11.976,0.07857799809426061
2995,00:00:11.98,0.07729933783411981
2996,00:00:11.984,0.022728093899786472
2997,00:00:11.988,-0.02347594103775922
2998,00:00:11.992,-0.027358709834516097
2999,00:00:11.996,-0.025957053992897272
3000,00:00:12,-0.02414278755895795
3001,00:00:12.004,0.04023576388135547
3002,00:00:12.008,0.10602580197155481
3003,00:00:12.012,-0.03638178843539202
3004,00:00:12.016,-0.12304776534438144
3005,00:00:12.02,-0.06586680840700868
3006,00:00:12.024,0.059657151810824906
3007,00:00:12.028,0.07314761355519289
3008,00:00:12.032,0.01915615517646079
3009,00:00:12.036,0.011763182468712299
3010,00:00:12.04,-0.0178540255874395
3011,00:00:12.044,-0.021744247060269062
3012,00:00:12.048,-0.00912758754566312
3013,00:00:12.052,-0.01077359123155475
3014,00:00:12.056,0.02159555186517537
3015,00:00:12.06,0.0016785357147456065
3016,00:00:12.064,2.7542468160400395e-05
3017,00:00:12.068,-0.0034012068063020012
3018,00:00:12.072,-0.01477544638328259
3019,00:00:12.076,-0.03665581974200907
3020,00:00:12.08,0.01796348078642045
3021,00:00:12.084,0.047528286930173635
3022,00:00:12.088,0.03961226297542449
3023,00:00:12.092,-0.012422505766153301
3024,00:00:12.096,-0.009610627777874435
3025,00:00:12.1,-0.061329651623964296
3026,00:00:12.104,-0.06058927392587064
3027,00:00:12.108,0.0348558723926544
3028,00:00:12.112,0.051162843359634294
3029,00:00:12.116,0.03448559762910002
3030,00:00:12.12,0.017887545807752755
3031,00:00:12.124,-0.0350236929953098
3032,00:00:12.128,-0.04085025563836103
3033,00:00:12.132,0.006889765616506298
3034,00:00:12.136,0.03053007414564488
3035,00:00:12.14,0.014194129849784042
3036,00:00:12.144,-0.022611992841120733
3037,00:00:12.148,-0.03910123556852342
3038,00:00:12.152,0.0018499789293855685
3039,00:00:12.156,0.02925883000716564
3040,00:00:12.16,0.01645488536451007
3041,00:00:12.164,-0.01566179469227791
3042,00:00:12.168,0.014232038985937868
3043,00:00:12.172,0.008898807689547553
3044,00:00:12.176,0.008731398265808848
3045,00:00:12.18,-0.012291408609598821
3046,00:00:12.184,-0.04862500866875051
3047,00:00:12.188,-0.002804354298859859
3048,00:00:12.192,-0.01413738215342162
3049,00:00:12.196,0.03734012390486898
3050,00:00:12.2,0.07144583365879958
3051,00:00:12.204,0.017065686872228952
3052,00:00:12.208,-0.07593151926994327
3053,00:00:12.212,-0.07163480808958418
3054,00:00:12.216,0.003285388927906748
3055,00:00:12.22,0.06247620005160566
3056,00:00:12.224,0.04888859018683433
3057,00:00:12.228,-0.01122420665342361
3058,00:00:12.232,-0.02306706132367252
3059,00:00:12.236,-0.0318406498990953
3060,00:00:12.24,-0.002669336216058587
3061,00:00:12.244,0.044908340554684456
3062,00:00:12.248,0.006529712583869692
3063,00:00:12.252,-0.004958502948284097
3064,00:00:12.256,-0.040664006577571875
3065,00:00:12.26,-0.0313765211030841
3066,00:00:12.264,0.030792670790106006
3067,00:00:12.268,0.02327521494589748
3068,00:00:12.272,0.01743491180241104
3069,00:00:12.276,-0.03289955097716304
3070,00:00:12.28,-0.002314792014658529
3071,00:00:12.284,0.01868625520728529
3072,00:00:12.288,0.01657819701358683
3073,00:00:12.292,0.0684886295348405
3074,00:00:12.296,-0.039302651770413005
3075,00:00:12.3,-0.07781845636782235
3076,00:00:12.304,-0.0625957986339927
3077,00:00:12.308,-0.018439260311424704
3078,00:00:12.312,0.06747144274413584
3079,00:00:12.316,0.0690898923203349
3080,00:00:12.32,0.0339040737599134
3081,00:00:12.324,-0.0150340693071484
3082,00:00:12.328,-0.027307942043989848
3083,00:00:12.332,-0.0108178169466555
3084,00:00:12.336,0.001529543660581072
3085,00:00:12.34,-0.015011942014098218
3086,00:00:12.344,-0.00729914149269461
3087,00:00:12.348,-0.019969733082689352
3088,00:00:12.352,0.014560478448402144
3089,00:00:12.356,0.010976722463965322
3090,00:00:12.36,-0.029375480084127034
3091,00:00:12.364,0.03742197155952453
3092,00:00:12.368,0.019110157096292775
3093,00:00:12.372,-0.014768259774427823
3094,00:00:12.376,0.002988849300891162
3095,00:00:12.38,0.02051353675778952
3096,00:00:12.384,0.030746410135179706
3097,00:00:12.388,-0.0639275573194027
3098,00:00:12.392,-0.02453977358527484
3099,00:00:12.396,-0.008731961715966418
3100,00:00:12.4,-0.037136591388843954
3101,00:00:12.404,0.0184876527637243
3102,00:00:12.408,0.0798332672566176
3103,00:00:12.412,0.0704357475042344
3104,00:00:12.416,-0.04567328374832865
3105,00:00:12.42,-0.05323787010274831
3106,00:00:12.424,0.0009854435920715991
3107,00:00:12.428,-0.017592605203390115
3108,00:00:12.432,-0.017446677898988162
3109,00:00:12.436,0.00859713507816195
3110,00:00:12.44,0.02546954923309389
3111,00:00:12.444,0.02500324416905641
3112,00:00:12.448,-0.02610861789435152
3113,00:00:12.452,0.006447697058320044
3114,00:00:12.456,0.017305982299148998
3115,00:00:12.46,0.01438380032777782
3116,00:00:12.464,-0.008457730058580668
3117,00:00:12.468,-0.0269732344895602
3118,00:00:12.472,-0.04522937815636396
3119,00:00:12.476,-0.022419532353524077
3120,00:00:12.48,0.06513048848137255
3121,00:00:12.484,0.05153320729732509
3122,00:00:12.488,-0.0301337074488401
3123,00:00:12.492,0.01351774041540921
3124,00:00:12.496,-0.01999097736552357
3125,00:00:12.5,-0.06092169135808942
3126,00:00:12.504,0.024133913451805752
3127,00:00:12.508,0.06533908937126398
3128,00:00:12.512,-0.011690434999764
3129,00:00:12.516,-0.042653609067201614
3130,00:00:12.52,0.002863592468202127
3131,00:00:12.524,0.006475990638136839
3132,00:00:12.528,-0.005161200650036335
3133,00:00:12.532,0.00611547916196283
3134,00:00:12.536,0.0080407187342644
3135,00:00:12.54,0.0065434137359261825
3136,00:00:12.544,-0.00216849870048463
3137,00:00:12.548,0.01597772166132927
