Elapsed Time,EMG1,EMG2,EMG3,BioRadio Event,
00:00:00,0.601976215839386,-0.815781593322754,2.20447850227356,0,
00:00:00.004,-0.572843492031097,0.780453264713287,-2.0998682975769,0,
00:00:00.008,-0.474116683006287,0.6455237865448,-1.7397985458374,0,
00:00:00.012,-0.0574680306017399,0.0540382601320744,-0.188348114490509,0,
00:00:00.016,0.246701776981354,-0.329007536172867,0.889368116855621,0,
00:00:00.02,0.301120609045029,-0.396060645580292,1.09635293483734,0,
00:00:00.024,0.186136230826378,-0.237669721245766,0.668707311153412,0,
00:00:00.028,0.0189745333045721,-0.0323059745132923,0.0878149345517159,0,
00:00:00.032,-0.0863022804260254,0.111218862235546,-0.313093930482864,0,
00:00:00.036,-0.120269998908043,0.159739434719086,-0.444979310035706,0,
00:00:00.04,-0.0846195891499519,0.11800828576088,-0.323050707578659,0,
00:00:00.044,-0.0363781824707985,0.0491768456995487,-0.117401704192162,0,
00:00:00.048,0.00897344388067722,-0.0249532461166382,0.0496396869421005,0,
00:00:00.052,0.0308579001575708,-0.064160168170929,0.125813633203506,0,
00:00:00.056,0.0418157130479813,-0.0293158423155546,0.127349019050598,0,
00:00:00.06,0.0323298238217831,-0.00939680077135563,0.0626811534166336,0,
00:00:00.064,-0.00651052594184875,-0.0038673672825098,-0.00594568019732833,0,
00:00:00.068,-0.0193164777010679,0.0156535673886538,-0.0383212752640247,0,
00:00:00.072,-0.0264689791947603,-0.0037443726323545,-0.0352716073393822,0,
00:00:00.076,0.00314327725209296,0.00945386383682489,-0.0249555427581072,0,
00:00:00.08,0.0118712680414319,0.0203367974609137,-0.0153572373092175,0,
00:00:00.084,0.00243680132552981,0.000572762102819979,0.0230900291353464,0,
00:00:00.088,0.00360253895632923,-0.00971061643213034,0.0274881366640329,0,
00:00:00.092,-0.000688676023855805,-0.00835443194955587,-0.015708077698946,0,
00:00:00.096,-0.00562657183036208,-0.00353389233350754,-0.0211991928517818,0,
00:00:00.1,-0.00360759696923196,-0.0202829334884882,0.0164285805076361,0,
00:00:00.104,-0.00219163694418967,0.0136733530089259,0.0173464901745319,0,
00:00:00.108,0.00614643283188343,0.0138815846294165,-0.00301677035167813,0,
00:00:00.112,0.00209035142324865,0.00860454887151718,-0.010027470998466,0,
00:00:00.116,0.00417635915800929,-0.000799279718194157,-0.00357471546158195,0,
00:00:00.12,-0.00887935515493155,-0.0104997651651502,0.00027404329739511,0,
00:00:00.124,-0.000144817007821985,0.00147528201341629,-0.00030343551770784,0,
00:00:00.128,0.00244347867555916,-0.0126106441020966,0.00985181983560324,0,
00:00:00.132,0.00400176271796227,0.000705118873156607,-0.0055607152171433,0,
00:00:00.136,-0.00147458421997726,0.006449603009969,-0.00282384897582233,0,
00:00:00.14,-0.00638419575989246,0.0101544382050633,-0.00232475716620684,0,
00:00:00.144,0.00490257423371077,0.00698224594816566,0.0030938028357923,0,
00:00:00.148,0.00974110048264265,0.00055367557797581,0.00499022146686912,0,
00:00:00.152,-0.0208620857447386,-0.0295390654355288,-0.00107487349305302,0,
00:00:00.156,4.78924157505389E-05,-0.0138100013136864,0.00171305635012686,0,
00:00:00.16,0.0143611477687955,0.0256300829350948,-0.00554460193961859,0,
00:00:00.164,0.00964727159589529,0.0194618832319975,-0.00355607853271067,0,
00:00:00.168,-0.00805568881332874,-0.0018005904275924,-0.00596928084269166,0,
00:00:00.172,-0.00643276888877153,-0.00935730524361134,0.0146675547584891,0,
00:00:00.176,0.00108998618088663,-0.00607416639104486,0.00577430240809917,0,
00:00:00.18,-0.00594762852415442,-0.00125552993267775,-0.0110856592655182,0,
00:00:00.184,-0.00155685166828334,-0.00884783547371626,0.00382904405705631,0,
00:00:00.188,0.00738935125991702,0.00765320006757975,-0.000289283780148253,0,
00:00:00.192,0.000751824700273573,0.000653368304483593,-0.0129275154322386,0,
00:00:00.196,0.00410171691328287,0.00539458962157369,0.00134148553479463,0,
00:00:00.2,0.000549288757611066,0.000393906346289441,0.00714502763003111,0,
00:00:00.204,-0.00473832106217742,0.00490509998053312,0.0166186578571796,0,
00:00:00.208,-0.00968305952847004,-0.0156039223074913,-0.00957857724279165,0,
00:00:00.212,0.0053881504572928,0.000116304734547157,-0.0053749899379909,0,
00:00:00.216,0.00640937872231007,0.00370247662067413,-0.0020639740396291,0,
00:00:00.22,0.000404212769353762,0.00489378580823541,0.00221606623381376,0,
00:00:00.224,0.00489316182211041,0.0115783149376512,0.0033207037486136,0,
00:00:00.228,-0.00302214524708688,0.00513062952086329,-0.0106412395834923,0,
00:00:00.232,-0.00742730312049389,-0.0137010104954243,0.00315315648913383,0,
00:00:00.236,-0.00794830825179815,-0.0083418833091855,0.00760643323883414,0,
00:00:00.24,0.00269236345775425,-0.0121969562023878,0.00516169657930732,0,
00:00:00.244,0.00851330440491438,-0.00440980913117528,-0.00579516496509314,0,
00:00:00.248,0.00516303069889545,0.0149356257170439,-0.00131069833878428,0,
00:00:00.252,-0.00195050321053714,0.00743748340755701,-0.00350473797880113,0,
00:00:00.256,0.00110513984691352,0.0128675140440464,-0.00790334772318602,0,
00:00:00.26,-0.00160400359891355,0.00209284061565995,0.000382266211090609,0,
00:00:00.264,-0.00960286799818277,-0.00725646922364831,0.0148454327136278,0,
00:00:00.268,0.00101155356969684,-0.00755421491339803,-0.000926490989513695,0,
00:00:00.272,0.0100548043847084,-0.00424181530252099,0.00323659251444042,0,
00:00:00.276,-0.00102398521266878,-0.01318368781358,-0.0050078178755939,0,
00:00:00.28,-0.0164845511317253,-0.00131448940373957,0.00393470004200935,0,
00:00:00.284,0.00283830985426903,0.00681003322824836,-0.00289599155075848,0,
00:00:00.288,0.0132919596508145,0.0169926676899195,-0.00714462390169501,0,
00:00:00.292,0.011312073096633,0.0125937014818192,-0.00556311663240194,0,
00:00:00.296,-0.00522096361964941,-0.00415000133216381,-0.00517221773043275,0,
00:00:00.3,-0.00904791988432407,-0.0130694089457393,0.00897288974374533,0,
00:00:00.304,-0.00389287411235273,-0.0115116890519857,0.0203425846993923,0,
00:00:00.308,-0.00103604642208666,-0.0023391314316541,0.00107131467666477,0,
00:00:00.312,-0.0013443473726511,0.00880682654678822,-0.0213430393487215,0,
00:00:00.316,-0.000624303240329027,0.0150618217885494,-0.00604745093733072,0,
00:00:00.32,0.0071264929138124,-0.0105914501473308,0.0105507913976908,0,
00:00:00.324,-0.00177397869993001,-0.0131763704121113,0.00345489685423672,0,
00:00:00.328,-0.00461605750024319,-0.00308528705500066,0.00648119580000639,0,
00:00:00.332,0.0160762816667557,0.0201323200017214,-0.00271745631471276,0,
00:00:00.336,0.00589343253523111,0.0172485522925854,-0.00996214430779219,0,
00:00:00.34,-0.0105362795293331,-0.00657811015844345,-0.00455789128318429,0,
00:00:00.344,-0.0130229908972979,-0.0166294202208519,0.00395629880949855,0,
00:00:00.348,-0.00892789848148823,-0.0297852531075478,0.0152891185134649,0,
00:00:00.352,0.00705653661862016,0.00994052551686764,-0.0114354351535439,0,
00:00:00.356,0.00756510719656944,0.0174077060073614,-0.0042964369058609,0,
00:00:00.36,0.00345637043938041,0.0232192780822515,0.00086909270612523,0,
00:00:00.364,0.00814677495509386,0.000215859050513245,0.00911143701523542,0,
00:00:00.368,-0.00129428785294294,-0.0154808005318046,0.000676801719237119,0,
00:00:00.372,-0.0055687022395432,-0.00792980752885342,-0.016224967315793,0,
00:00:00.376,-0.00310387602075934,-0.00307437498122454,0.0015939639415592,0,
00:00:00.38,-0.00441442336887121,0.000317809492116794,0.00964415818452835,0,
00:00:00.384,-0.00128521176520735,7.1482798375655E-05,0.00818668026477098,0,
00:00:00.388,0.00172671477776021,0.000275556609267369,0.0003149984695483,0,
00:00:00.392,0.00493455771356821,0.00523785594850779,-0.00709678884595633,0,
00:00:00.396,-0.00179974199272692,0.00400842353701591,-0.00790577009320259,0,
00:00:00.4,0.00119998771697283,0.00499736005440354,0.000196624125237577,0,
00:00:00.404,0.00317906890995801,-0.00138718634843826,0.00729342736303806,0,
00:00:00.408,-0.00605922797694802,-0.0116747263818979,0.00102328055072576,0,
00:00:00.412,0.00366685376502573,0.000704770616721362,-0.00806618481874466,0,
00:00:00.416,0.000242580295889638,-0.00163103209342808,-0.00234771799296141,0,
00:00:00.42,-0.00103736342862248,-0.0032122430857271,0.0181905031204224,0,
00:00:00.424,-0.000980514450930059,0.00266440608538687,-0.00430054310709238,0,
00:00:00.428,0.0037606309633702,0.0183081515133381,-0.0140260886400938,0,
00:00:00.432,-0.0100164823234081,-0.00914337206631899,-0.00626816414296627,0,
00:00:00.436,0.00306211691349745,-0.00634982110932469,0.0217635799199343,0,
00:00:00.44,0.0028828636277467,0.00535268988460302,0.012504268437624,0,
00:00:00.444,0.00646344060078263,0.00479134311899543,-0.0175276659429073,0,
00:00:00.448,-0.000809717050287873,-0.00588407320901752,-0.0140945371240377,0,
00:00:00.452,-0.00340732699260116,-0.0075501068495214,-0.00420143641531467,0,
00:00:00.456,-0.0028863693587482,-0.00158430601004511,0.0144466776400805,0,
00:00:00.46,-0.00734886387363076,-0.0028775876853615,0.00992855336517096,0,
00:00:00.464,0.00638531241565943,0.0126486290246248,-0.00770147889852524,0,
00:00:00.468,0.0102744838222861,0.0164334084838629,0.000628548034001142,0,
00:00:00.472,0.00184007850475609,2.00113936443813E-05,-0.00357122230343521,0,
00:00:00.476,-0.00503880297765136,-0.0137227708473802,0.00495153106749058,0,
00:00:00.48,-0.0106637049466372,-0.0231812763959169,-0.00460752518847585,0,
00:00:00.484,-0.0124762849882245,-0.00567629374563694,-0.00275270594283938,0,
00:00:00.488,0.00858105532824993,0.0141004333272576,0.00511620240285993,0,
00:00:00.492,0.0183453802019358,0.0167794991284609,0.00506542529910803,0,
00:00:00.496,0.00718903820961714,0.00286067416891456,-0.0109729627147317,0,
00:00:00.5,-0.00655366154387593,0.0116451103240252,0.00162012979853898,0,
00:00:00.504,-0.0113651752471924,-0.0199614856392145,0.0185150802135468,0,
00:00:00.508,-0.0163037907332182,-0.0249439980834723,-0.0179018191993237,0,
00:00:00.512,0.0125978095456958,0.013086543418467,0.000442512653535232,0,
00:00:00.516,0.0125155430287123,0.0203075502067804,-0.00997048243880272,0,
00:00:00.52,-0.0025985143147409,0.00268241437152028,0.00590770039707422,0,
00:00:00.524,0.00231221225112677,-0.00592875294387341,0.0124105606228113,0,
00:00:00.528,-0.00102601479738951,-0.00291866553016007,0.000454097636975348,0,
00:00:00.532,-0.00381418108008802,-0.00186171126551926,-0.00561318127438426,0,
00:00:00.536,-0.00999924819916487,-0.0117332004010677,-0.00755333388224244,0,
00:00:00.54,0.00204146397300065,-0.00342631456442177,0.0101933786645532,0,
00:00:00.544,0.00729425717145205,0.00936769042164087,0.00543055590242147,0,
00:00:00.548,0.00178424245677888,0.0103365536779165,-0.00451785977929831,0,
00:00:00.552,-0.000638254452496767,-0.00344312307424843,-0.0102859456092119,0,
00:00:00.556,-0.0033066519536078,-0.00377929816022515,-0.00569037860259414,0,
00:00:00.56,-0.00101069186348468,-0.00284893065690994,0.00718987220898271,0,
00:00:00.564,0.00536128226667643,0.00537287956103683,0.013603376224637,0,
00:00:00.568,-0.00419016927480698,0.00337031902745366,-0.00508127547800541,0,
00:00:00.572,0.00402074120938778,0.00150393473450094,-0.00210286746732891,0,
00:00:00.576,0.00159941124729812,-0.00477498769760132,-0.00393384322524071,0,
00:00:00.58,0.000189468410098925,-0.00231829914264381,-0.00787634961307049,0,
00:00:00.584,-0.00508725363761187,0.00270286528393626,0.0129687394946814,0,
00:00:00.588,-0.0100476760417223,-0.00865829549729824,0.0029823009390384,0,
00:00:00.592,0.00118033727630973,0.00101049547083676,-0.000587889458984137,0,
00:00:00.596,0.00653914362192154,-0.00862419605255127,-0.0162703655660152,0,
00:00:00.6,0.00610479013994336,0.010706651955843,0.00574440974742174,0,
00:00:00.604,0.00478372862562537,0.0148367965593934,0.0138955088332295,0,
00:00:00.608,-0.000635248841717839,0.00794284325093031,-0.00930011365562677,0,
00:00:00.612,3.10490904666949E-05,-0.00361894629895687,-0.00686900690197945,0,
00:00:00.616,-0.00620620930567384,-0.0201461240649223,0.00487123150378466,0,
00:00:00.62,-0.00766958296298981,-0.0158103574067354,0.0114471148699522,0,
00:00:00.624,-0.00832344498485327,0.00499301683157682,-0.00627973303198814,0,
00:00:00.628,0.00467063067480922,0.00745413498952985,-0.0084727443754673,0,
00:00:00.632,0.0134862083941698,0.0129613848403096,0.0108287492766976,0,
00:00:00.636,0.011444341391325,0.0105066522955894,-0.00184682267718017,0,
00:00:00.64,-0.000797208689618856,-0.00340272928588092,-0.00462039327248931,0,
00:00:00.644,-0.0148496860638261,-0.0130096357315779,-0.00892907567322254,0,
00:00:00.648,-0.007240638602525,-0.003488814458251,0.00810633506625891,0,
00:00:00.652,-0.00206719478592277,-0.00176192307844758,0.000617511686868966,0,
00:00:00.656,0.00381460133939981,-0.00483887270092964,0.00071452499832958,0,
00:00:00.66,0.00998697243630886,0.00477117206901312,0.00784481409937143,0,
00:00:00.664,0.00238868244923651,0.0177662223577499,-0.00658880593255162,0,
00:00:00.668,-0.00194087135605514,0.0115959709510207,0.00159373437054455,0,
00:00:00.672,0.00308834528550506,-0.0108254458755255,0.00483753439038992,0,
00:00:00.676,-0.010303070768714,-0.0302593521773815,-0.00959339272230864,0,
00:00:00.68,-0.00579240825027227,-0.0124776903539896,-0.00983989983797073,0,
00:00:00.684,-0.000595971709117293,0.0160232149064541,0.01146708894521,0,
00:00:00.688,0.0134340599179268,0.029400922358036,0.0106352707371116,0,
00:00:00.692,0.00053105695405975,-0.00205023819580674,-0.00577055150642991,0,
00:00:00.696,-0.00260060932487249,-0.0109571414068341,-0.0107613261789083,0,
00:00:00.7,-0.00194268405903131,-0.00192550395149738,0.00369926099665463,0,
00:00:00.704,0.00568423513323069,0.00868501234799623,0.00280001410283148,0,
00:00:00.708,-0.00556520465761423,-0.00357286795042455,-0.000434813438914716,0,
00:00:00.712,-0.00228866445831954,-0.0109236445277929,0.00449115317314863,0,
00:00:00.716,0.00196209293790162,-0.000443309399997815,-0.00282624876126647,0,
00:00:00.72,-0.00102013209834695,0.00696861743927002,-0.00023947938461788,0,
00:00:00.724,-0.00260974117554724,0.000787002907600254,0.00205877120606601,0,
00:00:00.728,0.0025212368927896,-0.0101310377940536,0.00185547792352736,0,
00:00:00.732,0.00476295175030828,0.00199106242507696,-0.00395783968269825,0,
00:00:00.736,-0.000946365937124938,0.00167803396470845,-0.00988221261650324,0,
00:00:00.74,-0.00631871912628412,0.00627006310969591,0.002757977694273,0,
00:00:00.744,0.00257339677773416,0.00641759671270847,0.00597878312692046,0,
00:00:00.748,0.00723827676847577,0.0067999972961843,0.00203201803378761,0,
00:00:00.752,-0.00303531624376774,-0.00566045381128788,0.00491310702636838,0,
00:00:00.756,-0.00424862001091242,-0.0116201257333159,0.000257409730693325,0,
00:00:00.76,-0.00609091902151704,-0.0130533091723919,0.000584147754125297,0,
00:00:00.764,0.010702365078032,0.0100968554615974,-0.0102313542738557,0,
00:00:00.768,-0.00299623771570623,0.00316458707675338,-0.0100246043875813,0,
00:00:00.772,-0.000994340749457479,-3.94048438465688E-05,-0.00126722315326333,0,
00:00:00.776,-0.00187281856779009,0.0037098447792232,0.0119366180151701,0,
00:00:00.78,0.00254453881643713,0.0025910020340234,0.0140611436218023,0,
00:00:00.784,-0.00417659431695938,-0.0102760111913085,0.00714660482481122,0,
00:00:00.788,0.00618155719712377,0.00407165940850973,-0.00382776744663715,0,
00:00:00.792,0.00598598644137383,0.0163506865501404,-0.0219520162791014,0,
00:00:00.796,-0.000650660484097898,0.00515731517225504,-0.0134184649214149,0,
00:00:00.8,-0.00904681999236345,-0.0191628225147724,0.00485696457326412,0,
00:00:00.804,-0.00308449985459447,-0.0115850688889623,0.0179908275604248,0,
00:00:00.808,0.00697090802714229,0.00514211831614375,0.00576788559556007,0,
00:00:00.812,-0.00779055384919047,0.00374274421483278,-0.00329842464998364,0,
00:00:00.816,0.00526906456798315,0.00203359103761613,-0.00394251057878137,0,
00:00:00.82,-0.000134556030388921,-0.0137850465252995,-0.00193262798711658,0,
00:00:00.824,-0.00869056861847639,0.00555695546790957,0.00411369558423758,0,
00:00:00.828,0.00627671973779798,0.0191882401704788,0.0114113017916679,0,
00:00:00.832,0.0114580104127526,0.00556193571537733,-0.0184071864932776,0,
00:00:00.836,-0.00317509099841118,-0.00532969553023577,-0.00750621175393462,0,
00:00:00.84,-0.000793704704847187,-0.0131066525354981,0.00407979125156999,0,
00:00:00.844,-0.00216975947842002,-0.00482738530263305,0.00212513050064445,0,
00:00:00.848,0.00547887198626995,0.0135002480819821,0.00376861565746367,0,
00:00:00.852,-0.00989316217601299,-0.00829676166176796,0.00798619445413351,0,
00:00:00.856,-0.0153429638594389,-0.0190014969557524,-0.00813856441527605,0,
00:00:00.86,0.00174413726199418,0.00208755256608129,0.00657728314399719,0,
00:00:00.864,0.0212930887937546,0.0247760396450758,0.00722969137132168,0,
00:00:00.868,0.0110200978815556,0.024828165769577,-0.0026484695263207,0,
00:00:00.872,-0.00910717714577913,-0.00724499253556132,-0.010446853004396,0,
00:00:00.876,-0.00799040030688047,-0.0248516537249088,-0.0200337897986174,0,
00:00:00.88,-0.00415425049141049,-0.0151709141209722,0.00839194841682911,0,
00:00:00.884,0.00178166490513831,0.00368145178072155,0.0151259927079082,0,
00:00:00.888,-0.00205509667284787,0.0024612785782665,-0.000847534276545048,0,
00:00:00.892,0.00276531442068517,0.0124969575554132,0.00451869750395417,0,
00:00:00.896,0.00723902555182576,0.00933755096048117,0.000789379584603012,0,
00:00:00.9,-0.00456201424822211,-0.00660025840625167,-0.00936045870184898,0,
00:00:00.904,-0.00778855197131634,-0.00465744873508811,0.00170144939329475,0,
00:00:00.908,0.0122786471620202,-2.66864662989974E-05,0.0103689171373844,0,
00:00:00.912,-0.00239041913300753,-0.00202208408154547,-0.0142313716933131,0,
00:00:00.916,-0.00394358579069376,-0.00686792423948646,-0.0103966612368822,0,
00:00:00.92,0.00488174566999078,0.0130820199847221,0.0065763364546001,0,
00:00:00.924,-0.00283047650009394,0.00465526431798935,0.0118156569078565,0,
00:00:00.928,-0.00510523188859224,-0.000983907026238739,0.0120575027540326,0,
00:00:00.932,-0.000905432447325438,-0.0139796212315559,-0.0113065503537655,0,
00:00:00.936,0.00676632998511195,-0.0124491453170776,-0.00377607299014926,0,
00:00:00.94,0.00567857129499316,0.0113185234367847,-0.00394162628799677,0,
00:00:00.944,-0.00916947983205318,0.0145470118150115,0.000900951330550015,0,
00:00:00.948,-0.00307015283033252,-0.00102391152177006,0.00141209887806326,0,
00:00:00.952,0.00169679778628051,0.00443910388275981,-0.00342945335432887,0,
00:00:00.956,0.0074352896772325,-0.00403876230120659,0.0102803381159902,0,
00:00:00.96,0.00260738586075604,-0.012938229367137,-0.0110790636390448,0,
00:00:00.964,-0.00454555219039321,0.00115033134352416,0.00324517278932035,0,
00:00:00.968,-0.00229175994172692,0.00375912664458156,0.00233551906421781,0,
00:00:00.972,-0.0077161374501884,-0.00401005009189248,0.00123940699268132,0,
00:00:00.976,0.00319728814065456,0.00407234858721495,0.00638688169419765,0,
00:00:00.98,0.00503571843728423,0.00398678611963987,-0.0147849284112453,0,
00:00:00.984,0.00699390703812242,0.00326083181425929,0.00635651685297489,0,
00:00:00.988,-0.00388535787351429,0.000975300441496074,-0.000581685511860996,0,
00:00:00.992,-0.00901777949184179,-0.00557634187862277,0.0058284867554903,0,
00:00:00.996,-0.00235521234571934,-0.0153439827263355,-0.000826933013740927,0,
00:00:01,0.00989917106926441,0.00408297311514616,-0.0054177544079721,0,
00:00:01.004,0.00561628397554159,0.0176018308848143,-0.00493762968108058,0,
00:00:01.008,-0.00115578854456544,0.00688519142568111,0.00675272196531296,0,
00:00:01.012,-0.00465585989877582,-0.00687268143519759,-0.00611323863267899,0,
00:00:01.016,-0.00431744940578938,-0.0156000657007098,-0.00112424069084227,0,
00:00:01.02,-0.0122915375977755,-0.018303444609046,0.0190417375415564,0,
00:00:01.024,0.00419251527637243,0.0202434491366148,0.0021906872279942,0,
00:00:01.028,0.0180823486298323,0.0223608855158091,-0.00782448519021273,0,
00:00:01.032,0.0036629734095186,0.000404272141167894,-0.0153942545875907,0,
00:00:01.036,-0.00221962691284716,-0.00757589610293508,-0.00546115729957819,0,
00:00:01.04,-0.0101514840498567,-0.0159630905836821,0.000376748997950926,0,
00:00:01.044,-0.00169075222220272,-0.0068432567641139,0.020573066547513,0,
00:00:01.048,-0.00151599734090269,0.00109886017162353,0.00598949333652854,0,
00:00:01.052,0.00481267599388957,0.0116652706637979,-0.00800217874348164,0,
00:00:01.056,-0.0101693337783217,0.00616413075476885,-0.00722384685650468,0,
00:00:01.06,0.00462999101728201,0.00743302330374718,0.00399413052946329,0,
00:00:01.064,0.011421243660152,-0.00167502427939326,-0.00424561044201255,0,
00:00:01.068,4.97969522257335E-05,-0.0117583964020014,0.00218206504359841,0,
00:00:01.072,-0.00144122506026179,-0.0118450475856662,-0.00231637479737401,0,
00:00:01.076,-0.0030202753841877,0.0013310587964952,-0.00223273294977844,0,
00:00:01.08,-0.00292150373570621,0.00725978193804622,0.00818648748099804,0,
00:00:01.084,-0.00155592325609177,0.0130028109997511,0.00217537628486753,0,
00:00:01.088,0.00624757586047053,0.00756204919889569,0.00454255566000938,0,
00:00:01.092,-0.00905858911573887,-0.0174837186932564,-0.0149873243644834,0,
00:00:01.096,0.0023175033275038,-0.00523503171280026,0.000997542287223041,0,
00:00:01.1,0.00369080225937068,-0.00130265718325973,-0.000297855091048405,0,
00:00:01.104,-0.00461861258372664,0.00475239241495728,-0.000241774614551105,0,
00:00:01.108,0.00127819913905114,-0.00419029779732227,0.0152620747685432,0,
00:00:01.112,0.0033285126555711,0.00101584743242711,-0.00602039601653814,0,
00:00:01.116,0.00659148534759879,0.0136884851381183,-0.00945487339049578,0,
00:00:01.12,0.000676735013257712,0.00358197744935751,0.00577023904770613,0,
00:00:01.124,-0.0103936158120632,-0.0102999918162823,0.00383124104700983,0,
00:00:01.128,-0.00121125136502087,-0.000512796104885638,0.000994149362668395,0,
00:00:01.132,0.00179276603739709,0.000238123247982003,-0.0117147043347359,0,
00:00:01.136,-0.000242556081502698,0.00120454712305218,-0.0111347856000066,0,
00:00:01.14,0.00492528593167663,0.000908114481717348,0.00941979791969061,0,
00:00:01.144,-0.000356782344169915,-0.00840761791914701,0.0201274938881397,0,
00:00:01.148,0.00222666934132576,-0.00137730652932078,0.000103866819699761,0,
00:00:01.152,-0.00335078383795917,0.00283679342828691,-0.0114148678258061,0,
00:00:01.156,-0.00774094369262457,0.00787687953561544,0.00338937318883836,0,
00:00:01.16,-0.00789586827158928,-0.00359080452471972,-0.0140424380078912,0,
00:00:01.164,0.0159261059015989,0.00129587552510202,0.0100181940943003,0,
00:00:01.168,0.00833738408982754,-0.00362442736513913,0.00279654050245881,0,
00:00:01.172,-0.00703402981162071,0.00294843316078186,-0.00962616875767708,0,
00:00:01.176,-0.0017327310051769,-0.000328700349200517,0.0035009493585676,0,
00:00:01.18,0.00552908191457391,0.0033444503787905,0.00501179089769721,0,
00:00:01.184,-0.00869075674563646,-0.00844162981957197,-0.00200624158605933,0,
00:00:01.188,-0.00973298028111458,-0.0137180937454104,0.0114244436845183,0,
00:00:01.192,0.00477542635053396,0.0212444141507149,-0.000579440558794886,0,
00:00:01.196,0.0160283949226141,0.0222974549978971,-0.022382240742445,0,
00:00:01.2,0.000959864293690771,-0.00930299051105976,-0.000289081857772544,0,
00:00:01.204,-0.0142334382981062,-0.0271639861166477,0.00961246434599161,0,
00:00:01.208,0.00174665742088109,-0.00932905729860067,0.00693764956668019,0,
00:00:01.212,0.00144805503077805,0.00617501093074679,-0.0049234926700592,0,
00:00:01.216,-0.00321086845360696,0.00772604066878557,0.00130256172269583,0,
00:00:01.22,0.00437569012865424,0.0256398413330317,0.007595578674227,0,
00:00:01.224,0.00540098873898387,0.000759466434828937,-0.0019850863609463,0,
00:00:01.228,-0.00177449756301939,-0.0134502351284027,-0.0122366044670343,0,
00:00:01.232,-0.00143269205000252,-0.00990590080618858,-0.00941039435565472,0,
00:00:01.236,-0.00431983917951584,-0.00867968238890171,0.00693493708968163,0,
00:00:01.24,-0.00208232901059091,0.0022957983892411,0.0118455095216632,0,
00:00:01.244,0.00487923715263605,0.00848184060305357,0.00989142991602421,0,
00:00:01.248,-0.00596778839826584,0.00143153697717935,-0.00319311418570578,0,
00:00:01.252,-0.00151355599518865,0.00478035071864724,-0.0164034515619278,0,
00:00:01.256,0.00783138070255518,0.00311078270897269,0.00129348982591182,0,
00:00:01.26,0.00936590973287821,-0.00865641329437494,0.00207515037618577,0,
00:00:01.264,-0.0039401869289577,-0.00537885818630457,-0.000166949277627282,0,
00:00:01.268,-0.0127668268978596,-0.00987648591399193,0.00731125613674521,0,
00:00:01.272,0.00193295651115477,0.019857045263052,-0.00402062153443694,0,
00:00:01.276,0.00447492906823754,0.0122053129598498,-0.00549923395738006,0,
00:00:01.28,0.00443902052938938,-0.00198434665799141,0.0101862447336316,0,
00:00:01.284,-0.000106985389720649,-0.0159341469407082,-0.00217570387758315,0,
00:00:01.288,-0.00929960329085588,-0.0137464320287108,-0.00623316364362836,0,
00:00:01.292,-0.00143775076139718,0.00840822607278824,-0.00214231270365417,0,
00:00:01.296,0.00105987174902111,-0.00910468399524689,0.00197237986139953,0,
00:00:01.3,0.0100114513188601,0.0215555019676685,0.00547109544277191,0,
00:00:01.304,0.00412451522424817,0.0215691924095154,0.00464304024353623,0,
00:00:01.308,-0.00274436175823212,-0.0141283590346575,0.00541112525388598,0,
00:00:01.312,-0.0117515549063683,-0.0236163549125195,-0.018355643376708,0,
00:00:01.316,-0.00050218979595229,0.00206284411251545,-0.00521346088498831,0,
00:00:01.32,0.00962162669748068,0.0151449246332049,0.0101441787555814,0,
00:00:01.324,-0.00480593042448163,-0.00600071810185909,0.00700351223349571,0,
00:00:01.328,-0.00357731897383928,-0.00847653765231371,-0.00599958142265677,0,
00:00:01.332,0.00704242661595345,0.00526709808036685,-0.00618585757911205,0,
00:00:01.336,0.00145653216168284,0.00310532795265317,0.00459867902100086,0,
00:00:01.34,-0.00592593755573034,-0.00295479199849069,0.00689327623695135,0,
00:00:01.344,-0.00468838075175881,-0.0044587654992938,-0.000475442444439977,0,
00:00:01.348,0.00359872868284583,0.00427227886393666,-0.0051055233925581,0,
00:00:01.352,0.00910234358161688,0.0100909871980548,-0.000642887607682496,0,
00:00:01.356,0.00290172290988266,0.00555051723495126,-0.00357222417369485,0,
00:00:01.36,-0.0032359731849283,0.00294149224646389,0.0106923757120967,0,
00:00:01.364,-0.0157036483287811,-0.0321527719497681,-0.000410160864703357,0,
00:00:01.368,0.00184965378139168,0.00231150281615555,-0.00456161238253117,0,
00:00:01.372,0.0111155034974217,0.0157053135335445,-0.0101309204474092,0,
00:00:01.376,0.00542544713243842,0.0044442187063396,0.000450940133305267,0,
00:00:01.38,-0.00376802589744329,0.00282644596882164,0.00984017085283995,0,
00:00:01.384,-0.00510570546612144,0.00128534471150488,0.00784830003976822,0,
00:00:01.388,-0.00281299604102969,-0.0094666862860322,-0.0065875262953341,0,
00:00:01.392,-0.00209697242826223,-0.0139051964506507,-0.0078541012480855,0,
00:00:01.396,0.00361411599442363,-0.00626265164464712,0.00711691519245505,0,
00:00:01.4,0.00558507349342108,0.00935719907283783,-0.00205334951169789,0,
00:00:01.404,0.00351367192342877,0.0210683010518551,0.00231754314154387,0,
00:00:01.408,-0.00828828103840351,0.0166258048266172,-0.00147437315899879,0,
00:00:01.412,-0.00710034929215908,-0.0111314235255122,0.000546600029338151,0,
00:00:01.416,0.00481048924848437,-0.0215639639645815,-0.000308482645777985,0,
00:00:01.42,0.00768021866679192,-0.0155111933127046,-0.00517317885532975,0,
00:00:01.424,-0.00174351932946593,-0.000880039064213634,0.000972172943875194,0,
00:00:01.428,-0.002638935809955,0.019662031903863,0.00497859623283148,0,
00:00:01.432,-0.00304587162099779,0.00769007205963135,-0.00390260433778167,0,
00:00:01.436,0.0107761304825544,0.00787814240902662,0.0071118725463748,0,
00:00:01.44,-0.00528830615803599,0.00294386805035174,-0.00561357801780105,0,
00:00:01.444,-0.00157887919340283,-0.0112790754064918,0.00283019011840224,0,
00:00:01.448,-0.00541928224265575,-0.0192228779196739,0.00353284715674818,0,
00:00:01.452,0.000780794594902545,-0.00280594569630921,-0.00745628215372562,0,
00:00:01.456,0.00273840269073844,0.012140765786171,-0.0084476051852107,0,
00:00:01.46,-0.00193686154671013,0.00817840360105038,0.0112750818952918,0,
00:00:01.464,0.000616651028394699,0.0009550487739034,0.0157489590346813,0,
00:00:01.468,0.0151733700186014,0.0112928217276931,-0.0211192313581705,0,
00:00:01.472,-0.00721901608631015,-0.0111904703080654,-0.0083619961515069,0,
00:00:01.476,-0.00878347456455231,-0.0108386520296335,0.0139243146404624,0,
00:00:01.48,0.000867567199748009,-0.00533587718382478,0.00664311600849032,0,
00:00:01.484,0.00200479105114937,0.00501691084355116,-0.00126918405294418,0,
00:00:01.488,-0.00756476633250713,0.0110213523730636,-0.00906627159565687,0,
00:00:01.492,0.00548098795115948,0.00643668603152037,-0.0107936849817634,0,
00:00:01.496,0.00585649535059929,-0.00248603010550141,0.00309946853667498,0,
00:00:01.5,0.0081733213737607,-0.00275711086578667,0.0109987845644355,0,
00:00:01.504,-0.0115931201726198,-0.0223932564258575,0.0095697408542037,0,
00:00:01.508,-0.0100308209657669,-0.00622094655409455,0.0135705741122365,0,
00:00:01.512,0.0126562463119626,0.0183675941079855,-0.0169180277734995,0,
00:00:01.516,-0.00103583466261625,0.0132413981482387,-0.0224727727472782,0,
00:00:01.52,0.00353444134816527,0.0121334828436375,0.0069389552809298,0,
00:00:01.524,-0.0066138026304543,-0.00717651192098856,0.00321539025753737,0,
00:00:01.528,-0.00177662679925561,-0.0166509859263897,0.00543564045801759,0,
00:00:01.532,-0.00308659789152443,-0.0131401130929589,-0.00715697417035699,0,
00:00:01.536,0.00583973247557878,0.00899314973503351,0.00183988804928958,0,
00:00:01.54,0.00259727728553116,0.00978160742670298,0.0187043100595474,0,
00:00:01.544,0.00483826361596584,-0.00461559742689133,0.00992744415998459,0,
00:00:01.548,0.00387539342045784,0.0124334096908569,-0.0221108682453632,0,
00:00:01.552,-0.0142399352043867,-0.0031526074744761,-0.0138950338587165,0,
00:00:01.556,0.000349462265148759,-0.00727179972454906,-0.00111642433330417,0,
00:00:01.56,-0.0163292568176985,-0.0298896096646786,0.00677289627492428,0,
00:00:01.564,0.0165287870913744,0.0227914843708277,0.0204240065068007,0,
00:00:01.568,0.0162623170763254,0.0238093100488186,-0.00289409863762558,0,
00:00:01.572,-0.00165039743296802,0.00304659153334796,-0.00488602370023727,0,
00:00:01.576,-0.00994621682912111,-0.0158421713858843,-0.0228019766509533,0,
00:00:01.58,-0.00471055740490556,-0.0079035758972168,0.00923214480280876,0,
00:00:01.584,-0.000990391825325787,-0.000217890570638701,0.0117983547970653,0,
00:00:01.588,0.00323369051329792,0.00338942022062838,-0.00173060782253742,0,
00:00:01.592,-0.00223115878179669,-0.00505690695717931,0.00363319064490497,0,
00:00:01.596,0.00177398754749447,0.00295115332119167,-0.0083397114649415,0,
00:00:01.6,2.48284486588091E-05,-0.00271822279319167,0.00237862439826131,0,
00:00:01.604,0.00291511067189276,0.00742714572697878,0.00254516676068306,0,
00:00:01.608,0.0013800694141537,-0.0017142491415143,-0.00617115572094917,0,
00:00:01.612,0.00347108487039804,0.00520323263481259,0.0022369334474206,0,
00:00:01.616,-0.00145712925586849,0.00545432977378368,0.00309583195485175,0,
00:00:01.62,-0.0128333736211061,-0.00488148676231503,0.00120938580948859,0,
00:00:01.624,-0.00446367217227817,-0.0178237501531839,-0.000661670812405646,0,
00:00:01.628,0.00666842982172966,-0.0094064474105835,0.00684806937351823,0,
00:00:01.632,0.0182585772126913,0.0214763879776001,-0.00704876240342855,0,
00:00:01.636,-0.00782038737088442,0.00857375003397465,-0.0111220572143793,0,
00:00:01.64,-0.00232660584151745,0.00413128407672048,-0.00643050484359264,0,
00:00:01.644,-0.0101666701957583,-0.0121194552630186,0.0216530412435532,0,
00:00:01.648,0.0102247260510921,0.0046585276722908,0.00690783793106675,0,
00:00:01.652,-0.00263712950982153,0.000754949753172696,-0.0189183074980974,0,
00:00:01.656,-0.000745378318242729,-0.0129087725654244,-0.000473464402602986,0,
00:00:01.66,0.000214507745113224,-0.00806134566664696,0.0115179494023323,0,
00:00:01.664,-0.00367335136979818,0.00516385864466429,0.00045013937051408,0,
00:00:01.668,0.00222339341416955,0.011073580943048,-0.00156457314733416,0,
00:00:01.672,0.00743434578180313,0.00648888433352113,-0.00533837312832475,0,
00:00:01.676,-0.0021478608250618,7.43479904485866E-05,-0.0112937539815903,0,
00:00:01.68,0.0028132617007941,-0.0017386277904734,0.00824819132685661,0,
00:00:01.684,-0.00966663751751184,-0.0104582440108061,0.01089171692729,0,
00:00:01.688,-0.000656909891404212,-0.000334703276166692,-0.00309036765247583,0,
00:00:01.692,0.00233606481924653,0.000599838036578149,-0.00391915766522288,0,
00:00:01.696,0.000136834045406431,0.000118491618195549,0.000948239641729742,0,
00:00:01.7,0.00296401651576161,0.00440476834774017,0.00530836218968034,0,
00:00:01.704,0.00358223100192845,0.0155452219769359,-0.00183551583904773,0,
00:00:01.708,-0.000397589436033741,-0.00946863926947117,-0.00397558929398656,0,
00:00:01.712,-0.00303519563749433,-0.00930735841393471,-0.00281012058258057,0,
00:00:01.716,-0.00307242781855166,0.00165411969646811,-0.00472080335021019,0,
00:00:01.72,-0.0077135069295764,-0.00137987767811865,0.00301551190204918,0,
00:00:01.724,-0.00208515953272581,-0.0222875829786062,0.000741745112463832,0,
00:00:01.728,0.0162342041730881,0.00507467379793525,0.017551114782691,0,
00:00:01.732,0.00447856215760112,0.0293886046856642,-0.00187324441503733,0,
00:00:01.736,-0.00265983282588422,0.012838214635849,-0.0193730108439922,0,
00:00:01.74,-0.00694741401821375,-0.0105454046279192,-0.0039164237678051,0,
00:00:01.744,-0.00173839146737009,-0.0125409113243222,0.0155785884708166,0,
00:00:01.748,-0.00589084438979626,-0.00424270378425717,0.00345496786758304,0,
00:00:01.752,0.0109586417675018,0.00861680693924427,-0.0075981393456459,0,
00:00:01.756,0.00794259551912546,-0.00164112925995141,-0.00299493200145662,0,
00:00:01.76,-0.0103699984028935,-0.0042940191924572,-0.00809499435126781,0,
00:00:01.764,-0.0140655422583222,-0.00885132141411304,0.00744359660893679,0,
00:00:01.768,0.00336221186444163,0.00188936677295715,0.0163591653108597,0,
00:00:01.772,0.0153299458324909,0.0128771411255002,-0.000669409637339413,0,
00:00:01.776,0.00934205576777458,0.00615857401862741,-0.0142322713509202,0,
00:00:01.78,-0.00876692496240139,-0.00845787767320871,-0.0057216165587306,0,
00:00:01.784,-0.00493014650419354,-0.00431059207767248,0.0076631442643702,0,
00:00:01.788,-0.00734316930174828,-0.00465961173176765,-0.00141885213088244,0,
00:00:01.792,-0.00159652007278055,0.00134461291600019,-0.00301670632325113,0,
00:00:01.796,0.00962691195309162,0.0153046054765582,-0.000968367210589349,0,
00:00:01.8,0.000957541982643306,0.000885783869307488,0.00560483336448669,0,
00:00:01.804,-0.00567261269316077,-0.0184803698211908,0.0193940028548241,0,
00:00:01.808,0.00473827356472611,0.00759961502626538,-0.00832081120461226,0,
00:00:01.812,0.000953114242292941,0.00469026761129498,-0.0171142462641001,0,
00:00:01.816,-0.000960199628025293,-0.000283744389889762,-0.00737076858058572,0,
00:00:01.82,-0.00134369183797389,0.00123584293760359,0.0115097369998693,0,
00:00:01.824,-0.000862114015035331,-0.0129587994888425,0.0040988833643496,0,
00:00:01.828,0.00605937698855996,-0.00267538870684803,0.00444189412519336,0,
00:00:01.832,-0.0118344519287348,0.0069367359392345,-0.011307823471725,0,
00:00:01.836,0.00146471918560565,0.00675866799429059,-0.00266724755056202,0,
00:00:01.84,0.00681789172813296,0.000681533303577453,0.00376832415349782,0,
00:00:01.844,-0.00501695601269603,-0.00527209183201194,0.00527468929067254,0,
00:00:01.848,0.00477998051792383,0.00477493274956942,0.0157209429889917,0,
00:00:01.852,-0.00281197694130242,0.00252804602496326,-0.00534913269802928,0,
00:00:01.856,0.00967392791062593,0.000472312502097338,-0.0175988152623177,0,
00:00:01.86,0.00241063069552183,-0.00133408489637077,-0.00213656714186072,0,
00:00:01.864,-0.0115574542433023,-0.0126322535797954,0.00102339196018875,0,
00:00:01.868,-0.00979564618319273,0.00152727356180549,0.0012688897550106,0,
00:00:01.872,0.00598486652597785,0.00868208985775709,0.00136000756174326,0,
00:00:01.876,0.0105615044012666,0.00111157004721463,0.0077582374215126,0,
00:00:01.88,-0.00383444153703749,-0.00877941027283669,-0.000285298010567203,0,
00:00:01.884,-0.0109548829495907,-0.00928731262683868,0.00262986170127988,0,
00:00:01.888,0.00662840530276299,0.0134784216061234,0.00765216303989291,0,
00:00:01.892,0.00652959290891886,0.00863771699368954,-0.0194747485220432,0,
00:00:01.896,-0.00689953425899148,-0.00909003335982561,-0.00207162625156343,0,
00:00:01.9,0.00122759339865297,0.00630113203078508,0.00612916285172105,0,
00:00:01.904,0.00700356299057603,0.00972339045256376,0.00220075296238065,0,
00:00:01.908,-0.000400534307118505,-0.00616515707224607,0.00246605183929205,0,
00:00:01.912,0.00267999921925366,-0.0036520401481539,-0.00638805143535137,0,
00:00:01.916,-0.0112879667431116,-0.0142570501193404,-0.00218186737038195,0,
00:00:01.92,-0.00230868882499635,-0.0119758043438196,0.00478427717462182,0,
00:00:01.924,0.00368013209663332,0.0142120439559221,0.0084956232458353,0,
00:00:01.928,-0.00569770764559507,0.00728188175708056,0.00564900226891041,0,
00:00:01.932,-0.00216293428093195,0.00408124085515738,-0.0187270306050777,0,
00:00:01.936,0.0113226855173707,0.00141804199665785,-0.00745903002098203,0,
00:00:01.94,0.00977959856390953,-0.00701321708038449,0.0121345343068242,0,
00:00:01.944,-0.0038393484428525,0.00601467443630099,0.0128187127411366,0,
00:00:01.948,-0.00220182840712368,0.00712736509740353,-0.00153746036812663,0,
00:00:01.952,-0.00788422673940659,-0.00215223315171897,-0.0183576736599207,0,
00:00:01.956,0.000219680499867536,-0.00775451585650444,-0.0076580848544836,0,
00:00:01.96,0.00129913853015751,-0.00713564036414027,0.00485427118837833,0,
00:00:01.964,0.000529107928741723,-0.00503276381641626,0.0223413724452257,0,
00:00:01.968,-0.00217460538260639,-0.00295080407522619,0.0104152075946331,0,
00:00:01.972,-0.000289824238279834,0.00696589006111026,-0.019158523529768,0,
00:00:01.976,-0.00257293344475329,0.002174973487854,-0.0187516547739506,0,
00:00:01.98,-0.000280421780189499,0.00450987881049514,0.00830978527665138,0,
00:00:01.984,0.0104513019323349,0.0110711343586445,0.00821123737841845,0,
00:00:01.988,0.00749518955126405,0.00685321912169456,0.00182045542169362,0,
00:00:01.992,-0.00170077674556524,-0.00518602970987558,-0.00657474854961038,0,
00:00:01.996,-0.00492239324375987,-0.00894922390580177,0.0134193524718285,0,
00:00:02,-0.0128411380574107,-0.0194060727953911,0.00465228874236345,0,
00:00:02.004,-0.00502499798312783,-0.00747114513069391,-0.0184941329061985,0,
00:00:02.008,0.00557836657389998,0.0120428614318371,-0.00602528359740973,0,
00:00:02.012,0.00297931116074324,0.0119684580713511,0.004911117721349,0,
00:00:02.016,0.0081182811409235,0.0156516823917627,0.00607402296736836,0,
00:00:02.02,0.00371394702233374,0.00174209615215659,-0.003033890388906,0,
00:00:02.024,0.00255518523044884,-0.00917663611471653,0.00799221359193325,0,
00:00:02.028,-0.00394963519647717,-0.0154870171099901,-0.00714763347059488,0,
00:00:02.032,-0.010959598235786,-0.0113685093820095,0.000677688512951136,0,
00:00:02.036,-0.0157407596707344,0.00197856011800468,0.00875083636492491,0,
00:00:02.04,0.0115002542734146,0.00993039552122355,0.00795621890574694,0,
00:00:02.044,0.0112805552780628,0.0139930136501789,-0.00872713141143322,0,
00:00:02.048,0.00765923550352454,0.00511555746197701,-0.023696718737483,0,
00:00:02.052,0.00390800787135959,-0.00570827024057508,-0.000408644933486357,0,
00:00:02.056,-0.00916843023151159,0.000981180113740265,0.0100217135623097,0,
00:00:02.06,-0.0090161394327879,-0.00192297785542905,0.0142678990960121,0,
00:00:02.064,-0.00368468300439417,-0.0129619222134352,0.00319020496681333,0,
00:00:02.068,0.00136975443456322,-0.00903536006808281,-0.00562107283622026,0,
00:00:02.072,-0.000406648468924686,-0.00872340146452188,-0.00754574220627546,0,
00:00:02.076,0.0115546779707074,0.0200202185660601,0.00174082769080997,0,
00:00:02.08,0.00106509623583406,0.0164248999208212,0.000190622638911009,0,
00:00:02.084,-0.00299181137233973,-0.000560904562007636,0.00655079493299127,0,
00:00:02.088,-0.00107147998642176,-0.00213209702633321,-0.00118298851884902,0,
00:00:02.092,-0.0077515933662653,-0.0118011077865958,-0.0104169109836221,0,
00:00:02.096,0.000220185320358723,-0.00416616210713983,-0.00160395540297031,0,
00:00:02.1,0.00598027603700757,0.00537944911047816,0.00373305403627455,0,
00:00:02.104,0.00176880997605622,0.00766373192891479,0.000530299439560622,0,
00:00:02.108,0.00418075127527118,-0.00629413686692715,0.0109337251633406,0,
00:00:02.112,-0.00457418523728848,-0.00771967135369778,-0.00243314914405346,0,
00:00:02.116,-0.00194282608572394,-0.00100822397507727,-0.00236469320952892,0,
00:00:02.12,0.00333170336671174,0.00829456932842731,0.00189532781951129,0,
00:00:02.124,-0.00410553626716137,-0.000894335680641234,-0.00133325555361807,0,
00:00:02.128,-0.00300917704589665,0.0080282436683774,-0.00982743408530951,0,
00:00:02.132,0.000108665713923983,0.00188137753866613,-0.00342585192993283,0,
00:00:02.136,0.00626535294577479,-0.00442138034850359,0.00356241990812123,0,
00:00:02.14,-0.00371056189760566,-0.0123497815802693,0.0123204551637173,0,
00:00:02.144,-0.00412839977070689,-0.0063601965084672,0.00483482424169779,0,
00:00:02.148,0.00534120062366128,0.00601025111973286,-0.00747372955083847,0,
00:00:02.152,0.0044372989796102,0.0107931746169925,-0.00466404622420669,0,
00:00:02.156,0.00066193746170029,0.00353728677146137,-0.00815866608172655,0,
00:00:02.16,-0.00416962429881096,0.00328612141311169,0.00822718348354101,0,
00:00:02.164,-0.000764257740229368,-0.000433191278716549,0.00430448725819588,0,
00:00:02.168,0.00397189287468791,-0.00766899669542909,0.000349758454831317,0,
00:00:02.172,0.00204239948652685,-0.000351208844222128,-0.010078783147037,0,
00:00:02.176,-0.023938462138176,-0.024730471894145,0.00382871204055846,0,
00:00:02.18,0.00645737536251545,9.1648573288694E-05,0.00327894161455333,0,
00:00:02.184,0.0210277698934078,0.0298647824674845,0.0187179408967495,0,
00:00:02.188,-0.000273958576144651,0.0105655128136277,-0.0152689516544342,0,
00:00:02.192,-0.00409994041547179,0.00317852781154215,-0.0159469358623028,0,
00:00:02.196,-0.000594186771195382,-0.00827521644532681,-0.00693583255633712,0,
00:00:02.2,-0.00910390540957451,-0.0143192550167441,0.0152821429073811,0,
00:00:02.204,-0.0020438926294446,-0.0129945836961269,0.0190808307379484,0,
00:00:02.208,0.00435259146615863,-0.000911111303139478,-0.000691445718985051,0,
00:00:02.212,-0.000592118420172483,0.0119526507332921,-0.00708223879337311,0,
00:00:02.216,0.00490061193704605,0.00957678910344839,-0.0189985055476427,0,
00:00:02.22,-0.00180251197889447,0.000676852359902114,-0.00194093177560717,0,
00:00:02.224,0.00285165617242455,-0.00470394501462579,0.0172618869692087,0,
00:00:02.228,-0.00145689456257969,-0.00496282475069165,9.19854137464426E-05,0,
00:00:02.232,-0.00406476948410273,0.00606947159394622,-0.00571184093132615,0,
00:00:02.236,0.000977200223132968,0.0053487722761929,-0.00848644971847534,0,
00:00:02.24,0.00589690590277314,-0.00348596181720495,0.0116931023076177,0,
00:00:02.244,-0.00723965419456363,-0.00951363425701857,0.020570570603013,0,
00:00:02.248,0.00467026326805353,-0.00137830479070544,-0.0143484557047486,0,
00:00:02.252,0.00247637322172523,0.00503953732550144,-0.0196471959352493,0,
00:00:02.256,-0.00789435859769583,0.00587669061496854,-0.00964185502380133,0,
00:00:02.26,-0.00989685021340847,-0.0032969827298075,0.0108031639829278,0,
00:00:02.264,0.00389280868694186,-0.0155282765626907,0.0264040399342775,0,
00:00:02.268,0.0196989346295595,0.0134870996698737,0.00432241708040237,0,
00:00:02.272,0.00364374462515116,0.0113575290888548,-0.0196751952171326,0,
00:00:02.276,-0.00578625639900565,-0.000836758350487798,-0.00826872792094946,0,
00:00:02.28,-0.00781446788460016,-0.0038071854505688,0.00467454269528389,0,
00:00:02.284,-0.00301725068129599,-0.00745001574978232,0.00468913605436683,0,
00:00:02.288,-0.00509827584028244,-0.0124746169894934,0.00126831606030464,0,
00:00:02.292,0.000140332151204348,0.00605748081579804,-0.00336776999756694,0,
00:00:02.296,0.0041940244846046,0.00929802749305964,-0.0144841894507408,0,
00:00:02.3,0.00474077556282282,0.0115645155310631,0.0246512219309807,0,
00:00:02.304,0.00899497326463461,0.000491323531605303,-0.00450951606035233,0,
00:00:02.308,-0.00572516024112701,-0.00343653932213783,-0.00325567973777652,0,
00:00:02.312,-0.00230352394282818,-0.0167263746261597,-0.00207732385024428,0,
00:00:02.316,-0.00436648912727833,-0.00831344537436962,-0.00503343204036355,0,
00:00:02.32,0.00208892347291112,0.00894781388342381,-0.000134909758344293,0,
00:00:02.324,-0.0053336382843554,0.000247583171585575,0.0119490446522832,0,
00:00:02.328,-0.00127969449386001,-0.00574457971379161,0.00237800274044275,0,
00:00:02.332,-0.000967360800132155,0.0124789252877235,-0.00412456365302205,0,
00:00:02.336,0.0104575231671333,0.0123239383101463,-0.0117644518613815,0,
00:00:02.34,0.00837340299040079,0.0143396370112896,0.000391743669752032,0,
00:00:02.344,-0.000621090002823621,-0.0160168316215277,0.0106265656650066,0,
00:00:02.348,-0.00423292489722371,-0.0221589095890522,-0.004222197458148,0,
00:00:02.352,-0.0168826170265675,-0.0125208869576454,-0.0139102386310697,0,
00:00:02.356,-0.00554112857207656,0.00489533646032214,0.016606705263257,0,
00:00:02.36,0.0165135189890862,0.022011024877429,0.0113424630835652,0,
00:00:02.364,0.00024284009123221,0.00220703077502549,-0.00730119459331036,0,
00:00:02.368,0.00948618352413177,0.0151275051757693,-0.00856597721576691,0,
00:00:02.372,-0.00265356968156993,-0.00839458405971527,-0.00156281341332942,0,
00:00:02.376,-0.00413378095254302,-0.0150919072329998,0.00329332449473441,0,
00:00:02.38,-0.0086445976048708,-0.00183164002373815,0.00595924025401473,0,
00:00:02.384,-0.0030405183788389,0.00095341814449057,-0.00433245440945029,0,
00:00:02.388,0.00680830236524343,-0.00745242275297642,-0.0108402604237199,0,
00:00:02.392,-0.00120392430108041,-0.0102399941533804,-0.00376926269382238,0,
00:00:02.396,0.00243577663786709,0.0248740985989571,0.0122214565053582,0,
00:00:02.4,0.00878270994871855,0.0181880742311478,0.00745895178988576,0,
00:00:02.404,0.00128686032257974,0.00101900147274137,0.00370248663239181,0,
00:00:02.408,-0.00732392957434058,-0.0189034398645163,-0.000246299372520298,0,
00:00:02.412,-0.0149727826938033,-0.0171881765127182,-0.00724841328337789,0,
00:00:02.416,0.00342711200937629,-0.0061413599178195,-0.0166307706385851,0,
00:00:02.42,0.0141662880778313,0.0103793554008007,0.0180431976914406,0,
00:00:02.424,-0.00465097697451711,0.00708213122561574,-0.00447406433522701,0,
00:00:02.428,-0.00605581002309918,-0.00299988221377134,-0.00671152025461197,0,
00:00:02.432,0.00679439911618829,0.0125747909769416,0.0108000952750444,0,
00:00:02.436,0.00503612123429775,0.00224538170732558,0.00577383674681187,0,
00:00:02.44,-0.0021721669472754,0.000993130379356444,-0.00649923784658313,0,
00:00:02.444,-0.00138392846565694,-0.00639760214835405,-8.25122770038433E-05,0,
00:00:02.448,-0.00409151474013925,-0.000302471162285656,-0.00586109701544046,0,
00:00:02.452,0.00218401080928743,-0.000809855933766812,-0.00939631927758455,0,
00:00:02.456,-0.00124207802582532,-0.00623833481222391,-0.00143388623837382,0,
00:00:02.46,-0.00128275493625551,-0.0148327779024839,0.0139453103765845,0,
00:00:02.464,-0.00224387622438371,0.00334603292867541,0.014247253537178,0,
00:00:02.468,0.00273411115631461,0.01279207598418,0.00153933372348547,0,
00:00:02.472,0.00266581820324063,0.00925625953823328,-0.0140628218650818,0,
00:00:02.476,0.000913997064344585,-2.85276200884255E-05,-0.0140269231051207,0,
00:00:02.48,0.00147289456799626,0.000765062752179801,0.00895105209201574,0,
00:00:02.484,-0.00109206361230463,-0.00942854955792427,0.00390294310636818,0,
00:00:02.488,-0.00458562327548862,-0.00120586750563234,0.0010674447985366,0,
00:00:02.492,-0.00842550490051508,0.00304296729154885,-0.00445421971380711,0,
00:00:02.496,0.00882056728005409,0.00305191008374095,0.00739137222990394,0,
00:00:02.5,0.00315666967071593,-0.00113071734085679,-0.0033197021111846,0,
00:00:02.504,0.00291391694918275,-0.01162473205477,0.00294603267684579,0,
00:00:02.508,-0.00428869435563684,-0.00728758750483394,-0.00431492039933801,0,
00:00:02.512,0.00168711482547224,0.0176504906266928,-0.00538071244955063,0,
00:00:02.516,-0.00338721298612654,-0.000885007611941546,-0.000332430674461648,0,
00:00:02.52,0.00697279255837202,0.00925032328814268,0.00754084810614586,0,
00:00:02.524,-0.00042722059879452,0.00421169819310308,-3.76711977878585E-05,0,
00:00:02.528,-0.0103626186028123,-0.00935080740600824,0.00516465678811073,0,
00:00:02.532,0.00414395425468683,-0.00502637214958668,-0.00416512368246913,0,
00:00:02.536,-0.00689075700938702,-0.0138300787657499,-0.00246023014187813,0,
00:00:02.54,0.00133755942806602,-0.00203365157358348,-0.00992850307375193,0,
00:00:02.544,0.011734982021153,0.0165290273725986,0.00723981531336904,0,
00:00:02.548,0.00318241771310568,0.0108379581943154,0.00683030113577843,0,
00:00:02.552,-0.00483741424977779,0.000290555646643043,-0.000560186861548573,0,
00:00:02.556,-0.00468869786709547,-0.00824103783816099,-0.00675532221794128,0,
00:00:02.56,0.00647729588672519,-0.000733644468709826,-0.00218752701766789,0,
00:00:02.564,-0.0072097722440958,-0.0103579545393586,0.01077476516366,0,
00:00:02.568,-0.00482052471488714,-0.00767032708972692,0.0042818239890039,0,
00:00:02.572,-0.00128887547180057,0.00802798662334681,-0.0118960067629814,0,
00:00:02.576,0.00389565760269761,0.0142605965957046,-0.00485324021428823,0,
00:00:02.58,0.0116828549653292,0.00771209551021457,0.0014453042531386,0,
00:00:02.584,0.0122308786958456,0.000975466915406287,0.012406338006258,0,
00:00:02.588,-0.0181551668792963,-0.0187111962586641,-0.00646489579230547,0,
00:00:02.592,-0.0178749822080135,-0.0152103146538138,-0.00526161445304751,0,
00:00:02.596,0.00277864607051015,0.00097720988560468,0.0064944252371788,0,
00:00:02.6,0.0186461918056011,0.0256259143352509,0.00177138624712825,0,
00:00:02.604,0.00695122079923749,0.00804245006293058,-0.00537109700962901,0,
00:00:02.608,-0.00934819132089615,-0.0196526981890202,0.00396438874304295,0,
00:00:02.612,-0.00112157477997243,0.000141364027513191,0.00401339819654822,0,
00:00:02.616,-0.00285429251380265,0.00619144504889846,-0.0118194697424769,0,
00:00:02.62,-0.00370763964019716,0.00221340940333903,-0.0049600163474679,0,
00:00:02.624,0.0021672563161701,-0.00624666828662157,0.0183786284178495,0,
00:00:02.628,0.00503089185804129,-0.00374333118088543,-0.000358574034180492,0,
00:00:02.632,-0.00659041851758957,-0.00147356977686286,-0.00992337800562382,0,
00:00:02.636,0.00640350766479969,0.00907575432211161,0.00159407232422382,0,
00:00:02.64,0.00399667769670486,0.0129710240289569,0.00223511271178722,0,
00:00:02.644,-0.00319885346107185,-0.0136394491419196,-0.00399899715557694,0,
00:00:02.648,-0.00595956761389971,-0.0154726346954703,-0.0035268017090857,0,
00:00:02.652,0.000119555930723436,0.00653238315135241,0.00998306646943092,0,
00:00:02.656,-0.00426273187622428,-0.00371438590809703,-0.00138777936808765,0,
00:00:02.66,0.00963984802365303,0.0198685843497515,-0.000628730747848749,0,
00:00:02.664,0.00356620107777417,0.00694551784545183,0.00124054658226669,0,
00:00:02.668,-0.00134594133123755,-0.0116025237366557,-0.00285287480801344,0,
00:00:02.672,0.000854504818562418,-0.00806893967092037,-0.0105136167258024,0,
00:00:02.676,-0.000477084307931364,0.00973490998148918,0.00760536966845393,0,
00:00:02.68,-0.0123769110068679,-0.00840315129607916,0.00763771124184132,0,
00:00:02.684,-0.0153251634910703,-0.0295493267476559,0.00209010252729058,0,
00:00:02.688,0.0199787393212318,0.0238252393901348,-0.000374705996364355,0,
00:00:02.692,0.0076341493986547,0.0185663085430861,-0.00586983608081937,0,
00:00:02.696,0.0079197958111763,0.00950014498084784,-0.00240085483528674,0,
00:00:02.7,0.00320635759271681,-0.00673267478123307,-0.00297844945453107,0,
00:00:02.704,-0.0150551311671734,-0.0136713711544871,0.00208048545755446,0,
00:00:02.708,-0.0128707652911544,-0.0126915350556374,-0.00173715874552727,0,
00:00:02.712,0.00282981316559017,0.000966678198892623,-0.00317716808058321,0,
00:00:02.716,0.0131482547149062,0.0176205430179834,0.00493877846747637,0,
00:00:02.72,-0.00504924217239022,-0.00080183002864942,0.0184866115450859,0,
00:00:02.724,0.000486579665448517,-0.00883455295115709,-0.00254640309140086,0,
00:00:02.728,0.00568095967173576,-0.000884349225088954,-0.0204512868076563,0,
00:00:02.732,-0.00116876687388867,0.00736062787473202,-0.000554483383893967,0,
00:00:02.736,-0.0118116000667214,0.00367199350148439,-0.00110812915954739,0,
00:00:02.74,0.00517231225967407,-0.0014120569685474,0.0266761407256126,0,
00:00:02.744,-0.000449886749265715,-0.0120828943327069,-0.00955734122544527,0,
00:00:02.748,0.00329777784645557,-0.00986707210540771,-0.0134569145739079,0,
00:00:02.752,0.00695879152044654,0.0253634210675955,-0.00555034400895238,0,
00:00:02.756,0.000920110614970326,0.00688885897397995,-0.0058784419670701,0,
00:00:02.76,-0.00621651858091354,-0.00967127177864313,0.0096682608127594,0,
00:00:02.764,-0.0135695086792111,-0.0217326283454895,0.0239088945090771,0,
00:00:02.768,0.0083667328581214,0.00855812896043062,0.00238998024724424,0,
00:00:02.772,0.0101601490750909,0.026249373331666,-0.0162700656801462,0,
00:00:02.776,0.00183087843470275,0.0015180897898972,-0.00991630088537931,0,
00:00:02.78,-0.00870492681860924,-0.0128445057198405,0.00214780983515084,0,
00:00:02.784,-0.0102036846801639,-0.0283770188689232,-0.000760700437240303,0,
00:00:02.788,0.00768077000975609,-0.00352675747126341,0.00547576183453202,0,
00:00:02.792,-0.00158684200141579,0.00988087709993124,-0.00515391118824482,0,
00:00:02.796,0.00482660718262196,0.022829769179225,0.00131312594749033,0,
00:00:02.8,0.00355655164457858,0.00670957798138261,0.00618792604655027,0,
00:00:02.804,-0.0017815912142396,-0.0138807380571961,0.00757892243564129,0,
00:00:02.808,1.30182952489122E-05,0.00690766470506787,-0.00246921461075544,0,
00:00:02.812,-0.00077214656630531,0.000442974909674376,-0.0143479108810425,0,
00:00:02.816,-0.00139217579271644,-0.0152562996372581,-0.00104518292937428,0,
00:00:02.82,-0.0115637108683586,-0.0103036742657423,0.013051699846983,0,
00:00:02.824,0.0197867695242167,0.0292634163051844,0.00322834914550185,0,
00:00:02.828,-0.00350779807195067,0.0046513257548213,-0.0122023914009333,0,
00:00:02.832,-0.00474999565631151,-0.00683085760101676,0.00016635718930047,0,
00:00:02.836,0.00128074456006289,-0.0149116162210703,-0.00128707068506628,0,
00:00:02.84,-0.00850869342684746,-0.0223295111209154,0.00991800520569086,0,
00:00:02.844,-0.000209119374630973,0.0110553791746497,0.00158990558702499,0,
00:00:02.848,0.0106430798768997,0.0239430833607912,-0.00981170870363712,0,
00:00:02.852,-0.00124604674056172,0.00902376510202885,-0.00886945333331823,0,
00:00:02.856,-0.00874318182468414,-0.0223263800144196,0.00606825621798635,0,
00:00:02.86,0.0114225903525949,0.0088954409584403,0.0167278256267309,0,
00:00:02.864,0.0039121201261878,0.0134307788684964,0.00913784559816122,0,
00:00:02.868,-0.00101931195240468,-0.00545348506420851,-0.0186298526823521,0,
00:00:02.872,-0.0116591202095151,-0.0135527271777391,-0.0198682229965925,0,
00:00:02.876,-0.00591780617833138,-0.0125313270837069,0.0130917727947235,0,
00:00:02.88,0.0101146763190627,0.00571119226515293,0.0061145112849772,0,
00:00:02.884,-0.000203734787646681,0.0103622600436211,-0.00392200751230121,0,
00:00:02.888,-0.00345942424610257,-0.00561629002913833,0.0122463693842292,0,
00:00:02.892,-0.0021692025475204,-0.00786440446972847,0.00630828505381942,0,
00:00:02.896,0.00251259654760361,0.014045069925487,-0.0218103490769863,0,
00:00:02.9,0.014765152707696,0.0125861205160618,-0.00260483799502254,0,
00:00:02.904,-0.00676122959703207,0.000726808852050453,0.0132481381297112,0,
00:00:02.908,-0.00557984039187431,-0.00551557028666139,-0.00256723607890308,0,
00:00:02.912,0.00394188659265637,-0.0150171732529998,-0.00806727446615696,0,
00:00:02.916,-0.00133781170006841,-0.00508502963930368,0.0051395557820797,0,
00:00:02.92,-0.00309714442119002,0.00245205615647137,0.00295077916234732,0,
00:00:02.924,-0.00421272590756416,0.009591911919415,-0.00316836289130151,0,
00:00:02.928,-0.012793998233974,-0.0138545371592045,0.0118409572169185,0,
00:00:02.932,0.0104413097724319,0.0105126556009054,-0.00564160803332925,0,
00:00:02.936,0.0233813412487507,0.0189451090991497,-0.00924722477793694,0,
00:00:02.94,0.000525745505001396,-0.00511308526620269,-0.000945063540711999,0,
00:00:02.944,-0.0155258253216743,-0.0104071944952011,0.0070463172160089,0,
00:00:02.948,-0.00339707569219172,-0.000537518877536058,-0.000697161769494414,0,
00:00:02.952,0.0023629441857338,-0.00503485696390271,-0.00354874460026622,0,
00:00:02.956,0.000955450348556042,0.00396470772102475,0.00587989995256066,0,
00:00:02.96,0.00114310637582093,-0.00656509445980191,-0.00780232669785619,0,
00:00:02.964,-0.00750091020017862,-0.00593672273680568,-0.000435720517998561,0,
00:00:02.968,0.00164826423861086,0.00784744415432215,0.0226972177624702,0,
00:00:02.972,-0.00072205625474453,0.00681950943544507,-0.00109934969805181,0,
00:00:02.976,-0.00015544390771538,0.00818978529423475,-0.032989926636219,0,
00:00:02.98,0.00951619632542133,0.00283462624065578,0.00623523443937302,0,
00:00:02.984,0.00031519285403192,-0.011202234774828,0.0115617988631129,0,
00:00:02.988,-0.00237723952159286,-0.0102026788517833,-0.00931715127080679,0,
00:00:02.992,0.00201627844944596,0.00917560793459415,0.00205575046129525,0,
00:00:02.996,-0.000801098882220685,0.0056144967675209,0.010914521291852,0,
00:00:03,-0.00518029276281595,-0.0077551044523716,0.00975842121988535,0,
00:00:03.004,-0.00724517973139882,-0.00732445809990168,-0.00350505765527487,0,
00:00:03.008,0.00418658182024956,0.00661617377772927,-0.0127318482846022,0,
00:00:03.012,0.00759316375479102,0.00778071535751224,-0.00304724229499698,0,
00:00:03.016,0.000780458038207144,-0.00510890781879425,-0.00342635228298604,0,
00:00:03.02,-0.00400493526831269,2.7796895665233E-05,0.00154816440772265,0,
00:00:03.024,0.00405189814046025,0.00430427398532629,0.0108498940244317,0,
00:00:03.028,-0.001319331349805,-0.0107867866754532,0.00256336992606521,0,
00:00:03.032,-0.0134016331285238,-0.0127224186435342,-0.00891829561442137,0,
00:00:03.036,0.00358518632128835,0.0179283879697323,0.0102055165916681,0,
00:00:03.04,0.0117789413779974,0.0158613286912441,-0.00775967724621296,0,
00:00:03.044,0.00306097604334354,-0.00283676292747259,-0.00879435986280441,0,
00:00:03.048,-0.00255114864557981,-0.00894189346581697,0.00128535355906934,0,
00:00:03.052,-0.00211920659057796,-0.0113452253863215,0.00518754636868835,0,
00:00:03.056,-0.0112530123442411,0.00137600081507117,0.00447531882673502,0,
00:00:03.06,0.00128689699340612,0.00671221921220422,0.00800397247076035,0,
00:00:03.064,0.0116605972871184,0.00351549405604601,-0.00248805386945605,0,
00:00:03.068,0.00261067156679928,0.00363657646812499,-0.0128679908812046,0,
00:00:03.072,-0.00741257052868605,-0.00848538521677256,-0.0119513915851712,0,
00:00:03.076,-0.00481057213619351,-0.0118335234001279,0.00659708958119154,0,
00:00:03.08,0.00222985306754708,0.00622569210827351,0.0195572059601545,0,
00:00:03.084,0.00520821660757065,0.0149746397510171,0.00779899768531322,0,
00:00:03.088,0.00169790128711611,-0.00138875411357731,-0.000854480837006122,0,
00:00:03.092,-0.00581204053014517,-0.00738907838240266,-0.0203627850860357,0,
00:00:03.096,-0.00502369739115238,-0.00790834985673428,-0.0158525183796883,0,
00:00:03.1,0.00520826177671552,0.00888164713978767,0.013715011999011,0,
00:00:03.104,0.00892265792936087,0.0084779504686594,0.00825808476656675,0,
00:00:03.108,-0.00278390315361321,-0.00213093170896173,-0.0014603134477511,0,
00:00:03.112,-0.00909636076539755,-0.0182161647826433,-0.00123071612324566,0,
00:00:03.116,-0.00098263006657362,0.003211464965716,0.00482404604554176,0,
00:00:03.12,0.0113875539973378,0.0165871120989323,0.00784244947135448,0,
00:00:03.124,-0.00237256661057472,0.00786233600229025,-0.0101973321288824,0,
00:00:03.128,-0.000495063432026654,-0.0116090225055814,-0.0127136670053005,0,
00:00:03.132,-0.00628687394782901,-0.0257050711661577,0.00239125988446176,0,
00:00:03.136,-0.00701899314299226,0.00590727757662535,0.0109994765371084,0,
00:00:03.14,0.00335380737669766,0.0181882902979851,0.0032948546577245,0,
00:00:03.144,0.00456459308043122,0.00571708986535668,-0.00166123372036964,0,
00:00:03.148,0.00888791400939226,-0.0013264415320009,-0.00325551070272923,0,
00:00:03.152,0.00296847568824887,-0.00809647981077433,-0.00870666839182377,0,
00:00:03.156,0.00114398647565395,0.00454270606860518,0.000958032149355859,0,
00:00:03.16,-0.00714966934174299,0.00789608620107174,0.0094424169510603,0,
00:00:03.164,-0.00729691796004772,-0.0025042905472219,0.00704199261963367,0,
00:00:03.168,-0.00542616192251444,-0.0192036908119917,-0.00314580393023789,0,
00:00:03.172,-0.00134461221750826,-0.00423499196767807,-0.00800015963613987,0,
00:00:03.176,0.00662316335365176,0.00293712900020182,-0.0125543782487512,0,
00:00:03.18,0.00445543974637985,0.0074234982021153,0.0126146962866187,0,
00:00:03.184,0.00281783542595804,-0.00136707734782249,0.0016013536369428,0,
00:00:03.188,0.00707692233845592,0.01129234675318,0.0107168750837445,0,
00:00:03.192,-0.00468578422442079,0.00823715049773455,-0.000610243354458362,0,
00:00:03.196,-0.00233240076340735,0.00233078747987747,-0.0110174566507339,0,
00:00:03.2,-0.0117390546947718,-0.0138357719406486,-0.011193941347301,0,
00:00:03.204,0.00678802141919732,-0.00691804476082325,0.00585239613428712,0,
00:00:03.208,-0.000970822642557323,-0.0128586944192648,0.0136858196929097,0,
00:00:03.212,-0.0129897845908999,0.000178648057044484,-0.00458315666764975,0,
00:00:03.216,0.0152493435889482,0.0204578526318073,-0.00985926855355501,0,
00:00:03.22,0.00991623941808939,0.00751718739047647,0.00648632273077965,0,
00:00:03.224,0.000872482603881508,-0.00384154845960438,0.00322342733852565,0,
00:00:03.228,-0.00490997871384025,-0.00365475891157985,-0.00207543722353876,0,
00:00:03.232,-0.00798946339637041,-0.00137479661498219,-0.00589052401483059,0,
00:00:03.236,0.000357559241820127,-0.00423205411061645,0.00172752549406141,0,
00:00:03.24,0.00111174955964088,-0.00433904957026243,0.0123393703252077,0,
00:00:03.244,-0.00191019219346344,0.00869091413915157,0.00115224602632225,0,
00:00:03.248,-0.000477045890875161,-0.00432140845805407,-0.007859967648983,0,
00:00:03.252,-0.000787779921665788,-0.00693872105330229,-0.0129467351362109,0,
00:00:03.256,0.00592704536393285,0.00734469573944807,0.00176351645495743,0,
00:00:03.26,0.00309122772887349,0.0170714687556028,0.00662534777075052,0,
00:00:03.264,-0.00721364514902234,-0.0166308134794235,0.0053798328153789,0,
00:00:03.268,-0.00119802111294121,-0.0090292626991868,-0.00432510767132044,0,
00:00:03.272,0.00416707154363394,0.00791890360414982,0.013168828561902,0,
00:00:03.276,0.0067667867988348,0.00928729400038719,-0.0053135291673243,0,
00:00:03.28,-2.86216509266524E-05,0.014094683341682,-0.00809422601014376,0,
00:00:03.284,-0.0111791407689452,-0.0202884990721941,-0.00837511755526066,0,
00:00:03.288,-0.00149445980787277,-0.0114755453541875,0.00431536184623837,0,
00:00:03.292,0.0041602086275816,-0.00124345370568335,0.00202494068071246,0,
00:00:03.296,-0.00369635317474604,-0.00744524132460356,0.00731897260993719,0,
00:00:03.3,-0.0045521529391408,0.0180960986763239,0.00951465405523777,0,
00:00:03.304,0.00923830829560757,0.00565151777118444,-0.00127718388102949,0,
00:00:03.308,0.00311000272631645,-0.00042917174869217,-0.0105285607278347,0,
00:00:03.312,0.011189840734005,0.0121546294540167,-0.018960814923048,0,
00:00:03.316,-0.00611559115350246,0.000741852447390556,-0.000942300946917385,0,
00:00:03.32,-0.0111617529764771,-0.0115677146241069,0.0103913061320782,0,
00:00:03.324,-0.00532999821007252,-0.0113432398065925,0.0199506245553494,0,
00:00:03.328,0.0137599464505911,-0.000874479941558093,0.00688144145533443,0,
00:00:03.332,-0.0114411767572165,-0.0087302140891552,-0.0143942097201943,0,
00:00:03.336,-0.00373660051263869,0.00336065725423396,-0.00300797540694475,0,
00:00:03.34,0.00620433455333114,0.00716635538265109,-0.00595418829470873,0,
00:00:03.344,0.0109027717262506,0.0121531002223492,-0.00221900339238346,0,
00:00:03.348,0.00326170469634235,0.00924723222851753,-0.00234029698185623,0,
00:00:03.352,-0.00597697170451283,-0.00657983217388391,0.00540927285328507,0,
00:00:03.356,-0.0105367871001363,-0.00948943477123976,0.0144384689629078,0,
00:00:03.36,0.00299588311463594,-0.00791173428297043,0.00769512448459864,0,
00:00:03.364,0.00175511068664491,0.00320826191455126,-0.0166682079434395,0,
00:00:03.368,-0.00107684731483459,0.00628191092982888,-0.0190488882362843,0,
00:00:03.372,0.000369023997336626,-0.0166639983654022,-4.91119317302946E-05,0,
00:00:03.376,0.00786955840885639,0.0138937691226602,0.0209281966090202,0,
00:00:03.38,-0.00431540189310908,0.0179770365357399,0.00534057663753629,0,
00:00:03.384,0.00200621108524501,0.0015205005183816,-0.00230211997404695,0,
00:00:03.388,-0.00674293749034405,-0.0190056767314672,-0.00439766235649586,0,
00:00:03.392,-0.00323800300247967,-0.0108131384477019,-0.00749685754999518,0,
00:00:03.396,0.00792433228343725,-0.00492896279320121,0.000617404817603529,0,
00:00:03.4,-0.00617783330380917,-0.00525200273841619,0.00778297195211053,0,
00:00:03.404,0.00431728642433882,0.0214228872209787,0.00536715984344482,0,
00:00:03.408,0.00609065126627684,0.0179103836417198,-0.00602178974077106,0,
00:00:03.412,-0.00135272287297994,0.002073964336887,-0.0141359744593501,0,
00:00:03.416,-0.00356972613371909,-0.0112850777804852,0.0081429798156023,0,
00:00:03.42,-0.0026994978543371,-0.015743276104331,0.00616033608093858,0,
00:00:03.424,-0.00289119291119277,0.000255227409070358,0.00811137817800045,0,
00:00:03.428,0.000586181995458901,0.00588509114459157,-0.00933146383613348,0,
00:00:03.432,0.0111108999699354,-0.00132300634868443,-0.0116241052746773,0,
00:00:03.436,-0.000984623329713941,-0.000897430465556681,0.0175932887941599,0,
00:00:03.44,-0.0091867484152317,0.00516952481120825,-0.00489258719608188,0,
00:00:03.444,-0.00423663994297385,-0.00202270247973502,-0.0129273720085621,0,
00:00:03.448,0.00393242947757244,-0.0100408624857664,0.0123575571924448,0,
00:00:03.452,0.00464816903695464,0.00392698915675282,-0.00476518413051963,0,
00:00:03.456,0.00017339400073979,0.0159706529229879,-0.0025517672766,0,
00:00:03.46,0.00373214250430465,0.00751261273398995,0.00869341474026442,0,
00:00:03.464,6.57359705655836E-05,-0.0075551220215857,0.0109242936596274,0,
00:00:03.468,-0.00721555761992931,-0.0173335280269384,-0.00953372102230787,0,
00:00:03.472,-0.00577669916674495,-0.00743695488199592,-0.0138289211317897,0,
00:00:03.476,0.00724387262016535,0.00148700701538473,0.000786387885455042,0,
00:00:03.48,-0.00716178212314844,2.41127527260687E-05,0.011955319903791,0,
00:00:03.484,0.0182371288537979,0.0290624257177114,0.00309706456027925,0,
00:00:03.488,0.000929828442167491,0.0138867748901248,-0.0111630419269204,0,
00:00:03.492,-0.00918085128068924,-0.0169549845159054,-0.00686500174924731,0,
00:00:03.496,-0.00945758726447821,-0.0251158587634563,0.00527089973911643,0,
00:00:03.5,1.39031781145604E-05,-0.00487802643328905,0.024677412584424,0,
00:00:03.504,0.0039140828885138,0.00871634855866432,-0.00665165251120925,0,
00:00:03.508,0.00387670705094934,0.00734401494264603,-0.0166835300624371,0,
00:00:03.512,0.00198838580399752,0.00470764748752117,-0.00123323954176158,0,
00:00:03.516,-6.35977448837366E-06,0.00150360283441842,-0.00101053318940103,0,
00:00:03.52,0.000918453733902425,-0.000992029323242605,0.00462966412305832,0,
00:00:03.524,-0.00951630529016256,-0.0103881154209375,0.00842497032135725,0,
00:00:03.528,0.00553358346223831,0.00808985345065594,-0.000200589973246679,0,
00:00:03.532,0.00674785394221544,0.00151722109876573,-0.0100965956225991,0,
00:00:03.536,-0.00808784645050764,0.00719578424468637,0.00227626389823854,0,
00:00:03.54,-0.00473037455230951,-0.0011146473698318,-0.000841481669340283,0,
00:00:03.544,0.00975752994418144,-0.00918713491410017,0.000740815419703722,0,
00:00:03.548,0.000724995043128729,-0.0134112387895584,0.010329439304769,0,
00:00:03.552,-0.000440404401160777,-0.00199157209135592,0.00222995947115123,0,
00:00:03.556,-0.00228294660337269,0.0156552772969007,-0.0158421061933041,0,
00:00:03.56,-0.0170375388115644,-0.0129872998222709,-0.00573980296030641,0,
00:00:03.564,0.0103806285187602,0.011195887811482,0.0157292224466801,0,
00:00:03.568,0.0135508114472032,0.0178493931889534,-0.00103469064924866,0,
00:00:03.572,0.00183562678284943,0.00994624197483063,-0.0127364667132497,0,
00:00:03.576,-0.000452967273304239,-0.0103337587788701,-0.000741742027457803,0,
00:00:03.58,-0.00960337836295366,-0.0249188896268606,0.0107545247301459,0,
00:00:03.584,-0.00880645681172609,-0.00997300446033478,0.00733903236687183,0,
00:00:03.588,0.00112790626008064,-0.00261069065891206,0.00462560541927814,0,
00:00:03.592,0.000696683884598315,0.00941409077495337,-0.0100598745048046,0,
00:00:03.596,0.0103300176560879,0.0257975086569786,-0.010269321501255,0,
00:00:03.6,0.00323695363476872,0.0140174962580204,0.00429691560566425,0,
00:00:03.604,-0.00161962921265513,-0.0152419367805123,0.00678063975647092,0,
00:00:03.608,-0.00544009637087584,-0.0277144834399223,-0.000735006469767541,0,
00:00:03.612,0.00131512223742902,-0.0065965517424047,-0.0113554997369647,0,
00:00:03.616,0.000640974380075932,0.0133811607956886,0.00359059916809201,0,
00:00:03.62,-0.00930404011160135,0.0136541463434696,0.0101951453834772,0,
00:00:03.624,0.00434005260467529,0.0101150311529636,0.0013307990739122,0,
00:00:03.628,0.00974829960614443,0.00275860261172056,-0.00344342249445617,0,
00:00:03.632,-0.00369245675392449,-0.00820906274020672,-0.00822759885340929,0,
00:00:03.636,-0.000139095645863563,-0.0157797411084175,-0.00458522047847509,0,
00:00:03.64,-0.00303448969498277,-0.0101499818265438,0.00704318005591631,0,
00:00:03.644,0.000246461451752111,0.00148537498898804,0.00650913827121258,0,
00:00:03.648,0.000243781803874299,0.00216788076795638,0.00616013398393989,0,
00:00:03.652,-0.0106136780232191,-7.37148593543679E-06,-0.00571007886901498,0,
00:00:03.656,0.00953912548720837,0.0296276025474072,-0.0105734653770924,0,
00:00:03.66,0.00395804969593883,0.0144603149965405,0.00527559546753764,0,
00:00:03.664,0.00503553543239832,-0.0190111566334963,0.00424379715695977,0,
00:00:03.668,0.00358317722566426,-0.0174830090254545,-0.00646896008402109,0,
00:00:03.672,-0.0167000386863947,-0.0120667042210698,-0.00516809243708849,0,
00:00:03.676,-2.4873739675968E-05,0.00730958394706249,0.00810552667826414,0,
00:00:03.68,-0.000365000800229609,0.00941495597362518,0.0080467602238059,0,
00:00:03.684,0.00444155232980847,0.00283512403257191,-0.00371336471289396,0,
00:00:03.688,0.00364679796621203,-0.0021488347556442,-0.00917688012123108,0,
00:00:03.692,-0.000992620945908129,0.0030080946162343,-0.00672988826408982,0,
00:00:03.696,0.00307653192430735,0.00279488577507436,0.0116059705615044,0,
00:00:03.7,-0.00413177814334631,-0.00809724163264036,0.0128710046410561,0,
00:00:03.704,-0.00708358641713858,-0.0128699764609337,0.00508343474939466,0,
00:00:03.708,0.0122440177947283,0.0131748905405402,-0.00955291744321585,0,
00:00:03.712,0.00127656653057784,0.00869922153651714,-0.0245398003607988,0,
00:00:03.716,-0.0104038929566741,0.00115662266034633,-0.00755657907575369,0,
00:00:03.72,0.0013809974770993,0.000426186830736697,0.0215742215514183,0,
00:00:03.724,0.00892242603003979,0.00173870881553739,0.0131820002570748,0,
00:00:03.728,-0.00918160937726498,-0.018221715465188,-0.00295962137170136,0,
00:00:03.732,-0.0078808618709445,-0.00920973904430866,-0.0103895245119929,0,
00:00:03.736,0.00549107184633613,0.00354494550265372,-5.45246402907651E-05,0,
00:00:03.74,0.000797534128651023,0.00351012172177434,0.000441588141256943,0,
00:00:03.744,0.00732082547619939,0.0145364850759506,0.00156863476149738,0,
00:00:03.748,0.00640656799077988,0.0127675654366612,0.00787687115371227,0,
00:00:03.752,0.00369230494834483,-0.00249197473749518,0.00114387040957808,0,
00:00:03.756,-0.00484047969803214,-0.00110171618871391,-0.00476785656064749,0,
00:00:03.76,-0.0126669052988291,-0.0165765266865492,-0.00799237750470638,0,
00:00:03.764,-0.0025316346436739,-0.0106478538364172,-0.00980817899107933,0,
00:00:03.768,-0.0110390121117234,-0.0125722819939256,0.00112693454138935,0,
00:00:03.772,0.0122165940701962,0.0183970406651497,0.0126714706420898,0,
00:00:03.776,0.0118305617943406,0.0214788820594549,0.0110313948243856,0,
00:00:03.78,-0.00449490267783403,-0.00454845512285829,-0.000643951643723994,0,
00:00:03.784,0.00492504052817822,0.00453761825338006,0.00266019674018025,0,
00:00:03.788,0.00110573275014758,0.000918817124329507,-0.00923560839146376,0,
00:00:03.792,-0.00980496127158403,-0.0232413690537214,-0.0153952622786164,0,
00:00:03.796,0.00100650393869728,-0.00571059202775359,-0.00613198801875114,0,
00:00:03.8,-0.00249658734537661,9.27767760003917E-05,0.00406587542966008,0,
00:00:03.804,0.00389685994014144,0.00693222228437662,0.0212472900748253,0,
00:00:03.808,0.000128681043861434,0.0043181786313653,0.0104301366955042,0,
00:00:03.812,-0.000696438772138208,0.0135084753856063,-0.0117033654823899,0,
00:00:03.816,-0.0003615528694354,0.00852312613278627,-0.00426028156653047,0,
00:00:03.82,0.00220541190356016,-0.00910667330026627,-0.00671790819615126,0,
00:00:03.824,-0.00575730903074145,-0.0243508853018284,0.00431276531890035,0,
00:00:03.828,0.00263569480739534,0.00499481754377484,0.00280864839442074,0,
00:00:03.832,0.00324542634189129,0.00946867652237415,-0.0110368933528662,0,
00:00:03.836,-0.00092584959929809,0.00479695154353976,0.00553917372599244,0,
00:00:03.84,0.00117385410703719,-0.00465009501203895,0.0104701202362776,0,
00:00:03.844,0.00215045525692403,-0.00538189802318811,-0.00398792093619704,0,
00:00:03.848,-0.000984568032436073,0.0021224906668067,-0.00921045895665884,0,
00:00:03.852,-0.00286129512824118,0.00998991634696722,-0.00198314385488629,0,
00:00:03.856,-0.00874701142311096,-0.00365080288611352,0.00632662884891033,0,
00:00:03.86,-0.00124630110803992,-0.00067457853583619,0.00577890174463391,0,
00:00:03.864,0.0135238412767649,-0.00165124668274075,0.0185283478349447,0,
00:00:03.868,0.00484833447262645,-0.00423621060326695,-0.0152217140421271,0,
00:00:03.872,-0.00442115729674697,-0.00360748684033751,-0.0201011821627617,0,
00:00:03.876,-0.00931594148278236,0.00128524121828377,-0.00355523405596614,0,
00:00:03.88,0.00352747831493616,0.00617975648492575,0.0195412021130323,0,
00:00:03.884,0.00575545523315668,0.0101024089381099,0.00171581853646785,0,
00:00:03.888,-0.00764173828065395,-0.00373786245472729,-0.0118530550971627,0,
00:00:03.892,-0.00150904478505254,-0.00914236437529325,-0.00545459380373359,0,
00:00:03.896,0.00879478361457586,-0.00890361797064543,0.0156542919576168,0,
00:00:03.9,-0.00462457630783319,-0.00357901654206216,0.0201574414968491,0,
00:00:03.904,-0.000936174532398582,0.0107092903926969,-0.0151578821241856,0,
00:00:03.908,0.00122524704784155,0.0227659642696381,-0.0157683901488781,0,
00:00:03.912,0.0119121465831995,0.000372180627891794,0.00310096004977822,0,
00:00:03.916,-0.0132676549255848,-0.019862312823534,-0.014408752322197,0,
00:00:03.92,-0.00444368133321404,-0.0083623044192791,0.016705458983779,0,
00:00:03.924,0.00581094203516841,0.00429151300340891,0.0154412044212222,0,
00:00:03.928,0.00398610951378942,0.000299088511383161,-0.00459317304193974,0,
00:00:03.932,-0.000115643182653002,-0.000840014545246959,-0.0145765272900462,0,
00:00:03.936,-0.00452236225828528,0.0104905879124999,0.00301364320330322,0,
00:00:03.94,-0.0066968915052712,-0.00220445590093732,0.00871076248586178,0,
00:00:03.944,0.00437486497685313,-0.00792741775512695,-0.000583609682507813,0,
00:00:03.948,0.00531776249408722,0.00236786319874227,-0.00673403916880488,0,
00:00:03.952,0.00441824598237872,0.00181420089211315,-0.0166791770607233,0,
00:00:03.956,-0.00474206544458866,-0.00240578106604517,0.00984591245651245,0,
00:00:03.96,-0.00181166036054492,0.00915769953280687,0.00833162013441324,0,
00:00:03.964,-0.00259926216676831,0.00561520177870989,0.0199811551719904,0,
00:00:03.968,0.00409909524023533,-0.00540986377745867,-0.00603119935840368,0,
00:00:03.972,-6.39068312011659E-05,-0.00978983193635941,-0.0231750085949898,0,
00:00:03.976,-0.00324842799454927,-0.00897774659097195,0.00515868607908487,0,
00:00:03.98,0.00116476812399924,0.00919895339757204,0.00230886368080974,0,
00:00:03.984,0.00362747861072421,0.00559701537713408,0.002798767760396,0,
00:00:03.988,0.000676191120874137,-0.00498568033799529,-0.0101134059950709,0,
00:00:03.992,-0.0101841557770967,-0.00383820035494864,-0.00398593442514539,0,
00:00:03.996,0.005487693939358,0.0127915292978287,0.0206509158015251,0,
00:00:04,0.00929160881787539,0.00787543319165707,0.0143756531178951,0,
00:00:04.004,-0.0095107052475214,-0.00977390166372061,-0.016601899638772,0,
00:00:04.008,-0.0018990645185113,-0.0115569718182087,-0.0126644503325224,0,
00:00:04.012,-0.00265943049453199,-0.00534571381285787,-0.00759369367733598,0,
00:00:04.016,0.00391548406332731,0.0120296971872449,0.00534201133996248,0,
00:00:04.02,0.00230613118037581,-0.00232929061166942,0.015129704028368,0,
00:00:04.024,0.0102120712399483,0.00569995632395148,0.00234836409799755,0,
00:00:04.028,0.00555432355031371,0.00947602186352015,-0.00749664986506104,0,
00:00:04.032,-0.018596863374114,-0.0111003117635846,-0.000243517133640125,0,
00:00:04.036,-0.011576016433537,-0.00221154931932688,0.00900200847536325,0,
00:00:04.04,0.00316147552803159,-0.00233124569058418,-0.0059687583707273,0,
00:00:04.044,0.0125141656026244,-0.000256349943811074,-0.0114032793790102,0,
00:00:04.048,0.00489938352257013,0.00142406125087291,-0.00321386894211173,0,
00:00:04.052,0.00136436417233199,0.00185634009540081,0.000260418280959129,0,
00:00:04.056,-0.00308091891929507,-0.000789676210843027,0.0107709653675556,0,
00:00:04.06,-0.00663820607587695,0.000263009278569371,0.0122673697769642,0,
00:00:04.064,0.00287800305522978,0.0115612354129553,0.00384179619140923,0,
00:00:04.068,-0.00730243418365717,-0.000498328125104308,-0.00840678904205561,0,
00:00:04.072,-0.0042894366197288,-0.0116254175081849,-0.0161160379648209,0,
00:00:04.076,0.00571326771751046,-0.0118085145950317,0.000468331796582788,0,
00:00:04.08,0.00105587812140584,-0.0150681780651212,0.00695167854428291,0,
00:00:04.084,0.0183065235614777,0.0316713228821754,-0.00435294443741441,0,
00:00:04.088,-0.00507774343714118,0.00603948254138231,0.00567791983485222,0,
00:00:04.092,-0.00252848491072655,0.00400208448991179,0.00219183648005128,0,
00:00:04.096,-0.00862764194607735,-0.0010698433034122,-0.00821330584585667,0,
00:00:04.1,-0.000717517687007785,-0.00693163322284818,0.0111399833112955,0,
00:00:04.104,0.00273186177946627,-0.00574063370004296,0.00777684478089213,0,
00:00:04.108,-0.00365177448838949,-0.00450814748182893,-0.00922667514532804,0,
00:00:04.112,-0.00570976175367832,-0.00809571985155344,-0.0109705738723278,0,
00:00:04.116,0.00556506030261517,-0.00563179096207023,-0.00501207774505019,0,
00:00:04.12,0.00624389201402664,0.0151334861293435,0.00999847240746021,0,
00:00:04.124,0.00685675069689751,0.0211006700992584,0.00573691260069609,0,
00:00:04.128,-0.00895462557673454,-0.00667263800278306,0.00331406248733401,0,
00:00:04.132,-0.00190925714559853,-0.012963330373168,-0.00774913560599089,0,
00:00:04.136,0.000518146145623177,-0.00389879033900797,-0.00219866028055549,0,
00:00:04.14,0.00289579085074365,0.00581414438784122,0.003303017700091,0,
00:00:04.144,-0.00156465859618038,0.00359868980012834,0.00223993416875601,0,
00:00:04.148,-0.0016542945522815,-0.00675619952380657,0.00403225095942616,0,
00:00:04.152,0.00169067014940083,0.00535303400829434,-0.00337080145254731,0,
00:00:04.156,-0.0075502353720367,0.00262516876682639,-0.0130136059597135,0,
00:00:04.16,0.00731707271188498,-0.00401461822912097,0.00524490792304277,0,
00:00:04.164,0.00344971800222993,-0.00798043329268694,0.00663413712754846,0,
00:00:04.168,-0.00631299009546638,-0.00552808819338679,-0.00373337999917567,0,
00:00:04.172,0.00819205213338137,0.0102665582671762,0.00255761062726378,0,
00:00:04.176,-0.00722062587738037,0.00681393872946501,0.00208478467538953,0,
00:00:04.18,0.00624310364946723,0.00838054902851582,0.00614405795931816,0,
00:00:04.184,0.00426735728979111,-0.00115269073285162,-0.0032919377554208,0,
00:00:04.188,-0.0136372288689017,-0.0117409713566303,-0.0126132369041443,0,
00:00:04.192,-0.00297317793592811,-0.00588822597637773,-0.00693789683282375,0,
00:00:04.196,0.000785665470175445,-0.00697298673912883,0.00355874840170145,0,
00:00:04.2,0.00208040745928884,0.00205705966800451,0.0106322253122926,0,
00:00:04.204,0.00851123593747616,0.00984373409301043,0.0156085388734937,0,
00:00:04.208,0.0063058347441256,0.0116946157068014,-0.0046695345081389,0,
00:00:04.212,-0.00123469496611506,4.97570690640714E-05,-0.013855935074389,0,
00:00:04.216,-0.00983333773910999,-0.0057026781141758,-0.000666339998133481,0,
00:00:04.22,-0.0078280046582222,-0.0101462136954069,0.00183952250517905,0,
00:00:04.224,0.00858274381607771,0.00482487445697188,0.00099611293990165,0,
00:00:04.228,0.0037091460544616,0.00749560492113233,-0.00212016515433788,0,
00:00:04.232,-0.00266096298582852,-0.00487185642123222,-0.00465050246566534,0,
00:00:04.236,-0.00661165593191981,-0.018673550337553,0.00529489293694496,0,
00:00:04.24,0.00350854313001037,-0.00329057336784899,0.00724229123443365,0,
00:00:04.244,0.00226320931687951,0.0166259836405516,0.00172346027102321,0,
00:00:04.248,0.00580581510439515,0.0219961497932673,-0.00297732348553836,0,
00:00:04.252,0.000961208541411906,0.00394067447632551,-0.014682455919683,0,
00:00:04.256,-0.00326375453732908,-0.018997997045517,0.00693965563550591,0,
00:00:04.26,-0.00836267787963152,-0.0166214741766453,0.0075638722628355,0,
00:00:04.264,-0.000752457417547703,-0.000946012733038515,-8.05269519332796E-05,0,
00:00:04.268,0.00287754647433758,0.011215902864933,-0.0025811621453613,0,
00:00:04.272,-0.000909083522856236,0.00798597559332848,-0.00428602891042829,0,
00:00:04.276,0.00372936436906457,-0.00492610922083259,-0.000932995928451419,0,
00:00:04.28,0.00336102047003806,-0.00136826967354864,-0.0022535384632647,0,
00:00:04.284,0.00515312701463699,0.00273858988657594,0.0169221516698599,0,
00:00:04.288,-0.0029758270829916,0.00322378985583782,-0.000791660859249532,0,
00:00:04.292,0.00523410644382238,0.00528934365138412,-0.00744387228041887,0,
00:00:04.296,-0.0154964746907353,-0.00315880728885531,-0.0106315053999424,0,
00:00:04.3,-0.0194806214421988,-0.0348083227872849,-0.00261213351041079,0,
00:00:04.304,0.0159579943865538,0.010883036069572,0.010585917159915,0,
00:00:04.308,0.0142375137656927,0.0209607481956482,-0.00367675069719553,0,
00:00:04.312,0.00732881436124444,0.00437531946226954,0.00554017629474401,0,
00:00:04.316,-0.00446186680346727,6.23241066932678E-05,0.00806505139917135,0,
00:00:04.32,-0.00322023103944957,0.00288514629937708,-0.00833310559391975,0,
00:00:04.324,-0.00489785056561232,0.000231090947636403,0.00195634411647916,0,
00:00:04.328,-0.0106337442994118,-0.00744361663237214,-0.0041248737834394,0,
00:00:04.332,-0.00639029406011105,-0.0154996206983924,-0.0113315861672163,0,
00:00:04.336,0.0113901197910309,-0.0182389039546251,0.00777140026912093,0,
00:00:04.34,0.006667903624475,-0.00013765282346867,0.0166979338973761,0,
00:00:04.344,0.00776259694248438,0.0325417444109917,-0.00296287052333355,0,
00:00:04.348,0.0050704600289464,0.0235453248023987,-0.00849254056811333,0,
00:00:04.352,-0.0064206994138658,0.000968116102740169,-0.00820043589919806,0,
00:00:04.356,-0.00899197813123465,-0.00552337151020765,-0.00567335728555918,0,
00:00:04.36,-0.0119515443220735,-0.0217930041253567,0.00760631868615747,0,
00:00:04.364,0.00507033942267299,-0.0181287676095963,0.0103529086336493,0,
00:00:04.368,0.00545024033635855,-0.0118249226361513,-0.000313145545078442,0,
00:00:04.372,-0.000114190544991288,0.00529747409746051,-0.000556045211851597,0,
00:00:04.376,0.00564784230664372,0.0233911201357841,-0.00176644825842232,0,
00:00:04.38,0.0049972478300333,0.0271407980471849,-0.00212678383104503,0,
00:00:04.384,-0.00927593745291233,-0.00876942463219166,-0.00149691104888916,0,
00:00:04.388,-0.000936929194722325,-0.017133729532361,0.00161767564713955,0,
00:00:04.392,0.00587674370035529,-0.000789354497101158,0.000487594399601221,0,
00:00:04.396,-0.000379730889108032,0.000822258938569576,-0.00494759296998382,0,
00:00:04.4,0.00134150951635092,0.00126568111591041,-0.00541826104745269,0,
00:00:04.404,-0.00636156043037772,-0.0035105908755213,0.0106368446722627,0,
00:00:04.408,0.00418506702408195,0.00367980054579675,0.011226094327867,0,
00:00:04.412,-0.00767196342349052,-0.00587231433019042,-0.0105621749535203,0,
00:00:04.416,-0.00989538058638573,-0.0154923778027296,-6.2914339650888E-05,0,
00:00:04.42,0.00212428392842412,-0.00304700434207916,-0.00235345074906945,0,
00:00:04.424,0.0180983804166317,0.0296675600111485,-0.00406855158507824,0,
00:00:04.428,0.00774584384635091,0.0197459682822227,-0.00888518057763577,0,
00:00:04.432,2.88252667814959E-05,-7.33919205231359E-06,0.014445030130446,0,
00:00:04.436,-0.00655330903828144,-0.0127685563638806,0.00571619533002377,0,
00:00:04.44,-0.00979940593242645,-0.031204380095005,-0.00470575736835599,0,
00:00:04.444,-0.0110764671117067,-0.0118711600080132,0.00891136098653078,0,
00:00:04.448,0.00891007855534554,0.0169379562139511,-0.00787260755896568,0,
00:00:04.452,0.00901375710964203,0.0130677735432982,-0.0182916950434446,0,
00:00:04.456,0.00090434099547565,0.00699866143986583,0.00538110360503197,0,
00:00:04.46,0.00198431732133031,0.00923568196594715,0.0269998107105494,0,
00:00:04.464,-0.00832773745059967,-0.0129625024273992,-0.00939564406871796,0,
00:00:04.468,-0.00666206935420632,-0.0086705144494772,-0.0104603050276637,0,
00:00:04.472,0.00312488386407495,0.00203939294442534,0.00176461262162775,0,
00:00:04.476,0.00981806963682175,0.00671238964423537,-0.00670863781124353,0,
00:00:04.48,0.0040125111117959,-0.00338686490431428,-0.00733307609334588,0,
00:00:04.484,-0.000313932483550161,4.32605920650531E-05,0.0146234212443233,0,
00:00:04.488,-0.0111415795981884,-0.0115235922858119,0.0089181074872613,0,
00:00:04.492,-0.00586700206622481,-0.00853643659502268,0.00308654294349253,0,
00:00:04.496,-0.000574658275581896,0.0145967267453671,-0.00807410851120949,0,
00:00:04.5,0.00925547443330288,0.0158421341329813,-0.000565212569199502,0,
00:00:04.504,0.0148180397227407,0.0107839917764068,-0.00580410892143846,0,
00:00:04.508,-0.000900926708709449,-0.00284591480158269,-0.00511737167835236,0,
00:00:04.512,-0.0321984849870205,-0.0297484081238508,-0.00955041497945786,0,
00:00:04.516,0.00212561921216547,-0.0161307230591774,0.0227591805160046,0,
00:00:04.52,0.0257123876363039,0.0243286397308111,0.0132269253954291,0,
00:00:04.524,0.00499742245301604,0.00889946892857552,-0.00501609640195966,0,
00:00:04.528,-0.0125349052250385,5.71165355722769E-06,-0.019722368568182,0,
00:00:04.532,-0.00258743995800614,-0.001446746988222,-0.00720205809921026,0,
00:00:04.536,-0.00244693178683519,-0.00544168101623654,0.00552629353478551,0,
00:00:04.54,-0.000333748641423881,-0.00342219392769039,0.00151051138527691,0,
00:00:04.544,0.00137338333297521,-0.00227189948782325,0.0168628934770823,0,
00:00:04.548,-0.000221716269152239,0.00380925997160375,0.00174393353518099,0,
00:00:04.552,0.00538055505603552,-0.00035277588176541,-0.0145767135545611,0,
00:00:04.556,-0.00198206515051425,0.0033892267383635,0.00483383843675256,0,
00:00:04.56,0.000206249751499854,0.00879611633718014,-0.00354702025651932,0,
00:00:04.564,0.00623639859259129,0.00269493949599564,-0.00704584084451199,0,
00:00:04.568,-0.00439508305862546,-0.00383038050495088,-0.000122373647172935,0,
00:00:04.572,-0.0096876984462142,-0.0250555165112019,0.0093144066631794,0,
00:00:04.576,-0.000669643690343946,0.00234865373931825,0.0142590962350369,0,
00:00:04.58,0.0080593079328537,0.010241910815239,-0.0140999676659703,0,
00:00:04.584,-0.00171398825477809,0.0120841693133116,-0.0042490460909903,0,
00:00:04.588,-0.00514803780242801,-0.0138826044276357,0.004362175706774,0,
00:00:04.592,0.00523302890360355,-0.00562505982816219,-0.00652763620018959,0,
00:00:04.596,0.00949542596936226,0.0200771354138851,-3.97208896174561E-05,0,
00:00:04.6,0.00185837259050459,0.00789580121636391,0.00968646258115768,0,
00:00:04.604,-0.0109852105379105,-0.00677102198824286,0.00385406007990241,0,
00:00:04.608,-0.00672958185896277,-0.0223411358892918,-0.00496570579707623,0,
00:00:04.612,0.00665126228705049,0.00968133844435215,-0.015913113951683,0,
00:00:04.616,0.00472420081496239,0.0152013301849365,0.00319883204065263,0,
00:00:04.62,0.00191099510993809,-0.00535738933831453,0.0148619078099728,0,
00:00:04.624,-0.00492346286773682,-0.0139242205768824,0.00652698474004865,0,
00:00:04.628,-0.00455693947151303,-0.00803585629910231,-0.00732848327606916,0,
00:00:04.632,-0.00562063604593277,0.00299126422032714,-0.0158256087452173,0,
00:00:04.636,0.00315456790849566,0.00866243429481983,0.000836584891658276,0,
00:00:04.64,0.00351770175620914,0.00570501480251551,0.0138885611668229,0,
00:00:04.644,0.00590097485110164,0.011585108935833,0.00926353968679905,0,
00:00:04.648,-0.00363761559128761,0.00300116860307753,-0.00801742076873779,0,
00:00:04.652,0.00685096997767687,-0.0180938933044672,-0.00196969625540078,0,
00:00:04.656,-0.00417377287521958,-0.0155955199152231,-0.0108341751620173,0,
00:00:04.66,0.000118544725410175,0.0105051100254059,0.00300302589312196,0,
00:00:04.664,0.00131481897551566,0.00662871869280934,0.00693816458806396,0,
00:00:04.668,0.00245862710289657,0.0155468303710222,-0.0036881105042994,0,
00:00:04.672,-0.0112734762951732,-0.00745342206209898,-0.0020265206694603,0,
00:00:04.676,-0.00792562030255795,-0.0193404294550419,-0.000628267938736826,0,
00:00:04.68,0.00835489854216576,0.00408437568694353,0.00902502797544003,0,
00:00:04.684,0.00388483447022736,-0.00125577137805521,0.00193774059880525,0,
00:00:04.688,0.000307599199004471,0.00273902411572635,0.00580438133329153,0,
00:00:04.692,0.00520747061818838,0.00743866618722677,-0.0156716629862785,0,
00:00:04.696,0.00581255648285151,0.00867223273962736,-0.0113277407363057,0,
00:00:04.7,-0.0041828528046608,0.0063722119666636,0.0120223555713892,0,
00:00:04.704,-0.0110880313441157,-0.00991463288664818,0.00962976366281509,0,
00:00:04.708,-0.00491915550082922,-0.0200120229274035,-0.00714088557288051,0,
00:00:04.712,0.00630717119202018,-0.00435752980411053,-0.0110860001295805,0,
00:00:04.716,0.00555157009512186,0.0068805324845016,0.00884975586086512,0,
00:00:04.72,-0.00678507424890995,0.00776704307645559,0.0233873445540667,0,
00:00:04.724,0.0042930063791573,0.0128420973196626,-0.00726334797218442,0,
00:00:04.728,0.00819742400199175,0.0034274070058018,-0.0225833281874657,0,
00:00:04.732,-0.00130674289539456,-0.0031573767773807,-0.00329351471737027,0,
00:00:04.736,-0.0135221425443888,-0.0120578231289983,0.0011750771664083,0,
00:00:04.74,0.00754187861457467,-0.00543860951438546,0.0145928934216499,0,
00:00:04.744,-0.00326385488733649,-0.00638473592698574,0.00529100093990564,0,
00:00:04.748,0.00430387817323208,0.0086773345246911,-0.00430690357461572,0,
00:00:04.752,-0.0107034426182508,-0.00427037896588445,-0.00937958061695099,0,
00:00:04.756,0.00396544858813286,0.0125068733468652,0.00339227542281151,0,
00:00:04.76,0.0108757680281997,0.0120534608140588,0.00770260207355022,0,
00:00:04.764,0.00603282172232866,-0.00282868347130716,-0.00554481614381075,0,
00:00:04.768,-0.00938840862363577,-0.00934282969683409,-0.0112762553617358,0,
00:00:04.772,-0.00990019366145134,-0.0185984615236521,0.000997384660877287,0,
00:00:04.776,0.000300124054774642,0.00437093153595924,0.013307155109942,0,
00:00:04.78,0.00863275397568941,0.0134364748373628,0.0131769329309464,0,
00:00:04.784,0.00646893167868257,0.00407519889995456,-0.0180856846272945,0,
00:00:04.788,-0.00111026270315051,-0.00637888116762042,-0.00536784203723073,0,
00:00:04.792,-0.009549330919981,-0.00233132275752723,0.00803878251463175,0,
00:00:04.796,-0.0115153724327683,8.92167881829664E-05,-0.004063555970788,0,
00:00:04.8,0.00888548232614994,0.00310039124451578,0.00203717825934291,0,
00:00:04.804,0.00925066880881786,-0.00102497707121074,0.00204761233180761,0,
00:00:04.808,-0.00101719691883773,-0.00120567728299648,0.00450735166668892,0,
00:00:04.812,-0.0023495415225625,-0.00231935316696763,-0.00693982513621449,0,
00:00:04.816,0.00520449690520763,0.00456252321600914,-0.0087285228073597,0,
00:00:04.82,0.00051950803026557,0.00658186106011271,0.00438664993271232,0,
00:00:04.824,-0.0123016219586134,-0.00488004880025983,0.012810792773962,0,
00:00:04.828,-0.00516756763681769,-0.0203191116452217,0.00394347077235579,0,
00:00:04.832,0.00764132477343082,0.0051280315965414,-0.0150868417695165,0,
00:00:04.836,0.00509741296991706,0.0141817172989249,0.000340119906468317,0,
00:00:04.84,0.0126264272257686,0.0251069441437721,0.000821105903014541,0,
00:00:04.844,-0.0121533442288637,-0.0136698912829161,-0.000889407470822334,0,
00:00:04.848,-0.00157643901184201,-0.0243820510804653,0.00514595070853829,0,
00:00:04.852,-0.00692538218572736,-0.00698984041810036,0.000322036881698295,0,
00:00:04.856,-0.00792391691356897,-0.00209543202072382,-0.00339477183297277,0,
00:00:04.86,0.0134968915954232,0.0245165657252073,-0.00132766121532768,0,
00:00:04.864,0.0100448727607727,0.0165322031825781,0.00933456048369408,0,
00:00:04.868,0.000808334909379482,0.000445778161520138,0.000185503347893246,0,
00:00:04.872,-0.00939233973622322,-0.0142285348847508,-0.0111767258495092,0,
00:00:04.876,-0.00426687067374587,-0.0181838106364012,-0.0116058867424726,0,
00:00:04.88,0.00164085777942091,-0.0107941115275025,0.0102581176906824,0,
00:00:04.884,0.00168862205464393,0.0105673018842936,0.0107851102948189,0,
00:00:04.888,-0.00166492420248687,0.0187934320420027,0.00389287900179625,0,
00:00:04.892,-0.00259898533113301,-0.00777541985735297,-0.00233507412485778,0,
00:00:04.896,0.00507520139217377,-0.00141113251447678,-0.000713537621777505,0,
00:00:04.9,0.00535460980609059,0.00813708640635014,-0.00591404736042023,0,
00:00:04.904,-0.00849650986492634,0.00240531913004816,-0.00898823421448469,0,
00:00:04.908,-0.00427095592021942,-0.0142915407195687,-0.00984564423561096,0,
00:00:04.912,0.00626994110643864,-0.00847018323838711,0.0188383460044861,0,
00:00:04.916,0.00920483469963074,0.0180853176862001,0.0131039144471288,0,
00:00:04.92,-0.00114303187001497,0.01208620890975,-0.00814691465348005,0,
00:00:04.924,-0.0117506785318255,-0.015373220667243,0.000123015750432387,0,
00:00:04.928,-0.00313353142701089,-0.0156510192900896,-0.00810746289789677,0,
00:00:04.932,0.00896550994366407,0.00540573336184025,-0.00417606113478541,0,
00:00:04.936,-0.00151372700929642,0.00967251975089312,-0.000756089284550399,0,
00:00:04.94,0.00231585768051445,0.00586264999583364,0.0143132982775569,0,
00:00:04.944,0.00250467238947749,0.0129395946860313,0.00567834312096238,0,
00:00:04.948,-0.00565130077302456,-0.00649692723527551,-0.0126964477822185,0,
00:00:04.952,-0.00795047823339701,-0.025523629039526,-0.0189394317567348,0,
00:00:04.956,0.00200490700080991,-0.00813048705458641,0.020359355956316,0,
00:00:04.96,0.00984673853963614,0.00903679523617029,0.011934163980186,0,
00:00:04.964,0.00477345660328865,0.0143703538924456,-0.0158198848366737,0,
00:00:04.968,-0.00159045460168272,0.0097916703671217,-0.0027491319924593,0,
00:00:04.972,-0.00876064877957106,-0.00242008385248482,0.00525300297886133,0,
00:00:04.976,-0.00842611491680145,-0.00463435845449567,0.00810126774013042,0,
00:00:04.98,0.0115326792001724,-0.00341818435117602,-0.00560284778475761,0,
00:00:04.984,0.00136063061654568,-0.00995236169546843,-0.00531923724338412,0,
00:00:04.988,0.00309220352210104,-0.004943554289639,0.00299460324458778,0,
00:00:04.992,-0.00264498870819807,0.00821527745574713,-0.00820166803896427,0,
00:00:04.996,-0.00326405768282712,0.0144445234909654,0.00332104950211942,0,
00:00:05,-0.00372584233991802,-0.0109337707981467,0.0249520763754845,0,
00:00:05.004,0.00420608976855874,0.0120488135144114,-0.00955953821539879,0,
00:00:05.008,0.00289340107701719,-0.00308326678350568,-0.020343966782093,0,
00:00:05.012,-0.00222954247146845,-0.0140548069030046,-0.00705545302480459,0,
00:00:05.016,-0.00196281424723566,-0.00394072011113167,0.0184787400066853,0,
00:00:05.02,-0.00235578743740916,0.00136004493106157,0.00505056651309133,0,
00:00:05.024,0.00289135170169175,-0.000547166273463517,-0.00162052770610899,0,
00:00:05.028,0.000716169597581029,0.0138236656785011,-0.00138552801217884,0,
00:00:05.032,0.00493585038930178,0.0101493634283543,-0.00663809245452285,0,
00:00:05.036,0.007212501950562,-0.00527754239737988,-0.00675127794966102,0,
00:00:05.04,-0.00866756122559309,-0.00200896360911429,0.00375329935923219,0,
00:00:05.044,-0.0189676526933908,-0.00903188996016979,0.0171869657933712,0,
00:00:05.048,0.000785959477070719,-0.00781195517629385,0.00312676141038537,0,
00:00:05.052,0.0163580346852541,0.00183167343493551,-0.011045222170651,0,
00:00:05.056,0.00798154715448618,0.00511022796854377,-0.0112787103280425,0,
00:00:05.06,-0.00236287340521812,0.00632271450012922,0.00365033070556819,0,
00:00:05.064,0.00560996821150184,0.00807711109519005,-0.00363725144416094,0,
00:00:05.068,-0.00912653747946024,-0.0121005205437541,-0.00286210724152625,0,
00:00:05.072,-0.015320697799325,-0.0146309286355972,0.0217839051038027,0,
00:00:05.076,-0.00156998564489186,0.00818282086402178,0.000899664417374879,0,
00:00:05.08,0.00881867948919535,0.010343573987484,-0.00267485156655312,0,
00:00:05.084,0.00809419807046652,0.00456542428582907,-0.00839667674154043,0,
00:00:05.088,0.00112701731268317,-0.00344545789994299,-0.0185893550515175,0,
00:00:05.092,0.00488652335479856,0.00192841526586562,0.0042360769584775,0,
00:00:05.096,-0.00972779933363199,-0.00825172755867243,0.0200908593833447,0,
00:00:05.1,-4.94119994982611E-05,-0.00299376761540771,0.00953379645943642,0,
00:00:05.104,0.000732512678951025,0.00687650498002768,-0.00133284309413284,0,
00:00:05.108,-0.00251183938235044,0.000434580113505945,-0.019657775759697,0,
00:00:05.112,0.000975270813796669,-0.0109549276530743,-0.0101644545793533,0,
00:00:05.116,0.00512788398191333,0.00121627061162144,0.00478318706154823,0,
00:00:05.12,-0.00996036920696497,0.00964788347482681,0.00708574242889881,0,
00:00:05.124,-0.00591980386525393,-0.00563669390976429,0.0148707283660769,0,
00:00:05.128,0.00802682712674141,6.38413839624263E-05,-0.000341853796271607,0,
00:00:05.132,0.018876489251852,0.0116737466305494,-0.0107199521735311,0,
00:00:05.136,-0.00642263237386942,-0.00471953302621841,-0.00647511798888445,0,
00:00:05.14,-0.00972580257803202,0.00283666793256998,0.00633036810904741,0,
00:00:05.144,-0.000607770518399775,-0.00750811491161585,0.0123986108228564,0,
00:00:05.148,-0.00122200301848352,-0.000924718857277185,-0.0148260705173016,0,
00:00:05.152,0.000155236833961681,0.000244683673372492,-0.0141869727522135,0,
00:00:05.156,0.00544959120452404,0.00218349858187139,0.000886162742972374,0,
00:00:05.16,0.00169776997063309,-0.00401597050949931,0.0313176475465298,0,
00:00:05.164,-0.0166557990014553,-0.0181619543582201,0.00147614511661232,0,
00:00:05.168,0.00643877312541008,0.0196128785610199,-0.0126553308218718,0,
00:00:05.172,0.00503654079511762,0.0203768517822027,-0.0104817086830735,0,
00:00:05.176,0.00803583767265081,-0.0080646937713027,-0.00320698670111597,0,
00:00:05.18,0.0102639822289348,-0.00102373282425106,0.00886680837720633,0,
00:00:05.184,-0.00936469156295061,-0.00917080417275429,-0.00529911695048213,0,
00:00:05.188,-0.0137802790850401,-0.0113628515973687,0.000746437173802406,0,
00:00:05.192,-0.0123100345954299,-0.00197243737056851,0.00204264116473496,0,
00:00:05.196,0.0060160905122757,0.00984680838882923,0.00579864997416735,0,
00:00:05.2,0.0109162228181958,-0.0046379710547626,0.0052460920996964,0,
00:00:05.204,0.0117662409320474,0.00968088582158089,0.00986927188932896,0,
00:00:05.208,-5.41104855074082E-05,0.021806238219142,-0.0163145903497934,0,
00:00:05.212,-0.00365374726243317,-0.00299725704826415,-0.0171179305762053,0,
00:00:05.216,-0.00584307592362165,-0.023586081340909,0.00616656197234988,0,
00:00:05.22,-0.00475545367226005,-0.0166271198540926,0.00726075423881412,0,
00:00:05.224,-0.00183106632903218,0.00208918447606266,0.00264886859804392,0,
00:00:05.228,0.000917050696443766,0.0126914940774441,0.00535958260297775,0,
00:00:05.232,-0.0101552037522197,-0.000209209742024541,-0.00978881865739822,0,
00:00:05.236,0.0078393230214715,0.00908149592578411,0.00648216903209686,0,
00:00:05.24,0.021189933642745,0.00373367918655276,0.00816655810922384,0,
00:00:05.244,0.00844572577625513,0.00776898115873337,-0.0118784680962563,0,
00:00:05.248,-0.0184076502919197,0.00371590093709528,-0.00395101867616177,0,
00:00:05.252,-0.0169559940695763,-0.0174263250082731,-0.00351296737790108,0,
00:00:05.256,0.000912564690224826,-0.0203465428203344,0.0125449970364571,0,
00:00:05.26,0.00305311777628958,-0.00354619533754885,0.00157905369997025,0,
00:00:05.264,0.0165637079626322,0.0181613769382238,-0.0117201851680875,0,
00:00:05.268,0.000115931594336871,0.00519840652123094,0.00827180966734886,0,
00:00:05.272,-0.00931859202682972,0.004088728222996,0.000749546685256064,0,
00:00:05.276,0.00363529194146395,0.00517501309514046,-0.0064715682528913,0,
00:00:05.28,-0.00239040656015277,-0.00355727085843682,-0.00246975524351001,0,
00:00:05.284,-0.00436797179281712,-0.00807596743106842,0.00635744584724307,0,
00:00:05.288,-0.00047323849867098,-0.00440452992916107,-0.00212145433761179,0,
00:00:05.292,0.00887800194323063,0.000311403826344758,-0.00675598531961441,0,
00:00:05.296,-0.000651886977721006,0.0028995422180742,0.018201457336545,0,
00:00:05.3,-0.00295134261250496,0.0071345972828567,0.00986575055867434,0,
00:00:05.304,8.81612650118768E-05,0.00179466512054205,-0.0141694713383913,0,
00:00:05.308,-0.00644169421866536,-0.00100916484370828,-0.0154578508809209,0,
00:00:05.312,0.00517688319087029,-0.00432353606447577,-0.0106229782104492,0,
00:00:05.316,0.00631989911198616,-0.00860869511961937,0.0109303435310721,0,
00:00:05.32,-0.00786824896931648,-0.0065453564748168,0.0213470160961151,0,
00:00:05.324,0.00620258552953601,0.0199556779116392,0.00278896861709654,0,
00:00:05.328,-0.00797959975898266,-0.00512870633974671,-0.0111978612840176,0,
00:00:05.332,0.000530412537045777,-0.00558029022067785,-0.00865932181477547,0,
00:00:05.336,0.0050662150606513,-3.91014546039514E-05,-0.00396977923810482,0,
00:00:05.34,-0.00596273550763726,-0.010973540134728,0.011142710223794,0,
00:00:05.344,0.00483021419495344,0.0257974825799465,0.00822905823588371,0,
00:00:05.348,0.00816419348120689,0.0114851668477058,-0.00770775182172656,0,
00:00:05.352,-0.00373267196118832,-0.00765890581533313,-0.0154760973528028,0,
00:00:05.356,-0.00773925287649035,-0.0172874741256237,0.008224131539464,0,
00:00:05.36,-0.00115053844638169,-0.00741296960040927,0.00294720381498337,0,
00:00:05.364,-0.000401490862714127,0.000847003830131143,0.00678093358874321,0,
00:00:05.368,0.00611155340448022,0.00702177872881293,0.0044800266623497,0,
00:00:05.372,0.000922538456507027,0.00307225924916565,-0.0062406724318862,0,
00:00:05.376,-0.00122596742585301,-0.000848976371344179,-0.0098896874114871,0,
00:00:05.38,-0.00145137100480497,6.08845475653652E-05,0.0104546686634421,0,
00:00:05.384,0.00335360551252961,0.00731913466006517,0.00509617291390896,0,
00:00:05.388,-0.00606856308877468,-0.00694628804922104,-0.0178083777427673,0,
00:00:05.392,-0.000899592530913651,0.00151133234612644,0.00513338251039386,0,
00:00:05.396,0.00592204555869102,-0.00122543284669518,0.00648536300286651,0,
00:00:05.4,-0.00593280652537942,-0.00754100410267711,-0.00869928114116192,0,
00:00:05.404,0.0060962843708694,0.0117408279329538,0.00150672986637801,0,
00:00:05.408,-0.00712159741669893,0.00564422830939293,0.0172796919941902,0,
00:00:05.412,0.0019746997859329,-0.0116499392315745,-0.0124041428789496,0,
00:00:05.416,0.0144095169380307,-0.00124605884775519,-0.00301512144505978,0,
00:00:05.42,0.00289818225428462,0.00101670203730464,-0.00114517053589225,0,
00:00:05.424,-0.0181197598576546,-0.0137841552495956,-0.00254611438140273,0,
00:00:05.428,-0.0252123642712832,0.00158786319661886,0.0127741852775216,0,
00:00:05.432,0.0194620713591576,0.0192207228392363,0.00337184220552444,0,
00:00:05.436,0.0198480263352394,0.01514907553792,-0.00600715400651097,0,
00:00:05.44,0.00615251017734408,-0.00131164770573378,-0.00818492658436298,0,
00:00:05.444,-0.00332937366329134,-0.0116065917536616,-0.00267014210112393,0,
00:00:05.448,-0.0114117069169879,-0.0182642061263323,0.00861269142478704,0,
00:00:05.452,-0.0108917634934187,-0.00452612200751901,-0.00173518457449973,0,
00:00:05.456,-0.00678369728848338,0.00300404638983309,-0.00382226472720504,0,
00:00:05.46,0.00597716029733419,0.00587889784947038,0.00245685083791614,0,
00:00:05.464,0.0135666932910681,0.0136762410402298,0.00958059076219797,0,
00:00:05.468,0.00252879690378904,0.0035269227810204,-0.00219282018952072,0,
00:00:05.472,0.000293544435407966,-0.0013051840942353,-0.0072568217292428,0,
00:00:05.476,-0.000455499422969297,-0.00339422770775855,-0.00157763413153589,0,
00:00:05.48,0.00287003163248301,-0.00566592114046216,0.00300500355660915,0,
00:00:05.484,-0.0162190031260252,-0.0109918210655451,-0.00255551747977734,0,
00:00:05.488,-0.0139946034178138,-0.0166398715227842,-0.00897232349961996,0,
00:00:05.492,0.0221930798143148,0.0340677611529827,0.00756885251030326,0,
00:00:05.496,0.00212087226100266,0.00954576209187508,0.0234065186232328,0,
00:00:05.5,0.00447399634867907,-0.0090971551835537,0.000336658238666132,0,
00:00:05.504,-0.00459502590820193,-0.0115202469751239,-0.0187102891504765,0,
00:00:05.508,-0.00438505643978715,-0.0080116456374526,-0.0112496884539723,0,
00:00:05.512,0.0089294221252203,0.0171896405518055,-0.00800847727805376,0,
00:00:05.516,-0.00895385351032019,0.00686266645789146,0.00208566198125482,0,
00:00:05.52,-0.00647637946531177,-0.00782336108386517,0.0209868550300598,0,
00:00:05.524,0.00248594116419554,-0.00793271325528622,0.00322654307819903,0,
00:00:05.528,0.00468704709783196,-0.00496163498610258,0.00385489012114704,0,
00:00:05.532,0.00320980418473482,0.00157353817485273,-0.00473352801054716,0,
00:00:05.536,-0.00133545557036996,0.00303324963897467,-0.0066561046987772,0,
00:00:05.54,0.00299579091370106,0.0108564766123891,-0.00440062070265412,0,
00:00:05.544,0.000111571978777647,0.00608162907883525,-0.000966407533269376,0,
00:00:05.548,-0.00468086497858167,-0.00122003466822207,0.00154072768054903,0,
00:00:05.552,-0.0031223117839545,-0.0159839484840631,-0.00178236700594425,0,
00:00:05.556,-0.000157547125127167,-0.00848345831036568,0.0016377589199692,0,
00:00:05.56,0.00382650271058083,0.00200297799892724,0.0100460797548294,0,
00:00:05.564,7.43748896638863E-05,0.0115333367139101,0.00766134075820446,0,
00:00:05.568,0.00169574818573892,0.00502385385334492,-0.0158235840499401,0,
00:00:05.572,-0.00610334565863013,0.00211211992427707,-0.00566622568294406,0,
00:00:05.576,0.000535289233084768,-0.00239335536025465,0.00975396856665611,0,
00:00:05.58,0.00327566685155034,-0.0188351441174746,-0.00165592168923467,0,
00:00:05.584,0.0131798526272178,0.020787576213479,-0.00710028456524014,0,
00:00:05.588,-0.00479814736172557,0.00246838480234146,-0.00104052585083991,0,
00:00:05.592,-0.0212315414100885,-0.0185913275927305,0.00628994591534138,0,
00:00:05.596,0.00428859842941165,-0.0072771217674017,0.00738744623959064,0,
00:00:05.6,0.00918641872704029,0.0102257421240211,0.0119716171175241,0,
00:00:05.604,0.00739283161237836,0.0174018424004316,-0.00270698918029666,0,
00:00:05.608,0.000223818875383586,0.00526330852881074,-0.0309452898800373,0,
00:00:05.612,-0.00445866538211703,-0.0019309432245791,-0.0105683747678995,0,
00:00:05.616,-0.00497056171298027,-0.0117587558925152,0.0108940992504358,0,
00:00:05.62,-0.00484391627833247,-0.0166276786476374,0.0199995059520006,0,
00:00:05.624,-0.00220987503416836,-0.00422796793282032,0.0104807298630476,0,
00:00:05.628,-0.000983067904599011,0.00471469899639487,-0.00337471859529614,0,
00:00:05.632,0.013451318256557,0.0163617171347141,-0.00162324449047446,0,
00:00:05.636,0.00751517061144114,0.00918274838477373,-0.00814878381788731,0,
00:00:05.64,-0.00363126257434487,-0.00500339036807418,-0.0135713247582316,0,
00:00:05.644,-0.00439795292913914,-0.00667722709476948,0.00298941251821816,0,
00:00:05.648,-0.00443918630480766,0.00056800153106451,0.00212320638820529,0,
00:00:05.652,-0.00274818832986057,0.00211012992076576,0.00590383727103472,0,
00:00:05.656,-0.000416312832385302,0.00286212237551808,-0.00222144229337573,0,
00:00:05.66,-0.0111401509493589,-0.0216093212366104,0.0128287794068456,0,
00:00:05.664,0.0137456320226192,0.00185913173481822,0.00149716250598431,0,
00:00:05.668,0.0196494795382023,0.0310390945523977,-0.0168493110686541,0,
00:00:05.672,-0.0144860921427608,-0.0194020811468363,-0.0124107655137777,0,
00:00:05.676,-0.00797413568943739,-0.0116548798978329,0.0133959278464317,0,
00:00:05.68,-0.00307453679852188,0.0047653978690505,0.0348416194319725,0,
00:00:05.684,0.00276994775049388,0.0119589949026704,-0.0272199362516403,0,
00:00:05.688,0.0173837412148714,0.0174586586654186,-0.0164778959006071,0,
00:00:05.692,-0.00406096084043384,0.0023934452328831,-0.00171383563429117,0,
00:00:05.696,-0.00455092545598745,-0.0185227021574974,0.00925532542169094,0,
00:00:05.7,-0.00936348550021648,-0.0198855418711901,0.00865489523857832,0,
00:00:05.704,-0.00588595075532794,-0.0049690562300384,0.00358694489113986,0,
00:00:05.708,0.00216270657256246,0.0116382427513599,-0.00320134544745088,0,
00:00:05.712,0.0106194205582142,0.00949259381741285,-0.00553503585979342,0,
00:00:05.716,0.00609399331733584,0.0029673264361918,0.00452825939282775,0,
00:00:05.72,-0.00460853707045317,0.000431268796091899,-0.000113418071123306,0,
00:00:05.724,-0.00226076203398407,0.0013130831066519,-0.00210278714075685,0,
00:00:05.728,-0.00107630365528166,0.000891391828190535,-0.00397805823013186,0,
00:00:05.732,0.00170233868993819,0.00142998725641519,-0.00288499868474901,0,
00:00:05.736,0.000155767658725381,-0.0101966354995966,0.00393830426037312,0,
00:00:05.74,-0.00128493399824947,-0.0105412350967526,0.0105450572445989,0,
00:00:05.744,-0.0118241365998983,0.000264684378635138,0.0043103052303195,0,
00:00:05.748,0.00918048340827227,0.0117903174832463,-0.00920692272484303,0,
00:00:05.752,0.010495969094336,0.0126069923862815,-0.0169900171458721,0,
00:00:05.756,-0.00033951029763557,0.00155247829388827,-0.00133065471891314,0,
00:00:05.76,-0.0092108091339469,-0.0108489273115993,0.0124916974455118,0,
00:00:05.764,-0.00708693638443947,-0.01677056401968,0.0159574169665575,0,
00:00:05.768,0.00495128845795989,0.00801686476916075,-0.00573007762432098,0,
00:00:05.772,0.00565371429547668,0.00540394382551312,-0.00834479928016663,0,
00:00:05.776,0.00435695145279169,0.00536849861964583,-0.00400218460708857,0,
00:00:05.78,-0.00498399417847395,0.00329763535410166,0.00473811198025942,0,
00:00:05.784,-0.00200737663544714,-0.00411172909662127,0.00507458718493581,0,
00:00:05.788,0.00150477758143097,-0.00477970996871591,-0.0024402285926044,0,
00:00:05.792,-0.00392120657488704,-0.0044960961677134,-0.00803477596491575,0,
00:00:05.796,0.00281244562938809,9.3563947302755E-05,-0.00446581421419978,0,
00:00:05.8,-0.000105706436443143,0.00527410116046667,0.00514880567789078,0,
00:00:05.804,0.00379196973517537,0.00566680775955319,0.0107306828722358,0,
00:00:05.808,-0.00385140185244381,0.000483574025565758,0.00175835308618844,0,
00:00:05.812,-0.00287156249396503,-0.00325636798515916,-0.00531778344884515,0,
00:00:05.816,-0.0020350688137114,-0.0100488681346178,-0.00641331356018782,0,
00:00:05.82,0.00798625778406858,0.0141065595671535,0.0028473399579525,0,
00:00:05.824,-0.00446607824414968,-0.00917820166796446,0.0132520394399762,0,
00:00:05.828,0.00398946134373546,-0.00447273952886462,-0.0135532626882195,0,
00:00:05.832,-0.00199506036005914,0.00349688273854554,-0.01588499173522,0,
00:00:05.836,0.00270154047757387,-0.00194124865811318,0.0169479139149189,0,
00:00:05.84,-0.00576411327347159,-0.000253331993008032,0.00180440337862819,0,
00:00:05.844,0.00188860949128866,0.0126088559627533,0.00958029180765152,0,
00:00:05.848,0.00648248521611094,0.0056330980733037,-0.00363488704897463,0,
00:00:05.852,-0.00129287759773433,-0.00332347280345857,-0.0093041667714715,0,
00:00:05.856,-0.0123509271070361,-0.0114352721720934,-0.0113328667357564,0,
00:00:05.86,0.000587107962928712,-0.00625249277800322,0.000195372558664531,0,
00:00:05.864,0.0117062740027905,0.000759998569265008,0.0165473856031895,0,
00:00:05.868,0.000949453562498093,0.00456275139003992,0.00928739830851555,0,
00:00:05.872,0.00115218269638717,0.00663594715297222,-0.00357995089143515,0,
00:00:05.876,-0.00691265799105167,0.000380076497094706,-0.00736538134515285,0,
00:00:05.88,-0.00670162821188569,0.00240545650012791,-0.00548162730410695,0,
00:00:05.884,-0.00437101814895868,-0.0077875298447907,0.00454018823802471,0,
00:00:05.888,0.0123593909665942,0.00395064754411578,-0.00872905738651752,0,
00:00:05.892,0.0124277966096997,0.0055855056270957,-0.00465241773054004,0,
00:00:05.896,-0.00814701896160841,-0.00847229175269604,0.0128970937803388,0,
00:00:05.9,-0.00442223018035293,-0.00899483449757099,0.00887726061046124,0,
00:00:05.904,-0.00671469885855913,-0.00312228756956756,-0.00183299591299146,0,
00:00:05.908,-0.00116593053098768,0.00903365574777126,-0.00940087623894215,0,
00:00:05.912,0.00343986577354372,-0.00034922148915939,-0.000254196755122393,0,
00:00:05.916,0.00659785140305758,-0.00200571841560304,-0.000339928490575403,0,
00:00:05.92,0.00715143652632833,0.0206203665584326,0.00303651602007449,0,
00:00:05.924,-0.000885182642377913,0.0112574798986316,0.00580930057913065,0,
00:00:05.928,-0.0102751590311527,-0.0122903427109122,-0.00430427072569728,0,
00:00:05.932,-0.0126147270202637,-0.0336625874042511,-0.00879256054759026,0,
00:00:05.936,0.00598084786906838,0.00129049748647958,0.00651716673746705,0,
00:00:05.94,0.00887961033731699,0.00580093543976545,-0.00157420232426375,0,
00:00:05.944,0.0028078411705792,0.00969459116458893,-0.00285865529440343,0,
00:00:05.948,0.00404111994430423,0.0125409429892898,0.00745235104113817,0,
00:00:05.952,-0.00318811158649623,0.00389927648939192,0.00391002604737878,0,
00:00:05.956,-0.002566795097664,-0.00206156610511243,-0.00982157047837973,0,
00:00:05.96,-0.00489691644906998,-0.0049443687312305,0.00379692018032074,0,
00:00:05.964,0.00204892363399267,-0.00908306706696749,-0.00111606763675809,0,
00:00:05.968,-0.000827154726721346,-0.0074741942808032,0.00120309332851321,0,
00:00:05.972,-0.00688578421249986,-0.00217824219726026,0.00255680200643837,0,
00:00:05.976,0.00212130439467728,0.00492386659607291,-0.000427516846684739,0,
00:00:05.98,0.00365572678856552,0.00321849482133985,-0.0024207120295614,0,
00:00:05.984,0.00660571129992604,0.00303124519996345,-0.00440484005957842,0,
00:00:05.988,0.0114403394982219,0.0168755538761616,0.00306751253083348,0,
00:00:05.992,-0.0048329378478229,0.00802121683955193,-0.0102750975638628,0,
00:00:05.996,-0.00760121596977115,-0.00647523859515786,0.00546333799138665,0,
00:00:06,-0.00689064245671034,-0.0193838179111481,0.00818642042577267,0,
00:00:06.004,-0.0157818030565977,-0.0258015599101782,0.00864204484969378,0,
00:00:06.008,0.00618932815268636,-0.00459165219217539,-5.06635005876888E-05,0,
00:00:06.012,0.018672289326787,0.0279529765248299,-0.0144861675798893,0,
00:00:06.016,0.00502895889803767,0.0190189592540264,-0.00728995492681861,0,
00:00:06.02,-0.00471344590187073,-0.0023412755690515,0.0209489781409502,0,
00:00:06.024,-0.00719811161980033,-0.00696964655071497,-0.00688406638801098,0,
00:00:06.028,0.00163999979849905,-0.000839912914671004,-0.0108140632510185,0,
00:00:06.032,0.00396342156454921,-0.00152333569712937,0.00165142817422748,0,
00:00:06.036,-0.00406485656276345,-0.00671848375350237,0.00892768055200577,0,
00:00:06.04,0.001135308528319,0.00383459567092359,-0.00476369867101312,0,
00:00:06.044,-0.00390890100970864,0.00254121609032154,0.00142469559796154,0,
00:00:06.048,0.00695741828531027,0.0013898138422519,-0.00022205438290257,0,
00:00:06.052,4.08942032663617E-05,0.00205154833383858,0.00447292905300856,0,
00:00:06.056,-0.0138625064864755,-0.0134801911190152,0.00301020825281739,0,
00:00:06.06,0.00239664176478982,-0.00572909321635962,-0.0128123303875327,0,
00:00:06.064,0.00879907608032227,0.00205970020033419,0.00287686567753553,0,
00:00:06.068,0.00275791808962822,0.00810481142252684,-0.00195564539171755,0,
00:00:06.072,0.00144706561695784,0.0142522985115647,0.00310780829750001,0,
00:00:06.076,-0.00800085440278053,-0.00620056549087167,0.00352711090818048,0,
00:00:06.08,-0.00352439796552062,-0.00174388207960874,0.0161982364952564,0,
00:00:06.084,0.0082855774089694,0.00962915644049644,-0.010066419839859,0,
00:00:06.088,0.00870946329087019,0.00582895008847117,-0.0211180336773396,0,
00:00:06.092,-0.00742702977731824,-0.0125701790675521,-0.00835662987083197,0,
00:00:06.096,-0.0118527142331004,-0.0307962782680988,0.022146750241518,0,
00:00:06.1,0.00342665938660502,0.00280128279700875,0.016497453674674,0,
00:00:06.104,0.00113343843258917,0.0103397099301219,-0.021132891997695,0,
00:00:06.108,0.00224497518502176,0.0122614754363894,0.000801684276666492,0,
00:00:06.112,0.00467719510197639,0.00816836766898632,0.00488923583179712,0,
00:00:06.116,0.00795738305896521,0.00602192152291536,0.00436139805242419,0,
00:00:06.12,-0.00938924122601748,-0.00900723971426487,-0.000812555139418691,0,
00:00:06.124,-0.00769108580425382,-0.00193123694043607,-0.00390144693665206,0,
00:00:06.128,0.000921528437174857,-0.00448815384879708,-0.00995377823710442,0,
00:00:06.132,0.00973441451787949,-0.00102250347845256,-0.00403482839465141,0,
00:00:06.136,-0.00522078387439251,-0.00245639099739492,0.00919793453067541,0,
00:00:06.14,-0.0102828852832317,-0.00433005159720778,0.0169220231473446,0,
00:00:06.144,0.0105778621509671,0.00582434516400099,0.00342139438726008,0,
00:00:06.148,0.00825458858162165,0.00566357327625155,-0.0185060147196054,0,
00:00:06.152,0.00252291653305292,0.00403683260083199,-0.0176493655890226,0,
00:00:06.156,-0.00248043262399733,0.00088954484090209,0.00460731284692883,0,
00:00:06.16,-0.0191922187805176,-0.0102515090256929,0.022862009704113,0,
00:00:06.164,-0.00272105843760073,-0.00154267577454448,0.0186689384281635,0,
00:00:06.168,0.0108949029818177,-0.000720722950063646,-0.0124669950455427,0,
00:00:06.172,0.00225963606499135,-0.00469759479165077,-0.0281096007674932,0,
00:00:06.176,0.00571853062137961,0.00845400243997574,-0.0126422913745046,0,
00:00:06.18,0.00813184399157763,0.0152294188737869,0.0219655595719814,0,
00:00:06.184,-0.00184481788892299,0.00166582339443266,0.0105620799586177,0,
00:00:06.188,-0.024958074092865,-0.0319341905415058,-0.000101523721241392,0,
00:00:06.192,-0.00267675681971014,0.000442790944362059,-0.00288535072468221,0,
00:00:06.196,0.0151365250349045,0.0175053346902132,-0.004503158852458,0,
00:00:06.2,0.0124987661838531,0.00568480882793665,0.0112259313464165,0,
00:00:06.204,-0.00315951136872172,0.000561471795663238,-0.00209194887429476,0,
00:00:06.208,-0.00691717583686113,-0.0081361960619688,-0.0177255067974329,0,
00:00:06.212,-0.00263939891010523,-0.00102688674814999,-0.00647308025509119,0,
00:00:06.216,-0.000936110387556255,-0.00195806194096804,0.00589319691061974,0,
00:00:06.22,-0.00620410544797778,-0.00440803961828351,0.0228546261787415,0,
00:00:06.224,0.00446758279576898,0.00729950703680515,0.010397027246654,0,
00:00:06.228,0.00566265592351556,0.00506785372272134,-0.0153326531872153,0,
00:00:06.232,0.00901885330677032,0.00412455108016729,-0.0209953933954239,0,
00:00:06.236,-0.00217310828156769,-0.00704799080267549,-0.00549030117690563,0,
00:00:06.24,-0.0172197856009007,-0.0169537421315908,0.0202840827405453,0,
00:00:06.244,-0.00420167483389378,0.00779794342815876,0.0040406696498394,0,
00:00:06.248,0.00776585098356009,0.00170085567515343,0.0046750707551837,0,
00:00:06.252,0.00838304124772549,0.0079213809221983,-0.0082567511126399,0,
00:00:06.256,0.00600026268512011,0.00274538923986256,-0.00427520694211125,0,
00:00:06.26,0.00555651402100921,0.0120959356427193,-0.00287894252687693,0,
00:00:06.264,-0.00866310764104128,-0.00336604937911034,0.00527967466041446,0,
00:00:06.268,-0.0119337346404791,-0.0197649914771318,-0.0089741637930274,0,
00:00:06.272,-0.00700767524540424,-0.0127294594421983,0.00756774004548788,0,
00:00:06.276,0.00219062808901072,0.00817716401070356,0.0178583189845085,0,
