Elapsed Time,EMG1,EMG2,EMG3,BioRadio Event,Unnamed: 5
00:00:00,0.925797939300537,-2.5262243747711204,3.09291243553162,0,
00:00:00.004,-0.8892968893051151,2.4081189632415803,-2.9473819732666002,0,
00:00:00.008,-0.7244498729705809,1.9881882667541497,-2.45099639892578,0,
00:00:00.012,-0.0599362961947918,0.232628136873245,-0.25260192155838,0,
00:00:00.016,0.36886763572692893,-1.03486382961273,1.2605217695236202,0,
00:00:00.02,0.449453592300415,-1.2806648015976,1.54462587833405,0,
00:00:00.024,0.24411571025848397,-0.755582988262177,0.919753074645996,0,
00:00:00.028,0.0434855557978153,-0.06258624792099,0.10643625259399402,0,
00:00:00.032,-0.0927237719297409,0.383118331432343,-0.46243479847908003,0,
00:00:00.036,-0.169341146945953,0.462958157062531,-0.5730574727058411,0,
00:00:00.04,-0.151387169957161,0.33889219164848305,-0.43262830376625105,0,
00:00:00.044,-0.0640329271554947,0.17028169333934803,-0.18582990765571603,0,
00:00:00.048,0.0024592641275376103,-0.0611365810036659,0.053575549274683,0,
00:00:00.052,0.0745630040764809,-0.16407757997512804,0.170275658369064,0,
00:00:00.056,0.0806738510727882,-0.126582458615303,0.176215633749962,0,
00:00:00.06,0.0009149278048425911,-0.052263006567954996,0.0784495696425438,0,
00:00:00.064,-0.0430254116654396,-0.0212330240756273,0.0204417239874601,0,
00:00:00.068,0.00915295910090208,0.0625090673565865,-0.0494318120181561,0,
00:00:00.072,0.0258117578923702,0.0619703233242035,-0.0467569977045059,0,
00:00:00.076,-0.0351344421505928,-0.0124506019055843,-0.0343581214547157,0,
00:00:00.08,-0.0236504841595888,-0.009054595604538921,-0.029783409088849997,0,
00:00:00.084,0.0207250043749809,0.00935252010822296,-0.00289386115036905,0,
00:00:00.088,0.0177585761994123,0.00755323469638824,0.028200713917612998,0,
00:00:00.092,-0.0177487749606371,-0.00304694334045053,0.0194072835147381,0,
00:00:00.096,0.00216088793240488,-0.0282489228993654,0.0123053202405572,0,
00:00:00.1,0.00884191412478685,-0.00398335140198469,0.00983275100588799,0,
00:00:00.104,-1.8195518350694298e-05,0.0176567435264587,-0.00973287783563137,0,
00:00:00.108,0.00431199418380857,-0.00310676149092615,-0.0288982111960649,0,
00:00:00.112,-0.0031821196898818,-0.0112955681979656,0.00631968956440687,0,
00:00:00.116,0.00719502614811063,0.0239092167466879,0.0115921972319484,0,
00:00:00.12,-0.0299949701875448,-0.00555288791656494,-0.00507204094901681,0,
00:00:00.124,0.00528033170849085,-0.00779310939833522,0.00191958795767277,0,
00:00:00.128,0.0160631537437439,-7.16583308530971e-05,0.00698124617338181,0,
00:00:00.132,0.0049890745431184795,0.00671326881274581,-0.0300184171646833,0,
00:00:00.136,-0.009208211675286291,0.0126685332506895,0.008777733892202379,0,
00:00:00.14,-0.00995038542896509,-0.0228081494569778,0.0265828967094421,0,
00:00:00.144,0.00251723849214613,-0.0232750587165356,0.00349976145662367,0,
00:00:00.148,0.0114693781360984,0.0220415908843279,-0.00398507108911872,0,
00:00:00.152,0.003981447778642179,0.0352908670902252,-0.017798725515604002,0,
00:00:00.156,0.00276598217897117,0.00195534434169531,-0.0153508158400655,0,
00:00:00.16,0.0111270407214761,-0.02407556027174,0.0122884344309568,0,
00:00:00.164,-0.018060864880681,-0.0240554884076118,0.00890610367059708,0,
00:00:00.168,-0.0516979172825813,-0.0122018661350012,0.00670101027935743,0,
00:00:00.172,0.0519521832466125,0.0147461099550128,0.00273221172392368,0,
00:00:00.176,0.00336968363262713,0.0079664709046483,0.00275672622956336,0,
00:00:00.18,-0.0147624844685197,0.0035375198349356703,-0.0181484874337912,0,
00:00:00.184,0.0172387938946486,0.0223246440291405,-0.011936254799366003,0,
00:00:00.188,-0.00397673109546304,0.0352027267217636,0.00662109581753612,0,
00:00:00.192,-0.00414762366563082,-0.0212595369666815,0.0251350924372673,0,
00:00:00.196,0.00595745304599404,-0.0457147769629955,-0.0050216787494719,0,
00:00:00.2,-0.00837289914488792,-0.0485641360282898,-0.022842314094305,0,
00:00:00.204,-0.012162946164608,0.00911561772227287,-6.437254342017701e-05,0,
00:00:00.208,0.00816875975579023,0.0979811027646065,0.0346998199820518,0,
00:00:00.212,0.0214197169989347,0.0315409786999226,-0.0062116044573485895,0,
00:00:00.216,-0.000341092381859198,-0.083642415702343,-0.0217814296483994,0,
00:00:00.22,-0.0259286910295486,-0.0522472225129604,-0.00601752335205674,0,
00:00:00.224,-0.00566330691799521,0.0214411169290543,0.00175471813417971,0,
00:00:00.228,0.00815759599208832,0.0373370796442032,0.008831529878079891,0,
00:00:00.232,-0.0138599537312984,0.0258069336414337,0.0047153695486486,0,
00:00:00.236,0.0261444244533777,-0.0109297828748822,0.0038616282399743795,0,
00:00:00.24,0.0280879177153111,0.0228962488472462,-0.000322820560541004,0,
00:00:00.244,-0.0108391819521785,-0.00695185316726565,-0.00524700386449695,0,
00:00:00.248,-0.0246681794524193,-0.0579814054071903,0.000550318625755608,0,
00:00:00.252,-0.0141081102192402,-0.0160342939198017,-0.00450042262673378,0,
00:00:00.256,0.00435487134382129,0.0343536548316479,0.0023110709153115697,0,
00:00:00.26,0.0108032124117017,0.0284649040549994,-0.00453769927844405,0,
00:00:00.264,-0.00613659992814064,-0.0140271075069904,0.00776408473029733,0,
00:00:00.268,-0.00436861254274845,-0.0231073088943958,0.00175291614141315,0,
00:00:00.272,0.0247635319828987,-0.00167382345534861,0.00204232288524508,0,
00:00:00.276,0.00895607005804777,0.0347853116691113,-0.00690301368013024,0,
00:00:00.28,-0.000812737329397351,0.0331945419311523,-0.0134008890017867,0,
00:00:00.284,-0.0272696483880281,-0.0150962360203266,-0.00299037294462323,0,
00:00:00.288,-0.0257060583680868,-0.0459404401481152,0.0253406539559364,0,
00:00:00.292,0.0227385703474283,-0.0345290564000607,0.0125506380572915,0,
00:00:00.296,0.0332529619336128,0.012230783700943,-0.0153112001717091,0,
00:00:00.3,-0.0172720737755299,0.04016038402915,-0.0218029767274857,0,
00:00:00.304,-0.023553803563117995,0.0138610396534204,0.00455254735425115,0,
00:00:00.308,0.00451240269467235,-0.00032057054340839397,0.0254701562225819,0,
00:00:00.312,0.0202006492763758,-0.0109036462381482,-0.0106950290501118,0,
00:00:00.316,0.00238252989947796,-0.00580856809392571,-0.000111688517790753,0,
00:00:00.32,-0.00285905972123146,-0.0104983607307076,-0.0027170418761670602,0,
00:00:00.324,-0.0074876728467643296,-0.000613869342487305,-0.00670311693102121,0,
00:00:00.328,-0.0170951262116432,-0.00163701176643372,0.00297341751866043,0,
00:00:00.332,0.0115106021985412,-0.0013689729385078,0.00387054355815053,0,
00:00:00.336,0.0225965082645416,0.0239465236663818,-0.00866234116256237,0,
00:00:00.34,-0.00598543602973223,0.0026303278282284698,0.0136248441413045,0,
00:00:00.344,-0.0135600920766592,0.0102467266842723,0.00290878629311919,0,
00:00:00.348,-0.00681518437340856,0.00807669293135405,-0.0160442404448986,0,
00:00:00.352,0.0012800444383174198,-0.0532419607043266,0.00886724516749382,0,
00:00:00.356,0.00742813432589173,-0.0332338251173496,0.0108314557000995,0,
00:00:00.36,0.0176144354045391,0.0141967181116343,-0.0257631745189428,0,
00:00:00.364,-0.0192921031266451,0.053795225918293,0.0152080664411187,0,
00:00:00.368,-0.00196717376820743,0.0442962273955345,0.0194847360253334,0,
00:00:00.372,0.00901821162551641,-0.0343743786215782,-0.0262882374227047,0,
00:00:00.376,-0.0119246644899249,-0.0411978401243687,-0.0163216535001993,0,
00:00:00.38,-0.0109739154577255,-0.0225647818297148,0.015772458165884,0,
00:00:00.384,0.0171779133379459,0.0425943173468113,0.0143251204863191,0,
00:00:00.388,0.0386535562574863,0.0284487884491682,-0.00486348476260901,0,
00:00:00.392,-0.0217498689889908,-0.0324058830738068,0.00512924836948514,0,
00:00:00.396,-0.0406605303287506,-0.0119012538343668,-0.0129197556525469,0,
00:00:00.4,-0.0110965836793184,0.00213812408037484,-0.00423942878842354,0,
00:00:00.404,0.0300499070435762,0.0013490258716046801,0.0156135950237513,0,
00:00:00.408,0.0302076395601034,0.0124626029282808,-0.00213012751191854,0,
00:00:00.412,0.0177339464426041,0.0034502581693232103,-0.005675136577337979,0,
00:00:00.416,-0.0337762385606766,-0.000581511470954865,0.0009217107435688381,0,
00:00:00.42,-0.0344275943934917,0.00617935787886381,-0.0100643141195178,0,
00:00:00.424,0.00158526678569615,-0.0038946981076151102,-0.00779122160747647,0,
00:00:00.428,0.01298304554075,-0.020268265157938,0.0268788803368807,0,
00:00:00.432,0.00118483416736126,-0.00867486372590065,0.0157450735569,0,
00:00:00.436,0.0299560073763132,0.0426843240857124,-0.0199481174349785,0,
00:00:00.44,0.0193105135113001,0.0071103363297879705,-0.0208184719085693,0,
00:00:00.444,-0.0288542229682207,-0.0308051872998476,0.0111789712682366,0,
00:00:00.448,-0.03194809705019,-0.0271262135356665,0.00619654590263963,0,
00:00:00.452,0.000941442558541894,-0.000961715006269515,-0.0008009207667782901,0,
00:00:00.456,0.0148926768451929,0.0187996346503496,-0.00986816640943289,0,
00:00:00.46,0.007574223447591071,0.0189606063067913,0.0178500730544329,0,
00:00:00.464,0.00133257126435637,0.0132607659325004,-0.0006738682859577241,0,
00:00:00.468,0.00445975363254547,0.0133054815232754,-0.0211143437772989,0,
00:00:00.472,0.0106463246047497,-0.0263242200016975,0.0189238265156746,0,
00:00:00.476,-0.0050427746027708106,-0.0248820818960667,0.00212149554863572,0,
00:00:00.48,-0.0349269472062588,0.008255576714873309,-0.0220305845141411,0,
00:00:00.484,0.00153242866508663,0.0071764662861824,0.00384068908169866,0,
00:00:00.488,0.0143764531239867,-0.0185828916728497,0.0206257682293653,0,
00:00:00.492,0.0186440609395504,0.0061963070183992395,-0.0030987779609859,0,
00:00:00.496,-0.00324750319123268,0.00785486493259668,-0.00106561556458473,0,
00:00:00.5,-0.00295847561210394,0.0244808569550514,-0.007827973924577241,0,
00:00:00.504,0.00431271782144904,0.0159895941615105,-0.0129854315891862,0,
00:00:00.508,-0.015622372739017001,-0.017384359613061,0.0143775660544634,0,
00:00:00.512,-0.010694389231503001,-0.0386358574032784,0.0037913394626229997,0,
00:00:00.516,0.0230854265391827,-0.00877507030963898,-0.00085862452397123,0,
00:00:00.52,-0.0143073638901114,0.0291733015328646,6.6317297751084e-05,0,
00:00:00.524,0.009046662598848341,0.037600290030241,-0.00136106566060334,0,
00:00:00.528,-0.0145261948928237,-0.0345351547002792,-0.0082327714189887,0,
00:00:00.532,0.0203034598380327,-0.0309044718742371,0.000338236859533936,0,
00:00:00.536,0.0108811631798744,0.015501300804317,0.0106305992230773,0,
00:00:00.54,-0.0214355140924454,0.0172594636678696,0.00243560317903757,0,
00:00:00.544,-0.00048294971929863095,0.0058528622612357105,-0.0028625619597733,0,
00:00:00.548,0.000739255454391241,-0.00360089959576726,-0.0124551495537162,0,
00:00:00.552,0.00288095348514616,-0.0336776524782181,0.0010228272294625599,0,
00:00:00.556,-0.0116974757984281,0.0250607095658779,0.0141712473705411,0,
00:00:00.56,-0.00163999188225716,0.0537269935011864,0.0011697802692651699,0,
00:00:00.564,0.0224175006151199,-0.00557030085474253,-0.0108849257230759,0,
00:00:00.568,0.00619599316269159,-0.0531081147491932,0.005184371955692771,0,
00:00:00.572,-0.00342989666387439,-0.0452584959566593,-0.00557171320542693,0,
00:00:00.576,-0.00898428913205862,0.00820371229201555,-0.0026472723111510303,0,
00:00:00.58,-0.022644879296422,0.0323553457856178,0.00410169782117009,0,
00:00:00.584,0.00610171724110842,0.0227483008056879,0.00615961290895939,0,
00:00:00.588,0.0123394662514329,-0.00476708170026541,0.0058010071516037,0,
00:00:00.592,0.0120333041995764,0.0473015643656254,-0.0125102456659079,0,
00:00:00.596,-0.00485203228890896,0.00296716415323317,-0.00504558486863971,0,
00:00:00.6,-0.0045682121999561795,-0.0649333149194717,0.0019032198470085898,0,
00:00:00.604,-0.0113126505166292,-0.0530926547944546,0.0109421545639634,0,
00:00:00.608,0.0109966136515141,0.000704111473169178,0.004153342451900239,0,
00:00:00.612,0.00306141329929233,0.0459546707570553,-0.0136434165760875,0,
00:00:00.616,-0.007701887749135491,0.0764513835310936,-0.016906812787056,0,
00:00:00.62,0.0343460328876972,-0.0014492389746010301,0.0192904304713011,0,
00:00:00.624,-0.0307568777352571,-0.0746991485357285,0.0365975014865398,0,
00:00:00.628,-0.0413553491234779,-0.0197730362415314,-0.0155860744416714,0,
00:00:00.632,0.014353851787746,0.00699608214199543,-0.0218136683106422,0,
00:00:00.636,0.0333905480802059,0.0319314897060394,-0.0189425479620695,0,
00:00:00.64,0.0198796615004539,0.0199031010270119,-0.00941273011267185,0,
00:00:00.644,-0.0082516660913825,-0.020342705771327,0.0234252009540796,0,
00:00:00.648,-0.0126745337620378,-0.0065209805034101,0.0222346317023039,0,
00:00:00.652,0.00246888282708824,0.0250986870378256,-0.0024694222956895802,0,
00:00:00.656,-0.0201130006462336,-0.009085808880627159,-0.00360790942795575,0,
00:00:00.66,-0.00890984106808901,-0.0257456656545401,0.001091442652978,0,
00:00:00.664,0.007863246835768221,-0.0134304948151112,-0.00843402557075024,0,
00:00:00.668,0.0123031744733453,0.00118980661500245,-0.00517797749489546,0,
00:00:00.672,0.00432064244523644,0.0165283940732479,-0.0145015949383378,0,
00:00:00.676,0.0205014850944281,0.0266227442771196,-0.00615331251174212,0,
00:00:00.68,-0.00511443708091974,-0.0022692952770739802,0.0319213606417179,0,
00:00:00.684,-0.0298689398914576,-0.0139208612963557,0.0286918096244335,0,
00:00:00.688,-0.00515475450083613,-0.00360585656017065,-0.0216071829199791,0,
00:00:00.692,0.00453934585675597,0.0212748572230339,-0.0277260113507509,0,
00:00:00.696,0.00647404370829463,-0.006040051113814121,-0.0132822887971997,0,
00:00:00.7,0.0131038939580321,-0.0359381586313248,0.0177039764821529,0,
00:00:00.704,0.00669401837512851,0.00237299711443484,0.0148940337821841,0,
00:00:00.708,-0.0038789848331362,0.01162925735116,0.0202212426811457,0,
00:00:00.712,-0.0254045967012644,0.00665712496265769,0.0026056533679366103,0,
00:00:00.716,0.018815366551279997,0.0278678331524134,-0.0454169511795044,0,
00:00:00.72,-0.009919736534357071,-0.0273453705012798,-0.0154695250093937,0,
00:00:00.724,-0.0162183623760939,-0.0268593858927488,0.0243514813482761,0,
00:00:00.728,0.0238734092563391,0.0453348942101002,0.0175844859331846,0,
00:00:00.732,0.0228665433824062,0.0114024607464671,-0.008726336993277071,0,
00:00:00.736,-0.00851364992558956,-0.0401913821697235,-0.0021860885899514,0,
00:00:00.74,-0.0283605363219976,-0.0269559808075428,-0.00276310415938497,0,
00:00:00.744,-0.0131347710266709,0.0300625525414944,0.0079050250351429,0,
00:00:00.748,0.0322625711560249,0.0429900325834751,0.0124171478673816,0,
00:00:00.752,0.0276929866522551,0.00236232276074588,-0.007604476995766159,0,
00:00:00.756,-0.0382981225848198,-0.0327372774481773,-0.0194429643452168,0,
00:00:00.76,-0.0194499082863331,-0.0396555215120316,-0.0046916385181248205,0,
00:00:00.764,0.0128273228183389,-0.00398990651592612,0.0123869581148028,0,
00:00:00.768,-0.00472710747271776,0.0181802418082953,0.0156512279063463,0,
00:00:00.772,0.0146384118124843,0.0386294685304165,-0.0022437900770455603,0,
00:00:00.776,0.0160010997205973,-0.0020744102075696,-0.0168851856142282,0,
00:00:00.78,0.00250374642200768,-0.0025242364499718,-0.00946102663874626,0,
00:00:00.784,-0.00811422802507877,0.0223296843469143,0.00375081808306277,0,
00:00:00.788,-0.0127159850671887,-0.0185941401869059,0.0163437202572823,0,
00:00:00.792,0.00120398553553969,0.0104177771136165,-0.00144262018147856,0,
00:00:00.796,-0.00777737516909838,-0.0636113062500954,0.0292457789182663,0,
00:00:00.8,-0.0104233892634511,-0.0382792241871357,-0.00817322451621294,0,
00:00:00.804,0.0101199960336089,0.0410440787672997,-0.0427506677806377,0,
00:00:00.808,0.0108499499037862,0.0515382662415504,-0.00792829599231482,0,
00:00:00.812,0.0130608109757304,0.0125530725345016,0.0169628690928221,0,
00:00:00.816,-0.00262075196951628,-0.0050684856250882105,0.008672177791595459,0,
00:00:00.82,-0.0077362647280097,-0.0214150212705135,-0.0015972206601873,0,
00:00:00.824,-0.0022294898517429803,-0.00658656703308225,0.00752707896754146,0,
00:00:00.828,0.0017596681136637898,0.0182554256170988,0.00215414632111788,0,
00:00:00.832,-0.00630044331774116,-0.0018514386611059302,-0.0180697534233332,0,
00:00:00.836,-0.0023419938515871802,0.007994229905307291,0.00870972406119108,0,
00:00:00.84,-0.010204866528510999,-0.0460190251469612,0.0455885492265224,0,
00:00:00.844,-0.0009937812574207778,-0.0339616946876049,-0.020111445337534,0,
00:00:00.848,-0.000849541334901005,0.0216890275478363,-0.0308592729270458,0,
00:00:00.852,0.04223255813121799,0.0429329052567482,-0.0186327435076237,0,
00:00:00.856,0.0222148839384317,0.0420143008232117,-0.00307018379680812,0,
00:00:00.86,-0.0307365376502275,-0.0151602458208799,0.00860711093991995,0,
00:00:00.864,-0.0416583977639675,-0.0403350777924061,0.0293761901557446,0,
00:00:00.868,-0.0210536979138851,-0.0357831306755543,0.007008888293057679,0,
00:00:00.872,0.0356857068836689,0.0354906283318996,-0.0014721457846462698,0,
00:00:00.876,0.0231294147670269,0.0633730590343475,-0.008603149093687529,0,
00:00:00.88,0.0121807036921382,-0.0142859341576695,-0.00499239284545183,0,
00:00:00.884,-0.00563626084476709,-0.0429250821471214,-0.0109864976257086,0,
00:00:00.888,-0.0143539346754551,-0.0333099439740181,-0.0073926849290728595,0,
00:00:00.892,-0.0249914526939392,-0.0190749205648899,0.0251518376171589,0,
00:00:00.896,0.000367206230293959,0.00925370864570141,0.0260610673576593,0,
00:00:00.9,0.007231257390230891,0.0419796593487263,-0.0138847967609763,0,
00:00:00.904,0.008926659822463991,0.0418026335537434,-0.0267262551933527,0,
00:00:00.908,0.00231776782311499,0.0035325814969837705,-0.0141696762293577,0,
00:00:00.912,0.0292046424001455,-0.00699064135551453,0.0038274007383734,0,
00:00:00.916,-0.00483878841623664,-0.039312869310378994,-0.00175203662365675,0,
00:00:00.92,-0.0215467996895313,-0.0247264336794615,0.0150067750364542,0,
00:00:00.924,-0.0106028895825148,-0.00286057055927813,0.018069464713335,0,
00:00:00.928,-0.010423868894577,0.0222964640706778,-0.0008038397063501179,0,
00:00:00.932,0.00893928669393063,0.0243156384676695,-0.00012047385826008401,0,
00:00:00.936,0.032050896435976,-0.0026941851247102,-0.0115134669467807,0,
00:00:00.94,-0.0219203904271126,-0.0117228254675865,-0.00768857868388295,0,
00:00:00.944,-0.0166857857257128,-0.0154160307720304,0.0137708000838757,0,
00:00:00.948,0.0093365553766489,0.00961223430931568,0.000163540375069715,0,
00:00:00.952,0.00565114105120301,-0.0126294586807489,-0.0149971600621939,0,
00:00:00.956,-0.00748618086799979,0.00818115379661322,-0.00470359157770872,0,
00:00:00.96,0.0377299264073372,0.0557973273098469,-0.00238066585734487,0,
00:00:00.964,0.0050074295140802895,0.0133514134213328,0.0148641299456358,0,
00:00:00.968,-0.0305466204881668,-0.0486714132130146,0.00614170543849468,0,
00:00:00.972,-0.0246807299554348,-0.0671775043010712,0.0130216609686613,0,
00:00:00.976,0.00257837679237127,0.00910577457398176,-0.0121342428028584,0,
00:00:00.98,0.00957162957638502,0.0278101321309805,-0.0107023743912578,0,
00:00:00.984,0.0120235504582524,0.0147997662425041,-0.010951891541480999,0,
00:00:00.988,-0.0043387487530708296,0.00752084562554955,-0.00147665850818157,0,
00:00:00.992,0.00102678826078773,0.0170114934444427,0.0082943569868803,0,
00:00:00.996,-0.002516177482903,0.006078763399273161,0.0167014673352242,0,
00:00:01,0.0336438305675983,0.0120410919189453,0.0233730915933847,0,
00:00:01.004,0.0105756679549813,-0.0406357049942017,-0.0156387370079756,0,
00:00:01.008,-0.0424055531620979,-0.0364739485085011,-0.0298943687230349,0,
00:00:01.012,-0.0547764673829079,0.0025228448212146802,-0.0101161515340209,0,
00:00:01.016,0.0112582836300135,0.0493432991206646,0.0107198683544993,0,
00:00:01.02,0.0540872551500797,0.00681533338502049,0.0130317369475961,0,
00:00:01.024,0.0195689313113689,-0.0182479042559862,0.0071232356131076795,0,
00:00:01.028,-0.0102978181093931,-0.0116553353145719,-0.00591805158182979,0,
00:00:01.032,0.0065353377722203706,0.0106448074802756,-0.00815390888601542,0,
00:00:01.036,-0.0175792444497347,0.00318670412525535,-0.00609672628343105,0,
00:00:01.04,-0.0213161669671535,0.0196452885866165,0.0343247763812542,0,
00:00:01.044,0.00556170661002398,-0.0159618258476257,0.00121083518024534,0,
00:00:01.048,-0.0241605192422867,-0.0532563924789429,0.00406551314517856,0,
00:00:01.052,0.0213883444666862,0.0245183072984219,-0.0451220609247684,0,
00:00:01.056,0.0352712906897068,0.0522785484790802,-0.0204569175839424,0,
00:00:01.06,-0.0116890985518694,-0.0108508979901671,0.0193135384470224,0,
00:00:01.064,-0.00671608094125986,-0.0341940298676491,0.0164889991283417,0,
00:00:01.068,-0.011038513854146002,-0.0040784892626106704,0.0109735578298569,0,
00:00:01.072,0.0008771375869400799,0.0060369875282049205,0.0016113246092572802,0,
00:00:01.076,0.00388114037923515,0.0194612741470337,-0.000324539403663948,0,
00:00:01.08,0.0151882525533438,0.021753940731287,-0.0034449717495590396,0,
00:00:01.084,-0.009185081347823141,0.00359890796244144,-0.0107947327196598,0,
00:00:01.088,-0.0065028849057853205,-0.0141102289780974,0.0128278313204646,0,
00:00:01.092,-0.00786427967250347,-0.0667404234409332,0.0123686026781797,0,
00:00:01.096,-0.00294010620564222,-0.006982377264648679,-0.0187376085668802,0,
00:00:01.1,0.00458319950848818,0.0472858585417271,-0.0289460737258196,0,
00:00:01.104,0.009506226517260071,0.0199180096387863,-0.00641492288559675,0,
00:00:01.108,0.0014632330276072,-0.00560129806399345,0.0321855321526527,0,
00:00:01.112,-0.00431057997047901,0.00428987946361303,0.0201983693987131,0,
00:00:01.116,0.009840262122452259,0.007703972049057479,0.0037213147152215203,0,
00:00:01.12,0.007231214549392459,0.00710158189758658,-0.0180808361619711,0,
00:00:01.124,-0.00480094086378813,0.00030037557007744903,-0.0198700819164515,0,
00:00:01.128,-0.0231886561959982,-0.042289562523365,0.00115434068720788,0,
00:00:01.132,-0.0073098661378026,-0.0286665856838226,0.0180964432656765,0,
00:00:01.136,0.0188748240470886,0.028846612200141005,-0.00313299335539341,0,
00:00:01.14,0.00762962270528078,0.020636523142457,0.00736370868980885,0,
00:00:01.144,-0.0238767173141241,0.00341800809837878,0.00164898531511426,0,
00:00:01.148,0.00674018915742636,0.00779363745823503,0.00989042781293392,0,
00:00:01.152,0.048811960965394995,-0.0298769902437925,-0.0201947391033173,0,
00:00:01.156,-0.0213731192052364,-0.007096396759152409,-0.0198224615305662,0,
00:00:01.16,-0.0484600141644478,0.0150020616129041,-0.00211565941572189,0,
00:00:01.164,0.0023136988747865,0.0152454059571028,0.00884412787854671,0,
00:00:01.168,0.0355532951653004,0.016510209068656,0.0112380106002092,0,
00:00:01.172,0.0210085455328226,-0.0064960289746522895,0.0180646553635597,0,
00:00:01.176,-0.0142561700195074,-0.0109279872849584,0.0027463345322758,0,
00:00:01.18,-0.00716937705874443,0.0233237631618977,-0.0117140579968691,0,
00:00:01.184,-0.0119609208777547,-0.0306878592818975,-0.006019598804414271,0,
00:00:01.188,-0.0148383537307382,-0.0616188272833824,-0.00344033446162939,0,
00:00:01.192,-0.00171880214475095,-0.00434363074600697,0.00904291961342096,0,
00:00:01.196,0.0195452086627483,0.0422202497720718,-0.00321698957122862,0,
00:00:01.2,0.0144848544150591,0.0544633120298386,-0.0209924168884754,0,
00:00:01.204,0.000509022560436279,0.0198350828140974,-0.000486269360408187,0,
00:00:01.208,-0.0121918125078082,-0.0260728802531958,0.0235806852579117,0,
00:00:01.212,-0.0067724552936852,-0.0279754884541035,0.0062113287858665,0,
00:00:01.216,0.00292138615623116,0.0177458245307207,-0.0158688146620989,0,
00:00:01.22,0.0109269544482231,-0.0119409086182714,0.00570566626265645,0,
00:00:01.224,0.0319905579090118,-0.0340839549899101,0.0073810275644064,0,
00:00:01.228,-0.0448282957077026,-0.0032707923091948,-0.0127752237021923,0,
00:00:01.232,-0.0512465015053749,0.0277894008904696,0.0124581418931484,0,
00:00:01.236,0.04892580583691599,0.0274726059287786,-0.00820109248161316,0,
00:00:01.24,0.0224665403366089,-0.00958461221307516,-0.0008933721110224721,0,
00:00:01.244,0.000594844983424991,-0.0169207863509655,-0.0105835841968656,0,
00:00:01.248,-0.007585071492940191,-0.0157775543630123,0.00304537871852517,0,
00:00:01.252,-0.0054966630414128295,0.0188655033707619,-0.00294917146675289,0,
00:00:01.256,-0.0018580206669867,0.0806348472833633,0.0175506565719843,0,
00:00:01.26,0.0065318625420332,-0.049905002117157,0.0285526625812054,0,
00:00:01.264,-0.0217883512377739,-0.0823666155338287,-0.0139100262895226,0,
00:00:01.268,-0.0013453691499307802,-0.0037426471244543795,-0.0420510694384575,0,
00:00:01.272,0.0198955070227385,0.0258687678724527,-0.007275774143636229,0,
00:00:01.276,0.00871729850769043,0.0435228012502193,0.0250682290643454,0,
00:00:01.28,-0.0169703550636768,0.0265912804752588,0.00669415248557925,0,
00:00:01.284,-0.00186070625204593,-0.0257144365459681,0.0026746797375381,0,
00:00:01.288,0.0108874058350921,-0.0108035784214735,-0.00495994882658124,0,
00:00:01.292,0.00507520465180278,0.0216234363615513,-0.0048462301492691,0,
00:00:01.296,-0.00265012704767287,-0.011324848048389,-0.00165632576681674,0,
00:00:01.3,0.0126698352396488,-0.0037413768004626,0.0137545224279165,0,
00:00:01.304,-0.037205345928669,-0.0141313690692186,0.0114802988246083,0,
00:00:01.308,-0.0254843812435865,-0.0482946783304214,-0.0107776373624802,0,
00:00:01.312,0.0390392355620861,0.00246809609234333,-0.00110421516001225,0,
00:00:01.316,0.0234729200601578,0.0398484244942665,-0.0271348301321268,0,
00:00:01.32,-0.00357260718010366,0.0286980718374252,-0.0095234327018261,0,
00:00:01.324,-0.0145727600902319,0.008213801309466359,0.026872456073761,0,
00:00:01.328,0.00863666832447052,0.0384147949516773,-0.000394945149309933,0,
00:00:01.332,0.00128088786732405,0.0226460266858339,0.0018653676379472,0,
00:00:01.336,-0.0200634356588125,-0.0964440703392029,0.00399497291073203,0,
00:00:01.34,-0.0119467591866851,-0.0691359788179398,0.0133547512814403,0,
00:00:01.344,0.0144215850159526,0.0050808172672987,-0.007551453541964291,0,
00:00:01.348,0.006616450380533929,0.0468427501618862,-0.0060480572283268,0,
00:00:01.352,0.009346898645162579,0.0514270886778831,0.00936680193990469,0,
00:00:01.356,0.00113522075116634,0.0176175311207771,-0.0188565887510777,0,
00:00:01.36,-0.0074601131491363,-0.0205716341733933,-0.0180996470153332,0,
00:00:01.364,-0.0192330833524466,-0.0239099878817797,0.0120072839781642,0,
00:00:01.368,0.00513711199164391,-0.0144547494128346,0.0108070550486445,0,
00:00:01.372,0.00882277823984623,-0.00606370298191905,0.0111770136281848,0,
00:00:01.376,0.00699937203899026,0.0231118090450764,-0.005988785531371829,0,
00:00:01.38,0.0170946009457111,0.0607275664806366,-0.00522051891312003,0,
00:00:01.384,0.0179730914533138,0.000106336330645718,0.00143129762727767,0,
00:00:01.388,-0.0567787662148476,-0.0844441577792168,0.008465058170259,0,
00:00:01.392,-0.0456197895109653,-0.0581220202147961,0.00725594395771623,0,
00:00:01.396,0.0457723885774612,0.016103059053421003,-0.0155266784131527,0,
00:00:01.4,0.0313516892492771,0.0490378849208355,0.0069334218278527295,0,
00:00:01.404,0.0243519227951765,0.100782431662083,-0.019063102081418,0,
00:00:01.408,-0.0262369569391012,-0.023456884548067995,-0.0130283068865538,0,
00:00:01.412,-0.0178178008645773,-0.0479637049138546,0.0034379039425402897,0,
00:00:01.416,-0.00231045600958169,-0.0345416963100433,0.0214361418038607,0,
00:00:01.42,0.00434832228347659,-0.00781353749334812,0.0174394994974136,0,
00:00:01.424,-0.009778694249689579,0.0214764066040516,0.00272351433522999,0,
00:00:01.428,0.00571164023131132,-0.007995043881237509,-0.0164485387504101,0,
00:00:01.432,0.0292649418115616,-0.00352681940421462,-0.0112803597003222,0,
00:00:01.436,-0.0127675700932741,0.0149548323825002,0.0215530544519424,0,
00:00:01.44,-0.0307047199457884,0.0114391408860683,-0.00227373465895653,0,
00:00:01.444,0.009750824421644209,0.00871200952678919,-0.019877165555953997,0,
00:00:01.448,0.0107870688661933,0.00271552545018494,-0.00987605843693018,0,
00:00:01.452,0.0170821491628885,0.0193315725773573,0.00138332997448742,0,
00:00:01.456,0.00811415631324053,-0.0036837854422628897,0.00992146600037813,0,
00:00:01.46,-0.0388211235404015,-0.0400971546769142,0.0126653015613556,0,
00:00:01.464,-0.0160952676087618,-0.0481271743774414,0.0121289640665054,0,
00:00:01.468,0.0260239392518997,0.00305144372396171,-0.0116588659584522,0,
00:00:01.472,0.0182951837778091,0.0287137124687433,-0.0044050645083189,0,
00:00:01.476,-0.005481666419655079,0.0270476546138525,0.00781755335628986,0,
00:00:01.48,0.0086938813328743,0.048608809709549006,-0.0156538113951683,0,
00:00:01.484,-0.017253465950489,-0.00706063956022263,-0.00270774168893695,0,
00:00:01.488,-0.00823366269469261,-0.0409407056868076,-0.00323120690882206,0,
00:00:01.492,0.00582942785695195,0.0051288721151649995,-0.000378839409677312,0,
00:00:01.496,-0.00622102757915854,-0.0173497255891562,0.009269397705793379,0,
00:00:01.5,0.0117897428572178,-0.0449525751173496,0.0237408019602299,0,
00:00:01.504,-0.00856547709554434,0.00739981979131699,0.00262644630856812,0,
00:00:01.508,-0.019985506311058998,0.0235026553273201,-0.0227397195994854,0,
00:00:01.512,0.0367760173976421,0.0348382517695427,-0.0195316672325134,0,
00:00:01.516,0.0312340836971998,0.0460122860968113,0.0070292931050062206,0,
00:00:01.52,-0.0327938199043274,-0.0126958675682545,0.0114757958799601,0,
00:00:01.524,-0.037248395383358,-0.045071329921484,0.00657565565779805,0,
00:00:01.528,0.030681012198329,-0.0375264957547188,-0.00789759308099747,0,
00:00:01.532,-0.0124896308407187,-0.007774256169795991,0.0171292014420033,0,
00:00:01.536,-0.0155835514888167,0.0486581213772297,-0.00900643970817328,0,
00:00:01.54,0.0386749245226383,0.0552741065621376,-0.0176025256514549,0,
00:00:01.544,0.00485206069424748,-0.0377336256206036,-0.000874900491908193,0,
00:00:01.548,-0.0157944783568382,-0.0590452365577221,0.00471911486238241,0,
00:00:01.552,-0.00690114591270685,-0.0104578118771315,0.00491838390007615,0,
00:00:01.556,-0.00502454163506627,0.0173116289079189,0.0175470113754272,0,
00:00:01.56,-0.000200070033315569,0.0321735590696335,-0.000444466015323997,0,
00:00:01.564,0.0221306420862675,0.0398396961390972,-0.0133951138705015,0,
00:00:01.568,0.00116253073792905,-0.00216678297147155,-0.0135380467399955,0,
00:00:01.572,-0.0295703690499067,-0.036238320171833004,0.0108875324949622,0,
00:00:01.576,0.0023722555488348,-0.0121674071997404,-0.0067775771021843,0,
00:00:01.58,0.0282561164349318,-0.00248597329482436,0.00290266959927976,0,
00:00:01.584,-0.0009163239737972619,0.0037789724301546795,0.0183513015508652,0,
00:00:01.588,-0.0149562302976847,0.00549529958516359,-0.0118561461567879,0,
00:00:01.592,-0.00300069991499186,-0.0126526663079858,0.0011244630441069599,0,
00:00:01.596,-0.0100233405828476,-0.0057695088908076295,-0.00132342544384301,0,
00:00:01.6,0.00247411383315921,0.0069842715747654395,-0.00402047485113144,0,
00:00:01.604,0.0148472674190998,0.0101576093584299,0.00079455622471869,0,
00:00:01.608,0.0142571935430169,0.0300044436007738,-0.00253005302511156,0,
00:00:01.612,-0.0280978754162788,0.0219921804964542,0.0069887787103653,0,
00:00:01.616,0.0146598182618618,-0.0197912957519293,-0.00478265294805169,0,
00:00:01.62,0.0224789287894964,-0.0277694631367922,0.00223230151459575,0,
00:00:01.624,-0.0380293019115925,-0.0507663264870644,0.00672803772613406,0,
00:00:01.628,-0.00656836573034525,-0.0131037021055818,0.00915939174592495,0,
00:00:01.632,-0.00455864379182458,0.028855312615633,-0.0182382669299841,0,
00:00:01.636,0.0177868697792292,0.0575552880764008,-0.0160459987819195,0,
00:00:01.64,0.0405473969876766,0.0487280711531639,-0.007527301553636791,0,
00:00:01.644,-0.0105262976139784,-0.0067964754998683895,0.0401735417544842,0,
00:00:01.648,-0.04228436946868899,-0.0790408998727798,0.007121913600713009,0,
00:00:01.652,0.00782297272235155,-0.0586438477039337,-0.0050574359484016895,0,
00:00:01.656,0.0014481407124549198,0.007488918956369159,-0.0201129987835884,0,
00:00:01.66,0.000450630235718563,0.0810818895697594,-0.00669290311634541,0,
00:00:01.664,0.00579338707029819,0.0151043981313705,0.00598448561504483,0,
00:00:01.668,-0.00339033058844507,-0.0487677380442619,-0.0029404447413981,0,
00:00:01.672,0.0199110265821218,0.0302267912775278,-0.000951614638324827,0,
00:00:01.676,-0.00454251188784838,0.0428611673414707,0.009030214510858059,0,
00:00:01.68,-0.0203313920646906,-0.0267034862190485,0.0067824539728462705,0,
00:00:01.684,0.0118061574175954,-0.0392187722027302,0.00313138356432319,0,
00:00:01.688,0.00148332177195698,-0.0348099134862423,0.00526495417580009,0,
00:00:01.692,-0.0111823389306664,-0.0131550617516041,-0.0157742332667112,0,
00:00:01.696,-0.00334404641762376,0.0328292138874531,-0.0134666375815868,0,
00:00:01.7,0.0112757328897715,0.0341154299676418,-0.00105240824632347,0,
00:00:01.704,0.0203113369643688,0.038996510207653,0.00961122941225767,0,
00:00:01.708,-0.0155941182747483,-0.0281861983239651,0.0090146716684103,0,
00:00:01.712,-0.026876637712121,-0.0407644212245941,0.0100167524069548,0,
00:00:01.716,0.0171355828642845,0.0712352469563484,-0.0112596144899726,0,
00:00:01.72,0.0261339992284775,0.00283640623092651,-0.00873988401144743,0,
00:00:01.724,-0.00323057384230196,-0.0975280702114105,0.0136370724067092,0,
00:00:01.728,-0.0440313592553139,-0.0318027511239052,-0.00553770083934069,0,
00:00:01.732,0.0211310312151909,0.0263648070394993,-0.012754806317389,0,
00:00:01.736,0.0208502970635891,0.0462749227881432,0.0104239014908671,0,
00:00:01.74,-0.0343872457742691,0.0341898202896118,0.00550275249406695,0,
00:00:01.744,0.000674163398798555,0.0075466735288500795,-0.00472276704385877,0,
00:00:01.748,0.018048832193017,-0.0210034791380167,-0.00374600337818265,0,
00:00:01.752,0.00607793219387531,-0.05287104845047,-0.012648263014853,0,
00:00:01.756,0.000869794515892863,0.0542568154633045,0.0035559481475502296,0,
00:00:01.76,0.0212270300835371,0.112209185957909,0.0448764935135841,0,
00:00:01.764,-0.009711978957057,-0.10795824229717302,0.00331996055319905,0,
00:00:01.768,-0.0300484746694565,-0.13552536070346802,-0.036116186529398,0,
00:00:01.772,-0.0147147411480546,-0.014727370813488997,-0.0288437213748693,0,
00:00:01.776,0.00857967883348465,0.0869820863008499,-0.00625565461814404,0,
00:00:01.78,0.009989043697714809,0.0719582885503769,0.0240686573088169,0,
00:00:01.784,0.0033303173258900603,0.0163530018180609,0.0326321199536324,0,
00:00:01.788,0.0178326610475779,0.00832727923989296,-0.0014159349957481,0,
00:00:01.792,-0.000283387373201549,-0.0201064832508564,-0.0142848147079349,0,
00:00:01.796,0.0010784593177959301,-0.0365971215069294,-0.0125929154455662,0,
00:00:01.8,-0.0128154214471579,-0.0439502075314522,-0.00281482329592109,0,
00:00:01.804,-0.0266557279974222,0.0207456294447184,0.0105885835364461,0,
00:00:01.808,0.0176258850842714,0.0933031365275383,-0.0163865257054567,0,
00:00:01.812,0.0210593268275261,-0.0302643086761236,0.0481010563671589,0,
00:00:01.816,0.00811199005693197,-0.10595326870679903,0.00036454535438679197,0,
00:00:01.82,-0.023550983518362004,-0.00591448647901416,-0.0335601568222046,0,
00:00:01.824,-0.0282677970826626,0.0515759103000164,-0.0337734520435333,0,
00:00:01.828,0.0160314310342073,0.0334726385772228,0.0011109628248959801,0,
00:00:01.832,0.0197393465787172,0.018185943365097,0.0215660966932774,0,
00:00:01.836,0.0064213294535875294,-0.00402135262265801,0.0180474761873484,0,
00:00:01.84,-0.0048604886978864704,-0.020257368683815,0.0108679253607988,0,
00:00:01.844,-0.00844909064471722,-0.0242669153958559,-0.00047723556053824696,0,
00:00:01.848,0.0023730392567813396,0.0318790189921856,-0.00556116690859199,0,
00:00:01.852,0.0074706096202135095,0.0303254649043083,-0.0106128454208374,0,
00:00:01.856,-0.00956920441240072,-0.0585828572511673,-0.00914976745843887,0,
00:00:01.86,-0.00755785079672933,-0.0190165787935257,-0.00971152819693089,0,
00:00:01.864,0.00975156202912331,0.0531853549182415,0.0101450486108661,0,
00:00:01.868,-0.007788551971316341,-0.0345601290464401,0.00799662433564663,0,
00:00:01.872,-0.00535532459616661,-0.0160788744688034,0.0452716797590256,0,
00:00:01.876,-0.0108333211392164,-0.0227267201989889,-0.004111389163881539,0,
00:00:01.88,0.0467192344367504,0.0361985862255096,-0.0557448156177998,0,
00:00:01.884,-0.0162108764052391,0.0560824014246464,-0.0328059121966362,0,
00:00:01.888,-0.00662908889353275,0.0242407377809286,0.0034586358815431604,0,
00:00:01.892,0.00444078724831343,-0.0285486094653606,0.0285820905119181,0,
00:00:01.896,0.00246978783980012,-0.03702547401189799,0.0338492058217525,0,
00:00:01.9,-0.00824786350131035,-0.0054530818015337,0.00919007603079081,0,
00:00:01.904,-0.00879300944507122,-0.028704309836029996,-0.0050034988671541205,0,
00:00:01.908,0.017208956182003004,-0.0137676512822509,-0.0127571504563093,0,
00:00:01.912,-0.0279854033142328,0.0460322350263596,-0.0162586942315102,0,
00:00:01.916,0.0027473687659949103,0.0646954476833344,0.0058244145475328,0,
00:00:01.92,0.0365054048597813,0.0075352881103754,-0.00896270759403706,0,
00:00:01.924,0.00819039437919855,-0.0866473168134689,-0.0131429331377149,0,
00:00:01.928,-0.0425474010407925,-0.0554732456803322,0.0211930405348539,0,
00:00:01.932,-0.015915485098957998,0.0101189566776156,0.0307775232940912,0,
00:00:01.936,0.0203782953321934,0.0624119974672794,0.00452924380078912,0,
00:00:01.94,0.0117770433425903,0.035697165876627,-0.0353223085403442,0,
00:00:01.944,0.0108780432492495,-0.00169603747781366,-0.02826838940382,0,
00:00:01.948,0.0207080766558647,-0.0009617093019187449,0.000415013695601374,0,
00:00:01.952,-0.0126009015366435,-0.0227251667529345,0.016377305611968002,0,
00:00:01.956,-0.030005719512701003,-0.0217456147074699,0.0153157720342278,0,
00:00:01.96,-0.0131061049178243,-0.00321786454878747,0.00940794870257378,0,
00:00:01.964,0.0013008605455979698,0.0137290833517909,0.00382243585772812,0,
00:00:01.968,0.00706071313470602,-0.00903389044106007,-0.00174624903593212,0,
00:00:01.972,0.0119909970089793,-0.00608127564191818,-0.00942431204020977,0,
00:00:01.976,0.0205289851874113,0.0257264524698257,-0.00810917560011148,0,
00:00:01.98,0.00456211064010859,0.007279071956872941,-0.00527446856722236,0,
00:00:01.984,-0.0158609505742788,-0.00282836332917213,0.007366057019680741,0,
00:00:01.988,-0.005650407169014221,0.0017300968756899199,0.00516863306984305,0,
00:00:01.992,-0.00225328514352441,-0.0325304605066776,0.00226468918845057,0,
00:00:01.996,-0.0362806841731071,-0.0210987403988838,-0.0171045139431953,0,
00:00:02,-0.00399889284744859,0.0412553027272224,-0.00499699451029301,0,
00:00:02.004,0.0845960676670074,0.03748794272542,0.0306615252047777,0,
00:00:02.008,0.0217863898724318,-0.00311505747959018,-0.0060203424654901,0,
00:00:02.012,-0.07631965726614,-0.0611253306269646,0.00634234584867954,0,
00:00:02.016,-0.0259517375379801,-0.0166923794895411,-0.0052416562102735,0,
00:00:02.02,0.0144322793930769,0.0440282560884953,-0.0228631943464279,0,
00:00:02.024,0.0251550488173962,0.00501359486952424,-0.0127415582537651,0,
00:00:02.028,0.00223577581346035,-0.015634935349226,0.0110729150474072,0,
00:00:02.032,0.0020202000159770302,0.00161438633222133,0.0206469520926476,0,
00:00:02.036,-0.0008798077469691631,0.0011673470726236699,0.0066371918655932,0,
00:00:02.04,-0.0112376036122441,-0.00102107936982065,0.00459206011146307,0,
00:00:02.044,0.00687278248369694,0.0177624244242907,-0.0130303800106049,0,
00:00:02.048,0.0130632147192955,0.0161322858184576,0.00261370255611837,0,
00:00:02.052,-0.0132584869861603,-0.00892505422234535,-0.00114039424806833,0,
00:00:02.056,-0.0111484667286277,-0.00905240420252085,-0.0158742554485798,0,
00:00:02.06,-0.005707241129130129,-0.0374884456396103,-0.0121250106021762,0,
00:00:02.064,0.013354497961699999,0.0179565735161304,0.0156183829531074,0,
00:00:02.068,0.0122076626867056,0.00235847476869822,0.0192202255129814,0,
00:00:02.072,-0.000511763035319746,-0.000335448072291911,0.00320813828147948,0,
00:00:02.076,-0.00402844557538629,0.0118797328323126,-0.0191624853760004,0,
00:00:02.08,-0.0161222964525223,-0.0129310004413128,0.00310925184749067,0,
00:00:02.084,-0.0047796550206839995,0.0133326472714543,0.0022015916183590898,0,
00:00:02.088,0.014742786064744001,0.0189504120498896,-0.00417811283841729,0,
00:00:02.092,0.00823586899787188,-0.0244051534682512,0.00272174715064466,0,
00:00:02.096,0.0150856021791697,-0.0125616164878011,5.3127332648728e-05,0,
00:00:02.1,-0.0323003195226192,-0.00922577828168869,0.0122947208583355,0,
00:00:02.104,-0.00433854898437858,0.0200108345597982,-0.0158250033855438,0,
00:00:02.108,0.0156551208347082,0.0243818368762732,-0.0159371141344309,0,
00:00:02.112,0.0044958842918276795,0.00959925074130297,0.0206441078335047,0,
00:00:02.116,-0.0104622384533286,-0.0166740491986275,0.03272958472371101,0,
00:00:02.12,-0.00028451604885049197,-0.0229378379881382,-0.0270320530980825,0,
00:00:02.124,0.007688003592193129,-0.022354407235980003,-0.0351284220814705,0,
00:00:02.128,0.0033424305729568,-0.0116272158920765,-0.0013549079885706301,0,
00:00:02.132,-0.0103095397353172,0.0244366470724344,0.0302354861050844,0,
00:00:02.136,0.00368817639537156,0.0424697771668434,0.0176698062568903,0,
00:00:02.14,0.00531211588531733,0.0316822938621044,-0.00554804317653179,0,
00:00:02.144,-0.0023424697574228,-0.0362624600529671,-0.00554225128144026,0,
00:00:02.148,-0.00618717866018415,-0.0465735681355,-0.00997229944914579,0,
00:00:02.152,-0.00884026847779751,-0.0114921163767576,-0.000281112879747525,0,
00:00:02.156,0.007360990624874829,0.0317687727510929,-0.00242114067077637,0,
00:00:02.16,0.008145438507199291,0.0296656955033541,0.00924317818135023,0,
00:00:02.164,0.00117702106945217,-0.0068306028842926,0.00165252911392599,0,
00:00:02.168,0.00471137743443251,-0.0131982574239373,-0.00926896277815104,0,
00:00:02.172,-0.00371928070671856,-0.0141084650531411,0.0021271884907037,0,
00:00:02.176,-0.00399287370964885,-0.0138422846794128,-0.00132895691785961,0,
00:00:02.18,-0.008176384493708609,0.00896071549504995,0.00664773164317012,0,
00:00:02.184,0.00160550000146031,0.0345485396683216,-0.00595958437770605,0,
00:00:02.188,-0.007120159920305009,-0.000374770199414343,-0.0070891999639570704,0,
00:00:02.192,-0.015110514126718,-0.0223522186279297,0.0225890465080738,0,
00:00:02.196,0.03638888522982601,0.0077414195984602,-0.000180597664439119,0,
00:00:02.2,0.0343132354319096,-0.00386318773962557,-0.0218268726021051,0,
00:00:02.204,-0.0242251958698034,-0.0313081741333008,0.0012157919118180901,0,
00:00:02.208,-0.026312455534935,0.0287880692631006,-0.00609216513112187,0,
00:00:02.212,-0.020436828956008,0.0461652204394341,0.0159701146185398,0,
00:00:02.216,0.0121869742870331,-0.0115058273077011,0.0311527885496616,0,
00:00:02.22,0.0182209294289351,-0.05288638919591901,-0.0286490023136139,0,
00:00:02.224,0.00857945531606674,-0.0195220038294792,-0.0301110595464706,0,
00:00:02.228,-0.0162129011005163,0.0028951137792319103,0.0133582120761275,0,
00:00:02.232,0.00307986908592284,0.0601421929895878,0.008559729903936391,0,
00:00:02.236,0.0114221256226301,0.00991467107087374,0.008431423455476759,0,
00:00:02.24,-0.00231814594008029,-0.031653668731451,0.011771185323596,0,
00:00:02.244,-0.00878616888076067,-0.0156656876206398,-0.0176150817424059,0,
00:00:02.248,-0.00727222627028823,0.0115173682570457,-0.0024739969521760897,0,
00:00:02.252,-0.00618359679356217,0.0035387119278311703,0.0126418964937329,0,
00:00:02.256,0.0190673992037773,0.0173866916447878,-0.0035626336466521,0,
00:00:02.26,0.0106250550597906,-0.0179500579833984,-0.0094397347420454,0,
00:00:02.264,-0.0172344371676445,-0.0114930970594287,-0.00463317334651947,0,
00:00:02.268,0.0044527272693812795,-0.000177756795892492,-0.000708402483724058,0,
00:00:02.272,0.0030743652023375,0.0148482695221901,0.00846844911575317,0,
00:00:02.276,-0.0313179455697536,-0.0111747309565544,-0.000336935190716758,0,
00:00:02.28,0.014819229952991002,-0.005271881353110079,0.00037481202161870897,0,
00:00:02.284,0.0400370322167873,0.0421816557645798,0.0018803223501890898,0,
00:00:02.288,-0.0179343782365322,-0.00799451768398285,0.0163130164146423,0,
00:00:02.292,-0.00965021923184395,-0.0157635193318129,-0.00914983171969652,0,
00:00:02.296,-0.000952387810684741,-0.00462470296770334,-0.0224563088268042,0,
00:00:02.3,-0.0180123709142208,-0.0192350763827562,0.0145056927576661,0,
00:00:02.304,-0.007118985056877141,-0.00895212776958942,-0.000507603865116835,0,
00:00:02.308,0.0378000177443028,0.0113950343802571,-0.00675797183066607,0,
00:00:02.312,0.0329814478754997,0.0295396838337183,-0.008980100974440571,0,
00:00:02.316,-0.0426228418946266,-0.00854126457124949,0.0249571334570646,0,
00:00:02.32,-0.0365840755403042,0.00669384049251676,0.0146976849064231,0,
00:00:02.324,0.0077857333235442595,-0.00499072438105941,-0.0178439654409885,0,
00:00:02.328,0.0186503101140261,0.008391170762479309,-0.0242294892668724,0,
00:00:02.332,0.0257606711238623,-0.0108488537371159,0.0101288985460997,0,
00:00:02.336,0.00856964197009802,-0.0196302905678749,0.0038091200403869204,0,
00:00:02.34,-0.0183998867869377,0.0181301459670067,0.0140545051544905,0,
00:00:02.344,-0.0233187079429626,-0.0172564629465342,-0.0023988527245819603,0,
00:00:02.348,-0.0022611073218286,-0.0141701009124517,-0.0125463176518679,0,
00:00:02.352,0.004109136760234829,0.0216032080352306,0.00789559818804264,0,
00:00:02.356,0.021668391302228,0.0523848794400692,-0.00181077257730067,0,
00:00:02.36,0.029815599322319,0.0130343735218048,-0.0132215768098831,0,
00:00:02.364,-0.0542011521756649,-0.0696950554847717,0.0131429024040699,0,
00:00:02.368,-0.0187520571053028,-0.0476708114147186,0.0073010511696338706,0,
00:00:02.372,0.0320721827447414,0.0319394692778587,0.00347595755010843,0,
00:00:02.376,0.00823131948709488,0.0326263122260571,-0.0192116368561983,0,
00:00:02.38,-0.0040770503692328895,0.0027174379210919103,0.00804569572210312,0,
00:00:02.384,0.0144310090690851,-0.00042266296804882597,-0.00865059532225132,0,
00:00:02.388,0.018528888002038002,0.0196031630039215,-0.0106639172881842,0,
00:00:02.392,-0.0530959218740463,-0.0235099475830793,0.0195199474692345,0,
00:00:02.396,-0.0023610342759639,-0.0039956099353730705,0.0455698370933533,0,
00:00:02.4,0.0183696784079075,-0.0117637440562248,-0.0307667087763548,0,
00:00:02.404,-0.00823473371565342,-0.000350181653629988,-0.0368647351861,0,
00:00:02.408,-0.00404106127098203,0.0188426878303289,-0.0106719462200999,0,
00:00:02.412,0.0236487817019224,0.00565458927303553,0.0138870263472199,0,
00:00:02.416,0.007582880090922121,-0.0322252027690411,0.0233084931969643,0,
00:00:02.42,-0.0051914295181632,-0.0159679390490055,0.0062176105566322795,0,
00:00:02.424,-0.00141269434243441,0.0410411097109318,0.0215177480131388,0,
00:00:02.428,-0.0195741150528193,0.0480792224407196,-0.027769673615694,0,
00:00:02.432,-0.0176447834819555,0.000115330803964753,-0.0116875153034925,0,
00:00:02.436,0.0140165640041232,-0.0354184880852699,-0.00867175124585629,0,
00:00:02.44,0.0149431237950921,-0.0862158462405205,0.0207167509943247,0,
00:00:02.444,0.0101717002689838,0.0152382105588913,-0.009353852830827241,0,
00:00:02.448,-0.00169889198150486,0.0398059412837029,-0.00859202817082405,0,
00:00:02.452,-0.006140368059277529,0.0176631137728691,0.0066005433909595,0,
00:00:02.456,0.004845240619033579,0.006900770589709279,0.0047679105773568205,0,
00:00:02.46,-0.0146469688042998,0.00451567722484469,0.0108007723465562,0,
00:00:02.464,-0.00406761281192303,-0.00110853638034314,0.0196387134492397,0,
00:00:02.468,0.010789499618113001,0.027774179354310004,-0.0266221445053816,0,
00:00:02.472,-0.0032633710652589802,-0.0152451358735561,-0.0185306798666716,0,
00:00:02.476,-0.007052760105580091,-0.040252760052681004,0.0063359783962369,0,
00:00:02.48,-0.00153442600276321,-0.0304218977689743,0.0091613968834281,0,
00:00:02.484,0.0141755221411586,0.0024625055957585604,0.000254681857768446,0,
00:00:02.488,0.0143198352307081,0.0274353623390198,-0.00687820510938764,0,
00:00:02.492,-0.0115779405459762,0.0269329138100147,0.0042302468791604,0,
00:00:02.496,-0.0138873532414436,0.00434458814561367,0.00787161197513342,0,
00:00:02.5,-0.0019364909967407602,-0.0278660841286182,0.00499342242255807,0,
00:00:02.504,0.00443880166858435,0.00634841527789831,-0.0249630399048328,0,
00:00:02.508,0.0240753907710314,0.0558771342039108,0.00339288008399308,0,
00:00:02.512,-0.0270466431975365,0.00566230807453394,0.0557970479130745,0,
00:00:02.516,-0.00675728637725115,-0.0577690303325653,-0.0117816226556897,0,
00:00:02.52,0.0168615356087685,-0.058892872184515,-0.0545327924191952,0,
00:00:02.524,0.00812145881354809,-0.0130136534571648,-0.0218850485980511,0,
00:00:02.528,0.00668855011463165,0.0379403084516525,0.0452700294554234,0,
00:00:02.532,-0.0245382897555828,0.0652878135442734,0.00889004487544298,0,
00:00:02.536,-0.0044784932397306,0.0178385805338621,-0.0190641339868307,0,
00:00:02.54,0.00697202095761895,-0.0128662185743451,-0.000515272258780897,0,
00:00:02.544,0.00452516367658973,-0.0338799469172955,0.0122177274897695,0,
00:00:02.548,0.000306981324683875,-0.0216602087020874,0.00573700433596969,0,
00:00:02.552,0.000415136280935258,-0.008915557526052,0.00173532380722463,0,
00:00:02.556,0.00498333852738142,0.00927076209336519,-0.00983889400959015,0,
00:00:02.56,0.000784451374784112,0.0436820536851883,-0.0059395530261099295,0,
00:00:02.564,-0.00521120009943843,0.0163851864635944,0.00655691744759679,0,
00:00:02.568,0.0021040108986198898,-0.0135524654760957,0.00398900872096419,0,
00:00:02.572,-0.00689246458932757,-0.0561177022755146,-0.007257123943418259,0,
00:00:02.576,-0.0200985968112946,-0.0559370033442974,0.0335188843309879,0,
00:00:02.58,0.0215999949723482,0.032060157507658,-0.0257326140999794,0,
00:00:02.584,0.0257739145308733,0.10788968950510001,-0.0272386074066162,0,
00:00:02.588,-0.0184119865298271,0.0446196161210537,-0.00820446293801069,0,
00:00:02.592,-0.0137432543560863,-0.0624054446816444,0.00673789856955409,0,
00:00:02.596,0.00855110306292772,-0.0633903071284294,0.0192917734384537,0,
00:00:02.6,0.000118603798910044,-0.0315697863698006,0.0138958059251308,0,
00:00:02.604,-0.0010015422012656901,0.0098345847800374,-0.0131695214658976,0,
00:00:02.608,0.0228366907685995,0.0431357212364674,0.0446691252291203,0,
00:00:02.612,-0.029213884845376,-7.86703385529108e-05,0.00991983525454998,0,
00:00:02.616,-0.007215254008769991,0.0215027444064617,-0.0512518100440502,0,
00:00:02.62,-0.0010955884354189,0.0143736992031336,-0.0512808263301849,0,
00:00:02.624,0.0121646290645003,-0.0138263506814837,0.0244435649365187,0,
00:00:02.628,0.0168340876698494,0.007707024924457071,0.0200794488191605,0,
00:00:02.632,0.0038679784629494,-0.0167576912790537,0.0063269170932471796,0,
00:00:02.636,-0.0154950544238091,-0.034246951341628994,-0.00437103770673275,0,
00:00:02.64,-0.0148394834250212,-0.0148300211876631,0.0167951434850693,0,
00:00:02.644,0.00933008268475533,0.0206468310207129,0.0073959194123745,0,
00:00:02.648,0.0213548764586449,0.026335047557950002,-0.00550603773444891,0,
00:00:02.652,-0.00999653711915016,0.008823601529002191,-0.00910768657922745,0,
00:00:02.656,-0.0256443023681641,-0.00816999841481447,-0.0111672701314092,0,
00:00:02.66,0.0021199379116296803,0.00565803935751319,-0.00930683966726065,0,
00:00:02.664,0.0139549244195223,-0.00313907209783793,-0.000745984085369855,0,
00:00:02.668,0.0142350690439343,-0.0140264891088009,0.0143020618706942,0,
00:00:02.672,0.00226530875079334,-0.00914426427334547,0.0103282257914543,0,
00:00:02.676,0.00151671608909965,0.0246593318879604,-0.0107705444097519,0,
00:00:02.68,-0.0332804881036282,-0.00755688222125173,0.00964384991675615,0,
00:00:02.684,-0.01294522639364,0.0105993524193764,0.00427376106381416,0,
00:00:02.688,0.010757670737803001,-0.0331301502883434,-0.00426442734897137,0,
00:00:02.692,0.052851065993309,-0.0135141368955374,-0.0200972575694323,0,
00:00:02.696,-0.00240690587088466,0.00110920041333884,0.010276691056788,0,
00:00:02.7,-0.0361027084290981,0.0475870817899704,0.00227163662202656,0,
00:00:02.704,-0.00259825261309743,0.0497830137610435,-0.00245247175917029,0,
00:00:02.708,0.00873710494488478,-0.030765438452363,-0.0109748635441065,0,
00:00:02.712,-0.00940035842359066,-0.0491206981241703,0.0073696100153029,0,
00:00:02.716,0.006813351996243,-0.0278755687177181,0.0185607168823481,0,
00:00:02.72,-0.00514309713616967,-0.00971262715756893,0.022409550845623,0,
00:00:02.724,-0.000452855048933998,0.0489572435617447,-0.028812738135457,0,
00:00:02.728,0.0151137439534068,0.0343288965523243,-0.0286194086074829,0,
00:00:02.732,0.00403804704546928,-0.0175511408597231,-0.00499738333746791,0,
00:00:02.736,-0.0109387272968888,-0.0222290325909853,0.0169790592044592,0,
00:00:02.74,0.0069505381397903,0.021735642105341,0.0150061408057809,0,
00:00:02.744,-0.028795599937438996,0.00493772840127349,0.0138556463643909,0,
00:00:02.748,-0.0019971572328358897,-0.00348411686718464,0.00430799601599574,0,
00:00:02.752,0.0329895801842213,-0.0149791343137622,-0.0113406227901578,0,
00:00:02.756,0.00629234267398715,-0.0294922161847353,-0.0222992897033691,0,
00:00:02.76,-0.00827732402831316,-0.00921453163027763,-0.00871406868100166,0,
00:00:02.764,-0.0086963614448905,0.0138029605150223,0.0179315805435181,0,
00:00:02.768,0.0125412242487073,0.0490510426461697,-0.000538146588951349,0,
00:00:02.772,-0.0071144741959869905,0.0156814940273762,0.0055810627527535,0,
00:00:02.776,-0.0205523408949375,-0.0233726724982262,0.00269187404774129,0,
00:00:02.78,-0.00765917636454105,-0.0505754016339779,-0.0116989715024829,0,
00:00:02.784,0.0211732424795628,-0.0132245980203152,0.00250088004395366,0,
00:00:02.788,0.0174242332577705,0.11628371477127099,0.011434861458838002,0,
00:00:02.792,0.00586331635713577,0.0226309336721897,0.0134603772312403,0,
00:00:02.796,-0.0232637580484152,-0.11337841302156401,-0.023203557357192,0,
00:00:02.8,-0.0206218902021647,-0.0628791972994804,-0.0221878103911877,0,
00:00:02.804,0.0132772400975227,0.0159873850643635,0.0146158915013075,0,
00:00:02.808,0.0233699753880501,0.0381845980882645,0.0155881876125932,0,
00:00:02.812,-0.0145642561838031,0.0539421737194061,-0.0030664058867842,0,
00:00:02.816,-0.00787718780338764,0.0381226018071175,-0.00610308675095439,0,
00:00:02.82,0.0230743363499641,-0.0142456507310271,0.0262519028037786,0,
00:00:02.824,0.0140879368409514,-0.0414582416415215,-0.0245440769940615,0,
00:00:02.828,-0.0490226224064827,-0.0338841378688812,-0.0116635411977768,0,
00:00:02.832,-0.0138629991561174,0.023995203897357,0.00736933201551437,0,
00:00:02.836,0.0366643108427525,0.0166470874100924,0.00146122858859599,0,
00:00:02.84,0.0147561356425285,-0.0207683723419905,0.000132642293465324,0,
00:00:02.844,-0.0147079043090343,0.0019289988558739398,0.00695813819766045,0,
00:00:02.848,0.0167992580682039,0.000173385604284704,0.0100300824269652,0,
00:00:02.852,-0.0106615060940385,-0.00918506737798452,-0.00273735984228551,0,
00:00:02.856,-0.0371698439121246,-0.00866252556443214,-0.0061989179812371705,0,
00:00:02.86,0.00839756615459919,0.0239636637270451,-0.023558096960187,0,
00:00:02.864,0.0294391363859177,0.0142405917868018,-0.00916509982198477,0,
00:00:02.868,0.00470252148807049,0.00229959143325686,0.0346558578312397,0,
00:00:02.872,0.008392784744501109,0.0212067514657974,0.0183580219745636,0,
00:00:02.876,-0.0276625771075487,-0.0337641127407551,-0.00953538343310356,0,
00:00:02.88,-0.0183484442532063,-0.0252652559429407,-0.00218719453550875,0,
00:00:02.884,0.008932399563491341,0.00804121885448694,-0.0290120635181665,0,
00:00:02.888,0.0189626086503267,0.000581386091653258,-0.000928906199987978,0,
00:00:02.892,0.00960163958370686,0.00427072029560804,0.00333257555030286,0,
00:00:02.896,-0.00792768970131874,-0.00138596806209534,0.0110344486311078,0,
00:00:02.9,0.000495477230288088,-0.0009298353106714789,0.00917963590472937,0,
00:00:02.904,-0.006353403907269239,0.0101403519511223,0.0115891899913549,0,
00:00:02.908,-0.00271211634390056,0.041594997048378,-0.0181852038949728,0,
00:00:02.912,0.0117292879149318,0.0161628760397434,-0.017577538266778,0,
00:00:02.916,-0.0133790895342827,-0.0209139995276928,0.0344074964523315,0,
00:00:02.92,-0.0357634872198105,-0.10574756562709801,0.016522778198123002,0,
00:00:02.924,0.0418736897408962,-0.0152409691363573,-0.0263543277978897,0,
00:00:02.928,0.0130070997402072,0.0474908947944641,-0.0323454886674881,0,
00:00:02.932,-0.0123505210503936,0.0557424500584602,-0.00101691333111376,0,
00:00:02.936,0.00689999526366591,0.0473962984979153,-0.000594251905567944,0,
00:00:02.94,0.008331769146025179,-0.020383870229125,0.0369394645094872,0,
00:00:02.944,-0.00286632427014411,-0.04186783358454701,0.00757240550592542,0,
00:00:02.948,-0.022494662553072003,-0.0288534872233868,-0.00926298182457685,0,
00:00:02.952,-0.016506265848875,0.00204524560831487,-0.010167165659368,0,
00:00:02.956,-0.00609976472333074,0.0148018253967166,0.0159768145531416,0,
00:00:02.96,0.02351657114923,0.0219448246061802,-0.000383678241632879,0,
00:00:02.964,0.0307706203311682,-0.0101228728890419,-0.0182652175426483,0,
00:00:02.968,0.000512516417074949,-0.00417392607778311,-0.0104133281856775,0,
00:00:02.972,-0.009434386156499391,-0.00789677072316408,0.009905964136123659,0,
00:00:02.976,-0.0241991691291332,-0.00891958177089691,-0.00175560778006911,0,
00:00:02.98,-0.021313764154911,0.0192498341202736,-0.00474989041686058,0,
00:00:02.984,0.0287496075034142,-0.0037401795852929397,0.0192320998758078,0,
00:00:02.988,0.0285593681037426,-0.005463243462145329,0.0164042171090841,0,
00:00:02.992,-0.0307735092937946,0.05344970896840099,-0.017759095877409,0,
00:00:02.996,-0.0114554455503821,0.00199482752941549,-0.0156290046870708,0,
00:00:03,0.00818177871406078,-0.0690779536962509,0.0089211156591773,0,
00:00:03.004,0.0037915066350251397,-0.0196011867374182,0.00194277986884117,0,
00:00:03.008,0.0189231988042593,0.0214007366448641,-0.009886752814054491,0,
00:00:03.012,-0.00597790302708745,-0.00551038980484009,0.00181435747072101,0,
00:00:03.016,-0.020298982039093996,-0.00504904752597213,0.0139680514112115,0,
00:00:03.02,0.0127976024523377,0.0419659875333309,-0.0138578889891505,0,
00:00:03.024,0.0169919338077307,0.0445411913096905,0.000503431598190218,0,
00:00:03.028,-0.0121629340574145,-0.0204160660505295,0.0144111569970846,0,
00:00:03.032,-0.0310689751058817,-0.0426118299365044,0.00760711915791035,0,
00:00:03.036,0.00565821724012494,-0.0182833634316921,-0.0108169373124838,0,
00:00:03.04,0.0196943432092667,0.0191907491534948,-0.0104280104860663,0,
00:00:03.044,0.00721258530393243,0.0028916539158672103,-0.00568688055500388,0,
00:00:03.048,-0.0067527974024415,-0.000752440595533699,-0.0039839129894971795,0,
00:00:03.052,2.81177972283331e-06,-0.008125944994390009,0.0101089365780354,0,
00:00:03.056,0.0134172365069389,-0.000993356690742075,0.0249681361019611,0,
00:00:03.06,-0.00989149510860443,0.007810388226062059,0.0010968704009428599,0,
00:00:03.064,0.0015852079959586302,0.0344029106199741,-0.0186986532062292,0,
00:00:03.068,-0.0199315398931503,-0.0017433644970879,-0.0200417321175337,0,
00:00:03.072,-0.0304199978709221,-0.0357825644314289,0.00548640312626958,0,
00:00:03.076,0.0288348067551851,-0.021362604573369,0.0209212061017752,0,
00:00:03.08,0.0598483979701996,0.0370082855224609,-0.0157573465257883,0,
00:00:03.084,-0.007737659383565191,0.0147324865683913,-0.00368014071136713,0,
00:00:03.088,-0.0434644185006619,-0.0375317856669426,0.018448393791913997,0,
00:00:03.092,-0.021371491253375997,-0.0182739216834307,0.00664994958788157,0,
00:00:03.096,0.0306428764015436,0.00305904843844473,-0.0128576960414648,0,
00:00:03.1,-0.00766283785924315,0.0376773551106453,0.00539486249908805,0,
00:00:03.104,0.0019743619486689602,0.0227481368929148,-0.0143886795267463,0,
00:00:03.108,-0.0152496136724949,-0.00346613745205104,-0.00467876810580492,0,
00:00:03.112,0.0256721489131451,0.0195200610905886,-2.41320026361791e-06,0,
00:00:03.116,0.0230294726788998,-0.0445826500654221,0.0215530283749104,0,
00:00:03.12,-0.0247557163238525,-0.0457994267344475,0.000871815660502762,0,
00:00:03.124,-0.0149837825447321,-0.000125489226775244,-0.0123866619542241,0,
00:00:03.128,-0.016126487404108002,0.0196568761020899,0.0044162557460367706,0,
00:00:03.132,0.0157524812966585,0.0375166796147823,-0.0055844206362962705,0,
00:00:03.136,0.0161407366394997,-0.00116499816067517,0.0079845217987895,0,
00:00:03.14,-0.00451924372464418,-0.014571612700819999,0.00681794155389071,0,
00:00:03.144,0.00867642369121313,0.0239727403968573,-0.0222971923649311,0,
00:00:03.148,0.00136282341554761,0.0327276289463043,-0.00558071536943316,0,
00:00:03.152,-0.00847107358276844,-0.0319529250264168,0.00278166425414383,0,
00:00:03.156,-0.0166298169642687,-0.0635378658771515,0.0349964648485184,0,
00:00:03.16,0.0125979790464044,0.00304495450109243,-0.005443633068352939,0,
00:00:03.164,0.00603525387123227,0.004691020119935271,-0.018725061789155,0,
00:00:03.168,-0.0289638936519623,0.0332220010459423,-0.00961709395051003,0,
00:00:03.172,0.0038752474356442703,0.0182666350156069,0.00384448794648051,0,
00:00:03.176,0.0290583800524473,-0.0184252634644508,0.0178805813193321,0,
00:00:03.18,0.0123221911489964,0.0266433618962765,-0.0024984399788081603,0,
00:00:03.184,-0.0152051234617829,0.007095048669725659,-0.00886616483330727,0,
00:00:03.188,0.0161281507462263,-0.0285263508558273,-0.0104544796049595,0,
00:00:03.192,-0.0224021878093481,-0.0274699106812477,0.00928728561848402,0,
00:00:03.196,-0.0268394239246845,-0.018293010070919997,0.0316706970334053,0,
00:00:03.2,0.007131161168217659,0.00647417921572924,-0.0215169936418533,0,
00:00:03.204,0.00909950863569975,0.0375194139778614,-0.0231860261410475,0,
00:00:03.208,0.010288592427969,0.0542346090078354,0.00116255879402161,0,
00:00:03.212,0.0196570381522179,0.00172273197676986,0.0033210939727723603,0,
00:00:03.216,0.000511641032062471,-0.0512492842972279,0.0038838856853544703,0,
00:00:03.22,-0.005470453761517999,-0.0395202413201332,0.0120291141793132,0,
00:00:03.224,-0.0375621616840363,-0.021417498588562,0.0178567841649055,0,
00:00:03.228,-0.015084583312273,0.0155751127749681,0.00664538005366921,0,
00:00:03.232,0.0297830309718847,0.0388736352324486,-0.0290573984384537,0,
00:00:03.236,0.0331350602209568,0.0186308808624744,-0.0178569387644529,0,
00:00:03.24,0.0061631603166461,-0.00389617518521845,-0.000970144174061716,0,
00:00:03.244,-0.0376437716186047,0.0068281483836472,0.00936645641922951,0,
00:00:03.248,-0.0166374687105417,0.007787726353853941,0.0170546565204859,0,
00:00:03.252,0.0170286912471056,-0.0145801780745387,0.008897101506590841,0,
00:00:03.256,0.0124249942600727,-0.0487325228750706,-0.009881364181637759,0,
00:00:03.26,0.0047092526219785205,-0.00550219975411892,-0.0120619479566813,0,
00:00:03.264,-0.00810190383344889,0.0183076392859221,-0.00801993999630213,0,
00:00:03.268,-0.0115625308826566,0.0218037012964487,0.0114148277789354,0,
00:00:03.272,-0.000486745208036155,0.0109800575301051,0.0154860615730286,0,
00:00:03.276,0.00711194751784205,0.00983759202063084,-0.00851935148239136,0,
00:00:03.28,0.007484435569494959,-0.0103316716849804,-0.0131519362330437,0,
00:00:03.284,-0.000777449691668153,-0.006576832383871079,0.00144004181493074,0,
00:00:03.288,-0.0035211434587836296,-0.0110253412276506,0.0143161667510867,0,
00:00:03.292,0.0053661591373384,-0.0053200135007500605,0.000897908641491085,0,
00:00:03.296,-0.027708038687706004,-0.010982908308506,-0.007138977758586409,0,
00:00:03.3,0.0241170674562454,0.0231317430734634,-0.007341065909713509,0,
00:00:03.304,0.0158373769372702,0.0130058480426669,0.00315580167807639,0,
00:00:03.308,-0.0302122049033642,-0.00102194689679891,-0.000249520526267588,0,
00:00:03.312,-0.00418763514608145,-0.0106534566730261,0.0075547145679593095,0,
00:00:03.316,0.0334489457309246,-0.0128099881112576,0.00484004616737366,0,
00:00:03.32,-0.0242234151810408,0.0053996960632503,-0.00876219291239977,0,
00:00:03.324,0.0036447744350880397,0.00361926457844675,-0.016767231747508004,0,
00:00:03.328,0.0103027662262321,-0.000772692961618304,0.009493761695921421,0,
00:00:03.332,-0.019345611333847,0.0038904163520783203,0.0200018137693405,0,
00:00:03.336,0.007636252325028179,-0.0113205136731267,-0.000934080453589559,0,
00:00:03.34,0.00695938384160399,-0.00652601197361946,-0.014585742726921999,0,
00:00:03.344,0.00445556966587901,0.0230825580656528,-0.00960535183548927,0,
00:00:03.348,-0.0055474741384387,0.0146435387432575,0.0162782240658998,0,
00:00:03.352,-0.0109783094376326,-0.024436017498374,0.0023817243054509198,0,
00:00:03.356,0.0110569437965751,-0.00621030852198601,-0.009939440526068209,0,
00:00:03.36,0.00472892448306084,0.00749042676761746,-0.010744952596724,0,
00:00:03.364,-0.004006729926913979,-0.00256969942711294,0.0043195607140660295,0,
00:00:03.368,0.0035588960163295295,0.00420839712023735,0.0246989857405424,0,
00:00:03.372,-0.024601923301816,0.015880323946476,0.0293117854744196,0,
00:00:03.376,0.0244000628590584,0.0300843510776758,-0.0346237048506737,0,
00:00:03.38,-0.0010327659547328901,-0.0553266406059265,-0.0418031997978687,0,
00:00:03.384,-0.0148788709193468,-0.0427006147801876,0.0061254291795194106,0,
00:00:03.388,-0.00416870694607496,0.000591904856264591,0.0170734710991383,0,
00:00:03.392,0.016919219866395,0.0512885488569736,0.00384537992067635,0,
00:00:03.396,0.00384414242580533,0.042555570602417,0.0116379978135228,0,
00:00:03.4,0.000319600541843101,-0.0323426239192486,0.00647563859820366,0,
00:00:03.404,0.005286015570163729,-0.00286322087049484,0.0008936198428273199,0,
00:00:03.408,-0.0263449531048536,0.0428826101124287,0.0088823214173317,0,
00:00:03.412,-0.0037590898573398603,-0.0395091697573662,-0.0297357756644487,0,
00:00:03.416,0.0469913445413113,-0.0478760302066803,-0.00684694061055779,0,
00:00:03.42,-0.0260696988552809,-0.0121292909607291,-0.00224482035264373,0,
00:00:03.424,-0.019025931134820002,0.0018620778573676898,0.0126371467486024,0,
00:00:03.428,0.0151683865115047,0.0478665828704834,0.00574507471174002,0,
00:00:03.432,-0.00406467262655497,0.0250090677291155,0.0104720192030072,0,
00:00:03.436,2.6191151846433102e-05,0.00971399899572134,0.000295244011795148,0,
00:00:03.44,0.0032315880525857197,-0.0117892846465111,-0.0137755507603288,0,
00:00:03.444,0.00554514396935701,-0.0329267866909504,-0.0171727761626244,0,
00:00:03.448,0.0038867047987878297,-0.0268958639353514,-0.00264984765090048,0,
00:00:03.452,0.000273614714387804,0.0635479241609573,0.0153832193464041,0,
00:00:03.456,-0.013063701801002,0.0641625374555588,0.028920229524373998,0,
00:00:03.46,0.00825984310358763,-0.0895027816295624,0.0124134169891477,0,
00:00:03.464,-0.02159115485847,-0.0946388766169548,-0.015451904386282,0,
00:00:03.468,0.0112577490508556,0.0211255680769682,-0.0463664680719376,0,
00:00:03.472,0.0149636110290885,0.049839973449707003,-0.00664294743910432,0,
00:00:03.476,-0.00391286285594106,0.0424353294074535,0.0144735435023904,0,
00:00:03.48,-0.00731696235015988,0.0199698098003864,0.0159412771463394,0,
00:00:03.484,0.0128232268616557,-0.00518732331693172,0.0131320683285594,0,
00:00:03.488,-0.0088800685480237,-0.0145383197814226,0.00558711495250463,0,
00:00:03.492,0.000725578865967691,-0.00811324082314968,-0.0104777505621314,0,
00:00:03.496,0.018459465354680998,-0.00690995901823044,-0.00904648378491402,0,
00:00:03.5,-0.0323583967983723,-0.014055329374969,-0.0194242391735315,0,
00:00:03.504,-0.0217402465641499,-0.0329525917768478,0.0343642048537731,0,
00:00:03.508,0.0273367241024971,-0.00028413362451829,0.0340431816875935,0,
00:00:03.512,-0.00021271609875839198,0.0188853535801172,-0.0324740372598171,0,
00:00:03.516,0.0174218416213989,0.0339573882520199,-0.0499554537236691,0,
00:00:03.52,0.004284652415663,0.0202102530747652,0.00450271693989635,0,
00:00:03.524,-9.165731171378871e-05,-0.00217801937833428,0.0111411521211267,0,
00:00:03.528,0.0118077369406819,-0.0217531770467758,0.023308876901865002,0,
00:00:03.532,-0.032707754522562,-0.00844807550311089,0.0144938677549362,0,
00:00:03.536,-0.0188051294535398,-0.0065151359885931,0.00111091393046081,0,
00:00:03.54,0.00398612022399902,-0.0145197808742523,-0.00557250529527664,0,
00:00:03.544,0.0156534593552351,0.0158756375312805,-0.011416845023632001,0,
00:00:03.548,0.0163917653262615,0.0262157302349806,-0.0162379667162895,0,
00:00:03.552,0.0103416638448834,0.0222608298063278,-0.00428614672273397,0,
00:00:03.556,-0.00766220781952143,-0.0257151182740927,0.00877636950463057,0,
00:00:03.56,-0.040584284812212004,-0.08978313952684401,0.0292002391070127,0,
00:00:03.564,0.0261712931096554,0.00611441815271974,0.0362066701054573,0,
00:00:03.568,-0.0222291350364685,0.0634998753666878,-0.0406843796372414,0,
00:00:03.572,0.010443932376802,0.033265620470047004,-0.0452996529638767,0,
00:00:03.576,0.0321101807057858,0.00515888165682554,-0.00998147204518318,0,
00:00:03.58,0.00494182715192437,-0.0184272639453411,0.0160065479576588,0,
00:00:03.584,-0.008857438340783121,0.0057070339098572705,0.0252361129969358,0,
00:00:03.588,-0.00972363352775574,0.0037698089145124,0.007913404144346709,0,
00:00:03.592,-0.0101932864636183,-0.0199624113738537,0.0105539355427027,0,
00:00:03.596,-0.0147037468850613,-0.04509372264146799,0.0018482479499653,0,
00:00:03.6,0.00297076092101634,-0.0181168653070927,-0.0190108325332403,0,
00:00:03.604,0.0119407633319497,0.0381297953426838,-0.00399329280480742,0,
00:00:03.608,-0.0119324456900358,0.0165443979203701,0.0102841937914491,0,
00:00:03.612,0.0221751313656569,0.021850124001503,0.0029237654525786604,0,
00:00:03.616,0.00992721877992153,0.00706654926761985,-0.0218765269964933,0,
00:00:03.62,-0.0127337481826544,-0.0116167813539505,-0.00633585685864091,0,
00:00:03.624,-0.00261199241504073,-0.0156656540930271,-0.0008139384444803,0,
00:00:03.628,0.0250256415456533,0.0147916674613953,0.000803067639935762,0,
00:00:03.632,-0.0216224491596222,0.0200710743665695,0.0239009689539671,0,
00:00:03.636,-0.0201736055314541,-0.0404487065970898,0.0144645217806101,0,
00:00:03.64,0.0184254180639982,-0.0418359115719795,0.0112534826621413,0,
00:00:03.644,-0.0304226502776146,-0.0036693261936307,-0.018206125125288998,0,
00:00:03.648,-0.0012500981101766198,0.0269417744129896,-0.0332432799041271,0,
00:00:03.652,0.0435594320297241,0.0428408533334732,-0.00482952641323209,0,
00:00:03.656,0.00925310607999563,0.00963526964187622,0.0190009102225304,0,
00:00:03.66,-0.0125780170783401,0.0018364896532148101,0.0117481667548418,0,
00:00:03.664,-0.00855972804129124,-0.00476935924962163,-0.00410469574853778,0,
00:00:03.668,-0.00531830824911594,0.0012004355667159,-0.0103910565376282,0,
00:00:03.672,0.00419008918106556,-0.0301043335348368,0.0074956249445676795,0,
00:00:03.676,0.00503383064642549,-0.0429407209157944,0.0048240558244288,0,
00:00:03.68,-0.0232736598700285,0.0188721921294928,-0.0011347329709678901,0,
00:00:03.684,-0.009374696761369709,0.00892542488873005,0.0188575014472008,0,
00:00:03.688,0.0332762710750103,0.0244664009660482,-0.0208441279828548,0,
00:00:03.692,0.016737312078476,0.018810698762536,-0.0187539625912905,0,
00:00:03.696,-0.0229704640805721,-0.0186378601938486,0.0211065206676722,0,
00:00:03.7,-0.000789252808317542,0.0136459479108453,-0.0157452542334795,0,
00:00:03.704,-0.004566207528114321,0.0011234297417104199,0.0020517052616924,0,
00:00:03.708,-0.00109161518048495,-0.0295128002762794,0.0127463927492499,0,
00:00:03.712,0.0085811410099268,-0.0161791294813156,0.00515602575615048,0,
00:00:03.716,-0.00879012607038021,-0.0129153644666076,0.00321881682612002,0,
00:00:03.72,0.005376704037189479,0.0444519706070423,-0.0118817891925573,0,
00:00:03.724,0.009151755832135679,0.0396446399390697,-0.0030017816461622698,0,
00:00:03.728,0.0195179786533117,-0.0107139199972153,-0.0011075627990067,0,
00:00:03.732,-0.0379355661571026,-0.0584815703332424,0.0101455086842179,0,
00:00:03.736,-0.0220952890813351,-0.00846956856548786,-0.0028715678490698303,0,
00:00:03.74,0.0096149230375886,0.0103331096470356,-0.0188119448721409,0,
00:00:03.744,0.0198343824595213,-0.00135474652051926,0.0246573351323605,0,
00:00:03.748,0.0189302861690521,0.0353135950863361,0.0109962206333876,0,
00:00:03.752,0.0313606671988964,0.0155309261754155,-0.0226995572447777,0,
00:00:03.756,-0.0269499011337757,0.0037925352808088103,-0.0138435857370496,0,
00:00:03.76,-0.0447176098823547,-0.009633101522922521,0.0146560175344348,0,
00:00:03.764,-0.00746361445635557,-0.0316702164709568,0.00102093990426511,0,
00:00:03.768,0.010718846693635,-0.0150720002129674,0.00669518113136292,0,
00:00:03.772,0.012565866112708999,-0.00548974238336086,-0.0018607275560498199,0,
00:00:03.776,0.0164255537092686,0.0137604800984263,0.00348411477170885,0,
00:00:03.78,0.0115689402446151,0.0452057123184204,-0.007165535353124141,0,
00:00:03.784,0.00186597998254001,0.00889853574335575,-0.00267457403242588,0,
00:00:03.788,-0.0104394759982824,-0.0452387556433678,-0.00591631093993783,0,
00:00:03.792,-0.0241591725498438,-0.0319058932363987,0.0158025790005922,0,
00:00:03.796,-0.0137174027040601,0.0168982967734337,0.0026775500737130603,0,
00:00:03.8,0.0245896261185408,0.0402035862207413,-0.0175183545798063,0,
00:00:03.804,0.00828663632273674,0.00108570803422481,0.0138432523235679,0,
00:00:03.808,-0.006805345881730321,-0.0025046395603567397,-0.0078651076182723,0,
00:00:03.812,-0.00400445982813835,-0.0194140151143074,-0.0058480775915086295,0,
00:00:03.816,0.00134974985849112,-0.00223506055772305,0.00526611553505063,0,
00:00:03.82,0.00995155330747366,0.0166207943111658,-0.00302511383779347,0,
00:00:03.824,0.00528274569660425,-0.0119862947613001,0.00339780794456601,0,
00:00:03.828,-0.00592407071962953,-0.0211444813758135,0.0111948242411017,0,
00:00:03.832,-0.00802842527627945,-0.0100127533078194,0.0115371914580464,0,
00:00:03.836,-0.0110146338120103,0.0400788150727749,-0.0188381709158421,0,
00:00:03.84,0.00972703285515308,0.0191477108746767,-0.0100095998495817,0,
00:00:03.844,-0.0109574347734451,-0.0292656775563955,0.000987480045296252,0,
00:00:03.848,0.0039731319993734394,-0.0044140522368252295,0.00212354166433215,0,
00:00:03.852,0.0228505674749613,0.0379574745893478,0.00755873788148165,0,
00:00:03.856,0.0171802546828985,0.000264002534095198,-0.00917069241404533,0,
00:00:03.86,-0.0210243035107851,-0.0565140880644321,0.00618877494707704,0,
00:00:03.864,-0.0199883729219437,-0.0257710963487625,0.0061412169598043,0,
00:00:03.868,0.00198437995277345,0.0195206124335527,0.0013135040644556301,0,
00:00:03.872,-0.0110459523275495,0.032818216830492,-0.0025702822022139996,0,
00:00:03.876,0.0127420155331492,0.0330798253417015,0.00045760531793348497,0,
00:00:03.88,0.027796121314168,0.00522588985040784,-0.004488575737923379,0,
00:00:03.884,-0.010722984559833998,-0.041643925011157996,-0.00599390268325806,0,
00:00:03.888,-0.0139920692890882,-0.00901754479855299,-0.0012386005837470302,0,
00:00:03.892,-0.0054471627809107295,0.00814194418489933,0.0028542624786496197,0,
00:00:03.896,-0.00158941326662898,-0.0145161803811789,0.0019533031154424,0,
00:00:03.9,0.0076197152957320205,0.00144036358688027,-0.0035114330239594,0,
00:00:03.904,0.0202675145119429,0.0227136891335249,0.00406070146709681,0,
00:00:03.908,0.0020462977699935397,0.000306889822240919,0.0263166204094887,0,
00:00:03.912,-0.00413194671273232,0.00542476074770093,0.00190759485121816,0,
00:00:03.916,-0.0409693382680416,-0.0175378993153572,-0.0367708653211594,0,
00:00:03.92,-0.008878223598003391,-0.0258330479264259,-0.0131110213696957,0,
00:00:03.924,0.0433892756700516,0.0334076285362244,-0.0026209047064185103,0,
00:00:03.928,0.00521747255697846,0.0413766466081142,0.0354240126907825,0,
00:00:03.932,-0.00227737450040877,-0.032041423022747005,0.011775323189795002,0,
00:00:03.936,-0.008216749876737591,-0.0271922517567873,-0.0123862409964204,0,
00:00:03.94,-0.00388898490928113,-0.0143785923719406,-0.0148456888273358,0,
00:00:03.944,0.000546805618796498,0.00464072590693831,-0.007199767976999279,0,
00:00:03.948,-0.0019980370998382603,0.0417648367583752,0.00342831551097333,0,
00:00:03.952,0.00539390183985233,0.00290901330299675,0.0123739223927259,0,
00:00:03.956,-0.005089054815471171,-0.0197714436799288,-0.00540383765473962,0,
00:00:03.96,-0.0199183747172356,-0.009638558141887191,0.0216657146811485,0,
00:00:03.964,0.0145713556557894,0.000993013731203973,0.0137443440034986,0,
00:00:03.968,0.0473106615245342,0.0122363334521651,-0.034213587641715996,0,
00:00:03.972,-0.0112661551684141,0.0016916098538786199,-0.0196115337312222,0,
00:00:03.976,-0.0546739622950554,-0.00249497359618545,0.0016821761382743699,0,
00:00:03.98,-0.0146294422447681,0.00329294241964817,0.0006071589887142179,0,
00:00:03.984,0.0245491601526737,0.0006738482625223701,0.0163668338209391,0,
00:00:03.988,0.0276319906115532,-0.0172384083271027,0.0176241286098957,0,
00:00:03.992,0.00921556726098061,-0.019116623327136,0.0041347504593432,0,
00:00:03.996,-0.00465308502316475,0.0342002846300602,-0.0174914915114641,0,
00:00:04,0.0022621697280556,0.0314900502562523,-0.00274926028214395,0,
00:00:04.004,-0.006057748105376961,-0.00702162366360426,0.0108922049403191,0,
00:00:04.008,-0.0338840484619141,-0.038952462375164,-0.00346166337840259,0,
00:00:04.012,-0.0102009475231171,-0.0508737079799175,-0.0166209023445845,0,
00:00:04.016,0.0240191984921694,0.0139380684122443,-0.0021797693334519898,0,
00:00:04.02,0.0132132982835174,0.0677864253520966,0.00124647479970008,0,
00:00:04.024,-0.00616145599633455,0.0286873914301395,0.00647359574213624,0,
00:00:04.028,0.00808904971927404,-0.0297981612384319,0.0072962953709065905,0,
00:00:04.032,0.008108261041343209,-0.0273827333003283,0.00636082468554378,0,
00:00:04.036,-0.00277450145222247,-0.000143506200402044,-0.00796234700828791,0,
00:00:04.04,-0.0197037532925606,0.00228851940482855,-0.0044868234544992395,0,
00:00:04.044,-0.000911058799829334,0.00198105489835143,0.0343996956944466,0,
00:00:04.048,0.00835172366350889,0.0137154143303633,-0.0113709252327681,0,
00:00:04.052,0.00580972572788596,-0.0111086070537567,-0.0413682609796524,0,
00:00:04.056,-0.011978616937995002,-0.0239333882927895,-0.00100094324443489,0,
00:00:04.06,-0.014052058570087001,0.0068146241828799204,0.00259246141649783,0,
00:00:04.064,0.00295122060924768,0.0205562021583319,0.0115713160485029,0,
00:00:04.068,0.0446221493184567,0.00814093183726072,0.031895212829113,0,
00:00:04.072,-0.00855624582618475,-0.00232177483849227,-0.00156057812273502,0,
00:00:04.076,-0.031202295795082994,-0.0128662437200546,-0.0241674259305,0,
00:00:04.08,0.0050517036579549295,0.00649335887283087,-0.00866735354065895,0,
00:00:04.084,0.028260063380003,0.0486396364867687,-0.007724904920905829,0,
00:00:04.088,-0.0245223361998796,-0.0051187165081501,0.0250270664691925,0,
00:00:04.092,-0.0464760810136795,-0.105748727917671,0.0224538203328848,0,
00:00:04.096,0.0855780094861984,-0.00599842192605138,-0.000851592689286917,0,
00:00:04.1,-0.0111056016758084,0.0454467944800854,-0.0225001256912947,0,
00:00:04.104,-0.0391351357102394,0.0324516929686069,-0.0364748500287533,0,
00:00:04.108,-0.00116087077185512,0.012760091573000001,-0.007836624979972841,0,
00:00:04.112,0.0123781338334084,-0.00766099011525512,0.0191030334681273,0,
00:00:04.116,-0.00166512141004205,-0.0114839300513268,0.0300631728023291,0,
00:00:04.12,0.0050214733928442,-0.0120060984045267,0.00638688588514924,0,
00:00:04.124,0.008660310879349709,-0.00904103834182024,-0.0013987886486575,0,
00:00:04.128,-0.0027446795720607,0.0226015020161867,0.0022270237095654,0,
00:00:04.132,-0.0049696792848408205,0.0280814822763205,-0.00842953193932772,0,
00:00:04.136,0.007217528764158491,-0.006204496603459121,-0.0150010902434587,0,
00:00:04.14,0.0185737125575542,-0.0372513644397259,-0.0215791817754507,0,
00:00:04.144,-0.0306683965027332,-0.0292760208249092,0.024280184879898997,0,
00:00:04.148,-0.0699703022837639,-0.0123669430613518,0.0352608188986778,0,
00:00:04.152,0.0429838895797729,0.0168640669435263,-0.0123092401772738,0,
00:00:04.156,0.0617779493331909,0.0372443087399006,-0.0351052284240723,0,
00:00:04.16,0.0091240806505084,0.0269550736993551,-0.0165430270135403,0,
00:00:04.164,-0.0128061501309276,0.0201242323964834,0.0102679021656513,0,
00:00:04.168,-0.0211170632392168,-0.010563244111836002,0.0194272436201572,0,
00:00:04.172,-0.0248173829168081,-0.0487431921064854,0.01671371050179,0,
00:00:04.176,-0.016936868429183998,-0.0225263796746731,0.0107436561957002,0,
00:00:04.18,0.0605275742709637,0.007807154674082991,-0.0198366139084101,0,
00:00:04.184,-0.00676353834569454,0.01035435218364,-0.004234290681779379,0,
00:00:04.188,-0.0398314595222473,0.0184572730213404,0.00708154682070017,0,
00:00:04.192,0.007441023364663121,-0.00540027022361755,-0.0112374722957611,0,
00:00:04.196,0.0026884931139648,-0.019300602376461005,0.00475314585492015,0,
00:00:04.2,0.0154975028708577,0.0187773834913969,0.00331931747496128,0,
00:00:04.204,0.0025723103899508697,0.00715760188177228,-0.0220590550452471,0,
00:00:04.208,-0.0013924274826422301,0.00720282411202788,-0.00873628165572882,0,
00:00:04.212,0.0062577389180660204,0.00635047536343336,0.0164008475840092,0,
00:00:04.216,-0.0012514090631157199,-0.0199635829776526,0.0174583364278078,0,
00:00:04.22,-0.0030623294878751,-0.006380658596754071,0.00785119831562042,0,
00:00:04.224,-0.0134188318625093,-0.0179482344537973,0.00621403940021992,0,
00:00:04.228,-0.0257258713245392,0.0291067101061344,-0.0192919112741947,0,
00:00:04.232,0.0196052845567465,0.015587099827826,-0.0056026182137429706,0,
00:00:04.236,0.0234744492918253,-0.0224283132702112,0.00504987314343452,0,
00:00:04.24,0.0019173815380781898,-0.0308304354548454,-0.00770475575700402,0,
00:00:04.244,-0.010200890712440002,0.00104887678753585,-0.0040929284878075105,0,
00:00:04.248,0.0017377509502694,0.0310271214693785,-0.00195912551134825,0,
00:00:04.252,0.0103776613250375,0.0404544062912464,0.000983314123004675,0,
00:00:04.256,-0.0192380044609308,0.00776816997677088,0.0158892814069986,0,
00:00:04.26,-0.0122261354699731,-0.0489877834916115,0.0131362956017256,0,
00:00:04.264,-0.00662996293976903,-0.0476463437080383,0.0048983721062541,0,
00:00:04.268,0.0319578349590302,0.00583220878615975,-0.0226153135299683,0,
00:00:04.272,0.0166700221598148,0.0437418632209301,-0.0118725374341011,0,
00:00:04.276,-0.0241387411952019,0.025195699185132998,-0.00962511915713549,0,
00:00:04.28,-0.0127545576542616,0.00471863895654678,0.01287139672786,0,
00:00:04.284,0.0126366205513477,-0.0178125035017729,0.0170237645506859,0,
00:00:04.288,0.0013085744576528699,-0.0332993865013123,-0.00933311507105827,0,
00:00:04.292,-0.0190914217382669,-0.0101198544725776,0.00238210475072265,0,
00:00:04.296,0.0198687613010406,0.0322696454823017,0.00463333167135715,0,
00:00:04.3,0.0337056629359722,0.0444241352379322,-0.00236495793797076,0,
00:00:04.304,-0.0387077555060387,-0.0259391665458679,9.3773051048629e-05,0,
00:00:04.308,-0.0465034395456314,-0.0689319297671318,-0.00251944293268025,0,
00:00:04.312,0.0143207628279924,-0.0068694450892508,-0.009869863279163841,0,
00:00:04.316,0.057425495237112,0.0639072880148888,-0.00273763318546116,0,
00:00:04.32,0.0288285315036774,0.0328423865139484,0.00435941759496927,0,
00:00:04.324,-0.041839174926280996,-0.0342725999653339,0.0107326898723841,0,
00:00:04.328,-0.0168732572346926,-0.0258139856159687,0.00481019169092178,0,
00:00:04.332,-0.00893449317663908,0.021300045773387,-0.0102942259982228,0,
00:00:04.336,0.00115210562944412,0.0102150589227676,-0.00344032887369394,0,
00:00:04.34,0.0111224893480539,0.007525097578763959,0.00388410477899015,0,
00:00:04.344,0.009665158577263359,0.0166656356304884,-0.000622834719251841,0,
00:00:04.348,-0.0152154667302966,-0.0575651451945305,0.0192951206117868,0,
00:00:04.352,0.0135528137907386,-0.0465062223374844,0.00679922150447965,0,
00:00:04.356,0.00791265722364187,0.022808501496910997,-0.0371392406523228,0,
00:00:04.36,-0.0323099382221699,0.0436239056289196,-0.00284273503348231,0,
00:00:04.364,0.00657898979261518,0.0393003039062023,-0.0135209728032351,0,
00:00:04.368,0.0213448330760002,-0.0049339993856847295,0.0160856004804373,0,
00:00:04.372,0.0156619250774384,-0.0264505110681057,0.0293819513171911,0,
00:00:04.376,-0.0144347781315446,-0.0138606801629066,-0.0004032026627101,0,
00:00:04.38,-0.0052152737043798,0.0009094750857912,-0.007362229283899071,0,
00:00:04.384,-0.0120173962786794,0.0094209210947156,-0.0121487090364099,0,
00:00:04.388,-0.0283676832914352,-0.0021941000595688803,-0.00720710400491953,0,
00:00:04.392,0.0158156733959913,0.007676232606172559,-0.00224664690904319,0,
00:00:04.396,0.0634731203317642,-0.00204435526393354,0.0188177693635225,0,
00:00:04.4,-0.0214378274977207,-0.0150555893778801,0.0178868919610977,0,
00:00:04.404,-0.0367661789059639,-0.0187036376446486,-0.00920660886913538,0,
00:00:04.408,-0.0007011595880612731,-0.0028147671837359697,-0.00149471836630255,0,
00:00:04.412,0.00378313264809549,0.0233987867832184,-0.0306337494403124,0,
00:00:04.416,0.0142330527305603,0.0176286306232214,-0.0197373293340206,0,
00:00:04.42,0.0036463972646743103,0.00365427159704268,0.00980642065405846,0,
00:00:04.424,-0.00116210908163339,-0.00215241173282266,0.0285155512392521,0,
00:00:04.428,-0.0026095553766936103,-0.0211849976330996,0.0164857041090727,0,
00:00:04.432,0.0019253842765465398,0.0171529967337847,0.0060521210543811295,0,
00:00:04.436,0.00528496922925115,0.036700751632452004,-0.0114760678261518,0,
00:00:04.44,-0.0049881343729794,-0.0391320288181305,-0.0234343241900206,0,
00:00:04.444,-0.0035708649083972,-0.0381318293511868,-0.00977126229554415,0,
00:00:04.448,-0.0316098742187023,-0.0314733199775219,0.050733357667922994,0,
00:00:04.452,0.0161080565303564,0.0325830206274986,-0.00699836714193225,0,
00:00:04.456,0.0205763932317495,0.0377536751329899,-0.0313795544207096,0,
00:00:04.46,-0.0117816273123026,0.0267796590924263,-0.008329956792294979,0,
00:00:04.464,0.0024782058317214303,0.000429368839832023,-0.00463750958442688,0,
00:00:04.468,0.0366026945412159,-0.0273450054228306,0.00504505215212703,0,
00:00:04.472,-0.0120919998735189,-0.0242158938199282,0.0247930698096752,0,
00:00:04.476,-0.0264196526259184,0.0120999775826931,-0.00255318195559084,0,
00:00:04.48,-0.0076854913495481,0.0126453945413232,0.00348339299671352,0,
00:00:04.484,-4.6735767682548606e-05,-0.0055021382868289895,-0.0192461870610714,0,
00:00:04.488,0.00328290369361639,-0.0073739280924201,0.0194745827466249,0,
00:00:04.492,0.0208825245499611,0.00540575291961432,0.0161273442208767,0,
00:00:04.496,-0.00173510366585106,0.0145325055345893,-0.0391083247959614,0,
00:00:04.5,-0.0207584649324417,-0.0225970987230539,-0.00485760299488902,0,
00:00:04.504,-0.00888835825026035,-0.036716166883707,0.0223143976181746,0,
00:00:04.508,0.0221456754952669,0.0393421836197376,0.0219317860901356,0,
00:00:04.512,0.008355730213224891,0.004070321097970011,-0.0259610489010811,0,
00:00:04.516,-0.0009077327558770779,0.00353525439277291,-0.0173509661108255,0,
00:00:04.52,-0.0029023303650319602,0.00837751012295485,-0.00464170891791582,0,
00:00:04.524,-0.00687891058623791,0.0107292253524065,0.0075508696027100095,0,
00:00:04.528,0.00189888931345195,0.0150055950507522,0.0221617966890335,0,
00:00:04.532,0.0102562271058559,-0.0161466524004936,0.00938415993005037,0,
00:00:04.536,0.00213240296579897,-0.0181317366659641,-0.00469658896327019,0,
00:00:04.54,-0.0515700057148933,-0.0634991005063057,0.0081239128485322,0,
00:00:04.544,-0.00215089553967118,-0.0199518855661154,-0.0138760264962912,0,
00:00:04.548,0.0265437681227922,0.0536427050828934,-0.0109325619414449,0,
00:00:04.552,0.0488390773534775,0.0806498900055885,-0.014771974645555,0,
00:00:04.556,0.00436712242662907,0.0155635410919786,-0.00959564466029406,0,
00:00:04.56,-0.0308924708515406,-0.0429991409182549,0.0153547329828143,0,
00:00:04.564,-0.0283018201589584,-0.04617348313331599,0.0244766436517239,0,
00:00:04.568,0.00628875382244587,-0.0179803855717182,0.00384019571356475,0,
00:00:04.572,0.0070486874319613,0.0374264232814312,-0.00733053777366877,0,
00:00:04.576,0.00553722446784377,0.0211924556642771,-0.00288328994065523,0,
00:00:04.58,0.00493184803053737,-0.008599992841482159,-0.00507789570838213,0,
00:00:04.584,0.000439499563071877,-0.0104660810902715,0.007349499501287941,0,
00:00:04.588,-0.0089303283020854,-0.01470363792032,-0.0100961169227958,0,
00:00:04.592,-0.00144211552105844,-0.0120590757578611,-0.00459803454577923,0,
00:00:04.596,0.0111124031245708,0.00985303148627281,0.00521659618243575,0,
00:00:04.6,-0.00653602089732885,0.0177361406385899,-0.0021678286138922,0,
00:00:04.604,-0.00267073651775718,0.00860835332423449,-0.00386196514591575,0,
00:00:04.608,0.0216792561113834,-0.0181901920586824,0.00907211191952229,0,
00:00:04.612,-0.0195241291075945,0.007207513321191071,0.00463104154914618,0,
00:00:04.616,-0.0292561985552311,0.0360600464046001,-0.0016558597562834599,0,
00:00:04.62,0.0286336727440357,0.0286179948598146,0.0122919296845794,0,
00:00:04.624,0.0134501056745648,-0.0516536757349968,-0.000479343056213111,0,
00:00:04.628,0.00223670736886561,-0.0855824574828148,-0.0234506353735924,0,
00:00:04.632,-0.0126159638166428,-0.0106337293982506,-0.0144839966669679,0,
00:00:04.636,-0.00867815408855677,0.0563698783516884,0.00530109321698546,0,
00:00:04.64,0.00128702423535287,0.052057895809412,0.0109464349225163,0,
00:00:04.644,-0.00400081183761358,0.00991476513445377,0.0168689638376236,0,
00:00:04.648,0.011290617287158999,-0.0030786900315433697,0.0017663439502939601,0,
00:00:04.652,0.0118882488459349,0.00874211266636848,-0.00920506939291954,0,
00:00:04.656,0.00233284011483192,-0.03156578540802,0.00625491281971335,0,
00:00:04.66,-0.0243622101843357,-0.0574896335601807,0.006093460135161879,0,
00:00:04.664,0.00550956511870027,0.0410316213965416,-0.0189280845224857,0,
00:00:04.668,-0.0037820290308445705,0.0291573517024517,-0.0210552401840687,0,
00:00:04.672,-0.00405120756477118,-0.0234587844461203,0.00813082326203585,0,
00:00:04.676,0.0248681735247374,-0.0226395782083273,0.0190640985965729,0,
00:00:04.68,0.00697364378720522,0.0038631656207144295,0.00386622967198491,0,
00:00:04.684,-0.0196584165096283,0.021188648417591997,0.000624052074272186,0,
00:00:04.688,-0.0206661615520716,0.00505631510168314,-0.00445130001753569,0,
00:00:04.692,0.0126621695235372,-0.00398170854896307,0.0006262278184294701,0,
00:00:04.696,-0.014573460444808001,-0.00970173813402653,-0.013373302295803998,0,
00:00:04.7,0.0017461330862715801,0.00315704825334251,0.0197822656482458,0,
00:00:04.704,0.05965292826294901,0.0579181797802448,-0.000196169785340317,0,
00:00:04.708,4.1758605220820795e-05,0.0164994541555643,-0.00794298015534878,0,
00:00:04.712,-0.0296932309865952,-0.0898855477571487,-0.0152758546173573,0,
00:00:04.716,-0.0331374891102314,-0.0637430176138878,-0.00073813198832795,0,
00:00:04.72,-0.0023305444046855,0.029883274808526,0.00797911267727613,0,
00:00:04.724,0.012261806987226002,0.0417618378996849,0.00887313205748796,0,
00:00:04.728,0.0136186555027962,0.0298312976956367,0.00698963552713394,0,
00:00:04.732,-0.000450297666247934,0.0138897411525249,0.000163941935170442,0,
00:00:04.736,0.00465378304943442,-0.0268110204488039,-0.0107971550896764,0,
00:00:04.74,0.006948596797883511,0.00999278761446476,-0.0056635546498000604,0,
00:00:04.744,-0.00271078525111079,0.0560312159359455,-0.000810396217275411,0,
00:00:04.748,-0.000119523974717595,-0.005317173432558771,0.0231349095702171,0,
00:00:04.752,0.013723460957408,-0.13387662172317502,0.0230388157069683,0,
00:00:04.756,-0.0286750961095095,-0.0247148089110851,-0.0285177379846573,0,
00:00:04.76,-0.0318556651473045,0.0411789491772652,-0.0452757216989994,0,
00:00:04.764,0.0107686026021838,0.048653457313775995,-0.0065569132566452,0,
00:00:04.768,0.0232735257595778,0.0324887074530125,0.0197004862129688,0,
00:00:04.772,0.0191454030573368,0.0103392116725445,0.0290636252611876,0,
00:00:04.776,0.00689728511497378,-0.0039367307908833,0.0116265788674355,0,
00:00:04.78,-0.0105685852468014,-0.0226233080029488,0.0031709650065749897,0,
00:00:04.784,-0.0141333835199475,-0.0311276223510504,-0.0051508080214262,0,
00:00:04.788,0.0016930685378611099,-0.0120056504383683,-0.0152727067470551,0,
00:00:04.792,0.00786653440445662,0.0363129042088985,-0.0125446375459433,0,
00:00:04.796,-0.0236564874649048,0.0273756291717291,-0.0061666341498494105,0,
00:00:04.8,0.0108160367235541,0.00465851463377476,0.0178831368684769,0,
00:00:04.804,0.0010813248809427,-0.0503238029778004,0.0173514634370804,0,
00:00:04.808,0.0146430041640997,-0.0514335557818413,-0.0192494112998247,0,
00:00:04.812,-0.008161848410964009,0.003975828643888239,0.007765612564980979,0,
00:00:04.816,-0.0110536776483059,0.0504301823675632,0.000308550574118271,0,
00:00:04.82,0.0182354208081961,0.0436792969703674,-0.026865366846323,0,
00:00:04.824,-0.00042122567538172,0.0127018531784415,0.000754675304051489,0,
00:00:04.828,-0.0129617378115654,-0.0258733350783587,0.0211840439587832,0,
00:00:04.832,-0.00382393319159746,-0.0218720175325871,0.00226015178486705,0,
00:00:04.836,0.0050058625638485,-0.0116446930915117,0.000878051563631743,0,
00:00:04.84,0.00305897369980812,-0.00548628531396389,0.0037328500766307103,0,
00:00:04.844,0.00406419252976775,0.0027297665365040302,-0.005370828323066229,0,
00:00:04.848,0.00295986398123205,0.0156923923641443,-0.0133357243612409,0,
00:00:04.852,0.00031188630964607,0.0451150648295879,0.0061379927210509794,0,
00:00:04.856,-0.0061869495548307896,-0.0166614297777414,0.0116828856989741,0,
00:00:04.86,-0.00939122494310141,-0.0741658806800842,0.00289912754669786,0,
00:00:04.864,0.0106943929567933,0.0303186718374491,-0.0152474856004119,0,
00:00:04.868,-0.0383313223719597,-0.0112468339502811,0.0174276176840067,0,
00:00:04.872,0.065466120839119,0.0105897756293416,0.00223782984539866,0,
00:00:04.876,-0.0264875516295433,0.0198490023612976,-0.0273713022470474,0,
00:00:04.88,-0.0131842102855444,-0.00409253686666489,-0.00925671681761742,0,
00:00:04.884,0.0116237783804536,0.0125690530985594,-0.00230573210865259,0,
00:00:04.888,0.00836813356727362,0.0266623497009277,0.0155241172760725,0,
00:00:04.892,-0.0007163206464610991,0.0131949475035071,0.009574055671691891,0,
00:00:04.896,-0.0018970409873873,-0.0324622355401516,0.0132677657529712,0,
00:00:04.9,-0.00585276493802667,-0.0674396008253098,0.007464116904884579,0,
00:00:04.904,-0.0205361321568489,-0.0258739646524191,0.00460309768095613,0,
00:00:04.908,0.0005359124625101691,0.0316172428429127,-0.0242587514221668,0,
00:00:04.912,0.0200608223676682,0.0369409695267677,-0.0229396093636751,0,
00:00:04.916,0.0144289582967758,0.0309825409203768,-0.0017669737571850397,0,
00:00:04.92,-0.008419559337198729,0.0173454917967319,0.0086643286049366,0,
00:00:04.924,-0.00536223175004125,-0.0113225299865007,0.0103994561359286,0,
00:00:04.928,-0.0117381336167455,-0.0108527662232518,0.0235887505114079,0,
00:00:04.932,0.00225329212844372,-0.0209459941834211,-0.00118653627578169,0,
00:00:04.936,0.010693147778511,-0.0278331283479929,-0.0035916334018111203,0,
00:00:04.94,0.00512386718764901,-0.0129812117666006,-0.0212968438863754,0,
00:00:04.944,-0.00589003227651119,0.0138636874035001,-0.0202861074358225,0,
00:00:04.948,-0.000977465999312699,0.0249842274934053,0.007470947224646809,0,
00:00:04.952,-0.00100770161952823,0.00877279322594404,0.013641981408,0,
00:00:04.956,0.00690748076885939,0.00942079070955515,0.0177222434431314,0,
00:00:04.96,-0.0234238058328629,0.0250145383179188,0.0113902864977717,0,
00:00:04.964,-0.00531700113788247,-0.0227348003536463,-0.0203763153403997,0,
00:00:04.968,0.014954118989408,-0.0386823378503323,-0.000828285817988217,0,
00:00:04.972,0.0481725558638573,-0.00865333527326584,-0.0198627095669508,0,
00:00:04.976,-0.0378821901977062,-0.00907902419567108,0.00982068292796612,0,
00:00:04.98,-0.0189946722239256,0.0240375678986311,0.0130674177780747,0,
00:00:04.984,0.020918095484376,0.0559799335896969,-0.0212831310927868,0,
00:00:04.988,0.00448466232046485,0.0021592578850686602,0.0235914066433907,0,
00:00:04.992,-0.008077431470155721,-0.0392367281019688,0.0175751280039549,0,
00:00:04.996,-0.0183918494731188,-0.0416377708315849,-0.0216714553534985,0,
00:00:05,-0.0012846060562878802,-2.49249551416142e-05,-0.0243631824851036,0,
00:00:05.004,0.0181044768542051,0.037348959594964995,0.000653704802971333,0,
00:00:05.008,0.00536641292273998,0.0138507289811969,0.0207125507295132,0,
00:00:05.012,0.00604983000084758,-0.0121200475841761,0.0208629239350557,0,
00:00:05.016,0.0023130252957344103,0.00587502354755998,-0.0145265040919185,0,
00:00:05.02,-0.0232716351747513,0.0112152080982924,-0.0146967675536871,0,
00:00:05.024,-0.00638702511787415,-0.0157606825232506,-0.0105113331228495,0,
00:00:05.028,0.007957795634865759,-0.0342926047742367,0.0142571507021785,0,
00:00:05.032,0.0178541205823421,-0.0124576035887003,0.0119922831654549,0,
00:00:05.036,-0.00700244214385748,0.0279844850301743,0.00239600753411651,0,
00:00:05.04,-0.00487142615020275,0.043056309223175,-0.00256395991891623,0,
00:00:05.044,0.00753716379404068,0.00443810969591141,-0.00631064455956221,0,
00:00:05.048,0.00827805884182453,0.00937317498028278,-0.0141361895948648,0,
00:00:05.052,-0.0143450796604156,-0.050304438918829,-0.00512483762577176,0,
00:00:05.056,-0.0235614906996489,-0.0290937777608633,0.0150896236300468,0,
00:00:05.06,0.0127028301358223,0.0356524251401424,0.0135123925283551,0,
00:00:05.064,0.0238889269530773,0.00298908445984125,-0.0043373298831284,0,
00:00:05.068,-0.00969043653458357,-0.0279383808374405,-0.00053213001228869,0,
00:00:05.072,-0.0134422909468412,0.008432703092694279,-0.0135768745094538,0,
00:00:05.076,0.0052557419985532795,0.0290100239217281,-0.0133217368274927,0,
00:00:05.08,0.0330988802015781,0.00295702181756496,0.0207058787345886,0,
00:00:05.084,-0.007168171461671591,-0.00388358812779188,0.0252598859369755,0,
00:00:05.088,-0.0448525436222553,-0.00634360359981656,0.00289500528015196,0,
00:00:05.092,0.0025783812161535,-0.00112049689050764,-0.0392441004514694,0,
00:00:05.096,0.0281044505536556,-0.00234283925965428,-0.0209386814385653,0,
00:00:05.1,-0.0269974879920483,-0.0134147815406322,0.0221001263707876,0,
00:00:05.104,0.00672452803701162,-0.0045231361873447895,0.0112313805148005,0,
00:00:05.108,0.0457087866961956,0.0262110810726881,0.0042995139956474296,0,
00:00:05.112,-0.00170206115581095,0.010317943058908001,-0.000132568049593829,0,
00:00:05.116,-0.0248854160308838,-0.00400323001667857,-0.0043883942998945704,0,
00:00:05.12,-0.0254161171615124,-0.0310087874531746,0.00559483328834176,0,
00:00:05.124,-0.0052762501873076,-0.020386777818202997,-0.0101878996938467,0,
00:00:05.128,0.0229833200573921,0.0274666491895914,-0.0076043861918151405,0,
00:00:05.132,0.0215049646794796,0.051393236964941,0.00814263056963682,0,
00:00:05.136,-0.0115159070119262,-0.000773584120906889,0.0115979220718145,0,
00:00:05.14,-0.0216852352023125,-0.0554581470787525,1.58283270934589e-07,0,
00:00:05.144,-0.0114859882742167,-0.0319887399673462,-0.0119123123586178,0,
00:00:05.148,0.0149483196437359,-0.0018930317601189,0.0022830585949122897,0,
00:00:05.152,0.0570816211402416,0.0511877425014973,-0.0143503863364458,0,
00:00:05.156,-0.0163749009370804,0.0532487332820892,0.0131252035498619,0,
00:00:05.16,-0.0424345396459103,-0.0198353379964828,0.0234584398567677,0,
00:00:05.164,-0.0161448791623116,-0.0589629299938679,-0.0063326349481940295,0,
00:00:05.168,0.0102248536422849,-0.0078078308142721705,-0.0253357850015163,0,
00:00:05.172,0.007179043255746359,0.00987415201961994,-0.00492583168670535,0,
00:00:05.176,0.0137382969260216,0.0201444067060947,-0.00260759401135147,0,
00:00:05.18,0.00843926426023245,0.0081265140324831,0.0117262378334999,0,
00:00:05.184,0.0066336034797132,0.00490494072437286,0.0116984229534864,0,
00:00:05.188,-0.00668148463591933,-0.00914050545543432,0.0175803657621145,0,
00:00:05.192,-0.016958286985754998,-0.0282028969377279,-0.0216831676661968,0,
00:00:05.196,-0.0266554206609726,0.028256855905056,-0.00898814480751753,0,
00:00:05.2,0.0514867417514324,0.0584357380867004,0.0150575842708349,0,
00:00:05.204,0.00309248431585729,-0.0300109088420868,0.00113220373168588,0,
00:00:05.208,-0.028236472979187997,-0.070624940097332,-0.0192121732980013,0,
00:00:05.212,-0.0114367296919227,-0.0245589464902878,0.00888986419886351,0,
00:00:05.216,0.0055364468134939705,0.0257594007998705,-0.0056240898557007295,0,
00:00:05.22,0.00782848708331585,0.0321593694388866,-0.00363522744737566,0,
00:00:05.224,-0.00977037101984024,0.025122070685029,0.00617030542343855,0,
00:00:05.228,0.0274520199745893,0.0073152659460902205,0.00753605738282204,0,
00:00:05.232,0.038108192384243,-0.00951415579766035,-0.00633444264531136,0,
00:00:05.236,-0.0496764406561852,-0.0216917172074318,0.00958804041147232,0,
00:00:05.24,-0.0370858497917652,0.0336273387074471,0.0260118842124939,0,
00:00:05.244,0.0251231212168932,0.0111674917861819,-0.018068116158246997,0,
00:00:05.248,0.00945436116307974,-0.0610058978199959,-0.0163851492106915,0,
00:00:05.252,-0.0057897893711924605,-0.0457880310714245,-0.0247868578881025,0,
00:00:05.256,0.0077228248119354205,0.00834718067198992,0.0012819942785427,0,
00:00:05.26,0.00358704919926822,0.0480745062232018,0.0170791391283274,0,
00:00:05.264,-0.00434809597209096,0.0303994119167328,0.0112354839220643,0,
00:00:05.268,-0.00248080305755138,0.00289387535303831,0.0103560881689191,0,
00:00:05.272,0.00264052045531571,-0.0156209291890264,0.00333569501526654,0,
00:00:05.276,0.0144065879285336,0.0174915418028831,-0.0181534551084042,0,
00:00:05.28,-0.00578232947736979,0.0338003411889076,-0.00556886242702603,0,
00:00:05.284,-0.0110762612894177,-0.0440834686160088,0.00874336995184422,0,
00:00:05.288,-0.0301750805228949,-0.0849157944321632,0.036356870085001,0,
00:00:05.292,0.0123658366501331,0.0206531956791878,-0.0245524402707815,0,
00:00:05.296,0.0273339059203863,0.037288062274456,-0.0494825728237629,0,
00:00:05.3,0.00691219372674823,0.00884204357862473,0.00229291594587266,0,
00:00:05.304,0.0127529669553041,0.0120652951300144,0.022016067057848,0,
00:00:05.308,-0.0145918056368828,0.0162033699452877,0.0199209377169609,0,
00:00:05.312,-0.0245838463306427,-0.0140076782554388,0.00856704171746969,0,
00:00:05.316,-0.0144142210483551,-0.0149720897898078,-0.0022170937154442102,0,
00:00:05.32,0.0130345271900296,-0.00623489404097199,-0.00970807112753391,0,
00:00:05.324,0.0193276014178991,0.00171001593116671,-0.0221014600247145,0,
00:00:05.328,0.00131537101697177,0.0341768264770508,0.0112604079768062,0,
00:00:05.332,-0.027033431455492998,0.00582942459732294,0.0128765050321817,0,
00:00:05.336,0.0282608158886433,-0.0322401896119118,0.0103800073266029,0,
00:00:05.34,0.0501171723008156,-0.0502610541880131,0.0237979833036661,0,
00:00:05.344,-0.0724290683865547,-0.0123775294050574,-0.0344300642609596,0,
00:00:05.348,-0.0468580909073353,0.0412223897874355,-0.0415060557425022,0,
00:00:05.352,0.0376189686357975,0.0555494055151939,-0.0105816889554262,0,
00:00:05.356,0.0481957085430622,0.009888694621622559,0.0184692479670048,0,
00:00:05.36,0.00853896886110306,-0.0191093012690544,0.031455073505639995,0,
00:00:05.364,-0.019063850864768004,-0.0172445885837078,0.0192989110946655,0,
00:00:05.368,-0.0220206901431084,-0.0183879863470793,0.0036701112985611,0,
00:00:05.372,-0.00758497696369886,-0.00555281480774283,-0.00999851711094379,0,
00:00:05.376,0.0048280656337738,0.0156674012541771,-0.0142064765095711,0,
00:00:05.38,0.00914015993475914,0.00736982654780149,-0.0124307824298739,0,
00:00:05.384,0.00056796643184498,-0.0239862035959959,-0.0076043913140893,0,
00:00:05.388,0.011939249932766,0.00840497855097055,-0.012859963811934,0,
00:00:05.392,-0.0240441877394915,-0.005479001440107821,0.0483084917068481,0,
00:00:05.396,-0.00142419943585992,0.0096044996753335,0.0269927680492401,0,
00:00:05.4,0.00911827757954597,0.00836316961795092,-0.0448186211287975,0,
00:00:05.404,0.00299137993715703,-0.0038763401098549396,-0.0044675674289465,0,
00:00:05.408,0.0121432198211551,0.00980234239250422,0.00512268021702766,0,
00:00:05.412,0.0266866758465767,0.0283458512276411,-0.0385827571153641,0,
00:00:05.416,-0.026758098974823997,-0.0263979882001877,0.0135759757831693,0,
00:00:05.42,-0.0263541266322136,-0.0295995678752661,0.0204354170709848,0,
00:00:05.424,-0.00617707846686244,-0.00565448123961687,0.0150534380227327,0,
00:00:05.428,0.0114348288625479,0.00609132694080472,0.00474915746599436,0,
00:00:05.432,0.0073240036144852595,0.00320800510235131,-0.00171948049683124,0,
00:00:05.436,0.0029579836409539,0.0114319818094373,-0.007333204150199891,0,
00:00:05.44,-0.0018212158465758,-0.00396569818258286,-0.00804492086172104,0,
00:00:05.444,0.00750098610296845,0.0327270030975342,-0.00701952818781137,0,
00:00:05.448,0.00346304709091783,0.0185150299221277,-0.000921556435059756,0,
00:00:05.452,0.0059944381937384605,-0.0352614484727383,0.00778750842437148,0,
00:00:05.456,-0.00874812342226505,-0.00962445233017206,-0.00339003559201956,0,
00:00:05.46,-0.0230866316705942,-0.011018218472599999,-0.00447754096239805,0,
00:00:05.464,0.024950398132205,-0.007886389270424841,0.0406505987048149,0,
00:00:05.468,-0.0198701117187738,-0.0215821266174316,-0.0263307094573975,0,
00:00:05.472,-0.0350663363933563,0.00032661491422914,-0.0135429352521896,0,
00:00:05.476,0.0350719764828682,0.0460778549313545,-0.000819771492388099,0,
00:00:05.48,0.0656987875699997,0.0364202596247196,-0.00684269331395626,0,
00:00:05.484,-0.00880907289683819,-0.00716495234519243,0.0218796171247959,0,
00:00:05.488,-0.0447148755192757,-0.0395174771547318,-0.00578638538718224,0,
00:00:05.492,-0.0285822432488203,0.0044967276044189895,-0.00342613901011646,0,
00:00:05.496,0.00618787948042154,0.0134699707850814,-0.00532540492713451,0,
00:00:05.5,0.00658150669187307,-0.0293487794697285,0.0149781983345747,0,
00:00:05.504,0.012594111263752,-0.00977962743490934,0.00535824988037348,0,
00:00:05.508,0.0160540249198675,0.0211353581398726,-0.0120233548805118,0,
00:00:05.512,-0.00465787807479501,0.00335566513240337,0.00283282739110291,0,
00:00:05.516,-0.00313663063570857,-0.00470367819070816,-0.0009693373576737939,0,
00:00:05.52,0.00890510622411966,0.0227673333138227,-0.0131646199151874,0,
00:00:05.524,-0.0336348377168179,-0.00297969277016819,0.0118312109261751,0,
00:00:05.528,0.00627049058675766,-0.0189458802342415,-0.00039301309152506297,0,
00:00:05.532,0.019899956882,0.00587056437507272,-0.00578334555029869,0,
00:00:05.536,0.00172419589944184,0.0166806802153587,0.0227015912532806,0,
00:00:05.54,-0.00302648008801043,-0.0180604886263609,-0.009061122313141821,0,
00:00:05.544,-0.0153880063444376,-0.0108103631064296,-0.0191784352064133,0,
00:00:05.548,0.0101460926234722,-0.00358689134009182,-0.00822373572736979,0,
00:00:05.552,0.00708971358835697,0.00453834887593985,0.014625302515924,0,
00:00:05.556,-0.015806058421731,0.0035950336605310397,0.0167614966630936,0,
00:00:05.56,-0.0064088529907167,-0.000301848456729203,-0.008966337889432909,0,
00:00:05.564,0.0243463031947613,-0.00529205659404397,-0.0076504391618073,0,
00:00:05.568,0.006858109496533871,0.0375981628894806,0.00995616987347603,0,
00:00:05.572,-0.0129679478704929,0.0237797554582357,0.0024282701779156897,0,
00:00:05.576,-0.0047707441262900795,-0.0329415239393711,0.0005136290565133089,0,
00:00:05.58,-0.0169405452907085,-0.0479468144476414,-0.0112289572134614,0,
00:00:05.584,0.00040007583447732004,-0.0155843934044242,-0.0046763755381107296,0,
00:00:05.588,0.0279193967580795,0.0357817858457565,-0.0116491829976439,0,
00:00:05.592,-0.0184470452368259,0.0231534447520971,0.00910961162298918,0,
00:00:05.596,0.0108970524743199,-0.00152158830314875,0.0296319182962179,0,
00:00:05.6,0.0344981700181961,0.0071223494596779294,-0.00194311828818172,0,
00:00:05.604,-0.0214845910668373,-0.000340463040629402,-0.0270606409758329,0,
00:00:05.608,-0.0260152388364077,-0.0242819990962744,0.00334604270756245,0,
00:00:05.612,-0.0109952334314585,-0.0101264119148254,0.00352865690365434,0,
00:00:05.616,-0.00218857428990304,-5.85001944273245e-05,0.00920885056257248,0,
00:00:05.62,0.0210751220583916,0.0327889546751976,0.0060910964384675,0,
00:00:05.624,0.0274931956082582,0.00857635866850615,-0.018769646063447,0,
00:00:05.628,-0.0388095639646053,-0.0373832210898399,0.00274173403158784,0,
00:00:05.632,-0.0012635620078072,0.0163228753954172,-0.0123069500550628,0,
00:00:05.636,0.0315811596810818,0.005042956210672861,0.00822289474308491,0,
00:00:05.64,0.00604628259316087,-0.0189760457724333,0.0212937667965889,0,
00:00:05.644,-0.0105220479890704,0.0172787792980671,-0.00642660912126303,0,
00:00:05.648,-0.0244187563657761,-0.0129670007154346,-0.00696424068883061,0,
00:00:05.652,-0.00930987857282162,-0.0199267491698265,-0.00138123927172273,0,
00:00:05.656,0.00857163872569799,0.0177649911493063,0.006316461134701971,0,
00:00:05.66,0.0232115816324949,0.00047172163613140594,-0.011953866109251999,0,
00:00:05.664,0.0069326260127127205,0.0353184007108212,-0.00307101011276245,0,
00:00:05.668,-0.00401104101911187,0.0257278401404619,0.0270772948861122,0,
00:00:05.672,-0.0205578953027725,-0.0350761637091637,-0.0175645407289267,0,
00:00:05.676,-0.0074460078030824705,-0.0439196564257145,-0.0161019638180733,0,
00:00:05.68,0.00610490189865232,-0.0140338456258178,0.0105787925422192,0,
00:00:05.684,0.0189651791006327,0.0150835402309895,0.0132593559101224,0,
00:00:05.688,-0.0170303210616112,0.0186956226825714,-0.000533600163180381,0,
00:00:05.692,-0.0038597856182605,0.0136212212964892,-0.00473742838948965,0,
00:00:05.696,0.0437223948538303,0.0174971632659435,-0.0059670596383512,0,
00:00:05.7,-0.0353965945541859,0.000562144385185093,-0.0118884183466434,0,
00:00:05.704,-0.00435482664033771,-0.0104239163920283,-0.00039238209137693,0,
00:00:05.708,-0.0065707038156688205,-0.0312486197799444,0.0585627295076847,0,
00:00:05.712,-0.0015278114005923302,-0.00723527232185006,-0.00615339679643512,0,
00:00:05.716,0.0247563868761063,0.0469571352005005,-0.0486296154558659,0,
00:00:05.72,0.009517206810414791,-0.0028234981000423397,-0.0278754662722349,0,
00:00:05.724,-0.007749128155410291,-0.03984467312693601,0.00956021714955568,0,
00:00:05.728,-0.020057700574398,-0.0200414396822453,0.0253811441361904,0,
00:00:05.732,0.00228220596909523,0.0384704582393169,0.0231270007789135,0,
00:00:05.736,-0.0113667761906981,0.0101823853328824,0.00139866140671074,0,
00:00:05.74,0.00765820126980543,-0.0230672042816877,-0.00452340207993984,0,
00:00:05.744,0.0431248694658279,0.0186298806220293,-0.0136947045102715,0,
00:00:05.748,-0.0179935377091169,0.0378803312778473,-0.0029900181107223,0,
00:00:05.752,-0.0216130204498768,-0.005168810486793521,-0.00123173510655761,0,
00:00:05.756,-0.01576161198318,-0.0336800329387188,-0.000908407615497708,0,
00:00:05.76,0.0126723265275359,-0.0198296010494232,-0.0105072678998113,0,
00:00:05.764,0.0155365932732821,-0.020832322537899,-0.00173795409500599,0,
00:00:05.768,-0.005152689758688211,-0.00691356556490064,0.0193951018154621,0,
00:00:05.772,-0.0064211837016046,0.0255811773240566,0.00991872232407331,0,
00:00:05.776,0.010976342484354999,0.0286112185567617,-0.002925721462816,0,
00:00:05.78,-0.0070554711855948,0.021280474960804,0.00152206537313759,0,
00:00:05.784,-0.00165010488126427,-0.004785034339874979,-0.0008172718225978309,0,
00:00:05.788,0.0315031558275223,-0.0154472412541509,-0.0267547406256199,0,
00:00:05.792,-0.0120481047779322,-0.005794333294034001,-0.0102072544395924,0,
00:00:05.796,-0.049850907176732996,-0.00034370555658824704,0.0213007796555758,0,
00:00:05.8,0.007215697783976791,-0.0222463682293892,0.0125447064638138,0,
00:00:05.804,0.026595052331686003,0.0023827850818634,0.0048351394943893,0,
00:00:05.808,0.0266021434217691,0.0235144253820181,0.000658736622426659,0,
00:00:05.812,-0.0196444801986218,-0.0317047797143459,-0.0192273799329996,0,
00:00:05.816,-0.0154059566557407,-0.0162758845835924,-0.00525473104789853,0,
00:00:05.82,0.00532972533255816,0.0576692931354046,0.0037698773667216297,0,
00:00:05.824,0.0100393379107118,0.0579293072223663,0.0126481717452407,0,
00:00:05.828,0.0033566588535904897,-0.0521584376692772,0.0049308296293020205,0,
00:00:05.832,-0.0261734891682863,-0.0728583782911301,-0.009553287178277971,0,
00:00:05.836,-0.00905115436762571,0.00116044818423688,-0.00264418078586459,0,
00:00:05.84,0.0351215787231922,0.0466119572520256,-0.0022349008359015,0,
00:00:05.844,0.00957012176513672,0.00168774870689958,0.0025467851664871,0,
00:00:05.848,-0.0051270960830152,0.006989604327827689,-0.00600835867226124,0,
00:00:05.852,-0.0202138405293226,0.0184663329273462,0.00651074666529894,0,
00:00:05.856,-0.0145692462101579,-0.0172283817082644,0.0017803311347961398,0,
00:00:05.86,-0.00411319406703115,-0.0183877013623714,0.0094524584710598,0,
00:00:05.864,0.0344037041068077,0.0242003574967384,-0.00294052599929273,0,
00:00:05.868,0.009112594649195671,-0.00927759800106287,-6.35191609035246e-05,0,
00:00:05.872,-0.0044823014177382,-0.0113455085083842,-0.0041589867323637,0,
00:00:05.876,-0.00265606492757797,-0.007629681844264271,-0.0223266519606113,0,
00:00:05.88,-0.0340252965688705,0.00312462961301208,-0.0045238505117595204,0,
00:00:05.884,-0.00308747449889779,0.00241831550374627,0.0348358228802681,0,
00:00:05.888,0.0071120229549706,0.000950322893913835,0.0108733857050538,0,
00:00:05.892,0.0168152768164873,-0.00320942513644695,-0.0175774283707142,0,
00:00:05.896,0.0254859980195761,0.0139140728861094,-0.0198761988431215,0,
00:00:05.9,0.0189034305512905,0.0016252358909696302,0.00803479924798012,0,
00:00:05.904,-0.0312858894467354,0.00412698276340961,0.0129716834053397,0,
00:00:05.908,-0.0396593101322651,0.0271488036960363,0.00683854706585407,0,
00:00:05.912,0.0127281174063683,0.0142374113202095,-0.00513051496818662,0,
00:00:05.916,0.00364687480032444,-0.053111594170332004,-0.00155824329704046,0,
00:00:05.92,-0.00551947019994259,-0.0644982010126114,-0.0212366562336683,0,
00:00:05.924,0.0116889979690313,-0.0018233151640743,0.00427278270944953,0,
00:00:05.928,0.0269836615771055,0.0591708943247795,0.0058064772747457,0,
00:00:05.932,-0.0125699089840055,0.0395757183432579,0.008370989002287391,0,
00:00:05.936,-0.00330011546611786,-8.90726078068838e-05,0.000137778828502633,0,
00:00:05.94,0.0110556622967124,-0.007852654904127121,-0.0111547652631998,0,
00:00:05.944,-0.00957331899553537,-0.00935356505215168,0.00343987112864852,0,
00:00:05.948,-0.0471263714134693,-0.0265841819345951,0.0432026498019695,0,
00:00:05.952,-0.0033915073145180897,-0.0122234476730227,-0.0137682491913438,0,
00:00:05.956,0.0522211492061615,0.00310889771208167,-0.0268086194992065,0,
00:00:05.96,0.00910229235887527,0.0300701782107353,-0.0169637612998486,0,
00:00:05.964,0.0111238863319159,0.0498061925172806,-0.0142892142757773,0,
00:00:05.968,-0.00249056331813335,-0.00536401057615876,0.0201745722442865,0,
00:00:05.972,-0.0211924333125353,-0.0505403019487858,0.00808149762451649,0,
00:00:05.976,-0.0250908751040697,-0.0627880096435547,0.0181931462138891,0,
00:00:05.98,-0.011626061052083999,-0.00892172940075397,0.00268533220514655,0,
00:00:05.984,0.00199184217490256,0.0315432734787464,-0.0201890133321285,0,
00:00:05.988,0.0148786613717675,0.0510270111262798,0.0270676109939814,0,
00:00:05.992,0.0500770397484303,0.0352600961923599,-0.0135303596034646,0,
00:00:05.996,0.0118387211114168,-0.006277572829276321,-0.0210662614554167,0,
00:00:06,-0.0503740906715393,-0.0295738782733679,0.00768106430768967,0,
00:00:06.004,-0.0254939775913954,0.0050650779157877,0.0009425980388186869,0,
00:00:06.008,-0.00451748492196202,-0.033969409763813,-0.00408388255164027,0,
00:00:06.012,0.036167036741972004,-0.0119661753997207,0.00490986509248614,0,
00:00:06.016,0.0151201216503978,0.0210009943693876,0.000698818184901029,0,
00:00:06.02,-0.0026050640735775198,0.019129442051053002,0.00152370100840926,0,
00:00:06.024,-0.0105181625112891,0.00184296502266079,0.00828929245471954,0,
00:00:06.028,-0.0138308545574546,-0.009297921322286129,-0.00668413704261184,0,
00:00:06.032,-0.00260928692296147,-0.00816216599196196,-0.000873529817909002,0,
00:00:06.036,0.0101660452783108,-0.00274731125682592,0.00435196654871106,0,
00:00:06.04,0.005814149975776671,-0.0147186070680618,-0.0061769746243953705,0,
00:00:06.044,-0.0277921576052904,-0.007418031804263591,0.000286212132778019,0,
00:00:06.048,0.0153882587328553,0.0440511368215084,-0.0135778002440929,0,
00:00:06.052,0.0215698052197695,0.0699083209037781,-0.019215565174818,0,
00:00:06.056,0.0016334179090336,-0.041436355561018,0.0676390901207924,0,
00:00:06.06,0.00215258612297475,-0.0847798809409142,0.0408100038766861,0,
00:00:06.064,-0.0273396968841553,-0.0318411849439144,-0.0687592551112175,0,
00:00:06.068,-0.0179379992187023,0.0306139960885048,-0.0526149943470955,0,
00:00:06.072,0.0254578366875649,0.0521722733974457,-0.0037790143396705398,0,
00:00:06.076,0.0240707118064165,0.0305077228695154,0.0299907457083464,0,
00:00:06.08,-0.0225473139435053,-0.0116791371256113,0.0300518777221441,0,
00:00:06.084,-0.008039962500333791,-0.0163366310298443,0.018596239387989,0,
00:00:06.088,0.00317584769800305,-0.009483484551310541,-0.0140508925542235,0,
00:00:06.092,0.0005017081857658919,-0.0128717515617609,-0.0123307779431343,0,
00:00:06.096,-0.0039917170070111795,-0.0180686227977276,0.0278198607265949,0,
00:00:06.1,0.013124986551702,0.0125629901885986,-0.018853010609746004,0,
00:00:06.104,0.007226264104247091,0.0481141395866871,-0.0395326651632786,0,
00:00:06.108,0.00819728616625071,0.0442937612533569,-0.0145610859617591,0,
00:00:06.112,0.00597407761961222,-0.0687069445848465,0.0411753915250301,0,
00:00:06.116,-0.071586862206459,-0.0804616808891296,0.0349695682525635,0,
00:00:06.12,-0.0172531269490719,-0.009952328167855741,-0.00208912626840174,0,
00:00:06.124,0.071040466427803,0.0682151839137077,-0.0303995609283447,0,
00:00:06.128,0.0395409800112247,0.0564096979796886,-0.0302556622773409,0,
00:00:06.132,-0.0165546573698521,0.0072502032853663,0.00853229779750109,0,
00:00:06.136,-0.0281218849122524,-0.0136006763204932,0.020630307495594,0,
00:00:06.14,-0.0117581486701965,-0.0226645357906818,0.00479836901649833,0,
00:00:06.144,-0.0112084588035941,-0.0397378504276276,0.00532602751627564,0,
00:00:06.148,0.00378223927691579,-0.00766064645722508,-0.00159133912529796,0,
00:00:06.152,0.0125152636319399,0.0394781082868576,0.0045749698765575894,0,
00:00:06.156,0.0197516232728958,0.0544133447110653,-0.0173747837543488,0,
00:00:06.16,-0.0072169117629528,-0.0512700192630291,-0.000295839534373954,0,
00:00:06.164,-0.0211091507226229,-0.0674761906266212,0.0206533633172512,0,
00:00:06.168,0.0149952676147223,0.00604185834527016,0.0016688181785866599,0,
00:00:06.172,-0.0133810229599476,0.0291742701083422,-0.0180337652564049,0,
00:00:06.176,0.0103614116087556,0.0503307655453682,-0.023814907297492,0,
00:00:06.18,0.0043357475660741294,0.0235374178737402,-0.00452722515910864,0,
00:00:06.184,0.00433852802962065,-0.0162256937474012,0.0161067601293325,0,
00:00:06.188,-0.00583553267642856,-0.0306694954633713,0.0209205895662308,0,
00:00:06.192,-0.00130981137044728,-0.00039216180448420297,0.0127821117639542,0,
00:00:06.196,-0.00156618596520275,0.000448459875769913,-0.0012254862813279,0,
00:00:06.2,-0.00178147084079683,-0.0202195309102535,-0.0118040340021253,0,
00:00:06.204,-0.00102099892683327,0.00507956463843584,-0.0146758444607258,0,
00:00:06.208,0.00428826874122024,0.0231381729245186,-0.00888767186552286,0,
00:00:06.212,-0.00297780777327716,-0.0255819167941809,0.016355961561203,0,
00:00:06.216,-0.008334744721651079,-0.0344101749360561,0.0129589140415192,0,
00:00:06.22,0.0022802934981882603,0.021051274612546,0.0163086149841547,0,
00:00:06.224,-0.0140095828101039,0.0709796473383904,-0.0512212477624416,0,
00:00:06.228,0.0253228899091482,-0.006191367749124771,0.016256308183074,0,
00:00:06.232,0.0286611523479223,-0.0269232802093029,0.00169049843680114,0,
00:00:06.236,-0.00749502517282963,-0.0117388665676117,0.00394938606768847,0,
00:00:06.24,-0.009118000045418741,0.00304693379439414,0.00160722399596125,0,
00:00:06.244,-0.0272975396364927,0.0283690337091684,-0.0214058626443148,0,
00:00:06.248,-0.0113972295075655,0.00741968490183353,0.0038026664406061203,0,
00:00:06.252,0.0062523907981813,-0.0580307729542255,0.0168151762336493,0,
00:00:06.256,0.0157163795083761,-0.0484661720693111,0.0250104423612356,0,
00:00:06.26,-0.00540310051292181,0.0117479655891657,0.0136007321998477,0,
00:00:06.264,0.00166728754993528,0.0337336733937263,-0.0325332134962082,0,
00:00:06.268,0.0144615238532424,0.0732283741235733,-0.030744194984436004,0,
00:00:06.272,-0.0005028186133131379,0.0370196215808392,-0.00401180004701018,0,
00:00:06.276,0.00963929668068886,-0.0383441336452961,0.0170086659491062,0,
00:00:06.28,-0.007672922220081091,-0.066886268556118,0.016230508685112,0,
00:00:06.284,-0.0170864053070545,-0.0470649488270283,0.00490538170561194,0,
00:00:06.288,-0.000804765382781625,0.0188909471035004,-0.0018568631494417802,0,
00:00:06.292,-0.0355737321078777,0.0531850084662437,-0.000302784086670727,0,
00:00:06.296,0.0200434364378452,0.0378298386931419,-0.0017266949871555,0,
00:00:06.3,0.0396956019103527,-0.0326988361775875,-0.0133812390267849,0,
00:00:06.304,0.0166682153940201,-0.0228000078350306,-0.0034644589759409397,0,
00:00:06.308,-0.0102974204346538,0.0153591725975275,0.0100102908909321,0,
