Elapsed Time,EMG1,EMG2,EMG3,BioRadio Event,Unnamed: 5
00:00:00,1.5879718065261799,0.595748901367188,0.18059286475181602,0,
00:00:00.004,-1.50697004795074,-0.5627659559249879,-0.149019464850426,0,
00:00:00.008,-1.26634085178375,-0.466913849115372,-0.17496518790721902,0,
00:00:00.012,-0.12448941171169302,-0.0640711933374405,-0.0339671075344086,0,
00:00:00.016,0.651741981506348,0.230690702795982,0.108139380812645,0,
00:00:00.02,0.7760626077651981,0.311779111623764,0.0630065202713013,0,
00:00:00.024,0.47319126129150396,0.169069558382034,0.0488260127604008,0,
00:00:00.028,0.0455257147550583,0.0502880588173866,0.0502222701907158,0,
00:00:00.032,-0.21119450032710999,-0.07576457411050799,0.0521585121750832,0,
00:00:00.036,-0.32521092891693104,-0.17319034039974202,-0.0906764417886734,0,
00:00:00.04,-0.20423702895641302,-0.0735891461372375,-0.126468494534492,0,
00:00:00.044,-0.0674350038170815,-0.00767967896535993,-0.0287923309952021,0,
00:00:00.048,0.032137293368578,0.00672477670013905,0.0421623736619949,0,
00:00:00.052,0.0605967976152897,0.0471163354814053,0.0752144083380699,0,
00:00:00.056,0.0888851284980774,0.0234594698995352,-3.65746818715706e-05,0,
00:00:00.06,0.0193839464336634,0.0152920112013817,0.0185724254697561,0,
00:00:00.064,0.0042871013283729605,-0.0153428744524717,0.0125301796942949,0,
00:00:00.068,0.0408757999539375,-0.0329110994935036,-0.0413061529397964,0,
00:00:00.072,-0.0182654801756144,0.0776598379015923,-0.00804562494158745,0,
00:00:00.076,-0.113973259925842,-0.0371915809810162,0.0046815550886094605,0,
00:00:00.08,-0.006491986103355879,-0.062353577464819,-0.0116373626515269,0,
00:00:00.084,0.0420162789523602,0.0037963078357279296,-0.0312405545264483,0,
00:00:00.088,0.0278569925576448,0.0313972868025303,-0.0025487188249826397,0,
00:00:00.092,0.0165907721966505,0.0155073180794716,0.0363682769238949,0,
00:00:00.096,0.00602903263643384,0.0100285448133945,0.0355215519666672,0,
00:00:00.1,-0.0102462340146303,0.0035931782331317702,-0.0419195704162121,0,
00:00:00.104,-0.0144763458520174,-0.0321719720959663,0.0560177676379681,0,
00:00:00.108,-0.0497648380696774,0.0287718269973993,-0.00299902609549463,0,
00:00:00.112,0.0155507512390614,0.00551292998716235,-0.007715715095400809,0,
00:00:00.116,0.0491834282875061,-0.0424353182315826,-0.0439619235694408,0,
00:00:00.12,0.0226195175200701,0.0147777097299695,-0.0648059174418449,0,
00:00:00.124,-0.0338341556489468,-0.0135188270360231,0.0193820204585791,0,
00:00:00.128,-0.0413181930780411,-0.00165555404964834,0.0883150473237038,0,
00:00:00.132,0.0324925743043423,0.009597220458090309,0.0172575768083334,0,
00:00:00.136,0.0094161368906498,0.0288664847612381,-0.047562051564455005,0,
00:00:00.14,-0.00200513936579227,0.0170293785631657,-0.0169944763183594,0,
00:00:00.144,0.0114902583882213,-0.020934633910656,-0.0262940805405378,0,
00:00:00.148,-0.0340306386351585,-0.0155603010207415,0.064575158059597,0,
00:00:00.152,-0.0189515314996243,-0.0170057062059641,0.0366678647696972,0,
00:00:00.156,0.0393387414515018,0.014641622081398999,-0.0663105994462967,0,
00:00:00.16,0.0167694427073002,0.00622721621766686,-0.0248292330652475,0,
00:00:00.164,0.0013683717697858802,-0.008861645124852659,0.025031978264451,0,
00:00:00.168,-0.0259436964988709,-0.011774274520576,0.0361414328217506,0,
00:00:00.172,-0.0103582190349698,0.00967775098979473,-0.0450405739247799,0,
00:00:00.176,0.0192001257091761,0.0233769398182631,-0.0467115715146065,0,
00:00:00.18,-0.0056638945825398,-0.00497003411874175,0.0496176555752754,0,
00:00:00.184,-0.0163645520806313,-0.00674916245043278,0.11653189361095401,0,
00:00:00.188,0.00160065619274974,0.00196656794287264,-0.0514379553496838,0,
00:00:00.192,0.032686173915863,-0.0008871263707987961,-0.0944253206253052,0,
00:00:00.196,0.0104320757091045,-0.00798975955694914,-0.0098855709657073,0,
00:00:00.2,-0.022969925776124,0.000149847983266227,0.0254172366112471,0,
00:00:00.204,-0.0222189147025347,-0.0108400685712695,0.0239206776022911,0,
00:00:00.208,0.0048024631105363395,-0.00163028191309422,0.0193397030234337,0,
00:00:00.212,0.0106557291001081,0.0281738676130772,-0.0289193727076054,0,
00:00:00.216,0.0173037834465504,-0.0038336538709700103,0.0118459705263376,0,
00:00:00.22,-0.0107096256688237,-0.0035451774019748,0.0646014213562012,0,
00:00:00.224,0.00164061202667654,0.0303610060364008,-0.0163760632276535,0,
00:00:00.228,-0.0415823832154274,-0.0272473078221083,-0.0584943294525146,0,
00:00:00.232,0.0173866599798203,-0.0413484908640385,-0.0489745587110519,0,
00:00:00.236,0.033939104527234996,0.010465957224368999,0.0027009712066501396,0,
00:00:00.24,0.0151253305375576,0.0183058548718691,0.0355151668190956,0,
00:00:00.244,-0.00829472951591015,0.0081388195976615,0.0475362986326218,0,
00:00:00.248,-0.018506895750761,-0.00756172137334943,-0.00514301378279924,0,
00:00:00.252,-0.0339487977325916,-0.0009280461235903199,0.0269078817218542,0,
00:00:00.256,-0.0024210601113736603,0.0512719377875328,-0.0232872981578112,0,
00:00:00.26,0.0545577481389046,-0.0248006712645292,-0.0369673334062099,0,
00:00:00.264,-0.009624221362173559,-0.0453264713287354,-0.00902666989713907,0,
00:00:00.268,-0.0117570478469133,-0.0214600302278996,0.0070737600326538095,0,
00:00:00.272,-0.0193964075297117,0.0507305078208447,-0.0279556699097157,0,
00:00:00.276,-0.00788276363164186,0.011603981256485001,0.0811201706528664,0,
00:00:00.28,0.0240998342633247,-0.0244416948407888,-0.0247156526893377,0,
00:00:00.284,0.0253466330468655,0.014672540128231002,-0.00280583486892283,0,
00:00:00.288,0.0018437503604218398,0.00274263438768685,-0.0300751067698002,0,
00:00:00.292,-0.0126327564939857,-0.00469381827861071,-0.011730351485312,0,
00:00:00.296,-0.00638659158721566,-0.00204303627833724,0.0158164463937283,0,
00:00:00.3,-0.0290745105594397,-0.009856541641056541,0.0204617325216532,0,
00:00:00.304,0.00227710860781372,-0.0121579198166728,0.0220956802368164,0,
00:00:00.308,0.0320462249219418,0.0192540865391493,0.0339493192732334,0,
00:00:00.312,-0.006125850602984429,0.0149493170902133,-0.061015535145998,0,
00:00:00.316,-0.0306719299405813,-0.0151305040344596,-0.0442188084125519,0,
00:00:00.32,0.0188958346843719,-0.0107238572090864,0.0288474541157484,0,
00:00:00.324,0.023910878226161,0.00468310387805104,0.0052898819558322395,0,
00:00:00.328,0.00136345543432981,0.0176124256104231,0.0058690197765827205,0,
00:00:00.332,-0.0182705018669367,-0.0121589284390211,-0.0108421901240945,0,
00:00:00.336,0.00326935504563153,-0.000373730959836394,0.0109131764620543,0,
00:00:00.34,-0.00740165915340185,0.0036558860447257796,0.0316886119544506,0,
00:00:00.344,0.0100090736523271,-0.0119589390233159,-0.0163396410644054,0,
00:00:00.348,-0.0273262076079845,0.0344278663396835,-0.00713897868990898,0,
00:00:00.352,0.0148545783013105,-0.0207862835377455,0.0409038364887238,0,
00:00:00.356,-0.010074220597744,-0.028643075376749,-0.0570233687758446,0,
00:00:00.36,0.0247918255627155,0.003972488455474379,-0.046120535582304,0,
00:00:00.364,0.011906860396266,0.011033209040761001,0.0538755171000957,0,
00:00:00.368,-0.008276232518255709,0.0184431411325932,-0.020763523876667,0,
00:00:00.372,-0.0119308419525623,-0.00679869391024113,-0.0167290214449167,0,
00:00:00.376,-0.0155989117920399,0.00795793905854225,0.11239949613809598,0,
00:00:00.38,0.0255691427737474,0.0251942947506905,0.00522189913317561,0,
00:00:00.384,-0.008095210418105129,-0.0247674100100994,-0.0613699778914452,0,
00:00:00.388,-0.0016569233266636699,-0.0256648845970631,-0.0742397457361221,0,
00:00:00.392,-0.0286973938345909,-0.0131998034194112,0.0021375040523707897,0,
00:00:00.396,-0.00108370231464505,-0.0024658085312694302,0.0467390455305576,0,
00:00:00.4,0.0441768020391464,0.0294255558401346,0.0231142789125443,0,
00:00:00.404,0.0328876487910748,0.0184283517301083,0.00592475570738316,0,
00:00:00.408,-0.0338999330997467,0.004119585733860729,-0.00244939513504505,0,
00:00:00.412,-0.0268033128231764,-0.00838144402951002,-0.0372110344469547,0,
00:00:00.416,0.0295238010585308,-0.0121358195319772,-0.022376636043191,0,
00:00:00.42,-0.0310293063521385,-0.0231559202075005,0.12171510607004199,0,
00:00:00.424,-0.0306558161973953,0.0114100417122245,0.0147229060530663,0,
00:00:00.428,0.0230599790811539,0.0140372589230537,-0.131895154714584,0,
00:00:00.432,0.0277881659567356,0.0036736147012561603,-0.0371976234018803,0,
00:00:00.436,0.0236101429909468,-0.00220018881373107,0.0293695218861103,0,
00:00:00.44,0.00265664421021938,-0.00594359543174505,0.0588199272751808,0,
00:00:00.444,-0.0193369500339031,-0.007096608635038141,-0.00346462591551244,0,
00:00:00.448,-0.00893052574247122,0.0108111519366503,-0.00244554481469095,0,
00:00:00.452,-0.0418309010565281,-0.00858466140925884,-0.0374280959367752,0,
00:00:00.456,0.0169952884316444,0.0137794408947229,0.0792911723256111,0,
00:00:00.46,0.0243841297924519,0.00983903277665377,0.00363689311780036,0,
00:00:00.464,0.016153372824192002,-0.0154409362003207,-0.043003972619772006,0,
00:00:00.468,-0.00547041464596987,-0.00877758767455816,-0.0257425718009472,0,
00:00:00.472,-0.0220396760851145,-0.008566464297473429,-0.0247137043625116,0,
00:00:00.476,0.00134263560175896,0.0039237360469996894,0.00417753541842103,0,
00:00:00.48,-0.0170350298285484,0.000298269878840074,0.0209133457392454,0,
00:00:00.484,0.0125332642346621,-0.0100868325680494,0.00881857704371214,0,
00:00:00.488,0.0568491257727146,0.0390330217778683,0.0628728792071342,0,
00:00:00.492,-0.0156256873160601,0.050506591796875,0.0391013622283936,0,
00:00:00.496,-0.039554800838232006,-0.0531684905290604,-0.102133728563786,0,
00:00:00.5,-0.0114898271858692,-0.0475921370089054,-0.05467646569013599,0,
00:00:00.504,-0.0160634908825159,-0.00669964076951146,0.0070904595777392405,0,
00:00:00.508,0.0320180654525757,0.0215275455266237,0.0363913215696812,0,
00:00:00.512,0.0208131391555071,0.0137448133900762,0.0217737797647715,0,
00:00:00.516,0.0141229843720794,0.0144399385899305,0.0276880227029324,0,
00:00:00.52,-0.0279035829007626,0.0219899266958237,0.00263812183402479,0,
00:00:00.524,-0.017129922285676,-0.00891974661499262,0.00401719287037849,0,
00:00:00.528,0.0142343752086163,-0.032677199691534,-0.0401064269244671,0,
00:00:00.532,0.0017264042980969,-0.012369635514915002,-0.0205579027533531,0,
00:00:00.536,-0.0012723853578791,0.00628966651856899,-0.00903881713747978,0,
00:00:00.54,0.011758771724998998,0.00296942796558142,0.0102719021961093,0,
00:00:00.544,-0.0259880144149065,0.020259503275156004,0.0331117361783981,0,
00:00:00.548,-0.009688799269497391,0.0031407242640852898,0.0113295391201973,0,
00:00:00.552,0.0415375120937824,-0.012778808362782,-0.0306257456541061,0,
00:00:00.556,0.00839515961706638,0.0312431827187538,0.0488956868648529,0,
00:00:00.56,-0.026101341471076,-0.0226924903690815,-0.0340550653636456,0,
00:00:00.564,0.00636409921571612,-0.037634801119566,-0.042039480060338995,0,
00:00:00.568,-0.0042166723869741,0.00536286877468228,-0.0205403883010149,0,
00:00:00.572,-0.0294322557747364,0.0293699558824301,0.0541627258062363,0,
00:00:00.576,0.0057126111350953605,0.00306740356609225,0.0663983970880508,0,
00:00:00.58,0.0244082305580378,0.00285758962854743,-0.009570085443556309,0,
00:00:00.584,0.0128510138019919,-0.0024313444737345,-0.0698259398341179,0,
00:00:00.588,0.00632089609280229,-0.0117108197882771,-0.0328415408730507,0,
00:00:00.592,-0.0152089651674032,-0.00314793433062732,0.018115421757102002,0,
00:00:00.596,-0.0214241910725832,0.0045388168655335894,0.0130835082381964,0,
00:00:00.6,0.0185166411101818,-0.00205086264759302,-0.00646010087803006,0,
00:00:00.604,0.0148370023816824,-0.0114057064056396,0.0849579721689224,0,
00:00:00.608,-0.0537603236734867,0.0528804734349251,0.0111085865646601,0,
00:00:00.612,0.0147860543802381,-0.0119526442140341,-0.0657690241932869,0,
00:00:00.616,0.0346844606101513,-0.0308950245380402,-0.0504913479089737,0,
00:00:00.62,0.0143272168934345,-0.0253784339874983,-0.0034713193308562,0,
00:00:00.624,-0.0179609283804893,0.0114349732175469,0.0205058287829161,0,
00:00:00.628,-0.0255325883626938,0.0143529279157519,0.00302106118761003,0,
00:00:00.632,0.0102558489888906,-0.00744912866503,0.0387785844504833,0,
00:00:00.636,0.0188811421394348,0.0307928752154112,0.0696135982871056,0,
00:00:00.64,0.0125532476231456,0.03254993632435799,-0.0350268930196762,0,
00:00:00.644,-0.0474929921329021,-0.0351212956011295,-0.0786838307976723,0,
00:00:00.648,-0.0114960595965385,-0.0383170694112778,-0.0306952223181725,0,
00:00:00.652,0.0131374876946211,-0.00691951019689441,0.020560247823596,0,
00:00:00.656,0.0321041829884052,0.0142525378614664,0.0313176177442074,0,
00:00:00.66,0.0180667489767075,0.0207346305251122,0.0250819344073534,0,
00:00:00.664,-0.0165554247796535,-0.00490369088947773,-0.0193859841674566,0,
00:00:00.668,-0.0375701487064362,0.0074208602309227,0.0189222693443298,0,
00:00:00.672,-0.00127005111426115,0.011594083160161998,0.0795873999595642,0,
00:00:00.676,0.0201252270489931,-0.008940247818827629,-0.0771157145500183,0,
00:00:00.68,0.0329534597694874,-0.0186844170093536,-0.0816858634352684,0,
00:00:00.684,-0.00505094742402434,-0.0012578758178278802,-0.0174081269651651,0,
00:00:00.688,-0.0177614856511354,-0.00159521820023656,0.0481221526861191,0,
00:00:00.692,-0.0143246715888381,0.0125920623540878,0.0602693445980549,0,
00:00:00.696,-0.00492113595828414,0.009449934586882591,-0.0199341382831335,0,
00:00:00.7,0.00514614162966609,-0.0235992278903723,0.00642826873809099,0,
00:00:00.704,-0.0266283843666315,0.00243913615122437,0.0574899576604366,0,
00:00:00.708,0.0461043678224087,0.0292875543236732,-0.0608397498726845,0,
00:00:00.712,0.0194599479436874,-0.0036490606144070604,-0.0547151751816273,0,
00:00:00.716,-0.0229740925133228,-0.006581358145922421,0.00259586074389517,0,
00:00:00.72,0.0168768987059593,-0.0381361469626427,-0.0383413396775723,0,
00:00:00.724,-0.0156741235405207,0.0207018833607435,0.122671328485012,0,
00:00:00.728,-0.0463647395372391,0.0477776192128658,0.100720345973969,0,
00:00:00.732,-0.00213157804682851,-0.0356585644185543,-0.14959833025932298,0,
00:00:00.736,0.0395560376346111,-0.0256512928754091,-0.0857703387737274,0,
00:00:00.74,0.0362081974744797,-0.004105957690626379,0.029640806838869996,0,
00:00:00.744,-0.0419904924929142,0.012944602407515,0.0655384361743927,0,
00:00:00.748,-0.0114535978063941,0.0187029000371695,0.0384729988873005,0,
00:00:00.752,0.0458612740039825,0.0104832984507084,-0.0011860636295750698,0,
00:00:00.756,-0.0159959848970175,0.0101509336382151,-0.0549726933240891,0,
00:00:00.76,-0.0106488130986691,0.00403557578101754,0.00653722696006298,0,
00:00:00.764,-0.00893016438931227,-0.035826351493596996,0.00277979555539787,0,
00:00:00.768,-0.008931496180593971,-0.0202868580818176,0.000616009754594415,0,
00:00:00.772,0.00645698141306639,-0.00281104235909879,-0.012261925265193001,0,
00:00:00.776,0.0220154970884323,0.0217245612293482,-0.0145587278530002,0,
00:00:00.78,-0.0182755310088396,0.0177644118666649,0.0551511608064175,0,
00:00:00.784,-0.0011785115348175198,0.00307580106891692,0.0159421823918819,0,
00:00:00.788,0.0144086247310042,-0.0111252386122942,-0.0434091463685036,0,
00:00:00.792,-4.38628521806095e-05,0.00957017298787832,-0.025468647480011,0,
00:00:00.796,0.0205241329967976,-0.0117333009839058,0.0060068168677389604,0,
00:00:00.8,-0.0398587100207806,-0.00717911962419748,0.0252235718071461,0,
00:00:00.804,-0.0134385414421558,-0.00282440055161715,-0.00889523141086102,0,
00:00:00.808,0.0287359673529863,0.00322344014421105,-0.0109565015882254,0,
00:00:00.812,-0.0104737794026732,-0.000570481759496033,0.11667381972074499,0,
00:00:00.816,0.00961237773299217,-0.00837003160268068,-0.0770052969455719,0,
00:00:00.82,0.015491234138608,0.0719066262245178,-0.0354474484920502,0,
00:00:00.824,-0.0104055302217603,-0.0312093943357468,-0.039400752633809995,0,
00:00:00.828,-0.0139607284218073,-0.0450804159045219,-0.0163093358278275,0,
00:00:00.832,0.00142286869231611,-0.00448182597756386,0.0381706245243549,0,
00:00:00.836,-0.00646369298920035,-0.0036316586192697295,0.0467775873839855,0,
00:00:00.84,0.0036468785256147398,0.0153196034952998,0.0283230040222406,0,
00:00:00.844,0.0140235340222716,0.0197410006076097,-0.00650264183059335,0,
00:00:00.848,0.0229914933443069,0.016197893768549,-0.0463652424514294,0,
00:00:00.852,-0.0352256968617439,-0.00316879665479064,-0.00887467339634895,0,
00:00:00.856,-0.00437175994738936,-0.012516244314611,0.0231102257966995,0,
00:00:00.86,0.0056409751996398,-0.0118033764883876,-0.0111774504184723,0,
00:00:00.864,0.00354771711863577,-0.0161169823259115,-0.00402501318603754,0,
00:00:00.868,0.0063986834138631795,0.0125618828460574,0.0108348438516259,0,
00:00:00.872,-0.005043942481279371,0.006312841549515721,0.0053637158125639,0,
00:00:00.876,0.0110527789220214,0.0161026399582624,-0.0106459287926555,0,
00:00:00.88,0.007408818695694209,-0.0061309365555644,-0.00814779195934534,0,
00:00:00.884,-0.0660158917307854,-0.0347793735563755,0.0077634504996240096,0,
00:00:00.888,0.0015932851238176198,0.00163676810916513,-0.00303635862655938,0,
00:00:00.892,0.0939040705561638,0.0854007676243782,0.0180998109281063,0,
00:00:00.896,-0.0147428773343563,-0.0413057170808315,0.0207543075084686,0,
00:00:00.9,-0.0105421058833599,-0.0429923608899117,-0.0544186420738697,0,
00:00:00.904,-0.0311930142343044,-0.0118085658177733,-0.025117676705122004,0,
00:00:00.908,-0.0289402715861797,0.0218081288039684,0.0418743602931499,0,
00:00:00.912,0.0333781316876411,0.0278418324887753,0.0763454511761665,0,
00:00:00.916,0.0218510460108519,0.0257416237145662,-0.0100290132686496,0,
00:00:00.92,-0.0248734038323164,-0.0422045662999153,-0.0794164910912514,0,
00:00:00.924,-0.0010706182802096,-0.0132361045107245,-0.0629982277750969,0,
00:00:00.928,0.0210320502519608,-0.0159371569752693,0.0180046018213034,0,
00:00:00.932,-0.0229526739567518,0.0238209962844849,0.0630308464169502,0,
00:00:00.936,-0.0168900620192289,0.0380604527890682,0.0425862707197666,0,
00:00:00.94,0.0221979096531868,-0.0223044231534004,-0.00647262949496508,0,
00:00:00.944,0.0350915566086769,0.00251130945980549,-0.0239884927868843,0,
00:00:00.948,0.00627408130094409,-0.0205427203327417,-0.0308774746954441,0,
00:00:00.952,-0.0176562443375587,0.00555947748944163,-0.00483047869056463,0,
00:00:00.956,-0.0460220538079739,0.00638236803933978,0.076800674200058,0,
00:00:00.96,-0.00541805941611528,-0.0156456753611565,-0.0166969690471888,0,
00:00:00.964,0.0175077114254236,0.00476716039702296,-0.0611980706453323,0,
00:00:00.968,0.0225360039621592,0.0158576145768166,-0.0297260191291571,0,
00:00:00.972,0.00535919284448028,-0.00183434667997062,0.0182666592299938,0,
00:00:00.976,-0.00781343691051006,-0.000188404868822545,0.0319506824016571,0,
00:00:00.98,-0.0146994069218636,-0.0101369237527251,-0.0020778994075954,0,
00:00:00.984,0.0166428759694099,0.00304430769756436,0.0547416843473911,0,
00:00:00.988,0.0232083946466446,0.0291516818106174,0.0285374261438847,0,
00:00:00.992,-0.00811563711613417,-0.0326791703701019,-0.10216993093490599,0,
00:00:00.996,-0.0174261014908552,-0.0006704971310682589,-0.0443729907274246,0,
00:00:01,-0.094039186835289,0.008570855483412741,0.112402126193047,0,
00:00:01.004,0.0438649840652943,-0.0168441385030746,-0.0166722219437361,0,
00:00:01.008,0.0657422319054604,-0.0049949348904192396,-0.0548593290150166,0,
00:00:01.012,0.0386368669569492,0.0151314856484532,-0.0190126243978739,0,
00:00:01.016,-0.0139166861772537,0.00720469607040286,-0.0259500611573458,0,
00:00:01.02,-0.0394740626215935,-0.000270620337687433,0.0739823952317238,0,
00:00:01.024,-0.0481833331286907,0.0111280540004373,0.220748245716095,0,
00:00:01.028,0.0286040846258402,0.0124073335900903,-0.17931030690670002,0,
00:00:01.032,0.0144933136180043,-0.0128470743075013,-0.129271224141121,0,
00:00:01.036,-0.00360266258940101,-0.0238186251372099,-0.0227365251630545,0,
00:00:01.04,0.00918300356715918,-0.023113090544939,0.0470580160617828,0,
00:00:01.044,0.0101857148110867,0.0201264526695013,0.079415962100029,0,
00:00:01.048,-0.0153065752238035,0.05024511367082599,0.0461761243641377,0,
00:00:01.052,-0.0133933471515775,-0.0321261249482632,-0.0118662100285292,0,
00:00:01.056,0.0158201735466719,-0.0274643246084452,-0.051335833966732004,0,
00:00:01.06,0.00224030273966491,0.0167416017502546,0.008796403184533121,0,
00:00:01.064,-0.0184817984700203,0.007456575054675341,-0.00243442133069038,0,
00:00:01.068,-0.0236906390637159,-0.00998564902693033,-0.0245041530579329,0,
00:00:01.072,0.0474548190832138,0.00328565365634859,-0.0196132250130177,0,
00:00:01.076,0.0305975135415792,0.0204484015703201,0.003968439996242521,0,
00:00:01.08,-0.0179950427263975,-0.00409682560712099,-0.03687357157468799,0,
00:00:01.084,0.0196874309331179,0.0159540940076113,0.152057722210884,0,
00:00:01.088,-0.0977334976196289,-0.006480647716671229,0.12145119160413699,0,
00:00:01.092,-0.0262301899492741,-0.0423297919332981,-0.181046903133392,0,
00:00:01.096,0.0713959112763405,-0.0202339757233858,-0.157268270850182,0,
00:00:01.1,0.0449178442358971,0.0148132061585784,0.0136549463495612,0,
00:00:01.104,0.00890564359724522,0.0270396806299686,0.0873217731714249,0,
00:00:01.108,-0.0280033219605684,0.0240746792405844,0.0648862943053246,0,
00:00:01.112,-0.0251865163445473,-0.000762434618081898,0.0014023539843037698,0,
00:00:01.116,0.0031132830772548897,-0.0183927323669195,0.032923087477684,0,
00:00:01.12,0.0006208582199178639,-0.0106160528957844,0.00449025817215443,0,
00:00:01.124,0.000276120059425011,0.0125144328922033,-0.0962505117058754,0,
00:00:01.128,-0.00312846922315657,-0.00439207488670945,0.000739374780096114,0,
00:00:01.132,-0.00684107001870871,-0.0171722676604986,-0.0005517035024240611,0,
00:00:01.136,0.00848928838968277,-0.009669263847172259,-0.0264989156275988,0,
00:00:01.14,0.0524143651127815,0.06693434715271,0.0201863460242748,0,
00:00:01.144,-0.0502123758196831,-0.0343825295567513,0.16020242869854,0,
00:00:01.148,-0.0174820963293314,-0.0267223473638296,-0.076337493956089,0,
00:00:01.152,0.00522910198196769,-0.00211648526601493,-0.106246434152126,0,
00:00:01.156,0.0403107888996601,-0.00121368770487607,-0.0456810407340527,0,
00:00:01.16,-0.0109290154650807,0.0286222621798515,0.11054381728172301,0,
00:00:01.164,-0.032115425914526,0.0378184877336025,0.11917334794998198,0,
00:00:01.168,0.0038780476897954897,-0.0340416505932808,-0.107858583331108,0,
00:00:01.172,0.00964267831295729,-0.0192676149308681,-0.0967501699924469,0,
00:00:01.176,0.034587386995554005,-0.00284306332468987,0.0023554938379675198,0,
00:00:01.18,-0.00399697478860617,-0.0102555323392153,0.0808565765619278,0,
00:00:01.184,-0.0316433049738407,0.0296818669885397,0.0229857284575701,0,
00:00:01.188,-0.0212847199290991,0.00942480936646461,0.0165355205535889,0,
00:00:01.192,0.0153019120916724,-0.0201782900840044,-0.0409941375255585,0,
00:00:01.196,0.0027222093194723103,-0.0009043719037435949,0.00292697106488049,0,
00:00:01.2,0.0271795112639666,-0.0006624241941608491,-0.0331375151872635,0,
00:00:01.204,0.00523864850401878,-0.00426593562588096,0.0128728011623025,0,
00:00:01.208,-0.0184552185237408,0.0234921183437109,-0.0211545787751675,0,
00:00:01.212,-0.0265441704541445,-0.00669454177841544,0.0872374400496483,0,
00:00:01.216,0.0133500015363097,-0.0104124052450061,-0.0377566888928413,0,
00:00:01.22,0.0237407833337784,0.00994410831481218,-0.0362279042601585,0,
00:00:01.224,-0.00882682669907808,-0.0165275949984789,0.0165556743741035,0,
00:00:01.228,0.00195338623598218,-0.007541002240031959,-0.00681819720193744,0,
00:00:01.232,-0.0148182678967714,0.00753887929022312,-0.0180139821022749,0,
00:00:01.236,-0.0024684511590749,0.00263553415425122,0.024518946185707994,0,
00:00:01.24,0.0290780030190945,0.0459114387631416,0.0551296919584274,0,
00:00:01.244,-0.03907635435462,-0.0118581587448716,-0.0201563742011786,0,
00:00:01.248,0.00964941922575235,-0.0392790697515011,-0.0569194220006466,0,
00:00:01.252,0.0276301819831133,-0.0209671817719936,-0.0291838329285383,0,
00:00:01.256,-0.0267152544111013,0.00369170936755836,0.105053894221783,0,
00:00:01.26,-0.0223400574177504,0.0460680313408375,0.000800396257545799,0,
00:00:01.264,0.0403970740735531,0.00990796182304621,-0.0805640742182732,0,
00:00:01.268,0.0121705569326878,-0.0298415906727314,-0.0161107070744038,0,
00:00:01.272,-0.0053126774728298205,0.00185079802758992,0.0149906063452363,0,
00:00:01.276,0.0095551423728466,0.00024147675139829503,0.00761609664186835,0,
00:00:01.28,-0.0287126637995243,-0.0213407371193171,0.021282622590660997,0,
00:00:01.284,-0.0157479252666235,0.0255678705871105,0.0890858843922615,0,
00:00:01.288,-0.008563532494008541,0.0335015542805195,-0.0187921822071075,0,
00:00:01.292,0.0230269003659487,-0.0221809074282646,-0.103890247642994,0,
00:00:01.296,0.0191112197935581,-0.0407310798764229,-0.022036699578165998,0,
00:00:01.3,-0.0120416050776839,-0.0155831407755613,0.0201316215097904,0,
00:00:01.304,-0.0158105548471212,0.0254823174327612,0.0569813549518585,0,
00:00:01.308,0.0058645410463213895,0.0353435911238194,0.0262614134699106,0,
00:00:01.312,0.0167394578456879,0.0124079482629895,-0.0574094615876675,0,
00:00:01.316,0.0106268506497145,-0.00315809436142445,0.0108940908685327,0,
00:00:01.32,-0.0231497101485729,-0.0299324579536915,-0.00420862901955843,0,
00:00:01.324,0.007606640923768279,-0.0234574191272259,0.0018165374640375397,0,
00:00:01.328,-0.0041719172149896604,-0.0260867159813643,-0.0015048484783619599,0,
00:00:01.332,-0.0047041098587214895,0.0497943498194218,-0.00285261869430542,0,
00:00:01.336,0.00289645325392485,0.0650556236505508,0.0175858661532402,0,
00:00:01.34,0.0061795604415237895,-0.0338951423764229,-0.00165554310660809,0,
00:00:01.344,-0.00411090860143304,-0.034760843962431,-0.00875352788716555,0,
00:00:01.348,-0.0231437906622887,-0.0287803523242474,-0.0173522476106882,0,
00:00:01.352,0.0351940356194973,-0.011336974799633,0.0101792635396123,0,
00:00:01.356,-0.0200872141867876,0.0278075002133846,0.0337244868278503,0,
00:00:01.36,0.00931619200855494,0.039141658693552,-0.00775853032246232,0,
00:00:01.364,-0.0192003771662712,0.0114267552271485,-0.0324679389595985,0,
00:00:01.368,0.0331765338778496,-0.0109030166640878,0.00811762269586325,0,
00:00:01.372,0.0198459941893816,-0.0205665919929743,0.0327031575143337,0,
00:00:01.376,-0.028398422524332997,-0.03486717492342,-0.0242390017956495,0,
00:00:01.38,-0.041326928883791005,0.0207710471004248,-0.03905869275331501,0,
00:00:01.384,0.00994622427970171,0.0132291298359632,-0.0046179140917956794,0,
00:00:01.388,0.0239128097891808,0.0182396937161684,0.0329791493713856,0,
00:00:01.392,0.0145224258303642,0.00477938912808895,0.0258566793054342,0,
00:00:01.396,0.0196874774992466,-0.0452485978603363,-1.84581131179584e-05,0,
00:00:01.4,-0.0167617909610271,0.00860149227082729,-0.0150206359103322,0,
00:00:01.404,-0.0623808167874813,0.00473358668386936,0.0308215450495481,0,
00:00:01.408,0.0037657797802239704,0.0117907607927918,0.0354857258498669,0,
00:00:01.412,0.046700730919838,0.00321304355747998,-0.0684805139899254,0,
00:00:01.416,0.0317448377609253,-0.0125633766874671,-0.0757493153214455,0,
00:00:01.42,-0.0056743617169559,0.0101622259244323,0.000896101002581418,0,
00:00:01.424,-0.0444247871637344,-0.0049020200967788705,0.0436550825834274,0,
00:00:01.428,0.00664103496819735,-0.0037228425499051796,0.0894151926040649,0,
00:00:01.432,0.010000511072576001,0.006856746040284629,-0.000737701484467834,0,
00:00:01.436,-0.0299104545265436,0.00119783740956336,-0.0345935896039009,0,
00:00:01.44,0.0247689709067345,0.0124669475480914,-0.0385016314685345,0,
00:00:01.444,0.00483503472059965,-0.0227082073688507,-0.00259467493742704,0,
00:00:01.448,-0.00854059122502804,-0.0175479929894209,-0.0215710531920195,0,
00:00:01.452,0.0508895441889763,0.0175511203706265,0.00559940608218312,0,
00:00:01.456,-0.0372659228742123,0.0114977629855275,0.0978301838040352,0,
00:00:01.46,-0.0300017707049847,0.00332011841237545,-0.023653531447052997,0,
00:00:01.464,-0.0224535055458546,-0.006635190919041629,-0.0636530444025993,0,
00:00:01.468,0.0377528443932533,0.00358496769331396,-0.00686136865988374,0,
00:00:01.472,0.025391822680831,0.0164962317794561,0.0115930447354913,0,
00:00:01.476,-0.0124560156837106,-0.0490173026919365,-0.0144572341814637,0,
00:00:01.48,-0.0044968468137085394,0.00573934847488999,0.07036669552326201,0,
00:00:01.484,0.0286262538284063,0.0646523460745811,0.0561935007572174,0,
00:00:01.488,-0.0292007960379124,-0.055663924664259005,-0.0937573611736298,0,
00:00:01.492,-0.0168548300862312,-0.0187257099896669,-0.0662973001599312,0,
00:00:01.496,0.00903425738215446,0.0164325386285782,0.030064420774578996,0,
00:00:01.5,-0.00820538494735956,0.0181577056646347,0.0302778203040361,0,
00:00:01.504,0.0008016305509954691,0.0162132978439331,0.0127882454544306,0,
00:00:01.508,0.038497518748045,0.006788807921111579,-0.00977087579667568,0,
00:00:01.512,-0.0111835822463036,-0.0163664743304253,0.0259825754910707,0,
00:00:01.516,-0.0194525606930256,-0.017051599919796,0.0294945295900106,0,
00:00:01.52,-0.0120659042149782,-0.0140626979991794,-0.0237521193921566,0,
00:00:01.524,0.0159738678485155,-0.00487296748906374,-0.0668294280767441,0,
00:00:01.528,0.0121348826214671,0.0234140288084745,-0.004989715293049811,0,
00:00:01.532,-0.00313960970379412,0.021193154156208,0.0156680289655924,0,
00:00:01.536,-0.0043146735988557295,-0.00582425482571125,0.0232586767524481,0,
00:00:01.54,-0.00604319991543889,-0.00501673249527812,0.0299091376364231,0,
00:00:01.544,0.00396803766489029,-0.0130351642146707,-0.0060194656252861,0,
00:00:01.548,-0.00446195993572474,-0.00820303987711668,-0.00146240496542305,0,
00:00:01.552,-0.0226841941475868,-0.00425655720755458,-0.0462977103888988,0,
00:00:01.556,0.0196225866675377,0.0113809639587998,0.00922544952481985,0,
00:00:01.56,0.0468238070607185,0.0389051511883736,0.0415428318083286,0,
00:00:01.564,-0.00720713194459677,-0.0140950176864862,0.0403753407299519,0,
00:00:01.568,-0.0536009930074215,-0.0184093900024891,-0.0801309198141098,0,
00:00:01.572,-0.012650384567678,-0.00148942531086504,-0.0120892180129886,0,
00:00:01.576,0.0257153566926718,-0.0205846037715673,-0.0046663386747241,0,
00:00:01.58,0.018377747386694,-0.00422746082767844,-0.0241703502833843,0,
00:00:01.584,-0.0021783451084047604,0.00767811574041843,0.080571822822094,0,
00:00:01.588,-0.00199298583902419,0.0117553621530533,0.0704988390207291,0,
00:00:01.592,0.000543991336598992,0.0300988424569368,-0.105315156280994,0,
00:00:01.596,-0.0221730377525091,0.0112795429304242,0.0278700385242701,0,
00:00:01.6,0.0125040179118514,-0.00546183343976736,0.0112262992188334,0,
00:00:01.604,0.00486583262681961,-0.0348692685365677,-0.0764295011758804,0,
00:00:01.608,0.0006534188287332651,-0.0274434648454189,-0.0107854986563325,0,
00:00:01.612,0.00300426478497684,0.0188540536910295,0.0241503231227398,0,
00:00:01.616,-0.00949509255588055,0.00240401620976627,0.0641002506017685,0,
00:00:01.62,0.00394853251054883,-0.00516640907153487,0.0303263645619154,0,
00:00:01.624,-0.00329600484110415,0.0261889938265085,-0.0190158952027559,0,
00:00:01.628,0.0092878844588995,0.0293466281145811,-0.0457564815878868,0,
00:00:01.632,0.000374682305846363,-0.0215409155935049,-0.0247343275696039,0,
00:00:01.636,-0.0318923480808735,-0.0292599350214005,0.0188873261213303,0,
00:00:01.64,0.0143353184685111,-0.00697610201314092,-0.0154786016792059,0,
00:00:01.644,0.0518851429224014,0.0168060809373856,0.0135895190760493,0,
00:00:01.648,-0.0385346040129662,0.00438277376815677,0.0909864529967308,0,
00:00:01.652,-0.0200020205229521,0.00132840045262128,-0.0608289651572704,0,
00:00:01.656,0.00228481832891703,-0.00996469333767891,-0.0490965060889721,0,
00:00:01.66,0.004536355845630171,0.0011915438808500801,0.00406299065798521,0,
00:00:01.664,0.0277204662561417,0.00672538997605443,0.0184138752520084,0,
00:00:01.668,0.0071819233708083595,-0.00261735287494957,0.0081337820738554,0,
00:00:01.672,-0.0206405036151409,0.0052541694603860396,0.0339064970612526,0,
00:00:01.676,-0.0302636586129665,-0.00214505102485418,-0.000154790002852678,0,
00:00:01.68,0.0195082314312458,-0.0024740321096032897,-0.0339167676866055,0,
00:00:01.684,0.020482225343584997,-0.0008129032794386151,-0.0188217516988516,0,
00:00:01.688,-0.00870849937200546,0.00259702350012958,0.00272085121832788,0,
00:00:01.692,-0.0114037953317165,0.00101204391103238,0.00956999883055687,0,
00:00:01.696,0.00613696780055761,0.00320697901770473,0.0126343239098787,0,
00:00:01.7,0.0116086108610034,-0.005610429216176271,0.008710004389286041,0,
00:00:01.704,-0.0015273445751518,-0.00241859816014767,-0.0107532013207674,0,
00:00:01.708,-0.0265088304877281,-0.0046997140161693105,0.00584491062909365,0,
00:00:01.712,-0.0037727744784206204,-0.0037571128923445897,-0.0087380213662982,0,
00:00:01.716,0.0362959913909435,-0.00849692896008492,-0.0589824691414833,0,
00:00:01.72,0.0233926810324192,0.0525809302926064,0.0735531896352768,0,
00:00:01.724,-0.0640604197978973,0.0213977470993996,0.14167608320713002,0,
00:00:01.728,-0.0063318507745862,-0.0716200470924377,-0.120671823620796,0,
00:00:01.732,0.0334323458373547,-0.0255364570766687,-0.131435751914978,0,
00:00:01.736,0.0165618602186441,0.00638739950954914,0.0043680835515260705,0,
00:00:01.74,-0.0179414190351963,0.0303214527666569,0.050766833126545,0,
00:00:01.744,0.00955679919570684,0.00450806505978107,0.0463590435683727,0,
00:00:01.748,-0.00317256292328238,0.0427045151591301,0.0346400067210197,0,
00:00:01.752,-0.00918250158429146,0.0148736918345094,0.0205682422965765,0,
00:00:01.756,-0.00520182866603136,-0.0569539554417133,-0.0273676849901676,0,
00:00:01.76,-0.00163554563187063,-0.0261312741786242,-0.0314273908734322,0,
00:00:01.764,0.0056907585822045794,-0.0048891794867813605,-0.0169687625020742,0,
00:00:01.768,0.0097325062379241,0.0123494043946266,-0.00514978310093284,0,
00:00:01.772,-0.0056703370064497,0.0130517417564988,0.0038693412207067,0,
00:00:01.776,0.0021129057276994,0.0222876816987991,0.0144994193688035,0,
00:00:01.78,0.00295533169992268,0.00493680406361818,0.008324422873556609,0,
00:00:01.784,-0.00978345517069101,-0.0119716823101044,0.00235565775074065,0,
00:00:01.788,-0.00024999387096613597,-0.007516258396208291,0.00240470329299569,0,
00:00:01.792,0.0050106244161725,-0.00487377680838108,-0.00726344669237733,0,
00:00:01.796,-0.00147151458077133,-0.00408150861039758,-0.00610568188130856,0,
00:00:01.8,-0.00492271315306425,0.00876600854098797,-0.024542935192585002,0,
00:00:01.804,0.00695888651534915,-0.018865779042244,0.00894214678555727,0,
00:00:01.808,0.0132068376988173,-0.007522712461650371,0.0783810243010521,0,
00:00:01.812,0.0147296451032162,0.0246577896177769,-0.0652853474020958,0,
00:00:01.816,-0.0295744966715574,0.0692062675952911,0.0206706989556551,0,
00:00:01.82,-0.0658372193574905,-0.0212223064154387,0.0276110153645277,0,
00:00:01.824,0.0477146953344345,-0.0842259898781776,-0.0699010193347931,0,
00:00:01.828,0.0444605574011803,-0.0223407354205847,-0.0634032934904099,0,
00:00:01.832,0.00124041363596916,0.0338265411555767,0.10285672545433,0,
00:00:01.836,-0.00635744538158178,0.028647730126976998,0.0241952538490295,0,
00:00:01.84,-0.0366212390363216,0.0086732991039753,-0.0308271143585444,0,
00:00:01.844,-0.0100679229944944,-0.0346484780311584,-0.0417139530181885,0,
00:00:01.848,0.0873548984527588,0.0949993282556534,0.0431423373520374,0,
00:00:01.852,-0.0648996159434319,0.0185589473694563,0.0569388829171658,0,
00:00:01.856,-0.0477906949818134,-0.134068116545677,-0.0453752353787422,0,
00:00:01.86,0.0248877257108688,-0.0389405079185963,-0.0443985126912594,0,
00:00:01.864,0.0289741661399603,0.0321694239974022,-0.005868025124073029,0,
00:00:01.868,0.0158020500093699,0.0468778721988201,0.0142966834828258,0,
00:00:01.872,-0.0014564368175342699,0.0301881339401007,0.0113287679851055,0,
00:00:01.876,-0.004390914924442771,0.009948141872882841,-0.00394636625424027,0,
00:00:01.88,0.004312714561820029,-0.0110824350267649,0.0286772847175598,0,
00:00:01.884,-0.0319662913680077,-0.0235760603100061,0.046007115393877,0,
00:00:01.888,0.0208951253443956,-0.00539096258580685,-0.0503390058875084,0,
00:00:01.892,-0.0417512096464634,-0.0211934708058834,-0.0465720444917679,0,
00:00:01.896,-0.00635810196399689,0.00142338708974421,-0.0265087764710188,0,
00:00:01.9,0.0657493844628334,0.0449874587357044,0.0503789596259594,0,
00:00:01.904,0.0113342357799411,-0.0114491982385516,0.0599349401891232,0,
00:00:01.908,-0.0288555566221476,-0.0193740595132113,0.00914695952087641,0,
00:00:01.912,0.0158907603472471,-0.0167986787855625,-0.11931804567575502,0,
00:00:01.916,0.0319364629685879,0.0216785054653883,0.0031885614152997697,0,
00:00:01.92,-0.0979354679584503,0.0264060497283936,0.117613837122917,0,
00:00:01.924,-0.0397709272801876,-0.0109603712335229,-0.00689713144674897,0,
00:00:01.928,0.0657593831419945,0.00205901684239507,-0.0796908736228943,0,
00:00:01.932,0.0523885972797871,-0.0221383348107338,-0.0402474328875542,0,
00:00:01.936,-0.000887608679477125,-0.0113746048882604,0.0123101118952036,0,
00:00:01.94,-0.0229348875582218,0.0018466922920197199,0.0856409519910812,0,
00:00:01.944,-0.0192405693233013,0.000911947747226804,0.00928543787449598,0,
00:00:01.948,0.0180693753063679,0.0464523434638977,-0.0220670849084854,0,
00:00:01.952,-0.0159545913338661,0.00300578260794282,-0.0239011272788048,0,
00:00:01.956,-0.00534343207255006,-0.0187302473932505,-0.00817651301622391,0,
00:00:01.96,0.0122777139768004,-0.0284346640110016,0.0150104854255915,0,
00:00:01.964,-0.00270541454665363,-0.0150586767122149,0.0009504778427071869,0,
00:00:01.968,0.00297780078835785,0.008549122139811521,-0.0331010185182095,0,
00:00:01.972,0.0151653690263629,0.0192374885082245,-0.0152174467220902,0,
00:00:01.976,-0.007214287295937541,0.0239252299070358,0.138577088713646,0,
00:00:01.98,-0.0192650705575943,0.00564286345615983,-0.0483374036848545,0,
00:00:01.984,0.00813215039670467,-0.0331103689968586,-0.0857126489281654,0,
00:00:01.988,0.0112857753410935,0.000244192749960348,-0.00309924967586994,0,
00:00:01.992,-0.0412719957530499,-0.00990518182516098,0.0186429359018803,0,
00:00:01.996,0.0281192306429148,0.0086566498503089,0.0226361677050591,0,
00:00:02,0.0604176409542561,-0.0134437568485737,0.0458026044070721,0,
00:00:02.004,-0.063522607088089,0.0421459153294563,-0.0283599309623241,0,
00:00:02.008,-0.0520485639572144,-0.00745294289663434,-0.0337843000888824,0,
00:00:02.012,0.05187365412712099,0.00339139183051884,-0.009022988379001621,0,
00:00:02.016,0.0344452299177647,-0.0193075090646744,0.0362773314118385,0,
00:00:02.02,0.0111578442156315,-0.0115097491070628,-0.0210295543074608,0,
00:00:02.024,-0.0201283860951662,-0.00929060857743025,0.00166478240862489,0,
00:00:02.028,-0.0229786578565836,-0.0175374541431665,0.0156689994037151,0,
00:00:02.032,-0.007878401316702371,0.0660587325692177,0.0596932396292686,0,
00:00:02.036,-0.013868423178792,0.0290109701454639,-0.0166797246783972,0,
00:00:02.04,0.0019101153593510398,-0.0581324882805347,-0.0801734924316406,0,
00:00:02.044,0.0366957075893879,-0.0188765041530132,-0.041120495647192,0,
00:00:02.048,0.0161683447659016,-0.00478102825582027,0.00723179103806615,0,
00:00:02.052,-0.022842600941657996,0.0358652919530869,0.0943633317947388,0,
00:00:02.056,-0.000365689164027572,-0.005798309110105039,0.0192796960473061,0,
00:00:02.06,0.0034735836088657396,-0.0169152095913887,-0.0194423906505108,0,
00:00:02.064,-0.0329710319638252,0.0317073613405228,-0.0107565233483911,0,
00:00:02.068,0.00143880129326135,-0.00449051847681403,-0.0230053346604109,0,
00:00:02.072,0.00208965898491442,-0.026097858324647002,-0.038836732506752,0,
00:00:02.076,0.056330643594265005,0.00260616606101394,0.00678049866110086,0,
00:00:02.08,0.0256718136370182,0.0145796136930585,0.0148639334365726,0,
00:00:02.084,-0.0580205135047436,-0.00306700705550611,0.125526636838913,0,
00:00:02.088,-0.057981550693512,-0.0089771943166852,-0.0649683326482773,0,
00:00:02.092,0.0339737124741077,0.00455176224932075,-0.0795337408781052,0,
00:00:02.096,0.0258899014443159,-0.00544686755165458,-0.000969276530668139,0,
00:00:02.1,0.0129311624914408,0.0215819831937552,0.0169377662241459,0,
00:00:02.104,0.00679458165541291,0.0050137140788137895,0.0243207290768623,0,
00:00:02.108,-0.0314788706600666,-0.0447194501757622,0.0366405062377453,0,
00:00:02.112,0.018971873447299,0.0018735487246885898,-0.0414659045636654,0,
00:00:02.116,-0.00333620421588421,0.0519941560924053,-0.0110765779390931,0,
00:00:02.12,-0.0714526027441025,-0.00317312241531909,0.058390736579895,0,
00:00:02.124,0.0386059992015362,-0.0326338782906532,0.005176885519176721,0,
00:00:02.128,0.056115947663784006,-0.012264140881598001,-0.0627813786268234,0,
00:00:02.132,-0.00124550866894424,0.00281981960870326,-0.0328681208193302,0,
00:00:02.136,0.000135918569867499,0.03438451141119,-0.02798767760396,0,
00:00:02.14,-0.0229531042277813,-0.0230903439223766,0.0654939785599709,0,
00:00:02.144,-0.0431766025722027,0.00113480072468519,0.10805699229240401,0,
00:00:02.148,0.0205272790044546,0.0423235706984997,-0.0538545325398445,0,
00:00:02.152,0.0184857230633497,-0.0168688930571079,-0.0364457406103611,0,
00:00:02.156,0.00043529132381081603,-0.0463032424449921,-0.0822115764021873,0,
00:00:02.16,0.00104647770058364,-0.0059028612449765205,0.0354040302336216,0,
00:00:02.164,-0.0242612306028605,0.0025226664729416396,0.11325401812791802,0,
00:00:02.168,0.0189347043633461,0.0193950589746237,-0.0297455862164497,0,
00:00:02.172,0.026109391823410998,0.0282580219209194,-0.0545518361032009,0,
00:00:02.176,-0.0295730009675026,0.0249131787568331,-0.0373554453253746,0,
00:00:02.18,-0.00347232818603516,-0.0339128486812115,0.0335095189511776,0,
00:00:02.184,0.0258503127843142,0.0162967257201672,0.0073405215516686405,0,
00:00:02.188,-0.0108216470107436,-0.033690232783556,0.00807781703770161,0,
00:00:02.192,-0.0229332819581032,-0.0271281246095896,0.0113314967602491,0,
00:00:02.196,-0.0188163891434669,-0.007438743487000471,-0.0360024273395538,0,
00:00:02.2,0.0333391204476357,0.0664177760481834,0.014525419101119,0,
00:00:02.204,0.0324582494795322,-0.0164955202490091,0.13500177860260001,0,
00:00:02.208,-0.0190737061202526,-0.0151359587907791,-0.0891688242554665,0,
00:00:02.212,-0.0163177270442247,0.00665709935128689,-0.10382425785064699,0,
00:00:02.216,0.008180582895874979,0.00325462804175913,0.00545614771544933,0,
00:00:02.22,-0.0118271531537175,0.00756855402141809,0.0359723530709744,0,
00:00:02.224,-0.0163370873779058,-0.00612262357026339,0.0148998918011785,0,
00:00:02.228,0.0217771772295237,-0.00612924806773663,0.0361785367131233,0,
00:00:02.232,0.0186992567032576,0.00629058852791786,0.0118198711425066,0,
00:00:02.236,-0.0171823762357235,-0.00444642687216401,-0.0230452641844749,0,
00:00:02.24,-0.0027027626056224103,-0.00600147293880582,-0.00319014606066048,0,
00:00:02.244,-0.0036422575358301397,0.0182313304394484,-0.017727755010128004,0,
00:00:02.248,0.0127473175525665,-0.00157617614604533,0.0330053344368935,0,
00:00:02.252,0.010134058073163,-0.0201593227684498,-0.042431615293026,0,
00:00:02.256,-0.0093647800385952,-0.0046540554612875,-0.0200032480061054,0,
00:00:02.26,-0.0190907865762711,-0.00509908935055137,0.0300462283194065,0,
00:00:02.264,0.0155298626050353,0.0136976148933172,-0.0014315169537439901,0,
00:00:02.268,-0.00811436586081982,0.0198563914746046,0.0229993741959333,0,
00:00:02.272,0.0074966182000935095,0.00791721977293491,-0.0175183340907097,0,
00:00:02.276,-0.0110800266265869,-0.0276466310024261,0.0183922480791807,0,
00:00:02.28,-0.00545760476961732,-0.0138889420777559,0.00716832280158997,0,
00:00:02.284,0.0369196645915508,0.0613374412059784,-0.0172446239739656,0,
00:00:02.288,-0.0173889175057411,-0.0375130139291286,-0.00691930018365383,0,
00:00:02.292,-0.0275490712374449,-0.0185215529054403,-0.0311201792210341,0,
00:00:02.296,0.0301107261329889,-0.00620950665324926,0.0196676142513752,0,
00:00:02.3,0.00884377863258123,-0.0056565334089100396,0.0135051729157567,0,
00:00:02.304,-0.0420772098004818,0.025585763156414,0.0344268232584,0,
00:00:02.308,0.0139669673517346,0.0188926365226507,-0.0262015666812658,0,
00:00:02.312,0.0239548180252314,0.00664988532662392,-0.0219180881977081,0,
00:00:02.316,0.0141666801646352,-0.0170166566967964,-0.0171478390693665,0,
00:00:02.32,-0.0214651934802532,-0.00247881421819329,0.0321028754115105,0,
00:00:02.324,-0.019944678992033,-0.0104610342532396,0.0109903626143932,0,
00:00:02.328,0.00660989759489894,-0.0144468229264021,0.0047495230101048894,0,
00:00:02.332,0.0150065626949072,0.006581665948033329,-0.00181840022560209,0,
00:00:02.336,-0.0295018721371889,0.0156248454004526,0.000202685012482107,0,
00:00:02.34,0.031819935888052,-0.0024971002712845802,-0.0334065407514572,0,
00:00:02.344,-0.00038687078631482997,0.00429616216570139,-0.0168810244649649,0,
00:00:02.348,-0.00350207230076194,0.018530847504735,-0.0017142000142484901,0,
00:00:02.352,-0.0108915539458394,-0.0217083748430014,0.0491575077176094,0,
00:00:02.356,0.0045564463362097705,-0.020936593413353,0.0161621533334255,0,
00:00:02.36,0.0038705135229975,0.0048019806854426896,-0.0254127774387598,0,
00:00:02.364,-0.0147518310695887,0.0144409537315369,-0.00577006163075566,0,
00:00:02.368,0.00501715997233987,-0.00108961516525596,-0.0128119336441159,0,
00:00:02.372,0.0274206064641476,0.0108975814655423,0.0640843212604523,0,
00:00:02.376,-0.0190946739166975,0.0391478054225445,-0.014439694583416,0,
00:00:02.38,-0.0173232015222311,-0.0443482175469399,-0.0530835539102554,0,
00:00:02.384,0.0184020772576332,-0.027651771903037997,-0.0261604823172092,0,
00:00:02.388,0.00538198789581656,-0.0225698910653591,0.0265204478055239,0,
00:00:02.392,0.0034558258485049,0.0250393766909838,-0.00770343141630292,0,
00:00:02.396,-0.025593739002942997,0.027244670316577003,0.0319127552211285,0,
00:00:02.4,0.0052703064866364,0.0185058787465096,0.0103433951735497,0,
00:00:02.404,-0.00026849482674151697,0.0144438957795501,0.00478569511324167,0,
00:00:02.408,-0.00582803087309003,-0.0259167607873678,-0.0206271521747112,0,
00:00:02.412,0.0728541612625122,-0.0376614853739738,-0.059630673378706,0,
00:00:02.416,-0.036059308797121,-0.008093182928860191,0.13618302345275898,0,
00:00:02.42,-0.0734929442405701,0.0513638593256474,0.0212070383131504,0,
00:00:02.424,0.0255369003862143,-0.0138762947171926,-0.13092555105686202,0,
00:00:02.428,0.0377680584788322,-0.0102305980399251,-0.0641404613852501,0,
00:00:02.432,0.0107873789966106,-0.00396300619468093,0.0295327454805374,0,
00:00:02.436,-0.013653602451086,0.009710009209811691,0.0671664178371429,0,
00:00:02.44,-0.0174959283322096,0.00440511340275407,0.0274110939353704,0,
00:00:02.444,-0.00514863058924675,0.00391647405922413,0.0096634216606617,0,
00:00:02.448,0.0261799488216639,-0.0168807972222567,-0.0235416535288095,0,
00:00:02.452,0.0117781329900026,-0.0147143742069602,-0.0139777241274714,0,
00:00:02.456,-0.0278919879347086,0.0594803616404533,0.0207540988922119,0,
00:00:02.46,-0.0369065925478935,-0.00593697093427181,0.0734735131263733,0,
00:00:02.464,0.0209798943251371,-0.0458946116268635,-0.109363920986652,0,
00:00:02.468,0.0273767672479153,-0.0159162264317274,-0.0610332526266575,0,
00:00:02.472,0.0150671852752566,0.00623510079458356,-0.0037652901373803603,0,
00:00:02.476,-0.00658631697297096,0.0173371322453022,0.0426640957593918,0,
00:00:02.48,-0.0101291947066784,0.0196952968835831,0.0547466985881329,0,
00:00:02.484,-0.00458538997918367,0.0112353609874845,0.0282766316086054,0,
00:00:02.488,-0.0103290202096105,-0.0129705183207989,-0.00903206318616867,0,
00:00:02.492,-0.00524034490808845,-0.0092250881716609,-0.0063776196911931,0,
00:00:02.496,0.0267933737486601,0.0049624559469521,-0.0396349169313908,0,
00:00:02.5,-0.0114437658339739,-0.0322153680026531,-0.0407924726605415,0,
00:00:02.504,-0.0298619717359543,0.0148461880162358,0.0728219300508499,0,
00:00:02.508,0.010623031295836,0.0221899542957544,0.0488223433494568,0,
00:00:02.512,0.0497468300163746,0.0109322629868984,-0.0462830029428005,0,
00:00:02.516,-0.0142505476251245,-0.0171476155519485,-0.0725570768117905,0,
00:00:02.52,-0.00893218442797661,-0.0170190446078777,-0.0223161838948727,0,
00:00:02.524,-0.0126469619572163,-0.00595076195895672,0.0203702300786972,0,
00:00:02.528,-0.0105494624003768,0.008450934663414959,0.0446056053042412,0,
00:00:02.532,0.00487427180632949,0.0109851686283946,0.0376424752175808,0,
00:00:02.536,0.00824031047523022,0.012825240381062001,-0.0007006740197539331,0,
00:00:02.54,-0.00491425441578031,-0.00524723855778575,0.0008940334664657711,0,
00:00:02.544,0.02355114556849,9.7788761195261e-05,-0.0106629310175776,0,
00:00:02.548,0.0215831585228443,-0.0209867749363184,-0.0455997809767723,0,
00:00:02.552,-0.0414595752954483,0.0236885026097298,0.0245859269052744,0,
00:00:02.556,-0.0703144073486328,-0.009617630392313,-0.006964036729186771,0,
00:00:02.56,0.0540548264980316,-0.0299449060112238,0.0307247005403042,0,
00:00:02.564,0.0513402782380581,0.0150370439514518,-0.0256183668971062,0,
00:00:02.568,-0.000358242483343929,0.0151117527857423,-0.0243411865085363,0,
00:00:02.572,-0.0167527608573437,0.00808132626116276,-0.0150835979729891,0,
00:00:02.576,-0.0172099974006414,0.00235411152243614,0.0147527577355504,0,
00:00:02.58,-0.0197418220341206,-0.0230515506118536,0.0111914575099945,0,
00:00:02.584,0.0217885971069336,0.00259749568067491,0.0286719612777233,0,
00:00:02.588,0.00953446887433529,0.0630849748849869,0.0827853083610535,0,
00:00:02.592,-0.0213254597038031,-0.026757450774312002,-0.0673883706331253,0,
00:00:02.596,-0.00423148646950722,-0.0642177909612656,-0.0723513066768646,0,
00:00:02.6,0.0165181644260883,-0.0166375003755093,0.0016216085059568301,0,
00:00:02.604,0.0195362605154514,0.0238153617829084,0.0542667023837566,0,
00:00:02.608,-0.0158170349895954,0.0285512916743755,-0.00183722656220198,0,
00:00:02.612,-0.00715652480721474,0.0204388275742531,-0.0285657439380884,0,
00:00:02.616,-0.0035536698997020704,-0.00027253880398347996,0.0016472174320370002,0,
00:00:02.62,0.00340771465562284,0.0038350233808159798,0.00588713493198156,0,
00:00:02.624,0.0120844719931483,-0.00847081653773785,-0.0130836991593242,0,
00:00:02.628,-0.0020426856353879,-0.0273195151239634,0.0172257013618946,0,
00:00:02.632,-0.0316100753843784,-0.0310958288609982,0.059620276093483,0,
00:00:02.636,0.0185954347252846,0.0479879900813103,0.0440991409122944,0,
00:00:02.64,0.0246194712817669,0.0232176575809717,-0.0935329124331474,0,
00:00:02.644,-0.0145097495988011,-0.011739113368094,-0.0706732422113419,0,
00:00:02.648,-0.0023829624988138697,-0.0376205258071423,0.00226045516319573,0,
00:00:02.652,-0.00285839661955833,0.00414950493723154,0.0246676784008741,0,
00:00:02.656,0.00677244178950787,0.0115760248154402,0.0241425782442093,0,
00:00:02.66,-0.0140291610732675,0.00893758144229651,0.046232633292675,0,
00:00:02.664,-0.005769345443695779,-0.007266904227435591,0.0298007465898991,0,
00:00:02.668,0.0176204573363066,-1.88509659437841e-06,-0.0312986262142658,0,
00:00:02.672,0.009941417723894121,0.00639432249590755,-0.0299573261290789,0,
00:00:02.676,-0.0126801729202271,0.024920767173171002,-0.0113990856334567,0,
00:00:02.68,-0.0152068436145782,-0.0199715811759233,0.00548744481056929,0,
00:00:02.684,0.00596594857051969,-0.0216073598712683,-0.0348262004554272,0,
00:00:02.688,0.0123915607109666,0.000801062327809632,0.0194459687918425,0,
00:00:02.692,0.0228481218218803,0.0100741907954216,0.0246630813926458,0,
00:00:02.696,-0.0150173334404826,0.000732384796719998,0.00956600159406662,0,
00:00:02.7,-0.0390233658254147,0.007175568956881759,-0.0101794777438045,0,
00:00:02.704,0.0158634968101978,0.0128233497962356,0.0280853267759085,0,
00:00:02.708,0.0356382913887501,-0.0084599032998085,-0.00459154695272446,0,
00:00:02.712,-0.0138327367603779,-0.0333532989025116,-0.0412960276007652,0,
00:00:02.716,-0.026603426784277,0.0186226200312376,-0.0009239081409759821,0,
00:00:02.72,-0.0011457015061751,-6.61646627122536e-05,-0.0265350993722677,0,
00:00:02.724,0.00830122269690037,0.00700760260224342,0.0235807877033949,0,
00:00:02.728,0.0167264770716429,-0.0101521108299494,0.0790561437606812,0,
00:00:02.732,0.009125395677983759,0.00323377409949899,-0.028755584731697998,0,
00:00:02.736,-0.00961965695023537,0.0245864633470774,-0.0455610901117325,0,
00:00:02.74,-0.00168394623324275,-0.00597491534426808,-0.0272810850292444,0,
00:00:02.744,-0.00570387952029705,-0.0183666534721851,-0.00695414282381535,0,
00:00:02.748,0.0138259269297123,0.0233306623995304,0.0726395547389984,0,
00:00:02.752,-0.0650135800242424,-0.00517436396330595,0.0902101993560791,0,
00:00:02.756,0.0135622043162584,-0.0256376471370459,-0.0899264514446259,0,
00:00:02.76,0.0594534538686275,-0.0160852428525686,-0.0912502706050873,0,
00:00:02.764,0.0212820693850517,0.00092195492470637,0.000287676230072975,0,
00:00:02.768,-0.0155970947816968,0.0266660004854202,0.0220625456422567,0,
00:00:02.772,-0.0284889210015535,0.0125780077651143,0.0598347634077072,0,
00:00:02.776,-0.024958549067378,0.00024895719252526803,-0.0137688182294369,0,
00:00:02.78,0.0174759943038225,-0.0122917890548706,0.0324256643652916,0,
00:00:02.784,0.0345438607037067,0.0367392338812351,0.0796456336975098,0,
00:00:02.788,-0.0207960680127144,-0.0135825173929334,-0.0833659544587135,0,
00:00:02.792,-0.0207597389817238,-0.036637794226408,-0.09307327121496199,0,
00:00:02.796,-0.0168590359389782,-0.0175919700413942,-0.0185003243386745,0,
00:00:02.8,0.0140172895044088,0.00352363055571914,0.049505278468132,0,
00:00:02.804,0.0296526309102774,0.021043224260211,0.0341936126351357,0,
00:00:02.808,0.0161628089845181,0.015220214612782,0.0223116334527731,0,
00:00:02.812,-0.00416671624407172,0.0140996929258108,-0.00308836251497269,0,
00:00:02.816,-0.0210994724184275,-0.022589385509490998,-0.008501852862536909,0,
00:00:02.82,-0.0122736487537622,-0.00498084025457501,-0.0257573146373034,0,
00:00:02.824,0.008330892771482471,0.0217480156570673,-0.0300023574382067,0,
00:00:02.828,-0.021957166492939,0.00720553286373615,0.120890311896801,0,
00:00:02.832,0.00965818669646978,-0.0282938126474619,0.0119278198108077,0,
00:00:02.836,0.022691648453474,-0.0182672962546349,-0.11866702884435701,0,
00:00:02.84,0.00834018457680941,-0.00121541216503829,-0.041958499699831,0,
00:00:02.844,-0.00388197530992329,0.0142950983718038,-0.00267280894331634,0,
00:00:02.848,-0.00890537351369858,0.0147258834913373,0.0417322739958763,0,
00:00:02.852,-0.00755431549623609,0.0032146021258086,0.0420663766562939,0,
00:00:02.856,-0.00528386607766151,0.009489975869655609,0.0251951403915882,0,
00:00:02.86,-0.00336675462312996,-0.0100541356950998,0.007137310225516559,0,
00:00:02.864,0.0126276332885027,-0.0125878658145666,-0.0230469591915607,0,
00:00:02.868,0.0351550132036209,0.0225682575255632,-0.0399529784917831,0,
00:00:02.872,-0.0362157449126244,0.00425039604306221,0.014769384637475,0,
00:00:02.876,-0.0289710089564323,-0.0476120635867119,0.0184406880289316,0,
00:00:02.88,-1.1036987416446199e-05,-0.0258431266993284,0.0155582837760448,0,
00:00:02.884,0.0286730192601681,0.0330323837697506,-0.0143380118533969,0,
00:00:02.888,0.0200970377773046,0.038007777184248005,-0.0559199489653111,0,
00:00:02.892,0.00669385865330696,0.0092925988137722,0.00463773868978024,0,
00:00:02.896,-0.00916951708495617,-0.013415246270597,0.014118148945271998,0,
00:00:02.9,-0.0212381836026907,-0.0212814025580883,0.0241790171712637,0,
00:00:02.904,-0.0053427345119416705,0.00206332141533494,0.0179116632789373,0,
00:00:02.908,-0.0130963763222098,0.0275504402816296,-0.0098611805588007,0,
00:00:02.912,0.0174221843481064,-0.0203727446496487,-0.00291701732203364,0,
00:00:02.916,0.016908923164010003,-0.0237074829638004,-0.0018914887914434101,0,
00:00:02.92,0.00338353216648102,-0.008437211625278001,-0.000273278448730707,0,
00:00:02.924,-0.0192343518137932,0.0234192907810211,0.0206220913678408,0,
00:00:02.928,-0.0118616567924619,0.0248109269887209,-0.0226995311677456,0,
00:00:02.932,0.0136248068884015,-0.0144725479185581,-0.0200946554541588,0,
00:00:02.936,0.00935098528862,-0.0102395415306091,-0.0080919424071908,0,
00:00:02.94,0.003918534610420471,0.00125210336409509,0.004109560512006279,0,
00:00:02.944,-0.0011248190421611099,0.0338179618120193,0.00436051515862346,0,
00:00:02.948,-0.0102260541170835,-0.0180192720144987,0.0308902263641357,0,
00:00:02.952,-0.0274195484817028,-0.0491250455379486,0.0532979518175125,0,
00:00:02.956,0.0318485535681248,0.0190534107387066,-0.0818487107753754,0,
00:00:02.96,0.0269307792186737,0.0279233492910862,0.015170375816524,0,
00:00:02.964,-0.0360555984079838,0.00264737545512617,0.0492435581982136,0,
00:00:02.968,-0.011895427480339999,-0.0142500828951597,-0.0541764050722122,0,
00:00:02.972,0.0090993158519268,0.0122588230296969,-0.07938551902771,0,
00:00:02.976,0.0461542531847954,0.0206900388002396,0.006913388147950171,0,
00:00:02.98,-0.0658537372946739,-0.0456654764711857,0.12187716364860499,0,
00:00:02.984,-0.009863994084298609,-0.0163903031498194,0.024179894477128996,0,
00:00:02.988,0.05296665802598,0.0152879562228918,-0.0552897974848747,0,
00:00:02.992,0.0213168356567621,0.0168208833783865,-0.00936803873628378,0,
00:00:02.996,-0.02594911493361,0.009866407141089441,-0.0224275924265385,0,
00:00:03,-0.014384688809513999,0.00127425184473395,-0.0149340117350221,0,
00:00:03.004,-0.00310505693778396,-0.0147923324257135,0.0231214184314013,0,
00:00:03.008,-0.0154321920126677,0.00606992607936263,-0.0182514693588018,0,
00:00:03.012,0.0451491065323353,0.0289968252182007,0.0669808983802795,0,
00:00:03.016,-0.0166308172047138,-0.009191617369651791,0.0351927801966667,0,
00:00:03.02,-0.0188710149377584,-0.0551578886806965,-0.0789799764752388,0,
00:00:03.024,0.00857589952647686,-0.0098179904744029,-0.0327105857431889,0,
00:00:03.028,-0.016453405842185,0.0164973996579647,0.0328269563615322,0,
00:00:03.032,0.00850299280136824,0.0286104641854763,-0.0115951355546713,0,
00:00:03.036,0.0278552956879139,0.0174231994897127,-0.0101470369845629,0,
00:00:03.04,0.0273948758840561,0.0158783365041018,0.026411535218357998,0,
00:00:03.044,-0.0424143448472023,-0.022942490875721002,0.0344853959977627,0,
00:00:03.048,-0.0315544232726097,-0.0290105771273375,-0.0197055339813232,0,
00:00:03.052,0.0270974896848202,0.0054142577573657,-0.0299833137542009,0,
00:00:03.056,0.00832805782556534,0.00503999274224043,0.0295172650367022,0,
00:00:03.06,0.0186236053705215,-0.00479550147429109,-0.0371235199272633,0,
00:00:03.064,-0.0037272255867719702,0.00555703695863485,0.0106374165043235,0,
00:00:03.068,-0.0742757990956306,0.0172184929251671,0.0611608624458313,0,
00:00:03.072,0.0342561900615692,-0.00221403711475432,-0.0538666024804115,0,
00:00:03.076,0.0479938946664333,-0.0167380161583424,-0.0271050557494164,0,
00:00:03.08,-0.0182560998946428,-0.000861363078001887,0.038248348981141995,0,
00:00:03.084,0.00835558585822582,-0.0143760871142149,-0.0174175426363945,0,
00:00:03.088,-0.0054777064360678205,0.0361374542117119,0.0354453437030315,0,
00:00:03.092,-0.0285318605601788,0.0210761427879334,-0.00712290266528726,0,
00:00:03.096,-0.0228078011423349,-0.0428233034908772,-0.0279614794999361,0,
00:00:03.1,0.0295048635452986,-0.023716039955616,-0.0162056647241116,0,
00:00:03.104,0.0330985970795155,0.0274932868778706,0.0101385191082954,0,
00:00:03.108,0.0035202850122004704,0.00766892824321985,0.006841241847723721,0,
00:00:03.112,-0.00482687726616859,0.0102767124772072,0.0548433549702168,0,
00:00:03.116,-0.0317225567996502,0.0108032403513789,-0.0188908502459526,0,
00:00:03.12,-0.0037240074016153795,-0.0504641197621822,-0.0339745990931988,0,
00:00:03.124,-0.00741266272962093,-0.0103718675673008,-0.0135475257411599,0,
00:00:03.128,0.0110807502642274,0.0331309027969837,0.00451735965907574,0,
00:00:03.132,0.00024968694197014,0.0190750658512115,0.00803367048501968,0,
00:00:03.136,-0.000297135062282905,-0.00888650771230459,0.0435253940522671,0,
00:00:03.14,0.0666994526982307,0.0113174980506301,-0.0137306833639741,0,
00:00:03.144,-0.0135458325967193,-0.0163128152489662,-0.0424016825854778,0,
00:00:03.148,-0.0802821666002274,-0.026360435411334,0.00464419182389975,0,
00:00:03.152,-0.0166971050202847,0.0172102712094784,-0.007746574003249409,0,
00:00:03.156,0.0403081737458706,0.0155793335288763,0.0438470803201199,0,
00:00:03.16,0.0439841784536839,-0.00580770103260875,0.0157392993569374,0,
00:00:03.164,-0.00324116041883826,-0.0132741946727037,-0.0053706872276961795,0,
00:00:03.168,-0.0206987150013447,0.0183387417346239,-0.0586322024464607,0,
00:00:03.172,-0.007322446443140509,-0.0027043060399591897,0.00634732795879245,0,
00:00:03.176,-0.00803812686353922,-0.0219518803060055,-0.0222864951938391,0,
00:00:03.18,-0.0104444688186049,0.0134755913168192,0.0780819281935692,0,
00:00:03.184,-0.005442083347588779,0.00953289959579706,0.00609872443601489,0,
00:00:03.188,0.0214458294212818,-0.00758147379383445,-0.025044459849596,0,
00:00:03.192,0.0468389801681042,0.0114837698638439,-0.0379441827535629,0,
00:00:03.196,-0.0211647376418114,-0.0232537649571896,-0.00181988056283444,0,
00:00:03.2,-0.0415478982031345,-0.00747015094384551,0.0250005461275578,0,
00:00:03.204,-0.00399778597056866,0.03335877135396,-0.00919239036738873,0,
00:00:03.208,0.0310748964548111,-0.00819302909076214,0.0217284727841616,0,
00:00:03.212,-0.0147510841488838,-0.00835284404456615,0.0106634618714452,0,
00:00:03.216,0.0228342395275831,0.0229890141636133,-0.0120545523241162,0,
00:00:03.22,0.00537245627492666,-0.0106019275262952,-0.0344237312674522,0,
00:00:03.224,-0.0404573306441307,-0.0259231328964233,0.029823100194334998,0,
00:00:03.228,-0.0252157114446163,-0.00618378445506096,-0.0150438649579883,0,
00:00:03.232,0.0406650342047215,0.0113007621839643,0.0134561033919454,0,
00:00:03.236,0.0392552688717842,0.0156504027545452,0.0146379834040999,0,
00:00:03.24,-0.0151156559586525,0.016047103330492998,0.016488203778863,0,
00:00:03.244,-0.0120781948789954,-0.0153583511710167,-0.0761619731783867,0,
00:00:03.248,-0.0255113020539284,-0.0274243056774139,-0.000254818558460101,0,
00:00:03.252,0.00281068659387529,0.0448794215917587,0.0490123480558395,0,
00:00:03.256,0.00999546609818935,0.00168781739193946,0.0204205922782421,0,
00:00:03.26,0.0052305017597973295,-0.028059920296072998,-0.0386111214756966,0,
00:00:03.264,-0.0145915141329169,-0.0384659320116043,0.0150916902348399,0,
00:00:03.268,0.0218983720988035,0.00981339905411005,0.0347472131252289,0,
00:00:03.272,0.0101581243798137,0.0355577878654003,-0.0372624732553959,0,
00:00:03.276,0.00158248050138354,0.0366629995405674,-0.0487044267356396,0,
00:00:03.28,-0.0317002199590206,0.0036720822099596297,0.0168974958360195,0,
00:00:03.284,-0.00258701434358954,-0.0625348389148712,0.0449175164103508,0,
00:00:03.288,0.00731919473037124,0.0199192240834236,0.0214583687484264,0,
00:00:03.292,0.000972763577010483,-0.0141145903617144,-0.0481994412839413,0,
00:00:03.296,0.00104123947676271,-0.00499616656452417,0.0067591005936265,0,
00:00:03.3,0.0209391992539167,0.0125970197841525,0.011780247092247,0,
00:00:03.304,-0.0152747156098485,-0.0014948364114388802,-0.00602346146479249,0,
00:00:03.308,-0.000666817941237241,0.0194293316453695,-0.0244753733277321,0,
00:00:03.312,0.0014978046528995,-0.0195858739316463,0.0440140664577484,0,
00:00:03.316,0.0103451935574412,0.00429852213710546,0.004425563383847479,0,
00:00:03.32,0.00539158890023828,0.0415951646864414,-0.0758260637521744,0,
00:00:03.324,-0.0378864780068398,-0.0277796275913715,0.0713877379894257,0,
00:00:03.328,-0.0381237678229809,-0.0403878577053547,0.0033222830388695,0,
00:00:03.332,0.0671948790550232,0.0273986645042896,-0.0309799611568451,0,
00:00:03.336,0.0446536801755428,0.0036584585905075104,-0.0348733775317669,0,
00:00:03.34,-0.0446761585772038,0.0100438799709082,0.0327933765947819,0,
00:00:03.344,8.28766787890345e-05,-0.023757329210639,0.0174670983105898,0,
00:00:03.348,-0.040911927819252,0.0005923191783949731,0.0580390617251396,0,
00:00:03.352,0.00598126603290439,0.017057940363883996,-0.0345646627247334,0,
00:00:03.356,0.0167469754815102,-0.0234248377382755,-0.0541810058057308,0,
00:00:03.36,0.0431606695055962,0.0176015440374613,-0.0125145092606544,0,
00:00:03.364,0.00120809278450906,0.032269649207592004,-0.0352603383362293,0,
00:00:03.368,-0.0522474870085716,-0.0138771580532193,0.0582846514880657,0,
00:00:03.372,-0.0112582026049495,-0.0211842097342014,0.0654310509562492,0,
00:00:03.376,0.0186105482280254,-0.0281160790473223,-0.042851772159338,0,
00:00:03.38,0.0281962417066097,0.020286887884139997,0.0267044417560101,0,
00:00:03.384,0.0153241772204638,0.0412272922694683,-0.0159015990793705,0,
00:00:03.388,-0.0335582606494427,-0.0240184124559164,-0.0574766099452972,0,
00:00:03.392,-0.0150798102840781,-0.0266757812350988,0.0107422117143869,0,
00:00:03.396,-0.0106236515566707,-0.00572863407433033,0.0101921679452062,0,
00:00:03.4,0.0358589589595795,0.0463872440159321,-0.00234551494941115,0,
00:00:03.404,-0.028528168797492995,-0.00970078352838755,0.0318371877074242,0,
00:00:03.408,0.0144964698702097,-0.0024870277848094697,0.0428828150033951,0,
00:00:03.412,0.0162078104913235,-0.00829990208148956,-0.0403986312448978,0,
00:00:03.416,0.0022906695958226897,-0.00743747362866998,-0.0451794490218163,0,
00:00:03.42,-0.0017567684408277301,-0.00476834690198302,-0.0385975651443005,0,
00:00:03.424,0.00503103621304035,-0.00638746749609709,0.0333164185285568,0,
00:00:03.428,-0.0428468659520149,0.0387147180736065,0.127985164523125,0,
00:00:03.432,-0.00114794098772109,0.0198150686919689,-0.0206476449966431,0,
00:00:03.436,0.0267608482390642,-0.0454639382660389,-0.0994847565889359,0,
00:00:03.44,0.033122356981039,0.0011472734622657301,-0.0616988390684128,0,
00:00:03.444,-0.00368130672723055,-0.0010706336470320801,0.0964896008372307,0,
00:00:03.448,-0.0619855970144272,-0.0196546036750078,0.0119786532595754,0,
00:00:03.452,-0.0147672407329082,0.00595992337912321,-0.0575774349272251,0,
00:00:03.456,0.0745972916483879,-0.00862699560821056,-0.00033551399246789504,0,
00:00:03.46,-0.0361506193876266,0.0453725792467594,0.1269341558218,0,
00:00:03.464,-0.0176360569894314,0.0641869604587555,-0.0330168157815933,0,
00:00:03.468,0.0409498400986195,-0.0530313327908516,-0.119732186198235,0,
00:00:03.472,0.0159811675548553,-0.0677394047379494,0.018702644854784,0,
00:00:03.476,0.0105494977906346,-0.009291623719036579,0.0564479194581509,0,
00:00:03.48,-0.0564924292266369,0.0246458258479834,-0.033063568174839,0,
00:00:03.484,-0.009717262350022791,0.0423365496098995,0.0309976357966661,0,
00:00:03.488,0.0134882358834147,-0.006839235778898001,0.0477762892842293,0,
00:00:03.492,0.006162586621940139,0.0136300753802061,-0.0485757105052471,0,
00:00:03.496,0.0021472191438078898,-0.00640723900869489,-0.0550993159413338,0,
00:00:03.5,0.0235635209828615,-0.0346239767968655,0.0534925647079945,0,
00:00:03.504,-0.0419001430273056,-0.00604190910235047,-0.0242155194282532,0,
00:00:03.508,0.0314766317605972,0.0238278340548277,0.0351924598217011,0,
00:00:03.512,0.0082700215280056,-0.005750578362494711,-0.0500830225646496,0,
00:00:03.516,-0.0478592365980148,-0.0101661840453744,0.0390894450247288,0,
00:00:03.52,0.00406254921108484,0.013357987627387,0.0328235737979412,0,
00:00:03.524,0.0406722575426102,0.0342976599931717,-0.0382009744644165,0,
00:00:03.528,0.0206882804632187,-0.0383484438061714,-0.0288722589612007,0,
00:00:03.532,-0.0105962948873639,0.0132976304739714,0.0192966908216476,0,
00:00:03.536,-0.0451263748109341,-0.0223593078553677,0.0377337597310543,0,
00:00:03.54,-0.0205733515322208,0.0301119182258844,-0.0733688697218895,0,
00:00:03.544,0.0486375726759434,-0.0249123107641935,0.0399049744009972,0,
00:00:03.548,0.0122729931026697,-0.0240225978195667,0.00513959862291813,0,
00:00:03.552,-0.0206249132752419,0.0211046505719423,0.0199605599045753,0,
00:00:03.556,-0.00332929426804185,0.0245777722448111,-0.0460138693451881,0,
00:00:03.56,0.00530429277569056,0.00633787037804723,0.0317356698215008,0,
00:00:03.564,-0.0194387622177601,-0.00845653191208839,0.033921904861927,0,
00:00:03.568,-0.0038095444906503,0.00198670057579875,-0.0172174666076899,0,
00:00:03.572,0.0305114984512329,-0.0118452273309231,-0.0689304322004318,0,
00:00:03.576,0.0224711298942566,-0.0125405071303248,-0.0269253775477409,0,
00:00:03.58,-0.0147384833544493,-0.0261128656566143,0.0683932527899742,0,
00:00:03.584,-0.0243686027824879,0.0431088730692863,0.0798986107110977,0,
00:00:03.588,-0.0258131008595228,-0.00677980156615376,-0.0012776227667927699,0,
00:00:03.592,0.0190309248864651,0.00832981150597334,-0.10724449157714801,0,
00:00:03.596,0.0195801369845867,0.0148238567635417,-0.0496482774615288,0,
00:00:03.6,0.0171295609325171,-0.0333220511674881,0.0427857227623463,0,
00:00:03.604,-0.00551824551075697,0.0197918172925711,0.0704300478100777,0,
00:00:03.608,-0.0321140289306641,0.0023991025518626,-0.0111528420820832,0,
00:00:03.612,0.0340853743255138,-0.0450320430099964,-0.0523498877882957,0,
00:00:03.616,-0.0374409146606922,0.0394554175436497,0.0727974772453308,0,
00:00:03.62,0.00841734185814857,0.0260291304439306,-0.0402410626411438,0,
00:00:03.624,0.0340675450861454,-0.0175372324883938,-0.00898116454482079,0,
00:00:03.628,-0.0480035468935966,-0.0325314551591873,0.0157825760543346,0,
00:00:03.632,0.0123518034815788,-0.0170909482985735,0.0306316688656807,0,
00:00:03.636,-0.00396778760477901,0.0202122684568167,-0.0490060374140739,0,
00:00:03.64,0.0308660920709372,0.0165234990417957,-4.030943455290979e-05,0,
00:00:03.644,0.0117913736030459,0.0103646880015731,-0.006254225037992,0,
00:00:03.648,-0.0415779501199722,0.0171667877584696,-0.0156749486923218,0,
00:00:03.652,0.0278044380247593,-0.0110221309587359,0.00658986391499639,0,
00:00:03.656,0.005843804217875,0.00155741861090064,0.000116255323518999,0,
00:00:03.66,-0.0401118695735931,-0.0350187569856644,0.0721457526087761,0,
00:00:03.664,-0.00550005212426186,-0.025287751108408,0.0177876707166433,0,
00:00:03.668,0.0572949722409248,0.004988830536603929,-0.039095800369978,0,
00:00:03.672,-0.03128457441926,0.0561737008392811,-0.0398040674626827,0,
00:00:03.676,-0.00464311661198735,0.042959775775671,-0.0673841834068298,0,
00:00:03.68,0.0023283616174012397,-0.0663497969508171,0.0476533211767673,0,
00:00:03.684,-0.0145503580570221,-0.0243573039770126,0.100238047540188,0,
00:00:03.688,-0.00454569002613425,0.0217213314026594,0.007803858723491429,0,
00:00:03.692,0.0199204869568348,0.0027221692726016,-0.0788811892271042,0,
00:00:03.696,0.0333342701196671,0.007143397349864241,-0.0664335861802101,0,
00:00:03.7,0.0133455190807581,0.00283673428930342,0.0228644516319036,0,
00:00:03.704,-0.0552365668118,-0.0163793209940195,0.0607772879302502,0,
00:00:03.708,-0.0250084307044744,0.0225009061396122,0.0013514831662178,0,
00:00:03.712,0.0461804643273354,-0.00134276773314923,-0.0015768656739965099,0,
00:00:03.716,-0.0247158836573362,-0.0283208284527063,-0.00269100884906948,0,
00:00:03.72,0.0201617572456598,0.0181935764849186,-0.00955374259501696,0,
00:00:03.724,0.00170037942007184,0.00445954175665975,0.0109597956761718,0,
00:00:03.728,-0.0134032024070621,-0.0131438225507736,0.0941940918564796,0,
00:00:03.732,-0.00117791723459959,-0.000566331844311208,-0.11459006369113901,0,
00:00:03.736,-0.014339741319418,0.0013080355711281302,-0.10776843875646601,0,
00:00:03.74,0.0388887673616409,0.0136087471619248,0.0210404545068741,0,
00:00:03.744,0.0384128428995609,-0.00230628461576998,0.15820416808128399,0,
00:00:03.748,-0.0621268190443516,0.010749276727437999,0.0230320300906897,0,
00:00:03.752,-0.0349179618060589,0.00145397335290909,-0.0744682997465134,0,
00:00:03.756,0.00140839710365981,-0.0141887525096536,-0.0656427964568138,0,
00:00:03.76,0.0322096385061741,-0.0188761614263058,0.0040325908921659,0,
00:00:03.764,0.0566984713077545,-0.0190383587032557,0.0886182487010956,0,
00:00:03.768,-0.0288166999816895,0.00938381720334291,0.028753500431776,0,
00:00:03.772,-0.0346487686038017,0.0247790236026049,-0.0593056716024876,0,
00:00:03.776,0.00561534753069282,0.0438970811665058,-0.035055261105298996,0,
00:00:03.78,-0.004514095839113,-0.00606744876131415,-0.0347813032567501,0,
00:00:03.784,0.0359747409820557,-0.0107759395614266,0.0697515979409218,0,
00:00:03.788,-0.0045251543633639795,-0.0317090265452862,0.0835303142666817,0,
00:00:03.792,-0.0507375933229923,-0.0286483131349087,-0.0692211464047432,0,
00:00:03.796,0.0203289873898029,-0.0037628340069204604,-0.0911761298775673,0,
00:00:03.8,0.0250985156744719,0.0112859578803182,0.0155803374946117,0,
00:00:03.804,-0.0230574365705252,0.0263387747108936,0.0599527731537819,0,
00:00:03.808,0.0038586282171309,0.0256910175085068,0.0609474778175354,0,
00:00:03.812,0.032043743878602995,0.000986371072940528,-0.0776225179433823,0,
00:00:03.816,-0.0416942127048969,-0.00749248219653964,-0.0499546602368355,0,
00:00:03.82,0.00901181250810623,-0.0109097762033343,0.12817324697971302,0,
00:00:03.824,0.0326330028474331,0.0179017018526793,-0.0442543812096119,0,
00:00:03.828,-0.0322624705731869,-0.0322602763772011,-0.0608224906027317,0,
00:00:03.832,-0.00985876098275185,-0.0526322461664677,0.0430267490446568,0,
00:00:03.836,0.0158296693116426,0.0230945646762848,0.0220308527350426,0,
00:00:03.84,0.000284756708424538,0.050220113247633,-0.0385166294872761,0,
00:00:03.844,0.0177816096693277,-0.0015074912225827599,-0.0300554465502501,0,
00:00:03.848,-0.0209932439029217,-5.34300443177926e-06,0.052082683891057996,0,
00:00:03.852,-0.000810169614851475,0.0016546117840334801,-0.0163009855896235,0,
00:00:03.856,0.0280474778264761,0.00390971777960658,0.0245290454477072,0,
00:00:03.86,-0.0303994957357645,-0.00522336736321449,-0.0390092208981514,0,
00:00:03.864,-0.0412206090986729,-0.0622722059488297,0.0338207110762596,0,
00:00:03.868,0.0351210199296474,0.0509658865630627,-0.026432141661643996,0,
00:00:03.872,0.0415025278925896,0.0255925450474024,0.0387096256017685,0,
00:00:03.876,-0.0224519185721874,-0.0106014115735888,-0.0106395669281483,0,
00:00:03.88,-0.0106414696201682,-0.0436076484620571,0.004247042350471021,0,
00:00:03.884,0.00588657148182392,-0.0128953726962209,-0.0479523539543152,0,
00:00:03.888,0.0293827671557665,0.0339329950511456,0.0486685447394848,0,
00:00:03.892,-0.0286764148622751,0.0335491858422756,-0.0522075966000557,0,
00:00:03.896,-0.0155159058049321,0.00810444727540016,-0.0270799100399017,0,
00:00:03.9,-0.014873624779283999,-0.0314711555838585,0.107913054525852,0,
00:00:03.904,0.0278492551296949,0.0129664102569222,-0.0233518779277802,0,
00:00:03.908,0.00342387286946177,-0.0339483208954334,-0.0969136655330658,0,
00:00:03.912,-0.00613055331632495,-0.0340054333209991,0.117237515747547,0,
00:00:03.916,0.0111124478280544,0.0299921333789825,0.0249757207930088,0,
00:00:03.92,-0.0126015460118651,0.0501293502748013,-0.0880642309784889,0,
00:00:03.924,-0.0079359607771039,-0.009979503229260441,-0.0243356116116047,0,
00:00:03.928,0.0372132658958435,-0.00594494538381696,0.0126615855842829,0,
00:00:03.932,-0.0014348599361255802,-0.0083423824980855,0.0317755900323391,0,
00:00:03.936,-0.044891357421875,-0.0371548533439636,0.0177179966121912,0,
00:00:03.94,-0.00518008880317211,0.0397086106240749,-0.00704312976449728,0,
00:00:03.944,0.032833956182003,-0.00335475732572377,0.00312048150226474,0,
00:00:03.948,0.00657341443002224,-0.0041905394755303894,-0.008321086876094341,0,
00:00:03.952,-0.0202405881136656,-0.0038069896399974797,-0.0410149767994881,0,
00:00:03.956,0.0288512390106916,0.0190512426197529,-0.0300319269299507,0,
00:00:03.96,-0.0356526523828506,0.0141381230205297,0.121269799768925,0,
00:00:03.964,-0.00379389943554997,-0.0625250563025475,0.00494917621836066,0,
00:00:03.968,0.018783625215292,-0.0037819498684257295,-0.10884140431881,0,
00:00:03.972,-0.0007618411909788849,0.0267058480530977,-0.00245040818117559,0,
00:00:03.976,0.0257679242640734,0.0378709807991982,0.0172842927277088,0,
00:00:03.98,-0.0032696200069040103,-0.0140804657712579,0.0869545191526413,0,
00:00:03.984,-0.0530744455754757,-0.00454655569046736,0.00093898200429976,0,
00:00:03.988,-0.0014778992626816,-0.0133108729496598,-0.0509715005755425,0,
00:00:03.992,0.0348027423024178,0.0066194576211273705,-0.0299995802342892,0,
00:00:03.996,0.0204600282013416,0.0114623988047242,-0.0405613444745541,0,
00:00:04,-0.0163564588874578,-0.0400439687073231,0.0670870542526245,0,
00:00:04.004,-0.0147008895874023,0.0117355221882463,0.0313785672187805,0,
00:00:04.008,0.0010588604491204,0.0145540647208691,-0.039327796548605,0,
00:00:04.012,0.0137527137994766,0.0293270535767078,0.0170429460704327,0,
00:00:04.016,-0.012188857421279,-0.0166258960962296,-0.0243185423314571,0,
00:00:04.02,-0.0060172313824296,-0.0616219751536846,0.010515546426176999,0,
00:00:04.024,0.0352753028273582,0.0873362049460411,0.0350246168673038,0,
00:00:04.028,0.0159461293369532,-0.0150862457230687,-0.0270170010626316,0,
00:00:04.032,-0.0457875654101372,-0.0488873869180679,-0.0502974279224873,0,
00:00:04.036,-0.0345695950090885,-0.0415724404156208,-0.0147948265075684,0,
00:00:04.04,-0.0388471074402332,0.0832919627428055,0.10715671628713601,0,
00:00:04.044,0.087322786450386,0.046930868178606,-0.00285426480695605,0,
00:00:04.048,0.0363527722656727,-0.064681388437748,-0.00265701464377344,0,
00:00:04.052,-0.0167225264012814,-0.0527985095977783,-0.121971778571606,0,
00:00:04.056,-0.00908607896417379,0.0844726487994194,0.0646009668707848,0,
00:00:04.06,0.0146021107211709,0.0121370358392596,0.0501314215362072,0,
00:00:04.064,-0.0418023504316807,-0.0576486736536026,-0.0345740541815758,0,
00:00:04.068,-0.038549330085516,-0.0051203528419137,-0.0280442051589489,0,
00:00:04.072,0.000269556301645935,0.00480254972353578,0.0286474004387856,0,
00:00:04.076,0.0369211174547672,-0.00667893514037132,0.0351635478436947,0,
00:00:04.08,0.0380199104547501,0.0101194037124515,-0.0417150929570198,0,
00:00:04.084,0.0213934667408466,0.0395374447107315,0.00251762289553881,0,
00:00:04.088,-0.0367890149354935,0.0274313446134329,-0.0022121504880487897,0,
00:00:04.092,-0.0338280573487282,-0.03481709957122799,-0.0505897626280785,0,
00:00:04.096,-0.00018202495994046298,-0.0444957464933395,0.0449109300971031,0,
00:00:04.1,0.0012679498177021698,-0.0107621643692255,0.091774120926857,0,
00:00:04.104,0.0248998701572418,0.00414263596758246,0.0140866804867983,0,
00:00:04.108,-0.007216062862426041,0.0271377619355917,-0.127432301640511,0,
00:00:04.112,0.0275572519749403,0.0433217138051987,-0.0944599136710167,0,
00:00:04.116,-0.00435582920908928,-0.0105537045747042,0.0546793341636658,0,
00:00:04.12,-0.058223083615303005,-0.0537341684103012,0.149128466844559,0,
00:00:04.124,0.0316659808158875,0.00404116325080395,-0.0412584282457829,0,
00:00:04.128,0.0446667149662972,0.0185543708503246,-0.000890521390829235,0,
00:00:04.132,-0.0450218506157398,0.0231221597641706,-0.0446868799626827,0,
00:00:04.136,-0.0299533493816853,0.000594280485529453,-0.0027385642752051397,0,
00:00:04.14,0.0378130823373795,-0.0232316423207521,-0.0119799431413412,0,
00:00:04.144,0.0126354973763227,-0.00397274829447269,-0.000373068207409233,0,
00:00:04.148,0.00307988421991467,0.0071608372963964904,0.0437239557504654,0,
00:00:04.152,-0.0290994718670845,-0.0357102677226067,0.0044342172332108,0,
00:00:04.156,0.0351134426891804,0.0443873964250088,0.000415011396398768,0,
00:00:04.16,-0.0730077102780342,-0.0156974326819181,-4.14091628044844e-05,0,
00:00:04.164,0.0345329567790031,0.0170443542301655,-0.0467286594212055,0,
00:00:04.168,0.0310054793953896,-0.0171375311911106,-0.0232493672519922,0,
00:00:04.172,0.00458620581775904,0.00878635235130787,0.0258985627442598,0,
00:00:04.176,-0.00069851492298767,0.0130703179165721,0.00326785771176219,0,
00:00:04.18,-0.0316806398332119,-0.01751758903265,0.0777304321527481,0,
00:00:04.184,0.00647417921572924,0.009373428300023079,-0.0601094216108322,0,
00:00:04.188,-0.00841947551816702,-0.0121184224262834,-0.009747360832989221,0,
00:00:04.192,0.0208613984286785,-0.005620236042886971,-0.000400618358980864,0,
00:00:04.196,-0.0197061207145453,0.0017659285804256801,0.0159103665500879,0,
00:00:04.2,0.00510591547936201,-0.00712654925882816,0.0336170978844166,0,
00:00:04.204,0.041351281106472,0.0104845147579908,-0.0674128755927086,0,
00:00:04.208,0.0239213779568672,0.00143555540125817,-0.0318185277283192,0,
00:00:04.212,-0.12643456459045402,0.0587771385908127,0.124707035720348,0,
00:00:04.216,-0.0118909450247884,-0.0101047288626432,-0.0275029297918081,0,
00:00:04.22,0.0681721940636635,-0.0565584525465965,-0.0612491481006145,0,
00:00:04.224,0.086451843380928,-0.053518533706665004,-0.0539976991713047,0,
00:00:04.228,-0.00132362206932157,0.0100319907069206,0.0846535265445709,0,
00:00:04.232,-0.0821212604641914,0.0554383546113968,0.0105969738215208,0,
00:00:04.236,-0.0116266459226608,0.0212156679481268,-0.0396931394934654,0,
00:00:04.24,0.00707354536280036,0.00191644567530602,0.05762915685772901,0,
00:00:04.244,-0.0240259021520615,0.0214375536888838,0.00770494434982538,0,
00:00:04.248,0.0121264373883605,-0.000135995578602888,-0.0127943735569716,0,
00:00:04.252,0.0408676713705063,-0.0597381666302681,-0.0461266674101353,0,
00:00:04.256,0.0333454385399818,-0.0412464700639248,-0.0849358141422272,0,
00:00:04.26,-0.0275253839790821,-0.0147575223818421,0.115829035639763,0,
00:00:04.264,-0.0708120986819267,0.0820455029606819,0.0624540820717812,0,
00:00:04.268,0.0259914807975292,0.0628947094082832,-0.10219345241785001,0,
00:00:04.272,0.0414899364113808,-0.0699081346392632,-0.0357257202267647,0,
00:00:04.276,0.0143963042646647,-0.0496702790260315,0.0241053905338049,0,
00:00:04.28,-0.0359469167888165,0.0405096299946308,0.0975687578320503,0,
00:00:04.284,-0.019213080406189,0.00976757425814867,0.00811614561825991,0,
00:00:04.288,0.0284998007118702,0.0299072265625,-0.0979946702718735,0,
00:00:04.292,0.0139244860038161,-0.013976869173347999,-0.0345719456672668,0,
00:00:04.296,-0.0259641278535128,-0.0419648289680481,0.0575034990906715,0,
00:00:04.3,-3.10533068841323e-05,-0.0111186020076275,0.0518258064985275,0,
00:00:04.304,-0.00322288693860173,0.023034431040287004,-0.0284263268113136,0,
00:00:04.308,0.00659474823623896,0.030439879745244997,-0.0231794640421867,0,
00:00:04.312,0.0020813941955566398,0.0333609692752361,0.010867852717638,0,
00:00:04.316,0.0124333584681153,-0.063726007938385,-0.0243107136338949,0,
00:00:04.32,0.00853731483221054,-0.0279667843133211,-0.034388829022646,0,
00:00:04.324,-0.0212578643113375,-0.0195359773933887,0.0398592352867126,0,
00:00:04.328,-0.0228289924561977,0.050646748393774005,0.064333938062191,0,
00:00:04.332,0.007811241783201691,0.0452793724834919,-0.0027008445467799898,0,
00:00:04.336,0.009152717888355259,-0.005906126461923121,-0.0509418770670891,0,
00:00:04.34,0.0391173996031284,-0.0221557263284922,-0.0501343943178654,0,
00:00:04.344,-0.0230973679572344,-0.011974005959928001,0.0345144681632519,0,
00:00:04.348,-0.0115123242139816,-0.0150628034025431,0.00728908739984035,0,
00:00:04.352,-0.0222161207348108,-0.0108283646404743,0.00187477539293468,0,
00:00:04.356,0.0375795140862465,0.0447773896157742,0.0821444243192673,0,
00:00:04.36,0.00606401637196541,-0.0127115827053785,-0.0250020809471607,0,
00:00:04.364,-0.0498251654207706,-0.0278150103986263,-0.0670738071203232,0,
00:00:04.368,0.0374183729290962,0.0195036344230175,-0.0314705185592175,0,
00:00:04.372,0.0229065231978893,0.0192920081317425,-0.0190508794039488,0,
00:00:04.376,-0.0410209409892559,0.0291735921055079,0.0486289225518703,0,
00:00:04.38,-0.0052703712135553395,-0.0481839030981064,0.0877707228064537,0,
00:00:04.384,0.0113267255946994,-0.0527218282222748,-0.00979559775441885,0,
00:00:04.388,0.035159770399332,0.011414397507906,-0.0892677754163742,0,
00:00:04.392,-0.0222904663532972,0.0478041917085648,0.0614441893994808,0,
00:00:04.396,-0.0406623370945454,0.0440680012106895,-0.0154057331383228,0,
00:00:04.4,0.0128415552899241,0.00356666021980345,-0.0472184531390667,0,
00:00:04.404,0.0210032369941473,-0.0483359284698963,-0.0355018898844719,0,
00:00:04.408,0.0195518340915442,-0.0400303825736046,0.0107055455446243,0,
00:00:04.412,0.0209201723337173,0.0164688602089882,0.12297561019659,0,
00:00:04.416,-0.0386123433709145,0.000671753019560128,0.0466383546590805,0,
00:00:04.42,-0.0241359751671553,0.0208155177533627,-0.10545491427183198,0,
00:00:04.424,-0.00604576477780938,0.011815364472568,-0.0742499381303787,0,
00:00:04.428,0.019860353320836997,0.0008280251058749849,-0.0019188242731615899,0,
00:00:04.432,0.0317890606820583,-0.0121699292212725,0.0607746914029121,0,
00:00:04.436,-0.0186813268810511,-0.011646936647594001,0.0568297542631626,0,
00:00:04.44,-0.0119789922609925,0.0204824805259705,0.0210548639297485,0,
00:00:04.444,0.0009904031176120038,0.008108939975500109,-0.0303405653685331,0,
00:00:04.448,0.0135915707796812,-0.030700296163558998,-0.0893743559718132,0,
00:00:04.452,-0.00995699781924486,0.00201212638057768,-0.0081860413774848,0,
00:00:04.456,0.0295760072767735,-0.00833969097584486,0.0009327385923825199,0,
00:00:04.46,-0.0309690646827221,0.03300182148814201,0.0776753202080727,0,
00:00:04.464,-0.0070948093198239795,0.00139493739698082,0.0485877357423306,0,
00:00:04.468,-0.0119216339662671,-0.0065933298319578205,-0.047954011708498,0,
00:00:04.472,0.0248700585216284,-0.0348219573497772,-0.0461080782115459,0,
00:00:04.476,0.0299119651317596,0.0019093081355094899,0.009207420982420441,0,
00:00:04.48,-0.0448220111429691,0.0523241311311722,0.0432561971247196,0,
00:00:04.484,-0.0241622235625982,-0.024427143856882997,0.0398097112774849,0,
00:00:04.488,0.0365819409489632,-0.00747706368565559,-0.0699538141489029,0,
00:00:04.492,0.0140015790238976,-0.0064411959610879395,-0.0635858252644539,0,
00:00:04.496,0.0147263305261731,-0.00259223999455571,-0.0257749687880278,0,
00:00:04.5,-0.00325751141645014,0.00599538162350655,0.10189897567033801,0,
00:00:04.504,-0.0567180775105953,0.0150757757946849,0.049598403275013,0,
00:00:04.508,-0.00086521910270676,0.0248861871659756,-0.031448345631361,0,
00:00:04.512,0.0463077574968338,-0.0195001736283302,-0.0456592179834843,0,
00:00:04.516,-0.0180759336799383,-0.0291055105626583,0.0333740226924419,0,
00:00:04.52,0.0173259917646647,0.00208544009365141,0.00507640792056918,0,
00:00:04.524,0.0075677908025682,0.0019791319500654897,-0.0369866155087948,0,
00:00:04.528,-0.0138165326789021,-0.0199924111366272,-0.0716692730784416,0,
00:00:04.532,0.0401217974722385,0.0397465154528618,0.18036422133445698,0,
00:00:04.536,-0.0776237547397614,0.0385568216443062,0.0400861091911793,0,
00:00:04.54,-0.0516594760119915,-0.0246588960289955,-0.17466397583484602,0,
00:00:04.544,0.0475260093808174,-0.0462770909070969,-0.0776227712631226,0,
00:00:04.548,0.0683566853404045,-0.0099123464897275,0.0333045460283756,0,
00:00:04.552,0.0326687842607498,-0.000958811899181455,0.0609396025538445,0,
00:00:04.556,-0.0814159512519836,0.0539069660007954,0.088026650249958,0,
00:00:04.56,-0.0074244448915123905,0.0212681312114,0.0649160817265511,0,
00:00:04.564,0.0267558582127094,-0.0344066955149174,-0.0875696539878845,0,
00:00:04.568,-0.00367570854723454,-0.0237532407045364,-0.0948589369654655,0,
00:00:04.572,0.0352866277098656,-0.00480464845895767,0.00825327541679144,0,
00:00:04.576,0.00755323050543666,0.0353214852511883,0.0647308900952339,0,
00:00:04.58,-0.0808270201086998,0.0194037575274706,0.00696053262799978,0,
00:00:04.584,-0.0143819330260158,-0.0383942313492298,-0.052801251411437995,0,
00:00:04.588,0.0210321191698313,-0.0259168781340122,-0.0112187638878822,0,
00:00:04.592,0.0468492172658443,0.0157023873180151,0.0296749211847782,0,
00:00:04.596,0.0275584850460291,0.0037103614304214703,0.0101572209969163,0,
00:00:04.6,-0.0301673822104931,0.0506399907171726,0.0162205491214991,0,
00:00:04.604,0.00644262041896582,-0.00779929291456938,0.0495937131345272,0,
00:00:04.608,-0.0611519925296307,-0.0274531971663237,-0.0321880206465721,0,
00:00:04.612,-0.00452739419415593,-0.0234939903020859,-0.10855664312839501,0,
00:00:04.616,0.0438676662743092,-0.00410551624372602,0.037571344524622,0,
00:00:04.62,0.0515764430165291,0.0289381742477417,0.0521357655525208,0,
00:00:04.624,-0.00384826771914959,-0.0434151701629162,0.0440785102546215,0,
00:00:04.628,-0.0617282055318356,0.0382449068129063,-0.0201624035835266,0,
00:00:04.632,-0.0121248131617904,0.0444836504757404,-0.0638044774532318,0,
00:00:04.636,0.0250807795673609,-0.031629666686057996,-0.0202712658792734,0,
00:00:04.64,-0.007297704461961979,0.009317120537161829,-0.00578716862946749,0,
00:00:04.644,0.0101517690345645,-0.0174369122833014,0.0363345853984356,0,
00:00:04.648,-0.0109685063362122,-0.0274377223104239,0.0651723966002464,0,
00:00:04.652,0.028701750561595,-0.0043300143443048,0.00452190032228827,0,
00:00:04.656,-0.0013602585531771198,0.022643044590950002,-0.0545941255986691,0,
00:00:04.66,-0.0136733148247004,0.008199450559914109,-0.0656466633081436,0,
00:00:04.664,-0.04104112461209299,0.0189085006713867,0.0274615194648504,0,
00:00:04.668,0.048363208770752,-0.0286590699106455,0.08817988634109501,0,
00:00:04.672,0.0126045541837811,-0.0174442771822214,0.0298273712396622,0,
00:00:04.676,-0.00846029631793499,0.0328419357538223,-0.08778508007526402,0,
00:00:04.68,-0.0180570799857378,0.0267450511455536,-0.00953975971788168,0,
00:00:04.684,-0.0179121736437082,-0.0238817539066076,-0.0599386915564537,0,
00:00:04.688,0.0194233134388924,-0.0660324394702911,-0.00345666077919304,0,
00:00:04.692,0.0182468816637993,0.0768582373857498,0.190440148115158,0,
00:00:04.696,-0.0411708950996399,-0.0171571597456932,-0.0145164355635643,0,
00:00:04.7,0.00340416189283133,-0.00103847507853061,-0.11997626721858999,0,
00:00:04.704,0.0384743958711624,0.0048946714960038705,-0.0778625756502151,0,
00:00:04.708,0.0213182624429464,-0.0531219318509102,0.0437237545847893,0,
00:00:04.712,-0.0128810638561845,0.0185427889227867,0.1451585739851,0,
00:00:04.716,-0.05675133690238,0.0546817258000374,0.0201561227440834,0,
00:00:04.72,0.00834747031331062,0.000360414996976033,-0.12347722798585901,0,
00:00:04.724,0.021554097533226003,-0.00789348036050797,-0.0597620792686939,0,
00:00:04.728,0.0109780831262469,-0.0304596070200205,0.0082485256716609,0,
00:00:04.732,0.0154758924618363,-0.00910657644271851,0.0463795065879822,0,
00:00:04.736,-0.0184201058000326,-0.0123688085004687,0.0991295799612999,0,
00:00:04.74,-0.02934680134058,0.0163856968283653,-0.0527855008840561,0,
00:00:04.744,0.0197636634111404,0.0594580136239529,0.010201838798820998,0,
00:00:04.748,-0.0236294139176607,-0.0165015775710344,-0.0304600279778242,0,
00:00:04.752,0.0129801100119948,-0.0396025702357292,-0.050431739538908,0,
00:00:04.756,0.0499971844255924,-0.0167435929179192,0.0175486002117395,0,
00:00:04.76,0.00967336911708117,-0.0111599266529083,-0.0146650662645698,0,
00:00:04.764,-0.005031244363635779,0.0559683330357075,0.0848592147231102,0,
00:00:04.768,-0.0841217860579491,0.0276760496199131,0.0551443286240101,0,
00:00:04.772,-0.00845528300851583,-0.0446142442524433,-0.0778782814741135,0,
00:00:04.776,0.0410697795450687,-0.0140683371573687,-0.0931237265467644,0,
00:00:04.78,0.0303906612098217,-0.015393934212625,-0.0153462663292885,0,
00:00:04.784,-0.0276102162897587,0.0139474719762802,0.161140754818916,0,
00:00:04.788,-0.0128567162901163,0.0268801059573889,-0.0280858874320984,0,
00:00:04.792,0.0408114641904831,0.00672584027051926,-0.0842112824320793,0,
00:00:04.796,-0.00966220814734697,-0.0144869554787874,0.0280918050557375,0,
00:00:04.8,0.0190133731812239,-0.0104124257341027,0.00338520528748631,0,
00:00:04.804,-0.000966197345405817,0.0278338845819235,0.0113226976245642,0,
00:00:04.808,-0.0270983166992664,-0.0128324516117573,0.0375730134546757,0,
00:00:04.812,-0.0355035997927189,-0.0256675872951746,-0.0134407794103026,0,
00:00:04.816,0.005060911178588871,-0.00164171296637505,-0.0447285212576389,0,
00:00:04.82,0.021468710154295,0.0073719322681427,-0.0119738569483161,0,
00:00:04.824,0.0228988546878099,-0.00026924980920739504,0.0029490997549146396,0,
00:00:04.828,-0.0172123480588198,0.025330375880003,0.00524560501798987,0,
00:00:04.832,0.0051240436732769,0.00439651310443878,0.0807141587138176,0,
00:00:04.836,0.0199234504252672,-0.00561626208946109,-0.0023534100037068103,0,
00:00:04.84,-0.00171550328377634,0.0127078769728541,-0.0625801160931587,0,
00:00:04.844,-0.0505392029881477,-0.0382488891482353,-0.0115723600611091,0,
00:00:04.848,0.0141869401559234,-0.0195445921272039,0.00643220730125904,0,
00:00:04.852,0.00400913413614035,-0.000421675998950377,-0.0079384446144104,0,
00:00:04.856,0.0112657258287072,0.0325932651758194,-0.0226945634931326,0,
00:00:04.86,0.0334481596946716,0.0136933103203773,0.0390393361449242,0,
00:00:04.864,-0.0360722243785858,0.0159303676337004,0.0752683356404305,0,
00:00:04.868,-0.0109640071168542,-0.0147735951468349,-0.0610571838915348,0,
00:00:04.872,0.0229992382228374,-0.028270835056901002,-0.0329639092087746,0,
00:00:04.876,0.00561512494459748,-0.00135660718660802,-0.00302984029985964,0,
00:00:04.88,-0.0263832174241543,0.0044960784725844895,0.0134274130687118,0,
00:00:04.884,-0.0200364775955677,0.00398816866800189,0.000802273396402597,0,
00:00:04.888,0.0400512591004372,0.0357622727751732,0.05983841791749,0,
00:00:04.892,0.0124540282413363,0.005257281474769121,0.009529205039143559,0,
00:00:04.896,-0.0127153098583221,-0.0546447820961475,-0.0627694576978683,0,
00:00:04.9,-0.00878016371279955,-0.00075011613080278,-0.0558216869831085,0,
00:00:04.904,-0.000474713859148324,0.00717743299901485,0.0112183913588524,0,
00:00:04.908,-0.0129963848739862,-0.00037963743670843504,0.0525895543396473,0,
00:00:04.912,0.000193699233932421,0.0133696012198925,-0.0168500244617462,0,
00:00:04.916,0.0438000932335854,0.0275727845728397,0.0196798555552959,0,
00:00:04.92,-0.0535931587219238,-0.0150533197447658,0.0757289305329323,0,
00:00:04.924,0.00653589842841029,0.0139995757490397,0.00328163919039071,0,
00:00:04.928,0.0197180826216936,-0.0441800579428673,-0.12966769933700598,0,
00:00:04.932,0.0200914572924376,-0.0133720953017473,-0.0344000086188316,0,
00:00:04.936,-0.0016721289139241,0.0212477687746286,0.0364041700959206,0,
00:00:04.94,-0.0196344349533319,0.008907058276236059,0.0360382348299026,0,
00:00:04.944,-0.009485046379268171,0.007678614463657141,0.0156126711517572,0,
00:00:04.948,0.008627742528915409,0.0156341157853603,0.00692322757095099,0,
00:00:04.952,-0.0318946316838264,-0.0049313390627503395,-0.009851677343249321,0,
00:00:04.956,0.0073508326895535,-0.0257577355951071,0.0596461929380894,0,
00:00:04.96,0.0444361418485641,-0.00962433591485024,-0.009922953322529791,0,
00:00:04.964,0.00987676903605461,0.0176570415496826,-0.0723766833543777,0,
00:00:04.968,-0.0205221362411976,0.0094806794077158,-0.0550280995666981,0,
00:00:04.972,-0.00151831982657313,-0.0047843009233474705,0.0111920293420553,0,
00:00:04.976,-0.0153306433930993,-0.010102822445333,0.0274363122880459,0,
00:00:04.98,-0.0252069178968668,0.00358895771205425,0.0539560131728649,0,
00:00:04.984,0.00717733101919293,-0.0101697137579322,0.0199485905468464,0,
00:00:04.988,0.0306503567844629,-0.00565561652183533,-0.0758833661675453,0,
00:00:04.992,0.0796037241816521,0.065254271030426,0.07891172915697099,0,
00:00:04.996,-0.12732268869876898,-0.0117272073403001,0.14176873862743397,0,
00:00:05,-0.00451547419652343,-0.0414275899529457,-0.197171449661255,0,
00:00:05.004,0.055164922028780004,-0.030140794813632996,-0.115827210247517,0,
00:00:05.008,0.0112114399671555,0.000943483610171825,0.00223784591071308,0,
00:00:05.012,-0.00935759302228689,0.0244993772357702,0.0906370058655739,0,
00:00:05.016,-0.006438173353672029,0.0240912158042192,0.05875275284051901,0,
00:00:05.02,-0.00897557754069567,-0.0014459935482591401,0.0202368106693029,0,
00:00:05.024,-0.00702275801450014,-0.0220604315400124,0.00179056241177022,0,
00:00:05.028,0.0315529182553291,0.0519782118499279,0.0149617334827781,0,
00:00:05.032,0.000815669482108206,0.0348581895232201,-0.00606840383261442,0,
00:00:05.036,-0.0441496409475803,-0.10574912279844301,-0.0806904137134552,0,
00:00:05.04,9.97946335701272e-05,-0.0421192198991776,-0.0554555021226406,0,
00:00:05.044,0.0157285016030073,0.0292829144746065,0.0179224405437708,0,
00:00:05.048,0.00568564888089895,0.0377703718841076,0.0578310564160347,0,
00:00:05.052,0.0134790241718292,0.0293145030736923,0.021549616008996995,0,
00:00:05.056,0.0128258485347033,0.0147896064445376,-0.026514170691371002,0,
00:00:05.06,-0.0065544303506612795,-0.0249841623008251,0.0485254600644112,0,
00:00:05.064,-0.0314022526144981,-0.0210136901587248,0.0495382323861122,0,
00:00:05.068,-0.00662779016420245,0.00860718358308077,-0.0488470979034901,0,
00:00:05.072,0.0187605023384094,-0.0129054291173816,-0.0854881182312965,0,
00:00:05.076,0.00201924238353968,-0.00354552711360157,-0.0257915761321783,0,
00:00:05.08,0.00174508173950016,-0.000977040734142065,0.00590602355077863,0,
00:00:05.084,0.00710420636460185,0.007828070782125,0.0717956200242043,0,
00:00:05.088,-0.0103101059794426,0.0209112763404846,0.0442337431013584,0,
00:00:05.092,-0.00611893041059375,-0.00509315356612206,-0.043985515832900994,0,
00:00:05.096,0.0366932041943073,0.0237317327409983,0.00630029384046793,0,
00:00:05.1,-0.0201322510838509,-0.00140460254624486,-0.0013216994702816,0,
00:00:05.104,-0.0458249226212502,-0.0408699698746204,0.0139488261193037,0,
00:00:05.108,0.0121675506234169,-0.0452852994203568,-0.0163932014256716,0,
00:00:05.112,0.0243903920054436,0.0239546746015549,-0.0362249203026295,0,
00:00:05.116,0.0171804912388325,0.0238772593438625,0.00444201985374093,0,
00:00:05.12,-0.00662948470562696,0.0100276917219162,-0.0156497955322266,0,
00:00:05.124,0.0200021397322416,0.03863421827554701,0.0207593869417906,0,
00:00:05.128,-0.0424514450132847,-0.0068337619304657,0.0712896138429642,0,
00:00:05.132,-0.023305943235754998,-0.0389367081224918,0.0119338007643819,0,
00:00:05.136,0.0345154628157616,0.00325267552398145,-0.0719450712203979,0,
00:00:05.14,0.0217301901429892,-0.0109381945803761,-0.0332739986479282,0,
00:00:05.144,-0.000566841394174844,-0.0102193001657724,-0.00212582247331738,0,
00:00:05.148,-0.0297902673482895,0.00896066427230835,0.0343531519174576,0,
00:00:05.152,-0.01845976524055,0.0157352667301893,0.0577230080962181,0,
00:00:05.156,0.0116736525669694,0.000869656796567142,-0.0627086460590363,0,
00:00:05.16,0.0326009504497051,-0.0146911619231105,-0.062301691621542,0,
00:00:05.164,0.00569748040288687,0.0334072113037109,0.109473988413811,0,
00:00:05.168,0.0109343947842717,0.0546577498316765,0.139096766710281,0,
00:00:05.172,-0.0450799055397511,-0.0878003239631653,-0.135709404945374,0,
00:00:05.176,-0.035511389374733006,-0.0386385880410671,-0.135172516107559,0,
00:00:05.18,0.038849238306284,0.0192164033651352,-0.0300814304500818,0,
00:00:05.184,0.0210880227386951,0.0159489028155804,0.0628393143415451,0,
00:00:05.188,-0.000386029423680156,0.0221977662295103,0.0900018736720085,0,
00:00:05.192,-0.0024812167976051604,0.007158054038882259,0.0255215000361204,0,
00:00:05.196,0.000785550335422158,-0.00174191687256098,0.0019164823461324,0,
00:00:05.2,-0.0280366446822882,-0.00563503708690405,-0.00791821349412203,0,
00:00:05.204,0.00565744983032346,0.00472208624705672,-0.0344654284417629,0,
00:00:05.208,0.0247277412563562,-0.000936313765123487,-0.0350427366793156,0,
00:00:05.212,-0.021247886121273,-0.02102205529809,-0.0105997668579221,0,
00:00:05.216,-0.00206912425346673,-0.007839288562536241,0.0210558101534843,0,
00:00:05.22,0.0265135280787945,0.000547944102436304,0.008636007085442541,0,
00:00:05.224,0.0050272215157747295,0.00338705279864371,-0.0081633273512125,0,
00:00:05.228,-0.0394313149154186,0.0357757322490215,-0.008529359474778179,0,
00:00:05.232,0.0119431558996439,-0.0103740142658353,0.0617457367479801,0,
00:00:05.236,0.0477117970585823,0.0275288168340921,0.0578605495393276,0,
00:00:05.24,-0.0429615154862404,-0.009049157612025741,-0.0651490986347198,0,
00:00:05.244,-0.0284899994730949,-0.0696117728948593,-0.11585426330566401,0,
00:00:05.248,0.00255579361692071,-0.0199888981878757,0.000772493775002658,0,
00:00:05.252,0.0198859963566065,0.020513316616416002,0.0837144255638123,0,
00:00:05.256,0.0131652979180217,0.0504685677587986,0.0215623490512371,0,
00:00:05.26,0.050063606351614005,0.0300639197230339,-0.0235791075974703,0,
00:00:05.264,-0.0393244810402393,-0.0272173695266247,0.0272059645503759,0,
00:00:05.268,-0.0820448622107506,0.000392275367630646,0.0198969207704067,0,
00:00:05.272,0.0310636758804321,0.00138461776077747,-0.12404949218034697,0,
00:00:05.276,0.0777408480644226,-0.0272926036268473,0.0636927336454391,0,
00:00:05.28,0.00980193261057138,0.0429963953793049,0.17580281198024697,0,
00:00:05.284,-0.0547820851206779,-0.0391446277499199,-0.135030627250671,0,
00:00:05.288,-0.027864184230566,-0.0314548015594482,-0.13359096646308902,0,
00:00:05.292,0.0080399801954627,0.00753612583503127,-0.0327830240130425,0,
00:00:05.296,0.0402407310903072,-0.0065115294419229,0.14142447710037198,0,
00:00:05.3,-0.0133922751992941,0.0550382025539875,0.0931125581264496,0,
00:00:05.304,-0.0168594215065241,0.0351339429616928,-0.0508165545761585,0,
00:00:05.308,0.0039519588463008395,-0.0147298276424408,-0.0319143310189247,0,
00:00:05.312,0.0109143536537886,-0.0405812673270702,-0.0503977499902248,0,
00:00:05.316,0.0244080666452646,-0.0295272041112185,-0.025900661945343,0,
00:00:05.32,-0.0249899290502071,0.0167889706790447,0.13980704545974698,0,
00:00:05.324,-0.0175477266311646,0.0132932951673865,-0.0291204247623682,0,
00:00:05.328,-0.015849320217967,0.0325190164148808,-0.0588468909263611,0,
00:00:05.332,0.00199564849026501,-0.0218025054782629,0.0106048984453082,0,
00:00:05.336,0.0809614211320877,-0.019558921456337,-0.0937571376562119,0,
00:00:05.34,0.00261881039477885,-0.0218823049217463,0.103240996599197,0,
00:00:05.344,-0.046690609306097,0.0279802996665239,0.0701565816998482,0,
00:00:05.348,-0.043606773018837,0.0249868892133236,-0.0838311687111855,0,
00:00:05.352,0.00258866627700627,-0.00866941548883915,-0.0272139813750982,0,
00:00:05.356,0.0113754561170936,-0.00579201988875866,-0.0240340828895569,0,
00:00:05.36,0.025850486010313003,-0.0236222427338362,0.0423035733401775,0,
00:00:05.364,0.0231622625142336,0.0165555663406849,0.13934773206710802,0,
00:00:05.368,-0.0268941186368465,0.0138315167278051,-0.0775479972362518,0,
00:00:05.372,0.0019342420855537102,-0.0032734468113631,-0.0740931034088135,0,
00:00:05.376,0.00178940978366882,-0.00366099178791046,-0.0383343920111656,0,
00:00:05.38,0.0050708190537989105,-0.0177372451871634,0.0391112007200718,0,
00:00:05.384,-0.00238426332361996,0.00754285603761673,0.0282290112227201,0,
00:00:05.388,-0.0172294322401285,0.010397239588201001,-0.0282206814736128,0,
00:00:05.392,-0.0271694026887417,-0.0142940413206816,0.0670042186975479,0,
00:00:05.396,0.0420467220246792,0.0179299954324961,0.0214204620569944,0,
00:00:05.4,0.0254398230463266,-0.012834956869483,-0.0866460427641869,0,
00:00:05.404,-0.0297894347459078,-0.00751843908801675,-0.0217170622199774,0,
00:00:05.408,-0.0028977682814002,0.0179225634783506,0.104353375732899,0,
00:00:05.412,0.0404647998511791,0.0236257687211037,-0.0285904463380575,0,
00:00:05.416,-0.050525538623333,-0.0178681500256062,-0.0902813822031021,0,
00:00:05.42,-0.0103059951215982,-0.0464192479848862,0.00620580557733774,0,
00:00:05.424,-0.0081027876585722,0.00169297540560365,0.0619238466024399,0,
00:00:05.428,0.0156439244747162,0.0116727612912655,0.0257061999291182,0,
00:00:05.432,0.0580126345157623,0.0615530200302601,0.0196991600096226,0,
00:00:05.436,-0.0332822687923908,-0.00214455113746226,-0.0569207966327667,0,
00:00:05.44,-0.0122585091739893,-0.0299704223871231,-0.0205232910811901,0,
00:00:05.444,-0.0180417113006115,-0.0294990092515945,0.0187784507870674,0,
00:00:05.448,0.0204412098973989,-0.0067067374475300295,7.315856782952321e-05,0,
00:00:05.452,0.0346034653484821,0.0257282666862011,-0.0180895403027534,0,
00:00:05.456,-0.0104058114811778,0.00440374668687582,0.0362523272633553,0,
00:00:05.46,-0.0396924763917923,-0.0106675922870636,0.0283567700535059,0,
00:00:05.464,0.00790998712182045,0.0118095744401217,-0.0186952091753483,0,
00:00:05.468,-0.0251039359718561,0.0210622642189264,-0.051471833139657995,0,
00:00:05.472,0.0143383201211691,0.00831493455916643,0.0149124022573233,0,
00:00:05.476,0.0455068424344063,-0.036024272441864,-0.00925901997834444,0,
00:00:05.48,0.00045679949107579903,-0.0347415804862976,0.0423791743814945,0,
00:00:05.484,-0.0268379710614681,0.0238263122737408,-0.010541588999331,0,
00:00:05.488,-0.00133999541867524,0.00047929972060956104,-0.000914443284273148,0,
00:00:05.492,0.0036859568208456,0.00316006899811327,-0.0145043544471264,0,
00:00:05.496,-0.0297229960560799,0.0350350998342037,-0.0190215408802032,0,
00:00:05.5,0.032374057918787,0.0154401762410998,0.0610752105712891,0,
00:00:05.504,0.00164772162679583,-0.0387932434678078,-0.0275299102067947,0,
00:00:05.508,-0.0156435463577509,-0.0248585753142834,0.0153462430462241,0,
00:00:05.512,0.012847812846303002,0.0030868635512888397,-0.0419336967170238,0,
00:00:05.516,0.00233694119378924,0.0114176059141755,0.0160908624529839,0,
00:00:05.52,0.0309403501451015,0.0199666433036327,-0.0340090617537498,0,
00:00:05.524,-0.0741180926561356,-0.0014256694121286301,0.0194763988256454,0,
00:00:05.528,0.00513342162594199,-0.0353190638124943,0.0230831000953913,0,
00:00:05.532,0.0775160640478134,0.0627170652151108,0.040804885327816,0,
00:00:05.536,-0.0435124970972538,0.00918189901858568,0.0317269340157509,0,
00:00:05.54,-0.0271504893898964,-0.0681045055389404,-0.077699288725853,0,
00:00:05.544,0.0346827544271946,-0.00305540044791996,-0.0766131579875946,0,
00:00:05.548,-0.00415934575721622,-0.0022943371441215303,0.0180773176252842,0,
00:00:05.552,0.0034222595859319,0.0170074310153723,0.0363577902317047,0,
00:00:05.556,-0.0189660452306271,0.0165800768882036,0.0309066884219646,0,
00:00:05.56,-0.0114589100703597,-0.00913324113935232,0.0703974589705467,0,
00:00:05.564,0.0250633358955383,-0.00657509965822101,0.00332932942546904,0,
00:00:05.568,0.0280931126326323,0.0514504797756672,-0.101366467773914,0,
00:00:05.572,-0.0324479900300503,0.0126854628324509,-0.0527421720325947,0,
00:00:05.576,-0.0202844645828009,-0.0540358535945416,0.0574630759656429,0,
00:00:05.58,0.0306651312857866,-0.0368818901479244,0.0043211225420236605,0,
00:00:05.584,-0.0140209691599011,-0.0164670180529356,0.0100228134542704,0,
00:00:05.588,0.00283975177444518,0.0255355946719646,0.0146599188446999,0,
00:00:05.592,0.0043349745683372,0.0380597375333309,-0.00507100904360414,0,
00:00:05.596,-0.0134348291903734,0.0145993446931243,-0.0155841577798128,0,
00:00:05.6,0.0059283357113599795,0.0006378210964612661,0.0104014771059155,0,
00:00:05.604,0.023299328982830003,-0.0199232362210751,-0.007783674169331791,0,
00:00:05.608,0.0028911437839269603,-0.00443731062114239,0.0322523936629295,0,
00:00:05.612,-0.0243551526218653,-0.00287934672087431,-0.0401819720864296,0,
00:00:05.616,-0.0128548014909029,-0.0133981918916106,0.0189676936715841,0,
00:00:05.62,-0.0217204838991165,0.00814662594348192,-0.00410837773233652,0,
00:00:05.624,0.0573081634938717,-0.0121990004554391,-0.0271425154060125,0,
00:00:05.628,0.0156175326555967,0.0246312413364649,0.0572074130177498,0,
00:00:05.632,-0.0328146740794182,0.0312422681599855,-0.060646615922451,0,
00:00:05.636,-0.0171444937586784,-0.0355780832469463,-0.00949795171618462,0,
00:00:05.64,-0.0135990735143423,-0.0244337096810341,0.0367890410125256,0,
00:00:05.644,0.025806887075305,-0.00691232411190867,0.0254115462303162,0,
00:00:05.648,0.014845522120595,0.0611641705036163,0.001456004451029,0,
00:00:05.652,0.00148101442027837,-0.0196423809975386,-0.0303904749453068,0,
00:00:05.656,-0.004401269834488629,-0.0284551102668047,-0.0166822634637356,0,
00:00:05.66,-0.0388140492141247,0.00589947123080492,0.0154423452913761,0,
00:00:05.664,0.0336684063076973,0.0203117374330759,0.0155531456694007,0,
00:00:05.668,0.00811624899506569,-0.00969479698687792,-0.0014819758944213401,0,
00:00:05.672,-0.00459829065948725,0.0112919509410858,-0.00494711333885789,0,
00:00:05.676,0.0029355029109865397,-0.0061714150942862,0.00688334507867694,0,
00:00:05.68,-0.025116465985775004,-0.0250170938670635,-0.0858610570430756,0,
00:00:05.684,-0.00962715223431587,0.0408099479973316,0.0734691619873047,0,
00:00:05.688,0.0418959818780422,-0.028176611289382005,0.11746968328952802,0,
00:00:05.692,-0.0098981074988842,-0.0104886963963509,-0.0956275910139084,0,
00:00:05.696,-0.0352390110492706,-0.00286484230309725,-0.0860489010810852,0,
00:00:05.7,0.0299143008887768,0.0213174689561129,0.0343589708209038,0,
00:00:05.704,0.0215831305831671,0.0278403274714947,-0.017110463231802,0,
00:00:05.708,-0.0143204042688012,-0.0266860146075487,0.0503597892820835,0,
00:00:05.712,-0.00159907958004624,0.0315127111971378,0.0462627895176411,0,
00:00:05.716,-0.0241496823728085,-0.0333857126533985,-0.0325060412287712,0,
00:00:05.72,-0.0149027081206441,-0.030577789992094,-0.0167246256023645,0,
00:00:05.724,0.0166622251272202,0.0166458748281002,0.0178129300475121,0,
00:00:05.728,0.024211285635829,0.00824863277375698,-0.0202809106558561,0,
00:00:05.732,0.0166529398411512,0.00614910945296288,0.00817780289798975,0,
00:00:05.736,-0.0141626298427582,-7.59650793042965e-05,-0.0314688980579376,0,
00:00:05.74,-0.00349220260977745,0.00108429195825011,0.0164311919361353,0,
00:00:05.744,-0.0127427121624351,0.00816187355667353,0.0010483419755473698,0,
00:00:05.748,-0.00388358067721128,0.0325345732271671,-0.0392842404544353,0,
00:00:05.752,-0.0227172952145338,-0.0679256096482277,0.0612223818898201,0,
00:00:05.756,0.009230013936758041,0.0106096370145679,0.11131040006875999,0,
00:00:05.76,0.0490075089037418,0.0134594663977623,-0.0671583861112595,0,
00:00:05.764,-0.000301457563182339,0.00249222898855805,-0.123438611626625,0,
00:00:05.768,-0.0433014370501041,0.0100161945447326,-0.0169152822345495,0,
00:00:05.772,0.0029570739716291397,-0.0102271474897861,0.0528411492705345,0,
00:00:05.776,0.0313770733773708,-0.0184614565223455,0.0371235683560371,0,
00:00:05.78,-0.0186061207205057,0.00721077341586351,0.000422962679294869,0,
00:00:05.784,-0.00485563464462757,0.0145421298220754,0.021732347086072,0,
00:00:05.788,-0.00963832065463066,0.00340906321071088,-0.0151291880756617,0,
00:00:05.792,0.0161771811544895,-0.00342424469999969,0.00330524332821369,0,
00:00:05.796,0.005948424339294429,0.0158178769052029,-0.000310769013594836,0,
00:00:05.8,-0.0224364139139652,-0.0145098259672523,-0.0193477626889944,0,
00:00:05.804,0.0213616713881493,-0.0038613302167505,-0.030329555273056,0,
00:00:05.808,0.0149519760161638,-0.009873691014945509,0.0101931672543287,0,
00:00:05.812,-0.00837249215692282,-0.0140947764739394,0.0554152987897396,0,
00:00:05.816,-0.0333229601383209,0.00480919843539596,-0.0509913451969624,0,
00:00:05.82,-0.008663882501423359,0.018214687705040002,-0.016027083620429,0,
00:00:05.824,0.0143490377813578,0.0228767823427916,0.05743508040905001,0,
00:00:05.828,0.0701975151896477,-0.00805308669805527,0.0210937540978193,0,
00:00:05.832,-0.0490132123231888,-0.0138747114688158,-0.0144301485270262,0,
00:00:05.836,-0.0325746573507786,0.00398813700303435,-0.0379650965332985,0,
00:00:05.84,0.00600540544837713,-0.00880244188010693,-0.0297940894961357,0,
00:00:05.844,0.0164003055542707,-0.0206414069980383,-0.00517485709860921,0,
00:00:05.848,0.0138789117336273,-0.00244001485407352,0.0413782969117165,0,
00:00:05.852,0.032121330499649,0.0359852947294712,0.0157796423882246,0,
00:00:05.856,-0.0452850088477135,0.0320778302848339,-0.00872446876019239,0,
00:00:05.86,-0.00829668715596199,-0.0163664631545544,0.00480560818687081,0,
00:00:05.864,-0.0410583168268204,-0.0516731552779675,0.0597954280674458,0,
00:00:05.868,0.0430464446544647,0.0110818510875106,-0.0696360096335411,0,
00:00:05.872,0.0428730100393295,0.00950676575303078,-0.0610432848334312,0,
00:00:05.876,-0.0183430667966604,-0.0101518649607897,0.0161549001932144,0,
00:00:05.88,-0.0297059565782547,0.0207621678709984,0.0520236678421497,0,
00:00:05.884,0.0215694401413202,0.00908405054360628,0.0133088026195765,0,
00:00:05.888,0.00624454487115145,0.0023098755627870603,-0.0271185003221035,0,
00:00:05.892,-0.0124744372442365,-0.0276298616081476,0.0270174890756607,0,
00:00:05.896,-0.0058862934820354,0.00994754116982222,0.048654168844223,0,
00:00:05.9,0.00881192926317453,0.0303603261709213,-0.09969116747379302,0,
00:00:05.904,-0.0107521014288068,-0.0112666562199593,-0.0241648610681295,0,
00:00:05.908,-0.010080567561090001,-0.0488920845091343,0.0752117857336998,0,
00:00:05.912,-0.00147911906242371,-0.0154387038201094,-0.0186891574412584,0,
00:00:05.916,0.0204936508089304,0.0373077131807804,-0.0310549829155207,0,
00:00:05.92,0.0257770381867886,0.0203412529081106,0.0494455508887768,0,
00:00:05.924,-0.024213083088397997,0.0088279927149415,-0.000972138426732272,0,
00:00:05.928,-0.0144189577549696,0.00561567582190037,-0.0173354372382164,0,
00:00:05.932,-0.0006825202144682411,-0.0145108439028263,-0.030381653457880003,0,
00:00:05.936,0.0194251760840416,-0.0109286289662123,0.0309236105531454,0,
00:00:05.94,0.0163476765155792,-0.0131866307929158,0.00622689817100763,0,
00:00:05.944,-0.0216836463660002,0.00800856295973063,-0.0304003395140171,0,
00:00:05.948,-0.0364031046628952,-0.009539930149912829,0.0395630151033401,0,
00:00:05.952,0.0171174537390471,0.0232546981424093,0.013284926302731,0,
00:00:05.956,0.0290209166705608,0.00263144401833415,-0.0308204051107168,0,
00:00:05.96,-0.003935649059712889,-0.010670674033463001,-0.0318837314844131,0,
00:00:05.964,0.008569394238293171,-0.0114042395725846,-0.0012851380743086301,0,
00:00:05.968,0.00166383583564311,0.00566835980862379,0.0509838424623013,0,
00:00:05.972,-0.0441850610077381,0.00108595308847725,0.031943067908287,0,
00:00:05.976,0.0174393970519304,0.0029485644772648803,-0.0564130693674088,0,
00:00:05.98,0.00933506060391665,0.0182797238230705,-0.0284627303481102,0,
00:00:05.984,0.00202972022816539,-0.00317151052877307,0.0680293813347816,0,
00:00:05.988,0.00435231113806367,-0.0276208650320768,-0.0205594506114721,0,
00:00:05.992,-0.0458614267408848,0.000541357789188623,-0.0577044971287251,0,
00:00:05.996,0.035402026027441004,0.0367131270468235,0.00570232793688774,0,
00:00:06,0.0293482653796673,-0.0300193205475807,0.0638543292880058,0,
00:00:06.004,-0.0228610206395388,-0.0254109892994165,0.0384135730564594,0,
00:00:06.008,-0.00071762886364013,0.0298161674290895,-0.0642235577106476,0,
00:00:06.012,0.00289054913446307,0.0214323215186596,-0.0264709144830704,0,
00:00:06.016,-0.0165850538760424,-0.00826072413474321,-0.0180779229849577,0,
00:00:06.02,0.0150468396022916,0.0284023713320494,0.00830811634659767,0,
00:00:06.024,0.00145076704211533,-0.0466128662228584,0.12731760740280199,0,
00:00:06.028,-0.0152651714161038,-0.0200769156217575,-0.0287882518023252,0,
00:00:06.032,-0.0116808023303747,0.00783877167850733,-0.0956843793392181,0,
00:00:06.036,0.0365545190870762,0.0024435601662844398,-0.0403016805648804,0,
00:00:06.04,0.0240588914602995,0.0225126706063747,0.0772195905447006,0,
00:00:06.044,-0.0770673751831055,0.0109516214579344,0.0243253838270903,0,
00:00:06.048,0.014784294180571998,0.0150619354099035,-0.0054630385711789105,0,
00:00:06.052,0.0014923729468137,-0.0218434203416109,-0.0359331071376801,0,
00:00:06.056,0.0535118132829666,-0.0295162722468376,-0.0152388121932745,0,
00:00:06.06,0.0040340106934309,-0.0140387006103992,0.0503218770027161,0,
00:00:06.064,-0.0329513214528561,0.0231375526636839,0.0103394873440266,0,
00:00:06.068,-0.020799158141017,0.0322749726474285,-0.0454820469021797,0,
00:00:06.072,0.00173959950916469,-0.00435804203152657,0.0205065123736858,0,
00:00:06.076,0.0155573459342122,-0.0069026001729071106,0.00891777407377958,0,
00:00:06.08,0.00842545926570892,-0.0150429112836719,-0.0356921665370464,0,
00:00:06.084,-0.0155977690592408,-0.00915437284857035,0.007226017769426109,0,
00:00:06.088,-0.010615305043756998,0.00205126707442105,-0.00859372410923243,0,
00:00:06.092,0.0260576847940683,0.0205798633396626,-0.00604311982169747,0,
00:00:06.096,0.0035677028354257297,0.00205910741351545,0.086455300450325,0,
00:00:06.1,0.0215642154216766,-0.0163449253886938,-0.0187257379293442,0,
00:00:06.104,-0.0360983833670616,-0.00898622255772352,-0.0392757654190063,0,
00:00:06.108,-0.0437236800789833,0.0126734543591738,-0.00450677238404751,0,
00:00:06.112,0.0348406322300434,0.0211477503180504,0.0059329331852495705,0,
00:00:06.116,0.0107962740585208,0.0109467301517725,-0.0493272170424461,0,
00:00:06.12,0.0260500181466341,-0.0303362291306257,-0.0065342364832758895,0,
00:00:06.124,-0.00200616312213242,-0.0383631959557533,0.0370339266955853,0,
00:00:06.128,-0.0150158908218145,0.041192103177309,0.11079134047031401,0,
00:00:06.132,-0.0309362169355154,-0.005068962462246421,-0.0121710747480392,0,
00:00:06.136,0.0111809726804495,-0.00018035602988675201,-0.103661946952343,0,
00:00:06.14,0.0123500116169453,-0.0014943907735869301,-0.033385094255209004,0,
00:00:06.144,0.00115833489689976,0.00656272983178496,0.0029391348361969,0,
00:00:06.148,-0.007551205344498159,-0.0102633628994226,0.0274419561028481,0,
00:00:06.152,0.0071958098560571705,0.0342446565628052,0.0756912007927895,0,
00:00:06.156,0.00716983340680599,-0.0114835565909743,-0.0174992196261883,0,
00:00:06.16,0.0015999551396817,-0.035291213542223,-0.0275450497865677,0,
00:00:06.164,-0.0219853390008211,0.0164456050843,0.00235600187443197,0,
00:00:06.168,-0.0121823204681277,0.00423597218468785,-0.0158440005034208,0,
00:00:06.172,0.0220731608569622,2.9508615625672997e-05,-0.02282958291471,0,
00:00:06.176,0.0191021859645844,-0.00475689675658941,0.0397823303937912,0,
00:00:06.18,0.0105199189856648,0.0038051537703722702,-0.00541376788169146,0,
00:00:06.184,-0.0134401023387909,0.00356625556014478,-0.00880217924714088,0,
00:00:06.188,-0.0369421504437923,0.0111014107242227,-0.00298675405792892,0,
00:00:06.192,0.0025404253974556897,-0.0362705700099468,-0.005608178209513429,0,
00:00:06.196,0.0219021588563919,0.0300174616277218,0.0604912079870701,0,
00:00:06.2,-0.00355610135011375,0.0140358014032245,-0.012243521399796002,0,
00:00:06.204,0.000744513003155589,-0.0273153372108936,-0.0325456261634827,0,
00:00:06.208,-0.00210790405981243,-0.0120249437168241,-0.037562720477581,0,
00:00:06.212,0.00525065837427974,0.00987303908914328,0.0007416925509460269,0,
00:00:06.216,-0.0009177030879072849,0.000468375132186338,0.0032576161902397897,0,
00:00:06.22,0.0116116078570485,0.0101759796962142,0.0362479612231255,0,
00:00:06.224,0.009103468619287009,0.0147598357871175,-0.000951150374021381,0,
00:00:06.228,-0.05604255571961401,0.00225526606664062,0.0375309139490128,0,
00:00:06.232,0.0187953412532806,-0.0416495017707348,-0.00968083646148443,0,
00:00:06.236,0.0248415395617485,0.00169577461201698,0.0176206659525633,0,
00:00:06.24,0.00858364161103964,0.0301853828132153,-0.0577379912137985,0,
00:00:06.244,-0.0226903930306435,0.0278989039361477,-0.0283147804439068,0,
00:00:06.248,0.000341073813615367,-0.0165451169013977,-0.00509769236668944,0,
00:00:06.252,-0.0018084094626829,-0.0494251064956188,0.00874131359159946,0,
00:00:06.256,0.00792000535875559,-0.0113995987921953,0.0231217816472054,0,
00:00:06.26,0.00620252033695579,0.0157720092684031,0.0206238888204098,0,
00:00:06.264,-0.0116447471082211,0.0168094132095575,0.0279291272163391,0,
00:00:06.268,-0.00600811373442411,0.0237302873283625,-0.0136532746255398,0,
00:00:06.272,0.00672298762947321,0.0128094060346484,-0.103678546845913,0,
00:00:06.276,0.0501971878111362,0.0143659077584744,0.112139187753201,0,
00:00:06.28,-0.0601066164672375,-0.0297055765986443,0.14682593941688502,0,
00:00:06.284,-0.016475535929203002,-0.0575763322412968,-0.132483601570129,0,
00:00:06.288,0.0053297714330256,-0.00385533343069255,-0.174706175923347,0,
00:00:06.292,0.0229103174060583,0.0314958766102791,0.0236191097646952,0,
00:00:06.296,0.0155306058004498,0.0284025389701128,0.0229737535119057,0,
00:00:06.3,0.000108218569948804,0.0109634287655354,0.0711266100406647,0,
00:00:06.304,-0.0070066936314106,-0.000551089411601424,0.0639132186770439,0,
00:00:06.308,0.0070378105156123595,-0.013624151237308998,0.0127091640606523,0,
00:00:06.312,-0.0120034031569958,-0.00752403680235147,-0.0328266173601151,0,
00:00:06.316,-0.0264401789754629,-0.0150278778746724,-0.0479313991963863,0,
00:00:06.32,0.00966533552855253,0.020230058580637002,0.0281543582677841,0,
00:00:06.324,0.00213082483969629,-0.0283858869224787,0.0210305452346802,0,
00:00:06.328,0.0131232142448425,-0.000307807436911389,-0.0170468892902136,0,
00:00:06.332,0.0132434125989676,0.015487621538341,-0.0453117825090885,0,
00:00:06.336,-0.00910258386284113,0.0053417393937706895,-0.0299899410456419,0,
00:00:06.34,0.00846592336893082,0.010823504999280002,0.007991643622517591,0,
00:00:06.344,-0.0008507123566232621,0.00788490194827318,0.0383960828185081,0,
00:00:06.348,-0.0303527023643255,-0.0140976924449205,0.0381296910345554,0,
00:00:06.352,0.00533705856651068,-0.00034634480834938597,-0.00316841318272054,0,
