Elapsed Time,EMG1,EMG2,EMG3,BioRadio Event,Unnamed: 5
00:00:00,1.6959123611450202,0.7119925618171691,-0.379867762327194,0,
00:00:00.004,-1.62629306316376,-0.675459802150726,0.35110509395599393,0,
00:00:00.008,-1.32762134075165,-0.569347620010376,0.31867358088493297,0,
00:00:00.012,-0.126384571194649,-0.0584155842661858,0.0347827412188053,0,
00:00:00.016,0.665603458881378,0.30669564008712796,-0.16187882423400898,0,
00:00:00.02,0.827605485916138,0.33154454827308694,-0.20707538723945604,0,
00:00:00.024,0.551525175571442,0.203729569911957,-0.111712925136089,0,
00:00:00.028,0.0557238832116127,0.0460446625947952,0.0171640440821648,0,
00:00:00.032,-0.254559397697449,-0.0930174216628075,0.0483077578246593,0,
00:00:00.036,-0.355484217405319,-0.14506222307682,0.0590945482254028,0,
00:00:00.04,-0.257216185331345,-0.11870242655277301,0.0643682777881622,0,
00:00:00.044,-0.0599878020584583,-0.0319860987365246,0.0149585297331214,0,
00:00:00.048,0.0564151331782341,0.029016800224781005,-0.0231254901736975,0,
00:00:00.052,0.0902813524007797,0.0362706519663334,-0.0198831651359797,0,
00:00:00.056,0.0804155170917511,0.0239121913909912,-0.00943874288350344,0,
00:00:00.06,0.0338782966136932,0.0194736029952765,-0.00692936591804028,0,
00:00:00.064,-0.0009705954580567779,0.00587669853121042,0.007284100167453291,0,
00:00:00.068,0.0032535216305404897,0.00048420586972497404,0.0021583009511232398,0,
00:00:00.072,-0.0358269289135933,-0.024728761985898,0.00343262800015509,0,
00:00:00.076,-0.0617669709026814,-0.00592083157971501,0.00551652582362294,0,
00:00:00.08,0.0210155099630356,-0.0043421457521617395,-0.00882303528487682,0,
00:00:00.084,0.0224839616566896,0.0116588585078716,-0.0092254625633359,0,
00:00:00.088,0.0135574517771602,0.0076692765578627595,0.0115959895774722,0,
00:00:00.092,-0.0160478670150042,0.0206796992570162,0.0123567776754498,0,
00:00:00.096,0.006801440846174961,-0.0305715762078762,-0.0249358955770731,0,
00:00:00.1,0.0511359646916389,-0.0215166602283716,-0.0241093002259731,0,
00:00:00.104,-0.0695022717118263,0.00456882314756513,0.0773349776864052,0,
00:00:00.108,-0.04021871089935299,-0.0150197502225637,0.013540580868721001,0,
00:00:00.112,0.0307694189250469,0.0455706752836704,-0.0430957525968552,0,
00:00:00.116,0.0282442532479763,0.025704849511384995,-0.0474554784595966,0,
00:00:00.12,0.026611028239131,-0.00211581634357572,-0.0132716996595263,0,
00:00:00.124,-0.007578528951853509,-0.0223458390682936,0.0184869263321161,0,
00:00:00.128,0.00125500117428601,-0.0215371623635292,0.0308559685945511,0,
00:00:00.132,-0.00996030308306217,-0.0183796007186174,0.0250209178775549,0,
00:00:00.136,-0.0113901840522885,-0.000657053082250059,0.014786739833653,0,
00:00:00.14,-0.0299920830875635,0.0248237028717995,-0.0148433111608028,0,
00:00:00.144,-0.0235065966844559,0.01768041215837,-0.0421247407793999,0,
00:00:00.148,0.0513821393251419,-0.00344577757641673,-0.00085622671758756,0,
00:00:00.152,0.0269404593855143,-0.00558180548250675,0.0041478886269033,0,
00:00:00.156,-0.0206808373332024,-0.0049011986702680605,0.0226593744009733,0,
00:00:00.16,-0.00924244802445173,-0.00893494486808777,-0.0103173833340406,0,
00:00:00.164,0.00233404454775155,0.011720335111022,-0.0034635071642696896,0,
00:00:00.168,0.0290597416460514,0.0062275533564388795,0.0145607255399227,0,
00:00:00.172,-0.0115547738969326,-0.00272084260359406,-0.0101396413519979,0,
00:00:00.176,-0.0347074382007122,-0.0274539608508348,-0.00327195459976792,0,
00:00:00.18,-0.00662517221644521,-0.000153064058395103,0.000988183892332017,0,
00:00:00.184,0.0250304937362671,0.0369229353964329,-0.0038763782940805,0,
00:00:00.188,-0.00160028296522796,-0.00748152611777186,0.0159998498857021,0,
00:00:00.192,0.00605374108999968,0.0031973340082913602,-0.00247385934926569,0,
00:00:00.196,0.0046684006229043,-0.0192618276923895,-0.004486416932195429,0,
00:00:00.2,-0.0144382445141673,0.00206131720915437,9.26135398913175e-05,0,
00:00:00.204,0.0062138135544955704,0.0037456285208463704,-0.00596869084984064,0,
00:00:00.208,-0.00141529890242964,0.0112173492088914,0.00932795647531748,0,
00:00:00.212,-0.0221038442105055,-0.000529614510014653,-0.0211308728903532,0,
00:00:00.216,0.0450478680431843,-0.00870661996304989,-0.00910075008869171,0,
00:00:00.22,-0.0142438504844904,-0.0127270445227623,0.0200580172240734,0,
00:00:00.224,0.0139747001230717,0.00260467315092683,0.0276317428797483,0,
00:00:00.228,-0.0315290652215481,0.007502761203795671,-0.007513687480241059,0,
00:00:00.232,-0.0243680849671364,0.00383549369871616,-0.0057987831532955204,0,
00:00:00.236,0.023040110245347,0.0102067142724991,-0.0164247062057257,0,
00:00:00.24,0.0302779767662287,-0.00138709833845496,-0.00549661042168736,0,
00:00:00.244,-0.0202378481626511,-0.0217026118189096,0.00298908958211541,0,
00:00:00.248,0.0008195205591619009,0.011247456073761002,0.00623443443328142,0,
00:00:00.252,0.00356318475678563,0.00038382731145247795,0.00305159064009786,0,
00:00:00.256,-0.007805159781128171,0.0027123063337057803,0.0165129732340574,0,
00:00:00.26,0.0139679666608572,-0.0229325983673334,-0.015053759329021003,0,
00:00:00.264,0.0041518099606037105,0.0278041623532772,-0.00986395310610533,0,
00:00:00.268,-0.0113430479541421,0.0099281957373023,-0.000718696624971926,0,
00:00:00.272,-0.0210006833076477,-0.0201120655983686,0.0214240290224552,0,
00:00:00.276,-0.0103381015360355,-0.00149571406655014,-0.00411848025396466,0,
00:00:00.28,0.0205349568277597,0.00694854930043221,-0.0243246145546436,0,
00:00:00.284,0.0316356979310513,-0.0104345791041851,0.0036775178741663703,0,
00:00:00.288,0.00920317508280277,-0.00155711534898728,0.0110018821433187,0,
00:00:00.292,-0.021985737606882997,0.0195866730064154,0.0035001123324036603,0,
00:00:00.296,-0.0378609970211983,-0.0013785659102723,0.0220479443669319,0,
00:00:00.3,-0.00911677535623312,-0.0179848205298185,-0.0195844639092684,0,
00:00:00.304,0.0284911226481199,-8.85343615664169e-05,-0.0233883559703827,0,
00:00:00.308,0.0297413412481546,0.0147545412182808,0.0298614520579576,0,
00:00:00.312,7.236460805870591e-05,-0.00426212279126048,-0.0177715662866831,0,
00:00:00.316,-0.00622648885473609,-0.000393754773540422,-0.00540945772081614,0,
00:00:00.32,-0.0348841026425362,0.004069095011800529,0.0148828243836761,0,
00:00:00.324,0.006728211883455511,0.0037825817707926,-0.00022197654470801402,0,
00:00:00.328,0.0316340997815132,-0.0264781713485718,-0.00692449416965246,0,
00:00:00.332,-0.034265223890543,0.0105319544672966,-0.00972114782780409,0,
00:00:00.336,0.0101043963804841,0.00841536372900009,0.0135408006608486,0,
00:00:00.34,0.00595958810299635,0.0077614109031856095,0.0298735108226538,0,
00:00:00.344,0.018667433410883,-0.0107071539387107,-0.0161080583930016,0,
00:00:00.348,-0.0225932523608208,0.000107024985481985,-0.0117921391502023,0,
00:00:00.352,-0.0275101363658905,0.0103737516328692,-0.0102602392435074,0,
00:00:00.356,0.0219152718782425,-0.0132566709071398,-0.009608444757759571,0,
00:00:00.36,0.0339073054492474,-0.0011760804336518,0.00041287040221504905,0,
00:00:00.364,-0.0102154174819589,0.00312447594478726,0.0182945337146521,0,
00:00:00.368,-0.0148623222485185,0.00513079622760415,0.0014861376257613301,0,
00:00:00.372,-0.0170456003397703,0.0055807176977396,0.00415035802870989,0,
00:00:00.376,0.0277421399950981,0.000429709616582841,0.0117213157936931,0,
00:00:00.38,-0.0216999370604753,-0.0224014054983854,-0.0139413299039006,0,
00:00:00.384,-0.00936354231089354,-0.00977493077516556,0.0048007080331444706,0,
00:00:00.388,0.0073735001496970706,0.0166854597628117,-0.0181380063295364,0,
00:00:00.392,0.055308859795332004,0.0200669392943382,-0.0127802453935146,0,
00:00:00.396,-0.0251502059400082,0.0119028547778726,0.0231983028352261,0,
00:00:00.4,-0.0322144031524658,-0.0231440737843513,0.00849075801670551,0,
00:00:00.404,-0.00642253924161196,-0.00185641145799309,-0.008035866543650629,0,
00:00:00.408,0.0212902780622244,0.00605478463694453,-0.00811303406953812,0,
00:00:00.412,0.0127879977226257,-0.00800608471035957,-0.00860851444303989,0,
00:00:00.416,-0.0138004971668124,-0.0259561445564032,0.0106609798967838,0,
00:00:00.42,-0.0301659721881151,-0.00853162538260221,0.0344789251685143,0,
00:00:00.424,0.0351772345602512,0.0523288622498512,-0.0044948183931410295,0,
00:00:00.428,0.0196482595056295,0.004011284559965129,-0.0279465448111296,0,
00:00:00.432,0.00556715996935964,-0.00631243735551834,-0.0047112051397562,0,
00:00:00.436,-0.0327276065945625,-0.00938734412193298,-0.0160547159612179,0,
00:00:00.44,-0.0395660251379013,0.00525129539892077,-0.00811994727700949,0,
00:00:00.444,0.0349693447351456,-0.014785148203373002,0.0336880758404732,0,
00:00:00.448,0.020601037889719,-0.00495579419657588,0.0118225915357471,0,
00:00:00.452,-0.009415607899427409,0.00581836793571711,-0.00262833526358008,0,
00:00:00.456,0.00440283631905913,-0.00782040040940046,0.0127242710441351,0,
00:00:00.46,-0.00571680953726172,0.00454633124172688,-0.0120233753696084,0,
00:00:00.464,0.00123742548748851,0.00816349033266306,-0.0267679691314697,0,
00:00:00.468,-0.000933335395529866,0.0118424249812961,-0.00577857159078121,0,
00:00:00.472,-0.0154710821807384,-0.000720868003554642,0.0180778354406357,0,
00:00:00.476,0.00911315996199846,-0.00919593498110771,-0.00697590643540025,0,
00:00:00.48,0.00267716776579618,-0.0030908698681742,0.0157677084207535,0,
00:00:00.484,-0.0129039846360683,-0.0143514154478908,0.00815787073224783,0,
00:00:00.488,0.0317747965455055,0.00448326766490936,-0.0097900303080678,0,
00:00:00.492,-0.0057374690659344205,0.0136504434049129,-0.00936834141612053,0,
00:00:00.496,-0.016374921426177,0.0171852894127369,-0.00723108369857073,0,
00:00:00.5,-0.000565598078537732,-0.00322325946763158,0.0144658163189888,0,
00:00:00.504,0.0120240561664104,-0.0468458570539951,-0.0149856954813004,0,
00:00:00.508,0.0032359466422349197,-0.0036452298518270298,0.015040042810142,0,
00:00:00.512,-0.00550040369853377,0.0408157035708427,0.000102697908005212,0,
00:00:00.516,-0.0554872788488865,0.0146509669721127,0.0128498319536448,0,
00:00:00.52,0.0738605931401253,0.0058966455981135394,-0.00786929577589035,0,
00:00:00.524,0.0370319560170174,-0.0240050349384546,-0.0126252742484212,0,
00:00:00.528,-0.100794717669487,-0.0228065885603428,-0.0034030715469270897,0,
00:00:00.532,-0.0455876179039478,0.00640708766877651,-0.0019460123730823398,0,
00:00:00.536,0.161328822374344,0.00858498364686966,0.0162728205323219,0,
00:00:00.54,-0.032575935125351,0.00563162565231323,-0.00144692987669259,0,
00:00:00.544,-0.0665882527828217,0.0016646640142425901,-0.00702431425452232,0,
00:00:00.548,-0.012668751180172,-0.0135434940457344,0.00126512418501079,0,
00:00:00.552,0.0188213791698217,0.011907372623682,0.00602646358311176,0,
00:00:00.556,0.0389844141900539,0.00422898167744279,-0.0181246623396873,0,
00:00:00.56,-0.00162078079301864,0.0029007587581872897,0.009734987281262871,0,
00:00:00.564,-0.0130589446052909,0.00302590453065932,-0.000250240642344579,0,
00:00:00.568,-0.0227253343909979,-0.0223127361387014,0.0247044563293457,0,
00:00:00.572,0.00638791872188449,-0.0122015317901969,-0.00950743071734905,0,
00:00:00.576,0.0304053016006947,0.0367693603038788,-0.0207858402282,0,
00:00:00.58,-0.00498452736064792,-0.0259308330714703,-0.0160831529647112,0,
00:00:00.584,-0.0146283032372594,-0.00289988215081394,0.034086138010025004,0,
00:00:00.588,-0.0248200930655003,0.014073621481657,0.007628012448549271,0,
00:00:00.592,0.0138641213998199,0.0318717397749424,-0.015485592186451,0,
00:00:00.596,-0.00517765479162335,-0.0176109131425619,-0.0128300143405795,0,
00:00:00.6,0.0293966084718704,-0.0273353420197964,0.0161748621612787,0,
00:00:00.604,0.0215947702527046,0.0036780103109777,-0.00617708498612046,0,
00:00:00.608,-0.0344664976000786,0.0108425663784146,-0.0110034849494696,0,
00:00:00.612,-0.0472512431442738,0.00882118288427591,0.0135616092011333,0,
00:00:00.616,0.0606717579066753,-0.00787773728370667,0.0140973394736648,0,
00:00:00.62,0.00920507870614529,-0.0202325526624918,-0.00804838351905346,0,
00:00:00.624,-0.0173808801919222,0.0138273937627673,-0.0158599950373173,0,
00:00:00.628,-0.0216961801052094,0.00429227668792009,0.0019592833705246396,0,
00:00:00.632,-0.009065808728337291,0.0121231470257044,0.0146914748474956,0,
00:00:00.636,0.0231839716434479,-0.0131804961711168,-0.0118494555354118,0,
00:00:00.64,0.024590615183115002,-0.00419807434082031,0.0249428637325764,0,
00:00:00.644,-0.0297775771468878,0.00591474119573832,-0.0258621461689472,0,
00:00:00.648,-0.00807338766753674,-0.00451633241027594,-0.0125597156584263,0,
00:00:00.652,0.0212817527353764,0.0135942166671157,0.0118452133610845,0,
00:00:00.656,0.0173951480537653,0.00398113904520869,0.009345449507236479,0,
00:00:00.66,-0.0537030436098576,-0.0170437470078468,0.0116629488766193,0,
00:00:00.664,0.0458855777978897,-0.0206344593316317,-0.0218397695571184,0,
00:00:00.668,0.029344042763114,0.0112061137333512,-0.00026703914045356203,0,
00:00:00.672,-0.0707890167832375,0.0201137121766806,0.0164354164153337,0,
00:00:00.676,-0.0149219017475843,0.0066606723703444,-0.007299619261175391,0,
00:00:00.68,0.0461534447968006,-0.00153728702571243,-0.0134951686486602,0,
00:00:00.684,-0.0306388754397631,-0.00323013798333704,0.00284735183231533,0,
00:00:00.688,0.0740650221705437,-0.0032980360556393896,0.0186604093760252,0,
00:00:00.692,-0.0319326259195805,-0.0194926168769598,-0.0119065241888165,0,
00:00:00.696,-0.0658107399940491,-0.0216488018631935,0.0220510549843311,0,
00:00:00.7,0.0171293560415506,0.0226132348179817,0.00867195054888725,0,
00:00:00.704,0.04683059081435201,0.0298601817339659,-0.034623097628355005,0,
00:00:00.708,0.0253940168768168,0.0051446231082081795,-0.0265565719455481,0,
00:00:00.712,-0.0183935761451721,-0.0156104853376746,-0.0033546758349984897,0,
00:00:00.716,-0.0334548875689507,-0.0086109796538949,0.0200347267091274,0,
00:00:00.72,-0.00641872594133019,-0.00747618917375803,0.0372252389788628,0,
00:00:00.724,0.0016719533596187802,0.0167145952582359,-0.00544268498197198,0,
00:00:00.728,0.0205532964318991,-0.00234150420874357,0.00283299665898085,0,
00:00:00.732,0.0197229646146297,-0.0195389986038208,0.017406327649951,0,
00:00:00.736,-0.0388922989368439,0.00118517898954451,-0.0409965589642525,0,
00:00:00.74,-0.0316299721598625,0.0177750494331121,-0.0238439906388521,0,
00:00:00.744,0.0527786500751972,0.00056569225853309,-0.00368005596101284,0,
00:00:00.748,0.0295501351356506,0.00305786961689591,0.00615944620221853,0,
00:00:00.752,-0.00233353022485971,-0.00385989365167916,0.0227430574595928,0,
00:00:00.756,-0.0407289639115334,-0.0071334186941385295,0.0375785380601883,0,
00:00:00.76,-0.0152169242501259,-0.0114121939986944,0.0279371626675129,0,
00:00:00.764,-0.022070899605751,0.0112481098622084,-0.0676535740494728,0,
00:00:00.768,0.0218322221189737,0.00162214995361865,-0.0183227844536304,0,
00:00:00.772,0.0663730949163437,0.0182075519114733,0.006420217454433439,0,
00:00:00.776,-0.0212305579334497,-0.005206375848501921,-0.0138674294576049,0,
00:00:00.78,-0.01289495639503,-0.0215774700045586,0.026993852108717003,0,
00:00:00.784,-0.00467869685962796,0.0022561396472156,0.0218461416661739,0,
00:00:00.788,-0.0360951311886311,0.0129819214344025,-5.6975979532580796e-05,0,
00:00:00.792,0.0124931754544377,-0.0248974207788706,-0.0091023575514555,0,
00:00:00.796,0.0319858342409134,0.0251828394830227,-0.000850000185891986,0,
00:00:00.8,-0.0141772292554379,0.0118147265166044,-0.0190345402806997,0,
00:00:00.804,-0.0049226894043386,-0.0122336791828275,-0.00509946560487151,0,
00:00:00.808,-3.0123776014079303e-05,-0.00930656865239143,0.012690675444901002,0,
00:00:00.812,0.0040789837948977895,-0.00720973312854767,0.0206061825156212,0,
00:00:00.816,0.0105775706470013,0.0140780126675963,-0.0158599279820919,0,
00:00:00.82,0.00855174195021391,-0.00922193750739098,-0.00586809776723385,0,
00:00:00.824,0.00330703496001661,0.0151146370917559,-0.00572164729237556,0,
00:00:00.828,-0.0344496518373489,-0.00859057530760765,0.0213287454098463,0,
00:00:00.832,-0.0173887051641941,-0.0150644117966294,-0.00432130228728056,0,
00:00:00.836,-0.00392108084633946,0.0187625829130411,-0.0103232460096478,0,
00:00:00.84,0.0505743697285652,0.0159510839730501,-0.0165030770003796,0,
00:00:00.844,0.0021113711409270802,-0.0208414420485497,0.0226100217550993,0,
00:00:00.848,0.007961177267134191,0.00686770165339112,0.0214581601321697,0,
00:00:00.852,-0.0180698335170746,-0.0101889651268721,-0.0196202229708433,0,
00:00:00.856,-0.038002572953701005,-0.00626033078879118,-0.0162557978183031,0,
00:00:00.86,0.0112063214182854,-0.00877333898097277,0.014574590139091001,0,
00:00:00.864,0.0570028759539127,0.00544012524187565,-0.0102775571867824,0,
00:00:00.868,-0.0391710810363293,0.0216697137802839,0.0125451674684882,0,
00:00:00.872,-0.0178447365760803,0.0241767838597298,0.008352115750312809,0,
00:00:00.876,0.0185197293758392,-0.009884875267744059,-0.0159578435122967,0,
00:00:00.88,-0.00471733883023262,-0.0236283335834742,-0.00991643872112036,0,
00:00:00.884,0.0034693512134254,-0.00582781946286559,-0.00887236092239618,0,
00:00:00.888,-0.00888028461486101,-0.00424664514139295,0.0321711450815201,0,
00:00:00.892,0.000426840328145772,-0.00269664078950882,0.0101575683802366,0,
00:00:00.896,0.0205656625330448,0.0070764417760074095,-0.0233241356909275,0,
00:00:00.9,0.0152532970532775,0.00860352907329798,-0.0110838757827878,0,
00:00:00.904,-0.0134325483813882,0.00303937890566885,0.0156621541827917,0,
00:00:00.908,-0.0188154801726341,0.000423537887400016,0.0225302092730999,0,
00:00:00.912,-0.0170296505093575,-0.00100617669522762,-0.009054491296410559,0,
00:00:00.916,0.0100854830816388,0.006707219872623679,-0.0297225266695023,0,
00:00:00.92,0.0266161635518074,-0.007310216780751941,-0.00788310915231705,0,
00:00:00.924,-0.0122659662738442,-0.0115642799064517,0.00363405491225421,0,
00:00:00.928,-0.0100427735596895,-0.00484386784955859,0.0144296446815133,0,
00:00:00.932,0.0256687644869089,0.0276073329150677,0.0226860661059618,0,
00:00:00.936,0.00400390848517418,0.0013402907643467199,-0.011513065546751002,0,
00:00:00.94,-0.0639994740486145,-0.0420654751360416,-0.0047356630675494706,0,
00:00:00.944,0.0261649750173092,0.00833177100867033,0.00659667328000069,0,
00:00:00.948,0.0425239093601704,0.029682295396924,-0.00636717211455107,0,
00:00:00.952,-0.0013086023973301099,0.00821396615356207,-0.00247210613451898,0,
00:00:00.956,-0.041721548885107006,-0.0278604384511709,-0.0124611472710967,0,
00:00:00.96,0.048488162457943,0.0122033329680562,0.008465413004159929,0,
00:00:00.964,-0.0338848568499088,0.00410047732293606,0.010134513489902,0,
00:00:00.968,-0.012669594027101999,-0.009972132742404941,-0.00425656326115131,0,
00:00:00.972,-0.0197481233626604,-0.00230732886120677,-0.00043813409865833797,0,
00:00:00.976,0.0205614138394594,-0.00344037497416139,-0.00284911645576358,0,
00:00:00.98,0.0273713376373053,0.0013144883560016801,-0.0159215331077576,0,
00:00:00.984,0.00648999121040106,0.00646103639155626,0.0185187272727489,0,
00:00:00.988,-0.0038990939501673,0.00427413266152143,0.00281275226734579,0,
00:00:00.992,-0.0116100683808327,0.00248836679384112,0.009390349499881271,0,
00:00:00.996,-0.00267227902077138,-0.00204415735788643,0.00158009049482644,0,
00:00:01,-0.0170569587498903,-0.00627682218328118,-0.0142961116507649,0,
00:00:01.004,0.00500300759449601,0.000594785902649164,-0.0169141534715891,0,
00:00:01.008,0.0203435253351927,-0.007830202579498291,-0.00416513392701745,0,
00:00:01.012,0.000780927715823054,-0.0072464183904230595,0.0174538288265467,0,
00:00:01.016,-0.0380112640559673,0.0257793106138706,0.0299960523843765,0,
00:00:01.02,0.0210653878748417,0.0039015160873532295,-0.0236286465078592,0,
00:00:01.024,0.038438718765973996,-0.0192175637930632,-0.0209413263946772,0,
00:00:01.028,-0.0189655385911465,0.005710761528462171,0.0155672393739223,0,
00:00:01.032,-0.0341867692768574,-0.00514390598982573,0.0210342518985271,0,
00:00:01.036,0.015038120560348,0.0069862836971879,-0.0216925404965878,0,
00:00:01.04,0.0365036427974701,0.00172263279091567,-0.0163429770618677,0,
00:00:01.044,-0.024917759001255004,0.00456661963835359,0.0188084952533245,0,
00:00:01.048,-0.0252012796700001,-0.008432578295469279,0.00944475457072258,0,
00:00:01.052,-0.00405667861923575,-0.0128014096990228,0.0059111574664712,0,
00:00:01.056,0.044938899576664,0.0113369487226009,-0.0133276134729385,0,
00:00:01.06,-0.0227779317647219,0.00638819998130202,-0.0062889247201383105,0,
00:00:01.064,-0.0026590323541313397,-0.00424592103809118,-0.011939300224184999,0,
00:00:01.068,-0.00667813746258616,-0.0057552782818675,0.0174356047064066,0,
00:00:01.072,0.00691777188330889,-0.00876660086214542,0.00472020404413342,0,
00:00:01.076,0.0211615692824125,0.009236946702003479,-0.0247301254421473,0,
00:00:01.08,0.000821742403786629,0.0373504050076008,0.0181372221559286,0,
00:00:01.084,-0.0164692420512438,-0.0254852157086134,0.0135206123813987,0,
00:00:01.088,-0.0154507048428059,-0.0275065042078495,-0.0132260425016284,0,
00:00:01.092,0.0069189616478979605,0.0165264662355185,0.0256511587649584,0,
00:00:01.096,0.0130290137603879,-0.0026185624301433602,0.00413857074454427,0,
00:00:01.1,-0.0022025874350220004,0.0062292804941535,-0.0425923839211464,0,
00:00:01.104,-0.00652972888201475,0.0113023240119219,-0.0315406769514084,0,
00:00:01.108,0.00204033893533051,0.00330197904258966,0.0178502555936575,0,
00:00:01.112,0.00446359906345606,-0.0129854092374444,0.0400267913937569,0,
00:00:01.116,0.00264204433187842,-0.0101272109895945,-0.00731979822739959,0,
00:00:01.12,-0.00658010086044669,-0.0019602249376475802,-0.00624538166448474,0,
00:00:01.124,-0.025499802082777,-0.006337173748761421,0.0296565257012844,0,
00:00:01.128,0.0132594415917993,0.00517307175323367,-0.00517208641394973,0,
00:00:01.132,0.0457957275211811,0.0199922323226929,-0.0255468226969242,0,
00:00:01.136,-0.0098965261131525,0.0163450632244349,-0.0208530426025391,0,
00:00:01.14,-0.0306877419352531,0.0015418429393321302,0.00468758679926395,0,
00:00:01.144,-0.00016804042388685,-0.0182116143405437,0.0037917124573141297,0,
00:00:01.148,-0.0240227784961462,-0.0216847639530897,0.0131663028150797,0,
00:00:01.152,0.0218033157289028,-0.00767144141718745,0.0056421663612127295,0,
00:00:01.156,0.0305427201092243,-0.00683422153815627,0.0145667605102062,0,
00:00:01.16,0.00155648251529783,0.029152438044547997,-0.0101904543116689,0,
00:00:01.164,-0.0162354912608862,0.0110340630635619,-0.0035064197145402397,0,
00:00:01.168,-0.0088692968711257,-0.00221513211727142,-0.00682016648352146,0,
00:00:01.172,0.00062732124933973,-0.00530143594369292,-0.0091007836163044,0,
00:00:01.176,-0.0181214921176434,0.00424238340929151,0.000820729299448431,0,
00:00:01.18,0.0129689015448093,0.00696488516405225,-0.0030380128882825396,0,
00:00:01.184,0.0304633975028992,-0.0243882313370705,0.00887618865817785,0,
00:00:01.188,-0.017262052744627,-0.00687255198135972,0.0235421005636454,0,
00:00:01.192,-0.01873529702425,0.00044290130608715095,-0.0038221334107220203,0,
00:00:01.196,0.0113921808078885,0.00186865485738963,-0.0230858121067286,0,
00:00:01.2,-0.0094945915043354,0.0195281337946653,-0.004315833095461129,0,
00:00:01.204,0.0136081604287028,0.00875027850270271,0.0234363991767168,0,
00:00:01.208,0.0110755087807775,0.00204319623298943,-0.0134986191987991,0,
00:00:01.212,-0.00922959763556719,-0.00520045636221766,-0.0171819776296616,0,
00:00:01.216,0.00788150727748871,-0.0122164096683264,0.010647757910191999,0,
00:00:01.22,-0.02433180809021,-0.0253783725202084,0.0107474345713854,0,
00:00:01.224,-0.0190669633448124,0.0076925833709538,0.0156471021473408,0,
00:00:01.228,0.0380488336086273,0.0224884655326605,-0.0062101762741804106,0,
00:00:01.232,0.0161764211952686,0.00949722249060869,-0.013774586841463998,0,
00:00:01.236,-0.0133685665205121,-0.00222514499910176,-0.0101018520072103,0,
00:00:01.24,-0.0290474854409695,-0.00339113385416567,-0.0230000577867031,0,
00:00:01.244,0.00598057312890887,-0.012908891774713998,0.0424876362085342,0,
00:00:01.248,0.0157955568283796,-0.00035483090323396,0.0132860550656915,0,
00:00:01.252,0.0439644530415535,-0.0062969122081995,-0.0033547999337315603,0,
00:00:01.256,-0.0405473709106445,0.007161992136389021,0.00285488949157298,0,
00:00:01.26,-0.0382906869053841,0.015235691331326998,-0.0267638769000769,0,
00:00:01.264,-0.0004962278180755669,-0.0304537545889616,-0.0333188362419605,0,
00:00:01.268,0.027840057387947998,0.0156282540410757,0.00862809084355831,0,
00:00:01.272,0.0229416210204363,0.0139730684459209,0.0514954961836338,0,
00:00:01.276,0.00867507699877024,0.00514068454504013,0.00892447773367167,0,
00:00:01.28,-0.0192412864416838,-0.00519424164667726,-0.0322119258344173,0,
00:00:01.284,-0.0224249251186848,-0.015384309925138999,-0.026657497510313998,0,
00:00:01.288,0.00987622141838074,-0.00730949081480503,0.0360609851777554,0,
00:00:01.292,0.00797077734023333,0.0106965471059084,0.0177058223634958,0,
00:00:01.296,-0.00649613747373223,-0.00296518858522177,-0.0218549370765686,0,
00:00:01.3,-0.00485195871442556,0.0078959921374917,-0.0103637790307403,0,
00:00:01.304,0.0235681533813477,-0.000169419989106245,0.0032188477925956197,0,
00:00:01.308,-0.0049653374589979605,0.00213942350819707,2.22985308937496e-05,0,
00:00:01.312,-0.0170795954763889,-0.00949478149414063,0.0075681060552597,0,
00:00:01.316,0.00154202757403255,0.00657496554777026,-0.007640473078936341,0,
00:00:01.32,-0.00558539386838675,-0.000560718763154,0.005292309913784271,0,
00:00:01.324,0.0207518432289362,-0.0022870504762977396,0.0142252696678042,0,
00:00:01.328,-0.00809851195663214,0.0068942974321544205,-0.0207955949008465,0,
00:00:01.332,0.000814928440377116,-0.016182504594326002,-0.00137707614339888,0,
00:00:01.336,-0.00380645878612995,0.00433287629857659,-0.0018291783053427898,0,
00:00:01.34,0.0169209875166416,0.00493586296215653,-0.00482464162632823,0,
00:00:01.344,-0.00851889979094267,-0.0072877584025263795,0.0262837819755077,0,
00:00:01.348,-0.037170086055994,0.0292450711131096,0.0012780190445482698,0,
00:00:01.352,-0.021798774600029002,-0.0230180323123932,-0.0140370754525065,0,
00:00:01.356,0.0751107558608055,-0.0181068312376738,0.004623944405466321,0,
00:00:01.36,0.0456483513116837,0.0208433922380209,0.00587871670722961,0,
00:00:01.364,-0.0715241804718971,0.0126675665378571,-0.0117774019017816,0,
00:00:01.368,-0.0215637423098087,0.00133199593983591,-0.0170310568064451,0,
00:00:01.372,0.0116744013503194,-0.0102125834673643,0.00117487588431686,0,
00:00:01.376,0.00995830539613962,-0.0182814989238977,0.0217091664671898,0,
00:00:01.38,0.0225795172154903,0.0118724917992949,0.00769657315686345,0,
00:00:01.384,-0.0223886463791132,-0.0166009347885847,0.0017775016603991398,0,
00:00:01.388,-0.00438908161595464,0.0121241845190525,-0.00615768088027835,0,
00:00:01.392,0.00500893872231245,0.015212818980216999,-0.0210268329828978,0,
00:00:01.396,-7.12471010047011e-05,0.00258221849799156,-0.0043676919303834395,0,
00:00:01.4,0.000521525216754526,0.00139780074823648,0.0351069830358028,0,
00:00:01.404,-0.00468223681673408,-0.0227227471768856,-0.0187152642756701,0,
00:00:01.408,0.0219455454498529,-0.00343525805510581,-0.00608276622369885,0,
00:00:01.412,-0.00827913265675306,0.0189610961824656,-0.0101437708362937,0,
00:00:01.416,-0.0154430130496621,0.0147488936781883,0.0272042788565159,0,
00:00:01.42,0.009705753065645691,-0.0417704954743385,0.0243698637932539,0,
00:00:01.424,-0.00463517336174846,-0.00817995704710484,-0.0363821797072887,0,
00:00:01.428,-0.0134542537853122,0.0505378134548664,-0.0179080441594124,0,
00:00:01.432,0.0196660067886114,-0.0073722363449633095,0.000143947036121972,0,
00:00:01.436,0.00411273818463087,-0.00944359693676233,0.026511088013648997,0,
00:00:01.44,-0.00242458237335086,-0.000434444489656016,0.00953066069632769,0,
00:00:01.444,-0.00160948862321675,-0.0104504795745015,-0.0040008309297263605,0,
00:00:01.448,-0.00235452968627214,0.00203609489835799,-0.0174790173768997,0,
00:00:01.452,-0.000145772224641405,0.0118672046810389,-0.0140901859849691,0,
00:00:01.456,0.00309788249433041,-0.0124703533947468,0.0280058421194553,0,
00:00:01.46,-0.00954663194715977,-0.0215982310473919,0.0120468437671661,0,
00:00:01.464,0.00192021892871708,0.0251073129475117,-0.0231724642217159,0,
00:00:01.468,-0.00925316009670496,0.0196914039552212,-0.00021860878041479699,0,
00:00:01.472,-0.0033832178451120897,-0.0024817124940455,-0.0122285978868604,0,
00:00:01.476,0.0315537564456463,-0.00848293770104647,0.005454950034618379,0,
00:00:01.48,0.00317520229145885,-0.009007550776004791,-0.0173936132341623,0,
00:00:01.484,-0.0115242935717106,-0.0115135982632637,0.0236644428223372,0,
00:00:01.488,-0.00639570131897926,0.0095285652205348,0.067705862224102,0,
00:00:01.492,-0.0060009378939867,-0.000495242886245251,-0.031316377222538,0,
00:00:01.496,-0.00787218287587166,0.00267431186512113,-0.0476463511586189,0,
00:00:01.5,0.020501296967268,-0.00747175188735127,-0.029500687494874,0,
00:00:01.504,-0.0241634156554937,0.00926386471837759,0.0561799667775631,0,
00:00:01.508,0.0256949402391911,0.00790998432785273,-0.0132000977173448,0,
00:00:01.512,0.0104258740320802,0.00332126556895673,-0.0165447555482388,0,
00:00:01.516,-0.0205891765654087,0.00046707148430869005,0.0008996467222459609,0,
00:00:01.52,-0.00902946852147579,-0.00226687616668642,0.0270433034747839,0,
00:00:01.524,0.0179716888815165,-0.0122497249394655,0.00101573299616575,0,
00:00:01.528,-0.0242368392646313,-0.0272164084017277,0.00497391447424889,0,
00:00:01.532,0.014612777158618,0.0127191543579102,-0.010080742649734001,0,
00:00:01.536,0.000564042886253446,0.0233030952513218,-0.0159703195095062,0,
00:00:01.54,0.0131089985370636,0.00877739302814007,0.00206576171331108,0,
00:00:01.544,-0.00315267103724182,-0.00517655024304986,0.00434505799785256,0,
00:00:01.548,-0.007175414822995659,-0.00813550874590874,0.0126093467697501,0,
00:00:01.552,-0.0007845870568417009,-0.0116345444694161,0.0153182363137603,0,
00:00:01.556,-0.00503922626376152,0.0108549287542701,-0.0343853496015072,0,
00:00:01.56,0.000453989399829879,0.000615583150647581,-0.0208530556410551,0,
00:00:01.564,-0.0143672646954656,-0.00392995914444327,0.0288645699620247,0,
00:00:01.568,0.0219404976814985,0.0008414946496486661,0.0333230495452881,0,
00:00:01.572,0.0122254006564617,-0.00444055162370205,-0.0112224193289876,0,
00:00:01.576,-0.010062312707305,0.00695592584088445,-0.0445006713271141,0,
00:00:01.58,-0.0033113444224,0.0132240476086736,-0.0150007987394929,0,
00:00:01.584,0.00389572652056813,-0.0100663248449564,0.023533808067441,0,
00:00:01.588,-0.016162034124136002,-0.00781164411455393,0.05702392384409901,0,
00:00:01.592,-3.16385812766384e-05,-0.00463649537414312,-0.0112936962395906,0,
00:00:01.596,0.00620126770809293,-0.00265186745673418,-0.0330426134169102,0,
00:00:01.6,-0.00454945769160986,0.0190785564482212,-0.0302742626518011,0,
00:00:01.604,0.0291059222072363,0.00192563724704087,0.0364684537053108,0,
00:00:01.608,-0.00187224219553173,-0.0243554208427668,0.00853214506059885,0,
00:00:01.612,-0.0203026290982962,0.00958383269608021,-0.0254352185875177,0,
00:00:01.616,-0.008539482019841671,0.0157404225319624,0.0145238777622581,0,
00:00:01.62,-0.00823032483458519,0.007735689170658591,0.0141213834285736,0,
00:00:01.624,0.0019119072239846,-0.016969284042716002,-0.00224251206964254,0,
00:00:01.628,0.0192182287573814,-0.017195550724864,-0.007585602812469009,0,
00:00:01.632,0.0222268309444189,0.0062378500588238205,-0.0168019235134125,0,
00:00:01.636,-0.0121961608529091,0.0114699918776751,-0.00537804653868079,0,
00:00:01.64,-0.0241491291671991,0.000786331540439278,-0.0043928250670433,0,
00:00:01.644,-0.00591640546917915,-0.010293704457580998,0.0427296310663223,0,
00:00:01.648,0.0157372150570154,0.008452928625047209,0.000212195023777895,0,
00:00:01.652,0.013388860039413001,0.00631769793108106,-0.0311743840575218,0,
00:00:01.656,0.00529495673254132,0.00582114513963461,-0.0157059859484434,0,
00:00:01.66,-0.0173269845545292,-0.0145760290324688,0.026011174544692,0,
00:00:01.664,-0.00570429302752018,-0.0118392761796713,0.0100452536717057,0,
00:00:01.668,0.00185007974505425,-0.00406171381473541,0.0122286509722471,0,
00:00:01.672,-0.0061861309222877,0.0303749348968267,0.0165135823190212,0,
00:00:01.676,-0.00165448838379234,-0.008219989016652109,-0.0569138750433922,0,
00:00:01.68,0.0019000838510692102,-0.00174865091685206,-0.0287348255515099,0,
00:00:01.684,0.0184616800397635,-0.00565665401518345,0.0095305647701025,0,
00:00:01.688,0.0255342032760382,-0.00426740385591984,0.0485731177031994,0,
00:00:01.692,-0.0215093586593866,0.00969433598220348,0.017136137932539,0,
00:00:01.696,-0.043680764734745005,-0.00761495577171445,-0.0036789588630199398,0,
00:00:01.7,0.0175068285316229,0.011695496737956999,-0.0127253951504827,0,
00:00:01.704,0.0110123818740249,-0.00161365326493979,-0.0351125039160252,0,
00:00:01.708,0.0150147313252091,-0.0009441024158149961,0.00657572643831372,0,
00:00:01.712,0.0133173707872629,-0.0137174837291241,0.0333787277340889,0,
00:00:01.716,-0.0397306270897388,-0.0021775097120553303,-0.00897582061588764,0,
00:00:01.72,0.0060994676314294295,0.0161264911293983,-0.0306539218872786,0,
00:00:01.724,0.00900533515959978,0.00152578041888773,0.0225825347006321,0,
00:00:01.728,-0.00279432348906994,-0.0036400021053850703,0.0124178938567638,0,
00:00:01.732,0.00637646857649088,-0.007740475237369541,-0.0161247737705708,0,
00:00:01.736,-0.0108372354879975,0.00237351725809276,-0.00928563624620438,0,
00:00:01.74,0.0145792523398995,0.0160691998898983,0.0194960795342922,0,
00:00:01.744,-0.0361532233655453,-0.0143966227769852,-0.002881197957322,0,
00:00:01.748,0.0246986113488674,-0.00639086682349443,-0.0116633083671331,0,
00:00:01.752,0.0386791341006756,0.0007757535786367951,0.00204430054873228,0,
00:00:01.756,-0.0213763024657965,0.0103580597788095,0.0146198878064752,0,
00:00:01.76,-0.0162118449807167,-0.0186043474823236,-0.00332209863699973,0,
00:00:01.764,-0.00626574130728841,0.0127628957852721,-0.0139900576323271,0,
00:00:01.768,-0.0172496195882559,0.0227439235895872,0.00731344101950526,0,
00:00:01.772,0.009927547536790371,-0.009444962255656721,0.0299956668168306,0,
00:00:01.776,0.0202769432216883,-0.019739493727683997,-0.0268849246203899,0,
00:00:01.78,0.0209579598158598,0.00137956335674971,-0.0134934466332197,0,
00:00:01.784,-0.0258920509368181,0.00181161845102906,-0.005435587372630829,0,
00:00:01.788,-0.00442669773474336,0.0139539381489158,0.0219445955008268,0,
00:00:01.792,0.000453752698376775,0.00194016168825328,-0.00602547777816653,0,
00:00:01.796,0.0172004569321871,-0.0101112267002463,-0.00956883933395147,0,
00:00:01.8,-0.011323687620461001,-0.007378244306892159,0.007307189982384441,0,
00:00:01.804,-0.0165729578584433,-0.00511336978524923,0.0104570491239429,0,
00:00:01.808,-0.0017693616682663601,0.00947849359363317,0.00334406504407525,0,
00:00:01.812,0.0261533111333847,0.00570983020588756,0.0111740324646235,0,
00:00:01.816,0.00591504434123635,0.0036639813333749797,-0.0279449205845594,0,
00:00:01.82,-0.008269390091300009,-0.00737599795684218,-0.016385255381465,0,
00:00:01.824,-0.00298527278937399,-0.00410730158910155,0.0179046262055635,0,
00:00:01.828,-0.00215497217141092,0.0135139441117644,0.014456327073276001,0,
00:00:01.832,-0.0456050224602222,-0.0021437867544591396,-0.0125048905611038,0,
00:00:01.836,0.0359275974333286,-0.00038685239269398196,-0.00286101456731558,0,
00:00:01.84,0.044203445315360995,-0.0168660283088684,0.00536655727773905,0,
00:00:01.844,-0.0338578335940838,-0.010307558812201,-0.0120319817215204,0,
00:00:01.848,0.00166846183128655,0.0161566026508808,0.0707425624132156,0,
00:00:01.852,-0.0102326609194279,0.00156966783106327,-0.048387885093689,0,
00:00:01.856,-0.004451449029147629,0.0132813407108188,-0.0361046865582466,0,
00:00:01.86,0.0113403797149658,0.0113281831145287,-0.0192346684634686,0,
00:00:01.864,0.0107473647221923,-0.0125350337475538,0.0297395680099726,0,
00:00:01.868,-0.0196892693638802,-0.0114462692290545,0.0287993606179953,0,
00:00:01.872,0.00122809107415378,-0.0036238068714737896,0.0167564526200294,0,
00:00:01.876,0.0145581932738423,0.00235897209495306,-0.0157497357577086,0,
00:00:01.88,-0.0370047874748707,-0.00410213507711887,-0.023748030886054,0,
00:00:01.884,0.0566236153244972,-0.00162099360022694,0.00213557085953653,0,
00:00:01.888,0.00232407613657415,0.0127850994467735,0.00452263141050935,0,
00:00:01.892,-0.0307615622878075,0.0090479115024209,0.00127807736862451,0,
00:00:01.896,-0.0243422202765942,-0.00781765580177307,0.0094653032720089,0,
00:00:01.9,-0.000919846235774457,-0.0183093752712011,-0.00254136929288507,0,
00:00:01.904,0.0268769543617964,0.0009715319029055539,-0.00562807451933622,0,
00:00:01.908,0.00854067504405975,0.0242521855980158,-0.0182921476662159,0,
00:00:01.912,0.00991858262568712,0.0117585696280003,0.0194800160825253,0,
00:00:01.916,-0.0116262277588248,-0.0215615388005972,0.0072506042197346705,0,
00:00:01.92,-0.0285607222467661,-0.0199902262538671,0.0006909453077241781,0,
00:00:01.924,0.0172883737832308,0.0130738066509366,-0.00259118271060288,0,
00:00:01.928,0.0111882779747248,0.011966566555202,-0.00762387830764055,0,
00:00:01.932,-0.0027544298209250004,-0.0123688112944365,-0.0299404747784138,0,
00:00:01.936,-0.0006574398139491679,0.0194560140371323,0.0211697239428759,0,
00:00:01.94,-0.00640225503593683,-0.033513143658637994,0.0368378162384033,0,
00:00:01.944,0.00522585911676288,0.00465965177863836,-0.0108637604862452,0,
00:00:01.948,-0.0129437567666173,0.0341504588723183,-0.0114721795544028,0,
00:00:01.952,0.0108328526839614,-0.00685227615758777,-0.0148191368207335,0,
00:00:01.956,-0.00716027757152915,-0.004525886848568921,-0.0038952005561441205,0,
00:00:01.96,0.0064597707241773605,-0.00583153776824474,0.00554167991504073,0,
00:00:01.964,0.0220699012279511,0.00106242869514972,0.0042896936647594,0,
00:00:01.968,-0.0214615426957607,-0.012555786408483998,0.0265449546277523,0,
00:00:01.972,-0.008035975508391859,-0.0108850337564945,-0.00887480843812227,0,
00:00:01.976,0.00627198023721576,0.0148820877075195,-0.0270784981548786,0,
00:00:01.98,-0.00865675322711468,0.0115073230117559,0.00806814059615135,0,
00:00:01.984,-0.00783633254468441,0.00382885592989624,0.00821712799370289,0,
00:00:01.988,0.0266154129058123,-0.0044248844496905795,0.00271127675659955,0,
00:00:01.992,0.011533715762197999,0.00130716315470636,0.00237390934489667,0,
00:00:01.996,-0.0179311353713274,-0.0167530868202448,-0.00929435528814793,0,
00:00:02,-0.0236611440777779,0.00912787206470966,-0.00368935032747686,0,
00:00:02.004,0.0149870049208403,0.0200218353420496,-0.00554485619068146,0,
00:00:02.008,0.0109863188117743,-0.0160645134747028,0.00445830263197422,0,
00:00:02.012,0.0181890465319157,-0.0251460690051317,0.00937887467443943,0,
00:00:02.016,-0.00964954309165478,0.00499690929427743,0.011299260891973998,0,
00:00:02.02,-0.0175828468054533,0.0164339486509562,-0.00859204214066267,0,
00:00:02.024,-0.0179137550294399,0.00897585786879063,-0.000522680580615997,0,
00:00:02.028,0.000274515332421288,0.0140213444828987,-0.010852457024157,0,
00:00:02.032,0.0210687499493361,-0.0108980312943459,-0.008720307610929009,0,
00:00:02.036,0.0226472876966,-0.0349856317043304,0.0215297266840935,0,
00:00:02.04,-0.0230523236095905,0.0142424209043384,-0.00223052548244596,0,
00:00:02.044,-0.0143609950318933,0.0168117843568325,-0.0205552820116282,0,
00:00:02.048,0.0508198328316212,0.0030243902001529897,0.0215124301612377,0,
00:00:02.052,-0.0233202259987593,-0.00694200675934553,0.0026159998960793,0,
00:00:02.056,-0.0125678703188896,-0.0126630496233702,-0.00230930629186332,0,
00:00:02.06,-0.0158666446805,0.0077571771107614,-0.00869158189743757,0,
00:00:02.064,-0.0218378249555826,0.00224573048762977,-0.0018817741656675898,0,
00:00:02.068,0.0275464095175266,0.004152715671807529,0.00169892376288772,0,
00:00:02.072,0.029840711504221,-0.00657476717606187,0.0108282417058945,0,
00:00:02.076,-0.0108338175341487,0.004528906196355821,-0.022792000323534,0,
00:00:02.08,-0.00290438113734126,-0.0130242072045803,0.024205319583416,0,
00:00:02.084,0.0150434691458941,-0.00127137033268809,0.004322892520576721,0,
00:00:02.088,-0.0219092033803463,0.0237171184271574,-0.0196970067918301,0,
00:00:02.092,-0.00285493233241141,-0.00553056970238686,-0.00145925465039909,0,
00:00:02.096,-0.00523740518838167,0.0017556812381371901,0.00857420824468136,0,
00:00:02.1,-0.0079874349758029,-0.00693272706121206,-0.00610886979848146,0,
00:00:02.104,0.012617981992662,-0.0165818594396114,-0.0019439362222328802,0,
00:00:02.108,0.0160779412835836,0.00788952317088842,0.0141702396795154,0,
00:00:02.112,-0.00416878936812282,0.0140603212639689,-0.0023632384836673698,0,
00:00:02.116,-0.00231748423539102,0.00843621697276831,-0.00467084627598524,0,
00:00:02.12,0.0055462541058659606,-0.0376228466629982,0.00612818356603384,0,
00:00:02.124,-0.0146591141819954,0.00454106414690614,-0.009544541127979759,0,
00:00:02.128,0.00208436790853739,0.0314499773085117,0.0031827837228775,0,
00:00:02.132,-0.00145070382859558,0.008903564885258671,0.00667501520365477,0,
00:00:02.136,-0.00032876679324545,-0.0124967731535435,-0.0129186129197478,0,
00:00:02.14,-0.011046583764255,-0.015911253169179,-0.0142514016479254,0,
00:00:02.144,0.009780671447515491,-0.00467522442340851,0.030541205778717998,0,
00:00:02.148,0.0257834494113922,0.015005350112915003,-0.0010581677779555301,0,
00:00:02.152,-0.000784347706940025,-0.00882041174918413,-0.00559423910453916,0,
00:00:02.156,-0.0379110537469387,-0.0119789456948638,-0.00657057575881481,0,
00:00:02.16,-0.0054316394962370396,0.0040641189552843605,-0.016308506950736,0,
00:00:02.164,0.0401585511863232,0.0215102154761553,0.0491855964064598,0,
00:00:02.168,0.0108101516962051,0.0117586143314838,-0.0106176054105163,0,
00:00:02.172,-0.0344715304672718,-0.0149251567199826,-0.0266719292849302,0,
00:00:02.176,-0.0106414491310716,-0.00894903764128685,-0.0297352597117424,0,
00:00:02.18,0.0199521072208881,0.0030710278078913697,0.014945587143302,0,
00:00:02.184,0.00924009643495083,-0.0112113356590271,0.0430758148431778,0,
00:00:02.188,-0.0278345439583063,0.00163010973483324,0.00151601631660014,0,
00:00:02.192,0.00940314400941134,0.00888727884739637,-0.00665115658193827,0,
00:00:02.196,0.0107799535617232,0.0060257511213421796,-0.0303473360836506,0,
00:00:02.2,0.008752563036978241,0.00702955620363355,-0.0108080105856061,0,
00:00:02.204,-0.0054334495216608,-0.0086417468264699,0.0200473349541426,0,
00:00:02.208,-0.009674842469394209,-0.0084221214056015,0.036025982350111,0,
00:00:02.212,-0.0023060259409248803,-0.00908353552222252,0.00127538433298469,0,
00:00:02.216,-0.000611676718108356,0.00997556932270527,-0.04247904568910601,0,
00:00:02.22,0.0127459866926074,0.0130299590528011,-0.0243747103959322,0,
00:00:02.224,-0.006507424172014001,-0.003907988313585521,0.0245622526854277,0,
00:00:02.228,-0.0037676130887121,-0.0209263078868389,0.0306642428040504,0,
00:00:02.232,0.00809389818459749,0.0147295063361526,-0.00213134521618485,0,
00:00:02.236,-0.0143881337717175,0.018272902816534,-0.0342630743980408,0,
00:00:02.24,0.00749944290146232,-0.0055574476718902605,0.00224266829900444,0,
00:00:02.244,-0.00735526625066996,-0.0203791726380587,0.0204779729247093,0,
00:00:02.248,0.0127677591517568,-0.00877221021801233,-0.00739370007067919,0,
00:00:02.252,0.0225533843040466,0.0231894608587027,0.00529978098347783,0,
00:00:02.256,-0.0276512019336224,-0.009677805006504059,0.00283708772622049,0,
00:00:02.26,-0.0104166781529784,-0.0106681110337377,-0.0041281464509666,0,
00:00:02.264,0.00611570430919528,0.0131956515833735,-0.0147883538156748,0,
00:00:02.268,0.0029558539390564,0.011143016628921002,0.0244999025017023,0,
00:00:02.272,0.00481210276484489,-0.00232370127923787,0.00324232317507267,0,
00:00:02.276,-0.00396057451143861,0.00305292382836342,-0.0246000587940216,0,
00:00:02.28,0.0011380147188901901,-0.001167536014691,-0.0227905753999949,0,
00:00:02.284,0.0150773674249649,-0.0133756650611758,0.0228440538048744,0,
00:00:02.288,0.00429805181920528,-0.0100988978520036,0.0338057242333889,0,
00:00:02.292,-0.0300078932195902,0.00263303820975125,-0.0247833244502544,0,
00:00:02.296,0.000385009916499257,0.0157573763281107,-0.00912255607545376,0,
00:00:02.3,-0.00483906688168645,-0.0181524492800236,0.0275682266801596,0,
00:00:02.304,0.0130761656910181,0.00983722973614931,-0.0066166743636131295,0,
00:00:02.308,0.0212683659046888,0.0261261165142059,-0.0246113203465939,0,
00:00:02.312,0.00734242191538215,-0.00163740746211261,-0.000924998370464891,0,
00:00:02.316,-0.0485513284802437,-0.0268549378961325,0.00971730146557093,0,
00:00:02.32,-0.00879758410155773,-0.01624078117311,-0.000928633380681276,0,
00:00:02.324,0.0432078875601292,0.0218509268015623,0.011778605170547999,0,
00:00:02.328,0.0180117934942245,0.0061316681094467605,-0.00380144896917045,0,
00:00:02.332,-0.0182653572410345,-0.00779489008709788,-0.0128046991303563,0,
00:00:02.336,-0.0273193567991257,0.00235430570319295,-0.00366195105016232,0,
00:00:02.34,0.00684134289622307,-0.00173419713973999,0.0385421104729176,0,
00:00:02.344,-7.61171249905601e-05,-0.006491784472018479,0.0035233646631240797,0,
00:00:02.348,0.0014857093337923301,0.0218257401138544,-0.0358872748911381,0,
00:00:02.352,0.0287401247769594,0.00102701410651207,-0.00992167741060257,0,
00:00:02.356,-0.0133263971656561,-0.0242636613547802,0.00609068479388952,0,
00:00:02.36,-0.0188607610762119,-0.008751567453145979,-0.0019454282009974103,0,
00:00:02.364,0.0061260880902409606,0.0184640083462,0.0149722825735807,0,
00:00:02.368,0.0164682622998953,0.0182137563824654,0.0029602614231407603,0,
00:00:02.372,-0.013385602273046998,-0.00450185965746641,-0.0113814799115062,0,
00:00:02.376,-0.0110332956537604,-0.039622712880373,0.0413269959390163,0,
00:00:02.38,0.012055822648108,-0.00292985024861991,-0.0372678898274899,0,
00:00:02.384,0.0178436115384102,0.0299175251275301,-0.0205969363451004,0,
00:00:02.388,-0.0153573229908943,0.0279663559049368,0.0146162714809179,0,
00:00:02.392,0.000534134393092245,-0.00111775065306574,0.0145911620929837,0,
00:00:02.396,-0.0163687840104103,-0.0300031583756208,0.004214697517454621,0,
00:00:02.4,0.00924249738454819,-0.0123963067308068,-0.00201607285998762,0,
00:00:02.404,0.0266109127551317,-0.0120543874800205,-0.0169307161122561,0,
00:00:02.408,-0.0397401489317417,0.0142505280673504,-0.00468188663944602,0,
00:00:02.412,0.0118219507858157,0.0269617605954409,0.00285370764322579,0,
00:00:02.416,0.0173758119344711,-0.00165114330593497,0.0180930010974407,0,
00:00:02.42,-0.00209738267585635,-0.0029384265653789,-0.000764851807616651,0,
00:00:02.424,0.00309354835189879,-0.0024405841249972604,0.00117169949226081,0,
00:00:02.428,-0.0172012746334076,-0.0148084936663508,-0.00316809304058552,0,
00:00:02.432,-0.024103993549942998,-0.0133898705244064,-0.0157800354063511,0,
00:00:02.436,0.0223673023283482,0.000399430427933112,-0.00678927870467305,0,
00:00:02.44,0.0369053184986115,0.0183656439185143,0.022902088239789,0,
00:00:02.444,-0.0112548833712935,0.00967563223093748,0.00182000664062798,0,
00:00:02.448,-0.0309112127870321,0.0212821327149868,0.0185106936842203,0,
00:00:02.452,-0.022885775193572003,-0.007651746273040771,-0.0400314182043076,0,
00:00:02.456,0.0212960932403803,-0.0331124886870384,-0.0138956131413579,0,
00:00:02.46,0.0277811288833618,-0.009295763447880741,0.0262969639152288,0,
00:00:02.464,0.0121506676077843,0.00824587792158127,0.014562925323844001,0,
00:00:02.468,-0.006600988097488879,0.0132622290402651,0.00278127216733992,0,
00:00:02.472,-0.016967574134469,0.0132176028564572,-0.0111737428233027,0,
00:00:02.476,-0.014673980884254,-0.00628157472237945,-0.0159273743629456,0,
00:00:02.48,-0.00142079801298678,-0.0175411626696587,0.0131219699978828,0,
00:00:02.484,-0.000745594326872379,0.0029157046228647197,-0.00894129648804665,0,
00:00:02.488,0.0167516861110926,0.0046389815397560605,0.0004962665843777361,0,
00:00:02.492,-0.0008561529102735219,0.00576507672667503,0.0111669655889273,0,
00:00:02.496,0.0105883330106735,0.0016290013445541302,0.0090848421677947,0,
00:00:02.5,-0.0195747520774603,-0.0123385349288583,-0.0211499184370041,0,
00:00:02.504,0.00187515339348465,-0.00154092349112034,-0.00571642909198999,0,
00:00:02.508,0.0150785483419895,0.0221597459167242,0.0183515250682831,0,
00:00:02.512,0.00241972482763231,-0.00730586796998978,0.0137685295194387,0,
00:00:02.516,-0.0042396318167448,-0.00138946145307273,-0.0301174987107515,0,
00:00:02.52,-0.0285750571638346,-0.0112885599955916,0.006940136197954421,0,
00:00:02.524,0.0156081831082702,-0.00221361499279737,0.00123876775614917,0,
00:00:02.528,0.0124642308801413,0.00990428309887648,0.0121199944987893,0,
00:00:02.532,0.0040456675924360795,0.00533633260056376,-0.00127135310322046,0,
00:00:02.536,-0.0153003064915538,-0.00340462545864284,-0.00826504826545715,0,
00:00:02.54,-0.0124130891636014,-0.0212160814553499,0.000958863878622651,0,
00:00:02.544,0.0125802913680673,0.0134257711470127,-0.00823772698640823,0,
00:00:02.548,-0.00538825243711472,0.0175429936498404,0.0020455063786357602,0,
00:00:02.552,0.0182924065738916,-0.000792840553913265,0.000442934746388346,0,
00:00:02.556,0.0152805903926492,-0.0123327579349279,0.007174369413405659,0,
00:00:02.56,-0.0103383539244533,-0.013919472694396999,-4.0852199163055e-05,0,
00:00:02.564,-0.0322225876152515,0.016180656850338,0.00131034327205271,0,
00:00:02.568,-0.0166583694517612,0.00149288051761687,0.00208719004876912,0,
00:00:02.572,0.0462595857679844,0.007580920122563841,-0.0074177929200232,0,
00:00:02.576,0.0185569692403078,-0.0142431277781725,-0.00555340247228742,0,
00:00:02.58,-0.0206910632550716,-0.0150396544486284,0.00582275725901127,0,
00:00:02.584,-0.0132631352171302,0.00531222857534885,0.020228223875165003,0,
00:00:02.588,-0.0242227949202061,0.016059810295701003,-0.0037940004840493202,0,
00:00:02.592,0.0205260701477528,0.0152965458109975,-0.0314373150467873,0,
00:00:02.596,0.0167323052883148,-0.006638887804001571,-0.007059415802359579,0,
00:00:02.6,-0.00413039978593588,-0.0236783660948277,0.0315807424485683,0,
00:00:02.604,0.0007298838463611901,0.015094225294888,0.00792639143764973,0,
00:00:02.608,-0.00334204034879804,-0.00118011748418212,-0.0100999837741256,0,
00:00:02.612,0.00090523948892951,-0.00427898578345776,-0.00549628539010882,0,
00:00:02.616,-0.009557425975799559,3.36611301463563e-05,-0.0175983458757401,0,
00:00:02.62,0.0009536616271361711,-0.0032641831785440397,0.00041649112245068,0,
00:00:02.624,0.00202256417833269,-0.0016378645086661,0.0282192006707191,0,
00:00:02.628,0.0030923746526241302,0.00324673019349575,0.0149301681667566,0,
00:00:02.632,0.0129171079024673,0.0154118426144123,-0.012520257383584999,0,
00:00:02.636,-0.000612776319030672,0.00398025894537568,-0.031119616702198996,0,
00:00:02.64,-0.0166651476174593,-0.0112487822771072,-0.0078102401457727,0,
00:00:02.644,-0.0150054283440113,-0.0249687638133764,0.0316306240856647,0,
00:00:02.648,0.0123066529631615,0.00802086666226387,0.0108090871945024,0,
00:00:02.652,0.0149775231257081,0.0136515768244863,-0.0194467268884182,0,
00:00:02.656,0.0129977567121387,0.0138178104534745,0.00339896394871175,0,
00:00:02.66,-0.0329470857977867,-0.008032992482185359,-0.00689883390441537,0,
00:00:02.664,-0.000373845221474767,-0.0135968225076795,0.000333092117216438,0,
00:00:02.668,0.0182946864515543,0.0146393673494458,0.020684503018856003,0,
00:00:02.672,-0.00178206653799862,-0.00496973283588886,-0.0118318917229772,0,
00:00:02.676,-0.00423836475238204,-0.0155867636203766,-0.0217239260673523,0,
00:00:02.68,0.0338734239339828,-0.00122667977120727,0.0121151702478528,0,
00:00:02.684,-0.0470063425600529,0.0120753953233361,0.00510303676128387,0,
00:00:02.688,-0.0185279380530119,0.00922583043575287,0.0100638885051012,0,
00:00:02.692,0.0300179570913315,0.00605364795774221,0.0152530176565051,0,
00:00:02.696,0.00663006212562323,-0.00536083802580833,-0.0326367765665054,0,
00:00:02.7,0.0081090098246932,-0.0185778550803661,0.00151515495963395,0,
00:00:02.704,-0.013265055604279,-0.00597749790176749,0.0240042209625244,0,
00:00:02.708,0.0068706483580172105,0.0252835899591446,-0.0143777942284942,0,
00:00:02.712,-0.00169020495377481,0.00330275064334273,-0.0121328243985772,0,
00:00:02.716,-0.013032921589911,-0.0088198259472847,-0.0067747924476862,0,
00:00:02.72,0.00429684622213244,-0.0118825528770685,-0.00386626389808953,0,
00:00:02.724,-0.000558427884243429,0.00361359119415283,0.0156401712447405,0,
00:00:02.728,0.0183313768357039,0.00326926517300308,0.0271517504006624,0,
00:00:02.732,6.52349917800166e-05,0.00643576169386506,0.00392085593193769,0,
00:00:02.736,-0.0387831516563892,-0.0029766424559056802,-0.0313054174184799,0,
00:00:02.74,0.0220361351966858,0.00904089026153088,-0.00441919034346938,0,
00:00:02.744,3.82188627554569e-05,-0.0232877489179373,0.0148856174200773,0,
00:00:02.748,-0.000285113521385938,-0.00110544404014945,0.00116523413453251,0,
00:00:02.752,0.0196187514811754,0.0148801011964679,-0.0181373525410891,0,
00:00:02.756,0.00255198334343731,0.0151803186163306,-8.44080859678797e-05,0,
00:00:02.76,-0.0373615249991417,-0.0252457670867443,-0.0010286868782714,0,
00:00:02.764,0.0192636493593454,0.00476845446974039,0.00446127448230982,0,
00:00:02.768,-0.00855882558971643,-0.0023174996022135,0.0341131687164307,0,
00:00:02.772,0.0046021863818168605,0.0124610587954521,0.00482070632278919,0,
00:00:02.776,0.016122143715620003,0.0036364400293678,-0.0347978435456753,0,
00:00:02.78,-0.0116702821105719,0.0069664069451391706,-0.0229176916182041,0,
00:00:02.784,-0.013582656159997,-0.0135090881958604,0.0226528942584991,0,
00:00:02.788,0.0119074461981654,-0.0143888043239713,0.0192339345812798,0,
00:00:02.792,0.000789185636676848,-0.0141516225412488,-0.0115210376679897,0,
00:00:02.796,0.0100345555692911,0.017162287607789,-0.0196000542491674,0,
00:00:02.8,-0.00508160050958395,0.0164516530930996,0.001440201071091,0,
00:00:02.804,-0.0111590968444943,0.0032910592854023,0.0150472624227405,0,
00:00:02.808,0.00462739728391171,-0.0041155144572258,0.0185029879212379,0,
00:00:02.812,-0.00432692095637321,-0.0038791350089013603,-0.000635045464150608,0,
00:00:02.816,0.0077643864788115,4.25861289841123e-05,-0.0279469899833202,0,
00:00:02.82,-0.00424858927726746,-0.0151037639006972,1.05663948488655e-05,0,
00:00:02.824,0.00829023960977793,0.0038538731168955604,0.00912082102149725,0,
00:00:02.828,-0.007988204248249529,0.00304380082525313,-0.0072711976245045705,0,
00:00:02.832,-0.00276605016551912,0.00184396002441645,0.00105638289824128,0,
00:00:02.836,0.0181684512645006,0.0218574497848749,0.0185394231230021,0,
00:00:02.84,-0.006546918302774429,-0.00864387676119804,0.00838231947273016,0,
00:00:02.844,-0.0334549881517887,-0.0112536763772368,-0.0214186515659094,0,
00:00:02.848,-0.00452701095491648,-0.0338638573884964,0.0027975249104201802,0,
00:00:02.852,0.0469045899808407,0.0164468642324209,-0.0046738972887396795,0,
00:00:02.856,0.0106017543002963,0.0406496115028858,-0.0180585719645023,0,
00:00:02.86,-0.0036107434425503,0.00512673705816269,-0.000539872969966382,0,
00:00:02.864,-0.008308258838951591,-0.0242048129439354,0.0322802849113941,0,
00:00:02.868,-0.0290073733776808,-0.008625419810414309,0.02246611751616,0,
00:00:02.872,-0.0338073074817657,-0.0076420730911195296,-0.0301603581756353,0,
00:00:02.876,0.0279681198298931,0.0034518628381192697,-0.00310154445469379,0,
00:00:02.88,0.039831243455410004,0.00928115379065275,-0.005977311171591279,0,
00:00:02.884,0.0199010353535414,0.00988599471747875,-0.00402762135490775,0,
00:00:02.888,-0.0394727662205696,0.00271215592510998,-0.00399958807975054,0,
00:00:02.892,-0.0132227055728436,-0.0203753765672445,0.0115630449727178,0,
00:00:02.896,0.0123500367626548,0.0033724000677466397,0.005854213610291479,0,
00:00:02.9,-0.0025365322362631603,0.00166401010937989,0.0130053721368313,0,
00:00:02.904,0.0021981457248330103,0.00165546219795942,-0.0202351678162813,0,
00:00:02.908,0.0018967387732118399,-0.000579304527491331,0.00823173206299543,0,
00:00:02.912,-0.00584996957331896,-0.00337774329818785,0.007489663083106279,0,
00:00:02.916,0.007335294503718609,0.013906205072998999,0.00339313806034625,0,
00:00:02.92,-0.00829365756362677,-0.0012530430685728801,-0.0267993696033955,0,
00:00:02.924,0.00826563779264688,-0.0058362158015370395,-0.014853279106318997,0,
00:00:02.928,0.0158826094120741,-0.00039726341492496404,0.0185262188315392,0,
00:00:02.932,-0.00467534316703677,-0.00740676326677203,0.0252078417688608,0,
00:00:02.936,-0.0395729541778564,-0.0022355511318892197,-0.00718478765338659,0,
00:00:02.94,-0.0009136777371168141,0.0074442820623517,-0.0177080426365137,0,
00:00:02.944,0.0382785834372044,-0.005058819893747571,0.00047119188820943204,0,
00:00:02.948,-0.00422563450410962,0.0104411691427231,0.0101080974563956,0,
00:00:02.952,-0.0020083209965378,0.0077630653977394095,0.00692815752699971,0,
00:00:02.956,0.0171336494386196,-0.0103428438305855,-0.0183310993015766,0,
00:00:02.96,-0.0172944162040949,-0.0017390358261764,0.00320457760244608,0,
00:00:02.964,-0.0202543269842863,-0.0005714966100640599,0.0049762064591050105,0,
00:00:02.968,0.00818581879138947,-0.005006841383874421,0.00564203970134258,0,
00:00:02.972,0.00714720645919442,0.00325252744369209,0.0156163824722171,0,
00:00:02.976,0.0129784625023603,-0.0009404144948348401,-0.0226742457598448,0,
00:00:02.98,-0.0418557710945606,0.000695582886692137,-0.0112509373575449,0,
00:00:02.984,0.0173446666449308,0.00220952276140451,0.007357094902545209,0,
00:00:02.988,0.0263459328562021,0.0124596478417516,-0.010990702547133002,0,
00:00:02.992,0.00209353351965547,-0.0069400193169713,0.0183167047798634,0,
00:00:02.996,-0.00231884163804352,-0.00438998034223914,0.0276363436132669,0,
00:00:03,-0.0172607284039259,0.0007929115090519191,-0.0240576881915331,0,
00:00:03.004,-0.00593202840536833,-0.0160432662814856,-0.0096728103235364,0,
00:00:03.008,-0.0177388675510883,-0.0119349900633097,0.0042673796415329,0,
00:00:03.012,0.0278141405433416,0.0291327461600304,-0.0021336902864277398,0,
00:00:03.016,0.0229278095066547,0.0150294844061136,-0.0124791404232383,0,
00:00:03.02,-0.0132093830034137,0.0010409179376438301,-0.000413478468544781,0,
00:00:03.024,-0.0244295857846737,-0.0157131049782038,0.0199055206030607,0,
00:00:03.028,-0.0010566363343969,-0.0054225423373282,0.0112948957830667,0,
00:00:03.032,0.006641373038291929,-0.0144686754792929,-0.00597821641713381,0,
00:00:03.036,0.0189327895641327,0.00735778734087944,-0.00704030320048332,0,
00:00:03.04,-0.00219670496881008,0.0125610148534179,-0.0138005632907152,0,
00:00:03.044,-0.000821765628643334,0.00572318490594625,0.00344216916710138,0,
00:00:03.048,0.0100744515657425,0.000402479199692607,0.009065183810889721,0,
00:00:03.052,-0.0381079614162445,-0.0133117623627186,-0.00179326185025275,0,
00:00:03.056,-0.00563454022631049,-0.00442722300067544,-0.00547997653484344,0,
00:00:03.06,0.0126655222848058,0.0108584361150861,0.0132478037849069,0,
00:00:03.064,0.01763248257339,-0.00705743208527565,0.0201023891568184,0,
00:00:03.068,0.0279309675097466,0.0053491434082388895,-0.0204860772937536,0,
00:00:03.072,0.00425367057323456,0.003973572980612521,-0.0263850558549166,0,
00:00:03.076,-0.086647167801857,-0.00658861408010125,-0.0106347370892763,0,
00:00:03.08,0.0293337944895029,0.0175126381218433,0.0164383724331856,0,
00:00:03.084,0.0304270088672638,-0.0118610793724656,0.0207816250622272,0,
00:00:03.088,-0.0040103089995682205,-0.0373197831213474,0.0199010577052832,0,
00:00:03.092,0.0136983459815383,0.0180919282138348,-0.006081222556531429,0,
00:00:03.096,-0.00895880907773972,0.0277828462421894,-0.0246355719864368,0,
00:00:03.1,-0.0216641575098038,0.0167079698294401,-0.0181251112371683,0,
00:00:03.104,-0.0104029895737767,-0.010330063290894002,0.0050188424065709105,0,
00:00:03.108,0.018080884590744997,-0.0388038381934166,0.0106576038524508,0,
00:00:03.112,0.0217436514794827,-0.00745392823591828,0.0286347083747387,0,
00:00:03.116,-0.0210336316376925,0.0272349771112204,-0.0127819972112775,0,
00:00:03.12,-0.0136449756100774,0.0156057626008987,-0.0193490274250507,0,
00:00:03.124,-0.00156379560939968,-0.00646208040416241,0.00906035024672747,0,
00:00:03.128,0.0295922160148621,-0.00930919032543898,0.00513589568436146,0,
00:00:03.132,0.0161502547562122,0.0014571218052879,-0.0113200731575489,0,
00:00:03.136,-0.0229230001568794,-0.00358711369335651,0.0018992326222360102,0,
00:00:03.14,0.000629671209026128,-0.00608558440580964,0.0026556262746453303,0,
00:00:03.144,-0.0121002290397882,0.0131132053211331,0.00693867495283484,0,
00:00:03.148,-0.00864428002387285,0.00600987207144499,0.0102229444310069,0,
00:00:03.152,0.0122418869286776,-0.0182061549276114,-0.0128447292372584,0,
00:00:03.156,-0.00176596699748188,-0.0123912841081619,-0.0296812504529953,0,
00:00:03.16,-0.0105767957866192,0.0111252013593912,0.0259895231574774,0,
00:00:03.164,0.0151374842971563,0.0264227297157049,0.0113999433815479,0,
00:00:03.168,0.01428147777915,0.00350233353674412,-0.00868390593677759,0,
00:00:03.172,0.0016340597067028301,-0.0186996683478355,-0.0062375096604228,0,
00:00:03.176,-0.0138708483427763,-0.0193182900547981,0.0149418041110039,0,
00:00:03.18,-0.00563524011522532,0.0107365362346172,-0.00148917431943119,0,
00:00:03.184,0.009250332601368429,0.0134193412959576,-0.00732185458764434,0,
00:00:03.188,-0.010801961645484,0.00543959299102426,-0.0142733445391059,0,
00:00:03.192,-0.0126856109127402,-0.00678013358265162,0.0101760216057301,0,
00:00:03.196,0.0205716602504253,-0.0272756032645702,0.0104634389281273,0,
00:00:03.2,-0.00436453241854906,0.0130757112056017,-0.0220431443303823,0,
00:00:03.204,-0.00343769881874323,0.0149526428431273,0.00976634863764048,0,
00:00:03.208,0.0187633112072945,-0.0035235520917922297,0.015556619502603999,0,
00:00:03.212,-0.0111764185130596,0.0039748004637658605,-0.0005951313651166861,0,
00:00:03.216,0.0089339530095458,0.00385151780210435,-0.0130994468927383,0,
00:00:03.22,-0.0290125235915184,-0.0249150451272726,-0.0127748744562268,0,
00:00:03.224,0.00423514004796743,0.00356634147465229,0.0265809241682291,0,
00:00:03.228,0.0145260347053409,0.0162438098341227,-0.00277086882852018,0,
00:00:03.232,0.00845674704760313,-0.00575107801705599,-0.00478099146857858,0,
00:00:03.236,0.00600616773590446,0.00796456169337034,-0.0112707484513521,0,
00:00:03.24,0.00130821403581649,-0.00444436725229025,-0.007494937162846329,0,
00:00:03.244,-0.0410422794520855,0.00280077243223786,0.00410552276298404,0,
00:00:03.248,0.00013682666758541002,-0.0247554015368223,0.0223278012126684,0,
00:00:03.252,0.0242095626890659,0.00810724496841431,0.0109608853235841,0,
00:00:03.256,0.0170533526688814,0.0068558217026293295,-0.0227746590971947,0,
00:00:03.26,0.00623361254110932,0.0229645762592554,-0.0125455148518085,0,
00:00:03.264,-0.0267003495246172,-0.00787768606096506,0.0239597484469414,0,
00:00:03.268,-0.0207302886992693,0.0019103168742731198,-0.0197302624583244,0,
00:00:03.272,0.00311699393205345,-0.0164067801088095,0.0165793355554342,0,
00:00:03.276,0.0145501960068941,-0.0297075323760509,-0.00893842708319426,0,
00:00:03.28,0.0217383280396461,0.0134126590564847,-0.0217706374824047,0,
00:00:03.284,0.00421695923432708,0.0234333034604788,0.0227264910936356,0,
00:00:03.288,-0.0038188954349607203,0.014668189920485,0.0255782250314951,0,
00:00:03.292,-0.0150268441066146,0.00129363511223346,-0.0136233428493142,0,
00:00:03.296,-0.00877986755222082,-0.0181757211685181,-0.0232300087809563,0,
00:00:03.3,-0.0042306575924158105,-0.00423725228756666,-0.00962372776120901,0,
00:00:03.304,0.00870452634990215,0.00104331399779767,0.017347015440464002,0,
00:00:03.308,0.00204927916638553,-0.0106778703629971,0.00781530607491732,0,
00:00:03.312,-0.005685116164386271,0.00642063841223717,0.0128007838502526,0,
00:00:03.316,0.00025128890410997,-0.0010956112528219802,-0.00446949806064367,0,
00:00:03.32,0.011442725546658003,0.0106506170704961,-0.0205977391451597,0,
00:00:03.324,0.00165204878430814,-0.007099652662873271,0.0206934325397015,0,
00:00:03.328,0.00401203846558928,0.0139569472521544,-0.0244952235370874,0,
00:00:03.332,-0.0087379040196538,-0.0059029390104115,0.0020480663515627397,0,
00:00:03.336,-0.00682013109326363,-0.0073907510377466705,0.00801627803593874,0,
00:00:03.34,0.0050446605309844,-0.00486654741689563,-0.007166784722357991,0,
00:00:03.344,0.0113779241219163,0.0137932524085045,0.0106716239824891,0,
00:00:03.348,-0.0254586916416883,-0.00515238894149661,-0.00668098917230964,0,
00:00:03.352,0.00231658783741295,-0.0055804266594350295,0.0160427410155535,0,
00:00:03.356,0.0121300620958209,-0.000886998022906482,0.0150206359103322,0,
00:00:03.36,-0.000837652536574751,0.000537507352419198,-0.0220180563628674,0,
00:00:03.364,0.00394177064299583,0.00942570902407169,-0.0178186316043139,0,
00:00:03.368,0.00842417683452368,0.00797951407730579,0.00123849371448159,0,
00:00:03.372,-0.0005596822593361139,-0.00878069177269936,0.0182250700891018,0,
00:00:03.376,-0.0176190380007029,-0.0149997090920806,-0.0112798158079386,0,
00:00:03.38,0.00630068173632026,0.0049795918166637395,0.0006135042640380559,0,
00:00:03.384,0.000218180794036016,0.0112232882529497,0.0174466222524643,0,
00:00:03.388,0.0041911918669939,-0.000913298281375319,-0.0181336384266615,0,
00:00:03.392,-0.0302337929606438,-6.40440121060237e-05,0.00118830846622586,0,
00:00:03.396,-0.00388403492979705,-0.0152326142415404,0.0244931932538748,0,
00:00:03.4,0.0468272008001804,-0.006291807629168029,-0.0058667836710810705,0,
00:00:03.404,0.0103653948754072,0.0173130370676517,-0.0330532751977444,0,
00:00:03.408,-0.0017976633971557,0.0123083489015698,0.0077743316069245295,0,
00:00:03.412,-0.03544095531106,0.0028630136512219897,0.0170917678624392,0,
00:00:03.416,0.00531019875779748,-0.0128087354823947,-0.0189280863851309,0,
00:00:03.42,0.00280402251519263,-0.00755341537296772,0.0024572534020990103,0,
00:00:03.424,-0.0232270881533623,0.00458637159317732,0.0252593234181404,0,
00:00:03.428,0.0142009807750583,-0.0140777369961143,-0.000982112949714065,0,
00:00:03.432,0.0276961103081703,0.0062356265261769295,0.00777560146525502,0,
00:00:03.436,-0.00457187043502927,0.0142234833911061,-0.0250967219471931,0,
00:00:03.44,0.00153761822730303,0.0101832635700703,-0.0179291050881147,0,
00:00:03.444,-0.0309027954936028,-0.0152107337489724,0.00325548416003585,0,
00:00:03.448,0.0055222865194082295,0.0019105309620499602,0.0169537309557199,0,
00:00:03.452,0.0077598737552762,-0.00556811038404703,0.00970521755516529,0,
00:00:03.456,0.006251719314605,-0.0032575458753854,0.00601779902353883,0,
00:00:03.46,0.0193588063120842,-0.0053743179887533205,0.0031369321513921,0,
00:00:03.464,-0.0121825467795134,0.0173678230494261,-0.0159027893096209,0,
00:00:03.468,-0.0318303145468235,-0.0020082767587155104,-0.0203917156904936,0,
00:00:03.472,0.00892449822276831,-0.00874097924679518,0.016166415065527,0,
00:00:03.476,0.00877816416323185,0.00631815148517489,-0.0106844156980515,0,
00:00:03.48,0.0280617494136095,0.008576478809118271,0.0237363576889038,0,
00:00:03.484,-0.0243154894560575,-0.0068708467297256,0.00475464854389429,0,
00:00:03.488,-0.00446393294259906,-0.00924519170075655,-0.0278603676706553,0,
00:00:03.492,0.000394684786442667,-0.00248035555705428,0.008123406209051609,0,
00:00:03.496,0.0132946148514748,0.00544153200462461,0.0145771009847522,0,
00:00:03.5,0.00130545999854803,0.0114614209160209,-0.00752707617357373,0,
00:00:03.504,-0.0312940068542957,-0.00802573468536139,-0.0218626726418734,0,
00:00:03.508,0.0164957046508789,-0.00805571023374796,0.006401024758815771,0,
00:00:03.512,0.015969293192029,0.008607517927885059,0.0538722984492779,0,
00:00:03.516,-0.007797259837388991,0.012224905192852,-0.0337963066995144,0,
00:00:03.52,-0.0055225891992449795,-0.0168158449232578,-0.0111059518530965,0,
00:00:03.524,0.00299238716252148,-0.0014225618215277802,-0.00015028499183245,0,
00:00:03.528,-0.00228161946870387,0.0012007671175524599,-0.00301168719306588,0,
00:00:03.532,-0.00102466053795069,0.008994544856250291,-0.00598019221797585,0,
00:00:03.536,0.0093234870582819,0.013162518851459,-0.00950962398201227,0,
00:00:03.54,-0.00195167993661016,-0.025841174647212,0.0369410328567028,0,
00:00:03.544,0.00323839229531586,-0.0121740605682135,0.0183254387229681,0,
00:00:03.548,-0.007251278962939979,0.00893751624971628,-0.0330014042556286,0,
00:00:03.552,-0.0464062876999378,0.0250044967979193,-0.0130732320249081,0,
00:00:03.556,0.0290283020585775,-0.0108044110238552,-0.0001148675364675,0,
00:00:03.56,0.0474974252283573,-0.0056181903928518295,0.0184416510164738,0,
00:00:03.564,-0.00605616718530655,0.0101725198328495,0.0134219545871019,0,
00:00:03.568,-0.012939945794642,-0.00131937104742974,-0.004840487614274029,0,
00:00:03.572,-0.0110714575275779,-0.007805121131241321,-0.0243425443768501,0,
00:00:03.576,-0.0160665344446898,0.0013685618760064199,-0.0017378425691276802,0,
00:00:03.58,-0.00316458777524531,-0.0225571785122156,-0.00579643901437521,0,
00:00:03.584,0.0119984177872539,0.0221439469605684,0.0310399942100048,0,
00:00:03.588,0.0109896697103977,0.00389666389673948,-0.0069275451824069,0,
00:00:03.592,0.00835534278303385,0.0012621461646631401,-0.0154682751744986,0,
00:00:03.596,0.000451843836344779,0.007402091287076471,0.0268819313496351,0,
00:00:03.6,-0.00329283927567303,-0.00778702041134238,-0.00275755301117897,0,
00:00:03.604,-0.0398508496582508,-0.01250328309834,-0.0206829328089952,0,
00:00:03.608,0.0150220459327102,0.00473475316539407,0.000312840275000781,0,
00:00:03.612,0.0122733227908611,-0.00340149598196149,-0.010554482229054,0,
00:00:03.616,0.0165446475148201,0.0149941425770521,-0.0006519318558275701,0,
00:00:03.62,-0.0049258996732533,-0.0157919842749834,0.0356024652719498,0,
00:00:03.624,-0.0018001586431637398,0.0052515771239996,-0.00267155445180833,0,
00:00:03.628,-0.00404374906793237,0.00635552546009421,-0.0120429471135139,0,
00:00:03.632,0.0014541590353474,-0.00060547300381586,-0.0125634409487247,0,
00:00:03.636,-0.009015479125082491,-0.0026056608185172103,4.60483315691818e-05,0,
00:00:03.64,-0.0178451184183359,-0.004092544782906771,0.0162381809204817,0,
00:00:03.644,0.00247880537062883,0.005484174471348521,0.00625106273218989,0,
00:00:03.648,0.0286231227219105,0.0043576220050454105,-0.0154122123494744,0,
00:00:03.652,0.0143053224310279,-0.00610937876626849,0.00282840197905898,0,
00:00:03.656,-0.00874643214046955,-0.024013401940465,-0.0253408960998058,0,
00:00:03.66,-0.0242698024958372,0.020796712487936003,0.0234103463590145,0,
00:00:03.664,0.0008039955282583831,0.0171242076903582,0.0179132670164108,0,
00:00:03.668,0.0127100236713886,-0.00875582732260227,-0.0037899934686720397,0,
00:00:03.672,-0.0223444886505604,-0.0072066527791321295,-0.00872280541807413,0,
00:00:03.676,0.00729776360094547,-0.0108091542497277,-0.0331665091216564,0,
00:00:03.68,0.0472594052553177,0.01938989572227,0.0216827914118767,0,
00:00:03.684,-0.0333535335958004,0.00117023265920579,0.0119917653501034,0,
00:00:03.688,-0.009709032252430921,-0.0076109939254820295,0.00756957428529859,0,
00:00:03.692,0.00490650627762079,-0.00115085183642805,-0.00808148924261332,0,
00:00:03.696,-0.00023631165095139303,-0.00865923706442118,-0.0156648643314838,0,
00:00:03.7,0.0018049477366730601,0.0114853205159307,0.00582221383228898,0,
00:00:03.704,-0.00112887902650982,0.00428842194378376,0.0189270116388798,0,
00:00:03.708,-0.00439192960038781,-0.00446244655176997,-0.0039037140086293203,0,
00:00:03.712,0.0049050278030335894,-0.011063938960433001,-0.0113281970843673,0,
00:00:03.716,0.0024850114714354303,0.00400483049452305,-0.00612379843369126,0,
00:00:03.72,0.00729896454140544,0.00376678165048361,-0.00552971148863435,0,
00:00:03.724,0.000260067317867652,0.00472524575889111,0.0165114607661963,0,
00:00:03.728,-0.0157634951174259,-0.000971107569057494,0.0220247190445662,0,
00:00:03.732,-0.000399937824113294,-0.00619640061631799,-0.0282553508877754,0,
00:00:03.736,0.00254674325697124,-0.0035513350740075103,-0.00799169018864632,0,
00:00:03.74,0.0101913409307599,0.0172863081097603,0.00506178615614772,0,
00:00:03.744,-0.000733862281776965,0.0019412914989516102,0.00838228967040777,0,
00:00:03.748,-0.00369770871475339,-0.0132176661863923,0.00116362201515585,0,
00:00:03.752,0.007643345743417741,-5.10621684952639e-05,0.000261190667515621,0,
00:00:03.756,-0.0230406075716019,0.0027243848890066103,-0.0143980411812663,0,
00:00:03.76,0.00650624698027968,-0.031908143311739,-0.00318211526609957,0,
00:00:03.764,0.0144876660779119,0.0185051076114178,0.0304299183189869,0,
00:00:03.768,-0.015871487557888,0.017856702208519,-0.0033043483272194897,0,
00:00:03.772,0.0112038999795914,0.0207615625113249,-0.00943759270012379,0,
00:00:03.776,0.0128421559929848,-0.0152708953246474,-0.00977520644664764,0,
00:00:03.78,-0.0128071689978242,-0.0123169841244817,-0.0113097280263901,0,
00:00:03.784,0.00456108804792166,0.0043342849239707,0.0231760740280151,0,
00:00:03.788,-0.0103906495496631,-0.0018009049817919699,-0.00867843348532915,0,
00:00:03.792,-0.00403256854042411,-0.0109950881451368,-0.007826581597328191,0,
00:00:03.796,0.0119807329028845,-0.00381327699869871,0.0154234860092402,0,
00:00:03.8,-0.00582318706437945,0.0021565381903201303,0.0133325047791004,0,
00:00:03.804,-0.008795985952019691,0.00515060825273395,-0.0123049104586244,0,
00:00:03.808,0.004688405431807039,0.0112701198086143,-0.00760145159438252,0,
00:00:03.812,0.000988082611002028,0.00540993781760335,0.0113415839150548,0,
00:00:03.816,-0.00234768586233258,0.0023737316951155697,-0.0135910203680396,0,
00:00:03.82,0.0272587537765503,-0.0073405490256846,-0.0281465481966734,0,
00:00:03.824,0.00011875551717821499,-0.018735134974122,0.0332976318895817,0,
00:00:03.828,-0.0187160838395357,0.00950015801936388,0.0165846738964319,0,
00:00:03.832,-0.0106918290257454,-0.0019086508546024602,-0.0123001970350742,0,
00:00:03.836,0.00492183351889253,0.00434038043022156,-0.0239055398851633,0,
00:00:03.84,0.0130382869392633,0.00154870050027966,0.0196422375738621,0,
00:00:03.844,-0.0235468298196793,0.0194190479815006,0.0122582763433456,0,
00:00:03.848,0.00566430762410164,-0.0196246933192015,-0.0136214951053262,0,
00:00:03.852,0.0147058023139834,-0.0275816917419434,-0.004977409727871421,0,
00:00:03.856,-0.0129047017544508,0.0195459481328726,-0.0009365433361381289,0,
00:00:03.86,0.00590827921405435,0.0127275120466948,0.0157345309853554,0,
00:00:03.864,0.0113424565643072,0.0125902947038412,0.00279368995688856,0,
00:00:03.868,0.00446998002007604,-0.00571108143776655,-0.0088039543479681,0,
00:00:03.872,-0.00126035464927554,-0.0150478072464466,-0.0252751633524895,0,
00:00:03.876,-0.0234754644334316,-0.0121300825849175,-0.0022320821881294303,0,
00:00:03.88,-0.00224621430970728,0.00919583905488253,0.0326470285654068,0,
00:00:03.884,0.005924181081354621,0.0114737367257476,0.0150040034204721,0,
00:00:03.888,-0.00815741159021854,-0.00301935686729848,-0.0112066892907023,0,
00:00:03.892,0.0173044446855783,-0.0039940499700605895,-0.00814537983387709,0,
00:00:03.896,0.0180376041680574,0.00514621334150434,-0.0197405871003866,0,
00:00:03.9,-0.00416150782257319,0.0015696469927206599,0.00326104438863695,0,
00:00:03.904,-0.0188288297504187,-0.008990479633212091,0.0111551322042942,0,
00:00:03.908,-0.0190695952624083,-0.0146786849945784,0.00039495577220805,0,
00:00:03.912,0.00243995292112231,0.0244053304195404,-0.00420641200616956,0,
00:00:03.916,0.032162994146347,0.00336058717221022,0.00518232863396406,0,
00:00:03.92,0.0178105309605598,-0.00685129826888442,0.0088997595012188,0,
00:00:03.924,-0.0287130307406187,-0.007498160004615779,0.0115695521235466,0,
00:00:03.928,-0.0231831129640341,0.0174329783767462,-0.0295992735773325,0,
00:00:03.932,0.0047166063450276895,-0.0164812449365854,-0.000930446956772357,0,
00:00:03.936,0.0150935910642147,-0.0147865302860737,0.0106714339926839,0,
00:00:03.94,0.0140995550900698,0.0167696718126535,-0.0011101491982117302,0,
00:00:03.944,-0.00670493114739656,0.00695354118943214,-0.0104557648301125,0,
00:00:03.948,-0.0015288244467228699,0.0092464042827487,0.00985720008611679,0,
00:00:03.952,-0.00664742710068822,-0.0140865407884121,-0.000189168946235441,0,
00:00:03.956,0.00285416399128735,0.00301495124585927,0.0170142129063606,0,
00:00:03.96,-0.00713307177647948,-0.0134551897644997,0.000698349846061319,0,
00:00:03.964,0.0041929162107408,0.0044648353941738605,-0.0188973769545555,0,
00:00:03.968,0.00822864938527346,0.0132319079712033,-0.0142033118754625,0,
00:00:03.972,-0.0155059890821576,-0.00449866568669677,-0.0063620018772780895,0,
00:00:03.976,0.0133482534438372,-0.0034107696264982197,0.0127800013870001,0,
00:00:03.98,-0.000485894328448921,0.00691265752539039,0.012664875946938998,0,
00:00:03.984,0.000643831153865904,-0.00972992368042469,0.028357982635497995,0,
00:00:03.988,0.00016932204016484298,-0.0139808971434832,-0.0145979188382626,0,
00:00:03.992,-0.025810431689024,0.0158977080136538,-0.0199347287416458,0,
00:00:03.996,0.00965932570397854,0.0145029975101352,-0.0100334975868464,0,
00:00:04,0.0217039473354816,-0.0113060539588332,0.0072340765036642595,0,
00:00:04.004,0.0106019964441657,-0.0044539622031152205,-0.00321124703623354,0,
00:00:04.008,0.009305876679718491,0.00434792041778564,0.016388488933444,0,
00:00:04.012,-0.0615582652390003,-0.0061012520454824,0.00910193659365177,0,
00:00:04.016,-0.00287194363772869,0.00863481871783733,-0.023308040574192997,0,
00:00:04.02,0.0490302965044975,0.00800384767353535,-0.00144330167677253,0,
00:00:04.024,-0.0100930947810411,-0.00693062646314502,0.0054958164691925,0,
00:00:04.028,0.0028215227648615802,-0.0172268282622099,0.0007075016619637611,0,
00:00:04.032,0.0112158609554172,0.0158153511583805,-0.00258139125071466,0,
00:00:04.036,-0.009030392393469809,-0.0336868576705456,0.0165814477950335,0,
00:00:04.04,-0.0273151677101851,0.0179995466023684,0.0032613484654575604,0,
00:00:04.044,0.006448033731430771,0.0201470647007227,-0.0259718932211399,0,
00:00:04.048,0.00515543390065432,0.00873823463916779,0.0101525671780109,0,
00:00:04.052,0.0179409366101027,0.00761537626385689,0.000498743611387908,0,
00:00:04.056,-0.00769437989220023,-0.0120103396475315,-0.0052156564779579605,0,
00:00:04.06,-0.0103314938023686,-0.0240647494792938,0.005988809280097479,0,
00:00:04.064,-0.0019358661957085102,-0.00783526059240103,0.00847222935408354,0,
00:00:04.068,0.0129074538126588,0.0116448933258653,-0.0144284851849079,0,
00:00:04.072,0.000100862598628737,0.00027872048667632,-0.00034676364157348904,0,
00:00:04.076,0.0053405202925205205,0.00729847187176347,0.00471913116052747,0,
00:00:04.08,-0.0162560865283012,0.0162768755108118,0.00205181539058685,0,
00:00:04.084,-0.00116434588562697,-0.00424965750426054,0.0220492910593748,0,
00:00:04.088,0.0151143046095967,-0.0122517794370651,-0.0109213050454855,0,
00:00:04.092,-0.00522747449576855,-0.00964647531509399,-0.0287847351282835,0,
00:00:04.096,4.83779003843665e-05,0.00356424832716584,-0.0135626224800944,0,
00:00:04.1,0.00302432477474213,0.00981370452791452,0.011709195561706999,0,
00:00:04.104,-0.0207323376089334,-0.011078723706305001,0.044486541301012004,0,
00:00:04.108,-0.00164480763487518,0.006882100366055971,0.0149956941604614,0,
00:00:04.112,0.0184932723641396,0.00227137026377022,-0.0319667719304562,0,
00:00:04.116,0.0014572752406820698,0.0110775157809258,-0.0328481197357178,0,
00:00:04.12,0.018110454082488996,-0.0223915036767721,-0.000458985567092896,0,
00:00:04.124,-0.0131735568866134,0.005178434308618311,0.0242691673338413,0,
00:00:04.128,-0.0118164829909801,0.0145490700379014,4.99949283039314e-06,0,
00:00:04.132,-0.00672130566090345,-0.00701714958995581,-0.00335799250751734,0,
00:00:04.136,0.020212585106492,0.00319422013126314,0.014237686060368999,0,
00:00:04.14,-0.00562292197719216,-0.0009677143534645439,0.0134752206504345,0,
00:00:04.144,-0.01300841383636,-0.0194232221692801,-0.0178545210510492,0,
00:00:04.148,-0.00581728992983699,0.0048590200021863,-0.0228241216391325,0,
00:00:04.152,0.0112087363377213,-0.0011183492606505801,-0.0010483335936442,0,
00:00:04.156,0.0055542285554111,0.0172812081873417,0.0075389835983514794,0,
00:00:04.16,0.00450068013742566,0.00852979626506567,0.00394199043512344,0,
00:00:04.164,-0.00600479962304235,-0.007567651104181999,0.025435721501708,0,
00:00:04.168,0.0113413073122501,-0.00508814165368676,0.0155906919389963,0,
00:00:04.172,-0.00651022093370557,-0.00661654025316238,-0.0460321009159088,0,
00:00:04.176,-0.0229085721075535,-0.0153780244290829,-0.00398636190220714,0,
00:00:04.18,0.0266237370669842,0.0067622475326061205,0.0190400555729866,0,
00:00:04.184,-0.005344555247575039,0.0231372863054276,-0.00625723414123058,0,
00:00:04.188,-0.0168526768684387,0.0071723400615155706,-0.00757850101217628,0,
00:00:04.192,0.00747380312532187,-0.0123029770329595,-0.0072586699388921296,0,
00:00:04.196,0.0220544543117285,-0.00459194835275412,0.0311260540038347,0,
00:00:04.2,-0.012208042666316003,-0.00909084547311068,-0.0027064755558967603,0,
00:00:04.204,-0.0098165599629283,-0.00205303798429668,-0.0135827073827386,0,
00:00:04.208,-0.00210926099680364,-0.0018895835382863899,0.0170025583356619,0,
00:00:04.212,-0.00699992710724473,0.0162358526140451,-0.0086453640833497,0,
00:00:04.216,0.0353673845529556,0.019722118973731998,-0.0157040748745203,0,
00:00:04.22,-0.0188079755753279,-0.021849112585187,-0.005304737482219929,0,
00:00:04.224,-0.00715136574581265,-0.0037779489066451797,0.011129735969007,0,
00:00:04.228,0.007070454303175209,-0.0019468599930405602,0.000661415804643184,0,
00:00:04.232,0.0165841709822416,-0.0125708496198058,0.0016071166610345199,0,
00:00:04.236,-0.0195342339575291,0.015120760537683998,0.0135564869269729,0,
00:00:04.24,-0.0163414776325226,0.0032815658487379603,-0.0114272376522422,0,
00:00:04.244,0.008321810513734821,0.00665720878168941,0.0129923559725285,0,
00:00:04.248,0.008917874656617641,0.000321279891068116,-0.0125210070982575,0,
00:00:04.252,0.00725685246288776,-0.0047991881147027,-0.0146362027153373,0,
00:00:04.256,0.0029517023358494,-0.00149405444972217,0.00890233553946018,0,
00:00:04.26,-0.0159678962081671,-0.0156043814495206,0.000471988343633711,0,
00:00:04.264,0.0078743789345026,0.00435444712638855,0.0038283683825284204,0,
00:00:04.268,0.00122606416698545,-0.00231731194071472,0.0220928993076086,0,
00:00:04.272,0.0062626414000988,0.018811896443367,-0.024872412905096997,0,
00:00:04.276,-0.026833051815628995,0.0025969175621867197,-0.00982595793902874,0,
00:00:04.28,-0.0146822165697813,0.00357373617589474,0.00302463956177235,0,
00:00:04.284,0.0365391261875629,-0.0218780357390642,0.0102257058024406,0,
00:00:04.288,0.0364767611026764,5.23501803399995e-05,0.0213414411991835,0,
00:00:04.292,-0.0212907865643501,0.00134056073147804,-0.0067456285469234,0,
00:00:04.296,-0.0221494399011135,-0.000408804451581091,-0.0330666787922382,0,
00:00:04.3,-0.00733771501109004,0.00584279792383313,0.00778518803417683,0,
00:00:04.304,-0.00607696687802672,0.0158390831202269,0.0230934172868729,0,
00:00:04.308,-0.00100587261840701,0.000429328327300027,-0.016927994787693,0,
00:00:04.312,0.012534718029201001,-0.0215915143489838,-0.0065650399774313,0,
00:00:04.316,0.0175126902759075,-0.000182453848537989,0.009864639490842821,0,
00:00:04.32,0.00034514794242568303,0.008582510054111479,-0.00474582286551595,0,
00:00:04.324,-0.00292548583820462,0.00511737167835236,0.00241494760848582,0,
00:00:04.328,-0.0111824292689562,-0.0233821198344231,0.0326494351029396,0,
00:00:04.332,-0.00917504075914621,0.00131290324497968,-0.00900613982230425,0,
00:00:04.336,0.0036186242941767,0.0216429475694895,-0.0345513112843037,0,
00:00:04.34,-0.000659759272821248,0.00426423363387585,-0.0040497747249901295,0,
00:00:04.344,0.009110992774367329,-0.006262795999646189,0.0211609341204166,0,
00:00:04.348,0.00315978052094579,-0.0018452794756740301,4.7011842980282395e-05,0,
00:00:04.352,-0.0009218432242050769,-0.00421326467767358,-0.0125872120261192,0,
00:00:04.356,0.00988664571195841,-0.00031470091198571,-0.00255238963291049,0,
00:00:04.36,-0.0245207492262125,0.0044203880243003394,0.0110533833503723,0,
00:00:04.364,-0.0114527959376574,0.00035333359846845296,0.00918460171669722,0,
00:00:04.368,0.017104534432292002,-0.0216395314782858,0.0167981497943401,0,
00:00:04.372,0.0294152051210403,-0.008264464326202871,-0.0129619305953383,0,
00:00:04.376,-0.016420966014266,0.0392271168529987,-0.0268495064228773,0,
00:00:04.38,-0.018951466307043998,0.0038677603006362898,0.00156661320943385,0,
00:00:04.384,0.00595976924523711,0.00263433787040412,0.0112452367320657,0,
00:00:04.388,0.00340552651323378,-0.00315876328386366,0.00915114767849445,0,
00:00:04.392,0.006166763138026,-0.0238403454422951,-0.00758370803669095,0,
00:00:04.396,-0.0010120379738509698,-0.004100739490240811,-0.0154933333396912,0,
00:00:04.4,-0.0011721767950803,0.00362952100113034,0.0107441218569875,0,
00:00:04.404,0.0038395568262785703,-0.00532609736546874,0.0247227624058723,0,
00:00:04.408,-0.00403475528582931,0.007245338987559079,-0.00933128502219915,0,
00:00:04.412,-0.0306507665663958,0.013500259257853002,-0.0106100048869848,0,
00:00:04.416,0.0183813720941544,0.00551265152171254,-0.00114842737093568,0,
00:00:04.42,0.0240169484168291,-0.0113536696881056,0.00248068058863282,0,
00:00:04.424,-0.0101852184161544,-0.000967271043919027,-0.0019521515350788801,0,
00:00:04.428,-0.00516339018940926,0.00485902931541204,0.00230979756452143,0,
00:00:04.432,0.005871659610420471,-0.00202631810680032,-0.0103387674316764,0,
00:00:04.436,2.65446706180228e-05,-0.00613442342728376,-0.00445255264639854,0,
00:00:04.44,0.00107164855580777,-0.0028286292217671897,0.00160664727445692,0,
00:00:04.444,0.00534463068470359,0.00327883125282824,0.0321589969098568,0,
00:00:04.448,-0.0332938469946384,0.00324151921086013,0.00889828894287348,0,
00:00:04.452,0.00167202728334814,-0.000804440642241389,-0.0287804510444403,0,
00:00:04.456,0.0231186859309673,-0.0129831517115235,-0.0234064124524593,0,
00:00:04.46,0.00506778154522181,0.0143555598333478,0.0202441830188036,0,
00:00:04.464,0.00463026994839311,0.0128219500184059,0.0193713735789061,0,
00:00:04.468,-0.00688969343900681,-0.00607649562880397,-0.0204326305538416,0,
00:00:04.472,0.00111375143751502,-0.00858989357948303,-0.015018604695797,0,
00:00:04.476,-0.00698303850367665,0.0038139456883072896,0.017283882945776003,0,
00:00:04.48,-0.00574956275522709,-0.0056432667188346395,0.0030115267727524,0,
00:00:04.484,-0.00336477160453796,-0.00374723016284406,0.0047148335725069,0,
00:00:04.488,-0.0039891675114631705,0.0006058478029444809,-0.007372622843831779,0,
00:00:04.492,0.00482554081827402,-0.0009266902925446631,0.0219617877155542,0,
00:00:04.496,0.025735080242157,0.013479077257216003,-0.0253250356763601,0,
00:00:04.5,0.0120888724923134,-0.000851982447784394,-0.0115313157439232,0,
00:00:04.504,-0.0349409691989422,-0.0066178273409605,0.0183436367660761,0,
00:00:04.508,-0.0265943538397551,-0.00962127931416035,0.019499721005559,0,
00:00:04.512,0.0159480422735214,0.0107966810464859,-0.00368122034706175,0,
00:00:04.516,0.0340358875691891,0.0119367595762014,-0.0441898964345455,0,
00:00:04.52,0.00338083156384528,-1.48286126204766e-05,0.0038315935526043203,0,
00:00:04.524,0.00173441530205309,-0.0123006356880069,0.0132123492658138,0,
00:00:04.528,-0.0362648479640484,-0.0214027278125286,0.019128417596221,0,
00:00:04.532,-0.0066634290851652605,0.00629137177020311,-0.00331995263695717,0,
00:00:04.536,0.0187663733959198,0.0219260975718498,0.00516634341329336,0,
00:00:04.54,0.00135229411534965,-0.00048266566591337307,-0.00951543729752302,0,
00:00:04.544,-0.0114741586148739,-0.008721555583179,-0.005062261130660771,0,
00:00:04.548,0.0310823619365692,0.0138816395774484,0.0137111954391003,0,
00:00:04.552,-0.0017181609291583302,-0.000282180903013796,-0.0163831822574139,0,
00:00:04.556,-0.0284068379551172,-0.0204508826136589,0.00698050856590271,0,
00:00:04.56,-0.0188140328973532,0.0017749419203028102,-0.0105570172891021,0,
00:00:04.564,0.0311770141124725,0.00396493310108781,0.000712818116880953,0,
00:00:04.568,0.0204678010195494,-0.0007328455685637889,0.007765275891870259,0,
00:00:04.572,-0.0140207801014185,0.00980851799249649,-0.013267956674098998,0,
00:00:04.576,-0.0229395721107721,0.00147648144047707,0.0123624010011554,0,
00:00:04.58,-0.0009534956188872461,-0.007833165116608141,0.0225293338298798,0,
00:00:04.584,0.0204036664217711,-0.00476635992527008,0.0015972658293321698,0,
00:00:04.588,0.00876631122082472,0.00660306960344315,-0.0122719453647733,0,
00:00:04.592,-0.00281720818020403,0.00352622289210558,-0.0245343297719955,0,
00:00:04.596,-0.0120535604655743,-0.0055604767985642,-0.000309700146317482,0,
00:00:04.6,-0.00287473504431546,-0.00586311658844352,0.0181339606642723,0,
00:00:04.604,-0.0015776283107698,-0.0019549906719476,-0.000622546067461371,0,
00:00:04.608,0.0116848442703485,0.00820627622306347,-0.0150794768705964,0,
00:00:04.612,-0.00495795672759414,0.00410035997629166,-0.00513370987027884,0,
00:00:04.616,-0.0221537873148918,0.00498203095048666,0.0185338631272316,0,
00:00:04.62,0.0104662608355284,0.00102841679472476,0.0107936970889568,0,
00:00:04.624,0.031914234161377,-0.0111688924953341,0.00462522776797414,0,
00:00:04.628,-0.0037972731515765203,-0.0027322054374963,-0.0014550769701600099,0,
00:00:04.632,-0.0367690324783325,0.0026680284645408396,-0.0262521840631962,0,
00:00:04.636,0.00508775189518929,-0.0108317788690329,-0.005305880680680279,0,
00:00:04.64,0.0315289609134197,0.0137468418106437,0.0170527752488852,0,
00:00:04.644,-0.00419302145019174,-0.0013383690966293198,0.00152038037776947,0,
00:00:04.648,0.00443748058751225,-0.00159853289369494,-0.00615426618605852,0,
00:00:04.652,-0.0297645982354879,0.00099407893139869,-0.00344090652652085,0,
00:00:04.656,-0.0101501289755106,0.0145777147263288,0.0115337092429399,0,
00:00:04.66,0.0131433829665184,-0.0021054008975625,0.00834121648222208,0,
00:00:04.664,-0.00108972121961415,-0.0177187379449606,-0.0018868597690016,0,
00:00:04.668,0.0276599209755659,-0.00868730992078781,-0.00144711078610271,0,
00:00:04.672,0.00593678513541818,0.00919634196907282,-0.0214664693921804,0,
00:00:04.676,-0.0268356800079346,0.00879661645740271,-0.014820353128016,0,
00:00:04.68,-0.000527255819179118,0.0028445099014788896,0.0145222246646881,0,
00:00:04.684,-0.0025460533797740897,-0.00618682475760579,0.0259070415049791,0,
00:00:04.688,0.00511339772492647,0.000214484607568011,0.000945469655562192,0,
00:00:04.692,0.0037542786449194,0.000446789170382544,-0.00340327899903059,0,
00:00:04.696,-0.0015744619304314301,-0.0129983415827155,-0.00488466257229447,0,
00:00:04.7,0.00665117660537362,0.0171252600848675,-0.0147124119102955,0,
00:00:04.704,-0.0102726994082332,-0.00293260090984404,0.0051332269795239,0,
00:00:04.708,-0.0121852979063988,0.0061928392387926605,-0.00312586058862507,0,
00:00:04.712,0.0222048629075289,-0.0145452162250876,0.0023352527059614697,0,
00:00:04.716,-0.00533574540168047,0.0123719563707709,-0.00841489154845476,0,
00:00:04.72,-0.0143407033756375,-0.00906143989413977,0.0230831392109394,0,
00:00:04.724,0.0222639981657267,-0.00580120040103793,0.0068987850099802,0,
00:00:04.728,-0.00358162703923881,0.00602281978353858,-0.0145166153088212,0,
00:00:04.732,-0.0111172879114747,0.00807516183704138,-0.000439015944721177,0,
00:00:04.736,0.00520841032266617,2.6722518668975698e-05,-0.0008654206176288429,0,
00:00:04.74,0.00672837719321251,-0.0093415779992938,-0.015306749381125,0,
00:00:04.744,0.00218995870091021,0.0112501410767436,0.00709596509113908,0,
00:00:04.748,-0.00651868805289268,-0.00230811419896781,0.000592162425164133,0,
00:00:04.752,0.0121017815545201,-0.018230564892292,-0.000885339395608753,0,
00:00:04.756,-0.0454084314405918,0.008077019825577741,0.0129667306318879,0,
00:00:04.76,0.0017788679106161,0.0156976357102394,0.0131900617852807,0,
00:00:04.764,0.0332545526325703,-0.0153635907918215,-0.0038615227676928,0,
00:00:04.768,0.0131887579336762,0.004384070634841921,-0.0115620214492083,0,
00:00:04.772,0.000124439698993228,0.0069800247438252,-0.0141858663409948,0,
00:00:04.776,-0.00862941425293684,0.0025140636134892698,-0.0104459980502725,0,
00:00:04.78,-0.0202683322131634,-0.0126314535737038,0.00657059391960502,0,
00:00:04.784,0.00802490301430225,-0.009014180861413479,0.0189698096364737,0,
00:00:04.788,0.0013325515901669901,0.00169623759575188,0.007995994761586191,0,
00:00:04.792,0.00643949257209897,0.009862345643341541,-0.00789117626845837,0,
00:00:04.796,-0.0135281765833497,0.0158396977931261,0.0100715020671487,0,
00:00:04.8,0.00815764162689447,-0.00188619224354625,-0.00882023945450783,0,
00:00:04.804,-0.00125381874386221,-0.0110132042318583,-0.0230863764882088,0,
00:00:04.808,0.0021108114160597303,-0.012142057530581998,0.0152384759858251,0,
00:00:04.812,0.00649418728426099,-0.00399782368913293,0.00530942669138312,0,
00:00:04.816,0.00113241630606353,0.0161840505897999,-0.0071073155850172,0,
00:00:04.82,-0.00574879860505462,0.0179337989538908,-0.007298412267118691,0,
00:00:04.824,-0.0069823400117456896,-0.019510593265294997,0.00028781616128981097,0,
00:00:04.828,0.0108468141406775,-0.0120631922036409,0.0285292770713568,0,
00:00:04.832,-0.013160053640603998,0.008594685234129429,-0.0049873809330165395,0,
00:00:04.836,-0.0038978138472884898,-0.0047894185408949895,-0.00968018360435963,0,
00:00:04.84,0.00490235909819603,0.000702733115758747,0.0033382773399353,0,
00:00:04.844,0.007571416907012459,0.0248012151569128,-0.0182804092764854,0,
00:00:04.848,0.0321484170854092,0.0031136150937527396,0.00138318876270205,0,
00:00:04.852,-0.0309259593486786,-0.029816972091794,0.00510034849867225,0,
00:00:04.856,-0.019718786701560003,0.00439587933942676,-0.0109944799914956,0,
00:00:04.86,0.0261938665062189,0.00289372657425702,0.0255449339747429,0,
00:00:04.864,-0.0256406292319298,-0.00307518872432411,0.0286412294954062,0,
00:00:04.868,-0.0041814842261374,0.00196434604004025,-0.0287905801087618,0,
00:00:04.872,0.022311108186841,0.0030697907786816398,-0.0321685150265694,0,
00:00:04.876,0.0215887613594532,-0.00219273916445673,0.0041027483530342605,0,
00:00:04.88,-0.00299269543029368,0.00840267352759838,0.0122922388836741,0,
00:00:04.884,-0.0133539093658328,0.0047117914073169205,0.0128504494205117,0,
00:00:04.888,-0.009963990189135071,-0.0162473544478416,0.0152808129787445,0,
00:00:04.892,-0.0134542556479573,-0.00188330002129078,-0.0289561059325933,0,
00:00:04.896,-0.006807970348745579,0.007888827472925191,0.0143886283040047,0,
00:00:04.9,0.0193271320313215,-0.00615964271128178,-0.00449295761063695,0,
00:00:04.904,0.0242313221096992,0.00257990206591785,-0.00225088861770928,0,
00:00:04.908,-0.00612251926213503,0.00851946976035833,-0.006173804402351379,0,
00:00:04.912,-0.00586318224668503,0.00684125628322363,-0.0056077903136611,0,
00:00:04.916,-0.0050769974477589104,-0.0009234984754584731,0.00909320544451475,0,
00:00:04.92,-0.0304158534854651,-0.0268475878983736,-0.000488767866045237,0,
00:00:04.924,0.0262968856841326,-0.007546956650912759,0.0139645459130406,0,
00:00:04.928,0.00704808067530394,0.0302891340106726,-0.00415716180577874,0,
00:00:04.932,-0.0135346371680498,0.00108868756797165,0.0057005574926734,0,
00:00:04.936,0.017088059335947,-0.0144101651385427,-0.0174185633659363,0,
00:00:04.94,0.0100884083658457,0.00562505982816219,-0.00767951738089323,0,
00:00:04.944,-0.0223256386816502,0.0162441004067659,0.00890366081148386,0,
00:00:04.948,-0.00764418300241232,-0.0134136294946074,0.00139636429958045,0,
00:00:04.952,-3.25547625834588e-05,-0.0116559332236648,-0.011026063002646002,0,
00:00:04.956,0.00767001882195473,0.00657105864956975,0.0284874495118856,0,
00:00:04.96,0.0148057090118527,-0.000540118780918419,-0.00444987323135138,0,
00:00:04.964,-0.0118783907964826,0.000195187341887504,0.00225831568241119,0,
00:00:04.968,-0.0186098255217075,0.0018435853999108102,-0.00702810287475586,0,
00:00:04.972,0.0233926828950644,0.0125079061836004,-0.0237128920853138,0,
00:00:04.976,0.0190545152872801,-0.00661143101751804,0.00616366742178798,0,
00:00:04.98,-0.0128984954208136,-0.00610199337825179,0.013139208778738998,0,
00:00:04.984,-0.0075491419993341,-0.007384771946817641,-0.00829365756362677,0,
00:00:04.988,-0.0234700888395309,-0.000329563801642507,0.00412097712978721,0,
00:00:04.992,-0.0011063648853451,0.00487068481743336,0.0103519568219781,0,
00:00:04.996,0.0180703178048134,0.00353366578929126,0.00331969023682177,0,
00:00:05,0.0113040739670396,0.0135126141831279,-0.00794951803982258,0,
00:00:05.004,0.004553129430860279,-0.00195980654098094,0.0017654615221545102,0,
00:00:05.008,0.000715773436240852,-0.00809627305716276,-0.0116447228938341,0,
00:00:05.012,-0.0232880357652903,-0.00909466668963432,-0.00885239616036415,0,
00:00:05.016,-0.0012802154524251801,-0.007030651904642579,0.0223482865840197,0,
00:00:05.02,0.0173960961401463,0.00872677564620972,0.00499562406912446,0,
00:00:05.024,-0.0031573653686791697,0.006092910189181571,-0.0134872505441308,0,
00:00:05.028,-0.0115331616252661,-0.0037440757732838397,-0.00572152202948928,0,
00:00:05.032,0.000122261961223558,0.0158479399979115,0.007859287783503529,0,
00:00:05.036,0.0271097756922245,-0.015145025216043,-0.009483409114181999,0,
00:00:05.04,-0.005196394398808479,-0.0016699383268132801,0.0256717707961798,0,
00:00:05.044,-0.0174447111785412,0.0041538048535585395,-0.00815180782228708,0,
00:00:05.048,-0.00496733793988824,-0.000276861217571422,-0.0143133020028472,0,
00:00:05.052,0.0018639666959643399,0.0007732615922577679,-0.0137278093025088,0,
00:00:05.056,1.7373525906805303e-06,0.00556386634707451,0.0196199826896191,0,
00:00:05.06,-0.0029432012233883103,-0.02607904933393,0.0179832521826029,0,
00:00:05.064,0.0168383065611124,0.0117019210010767,-0.0102311791852117,0,
00:00:05.068,-0.0018474385142326398,0.0139803504571319,-0.0140860695391893,0,
00:00:05.072,0.00441565504297614,0.000477360212244093,-0.0047502904199063795,0,
00:00:05.076,0.00110076065175235,0.000273852376267314,0.00999127887189388,0,
00:00:05.08,-0.0033133479300886397,-0.0054508289322257,0.00501038832589984,0,
00:00:05.084,-0.00511615397408605,-0.004834144841879611,-0.0016973753226921,0,
00:00:05.088,-0.03108274564147,-0.00178734585642815,-0.0125649785622954,0,
00:00:05.092,0.0218953117728233,0.00924438145011663,0.000750631152186543,0,
00:00:05.096,0.0071969092823565,-0.0140490867197514,0.0309948436915874,0,
00:00:05.1,0.004739230964332821,0.00740410247817636,-0.005622488912194971,0,
00:00:05.104,-0.00930771976709366,0.00699486909434199,-0.00408765114843845,0,
00:00:05.108,0.0060901250690221795,-0.0073668309487402404,-0.0278352219611406,0,
00:00:05.112,0.019923597574234,-0.00579951051622629,-0.0123024769127369,0,
00:00:05.116,-0.0115245841443539,0.0103380847722292,0.0298355557024479,0,
00:00:05.12,-0.0231743957847357,0.0127180647104979,0.0189410224556923,0,
00:00:05.124,0.00307302549481392,-0.0173144172877073,-0.00965791288763285,0,
00:00:05.128,0.0124268345534801,-0.00644672103226185,-0.0276282150298357,0,
00:00:05.132,-0.005122920032590629,0.004440231714397671,0.0094497948884964,0,
00:00:05.136,0.0011356690665707,0.0119739510118961,0.0020694222766906,0,
00:00:05.14,0.00447397492825985,0.007357889320701359,0.0100802145898342,0,
00:00:05.144,-0.00272350339218974,-0.0151131460443139,0.0091868108138442,0,
00:00:05.148,-0.0018768314039334698,-0.014967342838645,-0.007675654720515009,0,
00:00:05.152,0.00659846933558583,0.0055080745369195895,-0.00219467026181519,0,
00:00:05.156,-0.00235336110927165,0.0115248700603843,-0.00940724089741707,0,
00:00:05.16,0.000598564569372684,0.00789341423660517,-0.00168529932852834,0,
00:00:05.164,-0.00148414704017341,-0.00500420248135924,0.00694016180932522,0,
00:00:05.168,-0.0151559226214886,-0.00611744867637753,0.00194542692042887,0,
00:00:05.172,-0.0026242434978485103,-0.00488310260698199,-0.0130287427455187,0,
00:00:05.176,0.0296015217900276,0.00461272802203894,0.006517811212688679,0,
00:00:05.18,-0.000164543802384287,0.00393583858385682,0.0068187993019819294,0,
00:00:05.184,-0.00717134214937687,-0.00344869052059948,0.037179958075285006,0,
00:00:05.188,-0.007485948968678709,-0.0017579378327354802,-0.0229941923171282,0,
00:00:05.192,-0.0123801399022341,0.00522294826805592,-0.0405251607298851,0,
00:00:05.196,-0.00263092247769237,0.0107197389006615,-0.0145437568426132,0,
00:00:05.2,0.033257219940424,-0.0217951275408268,0.0261114053428173,0,
00:00:05.204,-0.00215640221722424,-0.00610008276998997,0.0412134416401386,0,
00:00:05.208,-0.0308098923414946,0.012512787245214,-0.0216079428792,0,
00:00:05.212,0.00874462258070707,0.008022313937544821,-0.0147909913212061,0,
00:00:05.216,0.018772354349493998,0.00601450400426984,0.0133987283334136,0,
00:00:05.22,-0.00562702165916562,-0.00224043452180922,-0.00916180945932865,0,
00:00:05.224,0.00216223322786391,-0.00688587594777346,0.0017979723634198301,0,
00:00:05.228,0.00134448055177927,-0.012556329369544999,0.0246853195130825,0,
00:00:05.232,-0.033012468367815,-0.00105255434755236,-0.00734627526253462,0,
00:00:05.236,-0.00746841495856643,0.0138014787808061,-0.0288389846682549,0,
00:00:05.24,0.0275888629257679,0.0026096019428223398,-0.00570754567161202,0,
00:00:05.244,0.0297303311526775,-0.00263776537030935,0.00959174428135157,0,
00:00:05.248,0.000287087052129209,-0.00965098291635513,0.00441078376024961,0,
00:00:05.252,-0.0212198570370674,0.00399566208943725,0.0176859553903341,0,
00:00:05.256,-0.0139872208237648,0.00694597000256181,-0.00307917664758861,0,
00:00:05.26,-0.00571388751268387,-0.00448659621179104,-0.013859405182302,0,
00:00:05.264,0.00779499625787139,-0.00513141555711627,0.00714527210220695,0,
00:00:05.268,0.0100379521027207,0.0109639558941126,-0.00816715601831675,0,
00:00:05.272,-0.0026512888725847,0.0004991995519958441,0.00741463294252753,0,
00:00:05.276,0.0036906818859279203,-0.0163675881922245,-0.00386958825401962,0,
00:00:05.28,-0.00771441450342536,0.010095901787281,0.00429866509512067,0,
00:00:05.284,0.0092923678457737,0.0103330193087459,0.0124303800985217,0,
00:00:05.288,0.0011913392227143,-0.0144523354247212,-0.0134441163390875,0,
00:00:05.292,-0.0357267372310162,-0.0032923063263297103,-0.0216506011784077,0,
00:00:05.296,0.0283957794308662,0.0183265749365091,0.0165573135018349,0,
00:00:05.3,0.0178105141967535,-0.0085047772154212,0.0118169132620096,0,
00:00:05.304,-0.010714397765696,-0.0124078877270222,-0.0152319464832544,0,
00:00:05.308,-0.00499437563121319,0.0153996022418141,0.00435640662908554,0,
00:00:05.312,0.00309341587126255,-0.004489315208047629,0.021209791302681,0,
00:00:05.316,-0.0201029293239117,-0.00255579245276749,-0.0174915008246899,0,
00:00:05.32,0.00667299097403884,0.00218576937913895,-0.009281395003199579,0,
00:00:05.324,0.0184840261936188,0.007795650977641341,0.0063917888328433,0,
00:00:05.328,-0.015473673120141002,-0.0081477640196681,0.00125359906814992,0,
00:00:05.332,-0.00182536814827472,-0.00824317801743746,-0.00170860206708312,0,
00:00:05.336,0.0155104752629995,0.008084518834948541,0.00664195977151394,0,
00:00:05.34,0.00606184592470527,0.0077345413155853705,-0.00386637263000011,0,
00:00:05.344,-0.0113890143111348,-0.00649922480806708,-0.00297285942360759,0,
00:00:05.348,-0.011738539673387999,-0.0035409887786954602,0.00230180518701673,0,
00:00:05.352,0.00378311914391816,-0.0131295053288341,0.00836633425205946,0,
00:00:05.356,0.00928084831684828,0.0171149652451277,-0.00344929262064397,0,
00:00:05.36,-0.00809652172029018,0.00750643899664283,-0.00990311615169048,0,
00:00:05.364,-0.0125661659985781,-0.00727069936692715,0.0130682159215212,0,
00:00:05.368,0.0125413695350289,-0.00114349985960871,-0.0169141031801701,0,
00:00:05.372,0.0225946940481663,0.0022136792540550197,-0.00166082882788032,0,
00:00:05.376,0.00819088891148567,-0.00833988841623068,0.00814256630837917,0,
00:00:05.38,-0.0341266207396984,0.0038115412462502705,0.000631419592536986,0,
00:00:05.384,-0.031599085777998,0.0105200186371803,0.0142094362527132,0,
00:00:05.388,0.0326968058943748,-0.0151214301586151,0.00132088921964169,0,
00:00:05.392,0.0288933701813221,0.0118520623072982,-0.0261189863085747,0,
00:00:05.396,-0.00673559308052063,-0.00241588265635073,0.009070368483662609,0,
00:00:05.4,-0.0206620302051306,-0.006782057695090771,0.00357428449206054,0,
00:00:05.404,0.00291376910172403,0.00389771396294236,-0.00300946668721735,0,
00:00:05.408,-0.00033957269624806897,0.000417943898355588,0.00609186384826899,0,
00:00:05.412,-0.00888729095458984,-0.00923528894782066,-0.00113419268745929,0,
00:00:05.416,0.00610339781269431,0.009164870716631409,0.00854078587144613,0,
00:00:05.42,0.0219939351081848,0.000308202492306009,-0.0022384892217814896,0,
00:00:05.424,-0.006310421973466871,-0.000695923983585089,-0.00539898732677102,0,
00:00:05.428,-0.0225791670382023,0.000166561629157513,-0.0229380186647177,0,
00:00:05.432,-0.00992025155574083,0.00273302034474909,0.00367289548739791,0,
00:00:05.436,0.0217348095029593,0.00678221136331558,0.0209314785897732,0,
00:00:05.44,0.0106683121994138,-0.0033737053163349602,-0.00811057165265083,0,
00:00:05.444,-0.00428468780592084,-0.0110582308843732,0.0171543210744858,0,
00:00:05.448,-0.005961426999419929,-0.0177185349166393,0.00577312102541327,0,
00:00:05.452,0.0156958401203156,0.0241309050470591,-0.0288712624460459,0,
00:00:05.456,-0.0301271118223667,-0.000872860196977854,-0.0137667683884501,0,
00:00:05.46,0.0173712708055973,0.0015581655316054801,0.0230815671384335,0,
00:00:05.464,-0.0141824902966619,0.00317995576187968,0.0243760067969561,0,
00:00:05.468,0.0025735388044267897,0.00393502321094275,-0.0161557327955961,0,
00:00:05.472,0.0115878311917186,-0.00684110494330525,-0.0352823697030544,0,
00:00:05.476,-0.00476676132529974,-0.00652313185855746,0.0316383801400661,0,
00:00:05.48,0.0080629475414753,-0.00017769962141756,0.0101507231593132,0,
00:00:05.484,-0.0033406864386051898,-0.00252382946200669,-0.0235175490379334,0,
00:00:05.488,0.00211205310188234,0.00133326696231961,0.0123511757701635,0,
00:00:05.492,-0.00749374879524112,0.00602356204763055,-0.000261757406406105,0,
00:00:05.496,0.0040694116614759,0.00793169718235731,-0.0118854297325015,0,
00:00:05.5,-0.00483081908896565,-0.0080017801374197,0.0138062685728073,0,
00:00:05.504,-0.0006983560160733759,-0.00155242416076362,0.0109758460894227,0,
00:00:05.508,0.00125877745449543,0.00244001857936382,-0.0288167279213667,0,
00:00:05.512,-0.0129056740552187,0.002627769485116,-0.008753702044487,0,
00:00:05.516,0.0253056678920984,-0.00134806020651013,0.023231104016304002,0,
00:00:05.52,-0.00012149100803071599,-0.0117148961871862,0.0044279913417995,0,
00:00:05.524,-0.00314987311139703,-0.00109710858669132,0.0068203001283109205,0,
00:00:05.528,-0.0117139685899019,0.0054735345765948296,-0.0122191431000829,0,
00:00:05.532,-0.011241870932281002,0.00631968956440687,-0.0102004744112492,0,
00:00:05.536,0.0168560389429331,0.005624127574265001,0.0146669577807188,0,
00:00:05.54,0.00911820400506258,0.00638388143852353,0.00100792362354696,0,
00:00:05.544,-0.0009390948689542711,-0.009663947857916359,-0.0147147634997964,0,
00:00:05.548,-0.0123513583093882,-0.00930294394493103,0.00988211296498775,0,
00:00:05.552,-0.0103528974577785,-0.009457446634769441,-0.00776908174157143,0,
00:00:05.556,0.0265913959592581,0.0121929282322526,0.0248154923319817,0,
00:00:05.56,-0.00657955324277282,0.00732716452330351,-0.0185993742197752,0,
00:00:05.564,-0.0274116676300764,0.00090775900753215,-0.00815260969102383,0,
00:00:05.568,0.009274355135858059,-0.0133047001436353,0.0130866104736924,0,
00:00:05.572,0.0172429028898478,0.006339014973491429,-0.007135408930480479,0,
00:00:05.576,0.0038846547249704604,0.00609793467447162,-0.009436138905584809,0,
00:00:05.58,0.007823590189218521,0.000665107101667672,0.000974423834122717,0,
00:00:05.584,-0.00791953504085541,-0.0114599363878369,0.0245237480849028,0,
00:00:05.588,-0.0194838605821133,0.00207066163420677,-0.0036711324937641603,0,
00:00:05.592,0.00311897741630673,0.00845946650952101,-0.0174699556082487,0,
00:00:05.596,0.0018347393488511398,0.00238453899510205,-0.00166076037567109,0,
00:00:05.6,0.000417918869061396,-0.00341526558622718,0.0205964967608452,0,
00:00:05.604,-0.0016686322633177,-0.0195717252790928,-0.00114972807932645,0,
00:00:05.608,0.0113675892353058,0.00223963358439505,-0.0185306221246719,0,
00:00:05.612,0.00153461447916925,0.0106632011011243,0.0137062119320035,0,
00:00:05.616,0.0016039952170103801,0.0215355660766363,0.00254735979251564,0,
00:00:05.62,-0.00703287124633789,-0.0023330869153142,-0.0239947121590376,0,
00:00:05.624,-0.005201782565563921,-0.0156367849558592,0.00498923286795616,0,
00:00:05.628,0.00127490726299584,-0.00813555344939232,0.0151615338400006,0,
00:00:05.632,0.00440228777006269,-0.000829660391900688,-0.00554526969790459,0,
00:00:05.636,0.0035255285911262,0.0138115305453539,-0.00108308473136276,0,
00:00:05.64,-0.0054312227293849,-0.0097752520814538,0.00882172025740147,0,
00:00:05.644,-0.00811457261443138,-0.00559950340539217,0.0054267356172204,0,
00:00:05.648,0.00178745645098388,0.0070709707215428404,0.0113573763519526,0,
00:00:05.652,0.00974131189286709,0.000799506029579788,-0.0357314646244049,0,
00:00:05.656,-0.0035024972166866103,0.0145813478156924,-0.0100701432675123,0,
00:00:05.66,0.00226056342944503,0.0014533196808770301,0.00976256001740694,0,
00:00:05.664,-0.00021402456331998102,-0.0138053921982646,0.019470252096653002,0,
00:00:05.668,0.00590534275397658,-0.007197168655693529,0.00212184246629477,0,
00:00:05.672,0.00226594926789403,-0.006705257575958971,-0.0142458789050579,0,
00:00:05.676,-0.00462417118251324,0.0113609414547682,0.00369317783042789,0,
00:00:05.68,-0.0193756632506847,0.00897431466728449,0.0183688420802355,0,
00:00:05.684,-0.00526757119223475,-0.0026886526029557,0.013171311467886,0,
00:00:05.688,0.0106003358960152,-0.00396085856482387,-0.0352983064949512,0,
00:00:05.692,0.0272429343312979,-0.00178719463292509,-0.0224797930568457,0,
00:00:05.696,-0.00057767512043938,0.004500278737396,0.00816934090107679,0,
00:00:05.7,-0.0112344902008772,0.0035375477746129,0.0121775446459651,0,
00:00:05.704,-0.0061801765114069,-0.00399483833462,0.0156392809003592,0,
00:00:05.708,-0.0126135246828198,-0.0026387544348835897,-0.00802596658468246,0,
00:00:05.712,-0.0044871480204165,-0.00625115679576993,0.013026618398726002,0,
00:00:05.716,0.0148352682590485,-0.0073848064057529,0.0022803044412285103,0,
00:00:05.72,0.0171426571905613,0.00315078650601208,0.00555197475478053,0,
00:00:05.724,-0.0127404369413853,0.0175873842090368,-0.0272449422627687,0,
00:00:05.728,-0.00603215210139751,0.00866158772259951,-0.00784326624125242,0,
00:00:05.732,0.0142653891816735,-0.00290898443199694,-0.00335854617878795,0,
00:00:05.736,-0.0134105021134019,-0.000262240850133821,0.0104267252609134,0,
00:00:05.74,-0.0152703253552318,-0.0301580149680376,0.008388282731175421,0,
00:00:05.744,0.0219819843769073,-0.00036002567503601296,-0.0036163318436592796,0,
00:00:05.748,-0.0222501363605261,0.0176209565252066,0.0168801490217447,0,
00:00:05.752,0.009619396179914471,0.000740783871151507,-0.00131488952320069,0,
00:00:05.756,0.0321517623960972,0.0101169617846608,-0.0211109295487404,0,
00:00:05.76,0.0133081804960966,0.00620877975597978,0.0102261686697602,0,
00:00:05.764,-0.0318786315619946,-0.0304895434528589,0.008834489621222021,0,
00:00:05.768,-0.0140262106433511,0.0086565762758255,-0.0108554381877184,0,
00:00:05.772,0.00294899474829435,0.00891234539449215,-0.0214988589286804,0,
00:00:05.776,-0.0135035878047347,0.00462376838549972,0.008506246842443941,0,
00:00:05.78,0.00994975306093693,-0.00030674968729727003,0.0141509035602212,0,
00:00:05.784,0.0120420940220356,-0.0116139836609364,0.0166098605841398,0,
00:00:05.788,-0.00253664166666567,-0.0228566024452448,-0.00746212247759104,0,
00:00:05.792,0.0154007263481617,0.0152378436177969,-0.00686413561925292,0,
00:00:05.796,0.0028151490259915603,0.0372780971229076,-0.00579025084152818,0,
00:00:05.8,-0.0344719029963017,-0.00957475695759058,-0.00932009611278772,0,
00:00:05.804,-0.0218972079455853,-0.0131410621106625,-0.000360314414137974,0,
00:00:05.808,0.0291893370449543,-0.0174103491008282,0.0107251247391105,0,
00:00:05.812,0.0437174439430237,0.00935174897313118,0.0119514018297195,0,
00:00:05.816,0.000362538878107443,0.00276110647246242,-0.00885729677975178,0,
00:00:05.82,-0.0229164939373732,-0.004778191447258,-0.00473081134259701,0,
00:00:05.824,-0.0193229280412197,0.00511569995433092,0.0166374165564775,0,
00:00:05.828,-0.0277561563998461,0.0202083345502615,-0.0196812096983194,0,
00:00:05.832,0.0271795578300953,-0.0157209821045399,-0.007067732978612179,0,
00:00:05.836,0.007511233910918241,-0.0066684428602457,0.00012354196223896002,0,
00:00:05.84,-0.004027301445603371,0.00137232826091349,0.0309683792293072,0,
00:00:05.844,0.004913518205285071,-0.00609620101749897,-0.00615546433255076,0,
00:00:05.848,0.007325639482587579,0.00882267113775015,0.00195792503654957,0,
00:00:05.852,0.00181594991590828,0.0063427216373384,-0.0227111168205738,0,
00:00:05.856,-0.0033218448515981397,-0.00820769090205431,-0.00505135953426361,0,
00:00:05.86,0.0053147175349295105,0.00412079505622387,-0.0035396919120103103,0,
00:00:05.864,-0.00329680601134896,0.006601048633456229,0.0130858458578587,0,
00:00:05.868,-0.0318346843123436,-0.0158557668328285,0.0116047663614154,0,
00:00:05.872,0.0139586133882403,0.007411418016999959,0.00586851127445698,0,
00:00:05.876,0.00506638316437602,-0.000811986566986889,-0.000723244273103774,0,
00:00:05.88,-0.00866872817277908,0.00254776841029525,-0.011160490103066002,0,
00:00:05.884,0.0191623214632273,-0.0103081297129393,-0.00601071817800403,0,
00:00:05.888,0.013752625323831999,0.00371786300092936,-0.0076262182556092704,0,
00:00:05.892,-0.00834464654326439,0.00586783792823553,0.00341800996102393,0,
00:00:05.896,-0.0117571894079447,0.015453178435564,0.0178138893097639,0,
00:00:05.9,-0.0129317017272115,-0.0164023004472256,0.00218549952842295,0,
00:00:05.904,0.0200373288244009,-0.0185183547437191,-0.0059719695709645705,0,
00:00:05.908,0.0027910447679459997,0.0160498023033142,-0.0235277600586414,0,
00:00:05.912,-0.0335300527513027,-0.0018558044685050802,0.0182152781635523,0,
00:00:05.916,0.0120583008974791,0.00412736553698778,-0.00319495657458901,0,
00:00:05.92,0.02580301836133,0.0123385284096003,0.0190880186855793,0,
00:00:05.924,0.00196740310639143,-0.00042350724106654503,-0.0165448971092701,0,
00:00:05.928,-0.00473409425467253,0.000639153178781271,-0.007520029786974191,0,
00:00:05.932,-0.0279318410903215,-0.0240883473306894,-0.00486415019258857,0,
00:00:05.936,-0.00468748342245817,-0.008884372189640999,0.0174885876476765,0,
00:00:05.94,0.0191974174231291,0.0101164998486638,0.0223949123173952,0,
00:00:05.944,0.0308771915733814,0.0160780660808086,-0.0223647486418486,0,
00:00:05.948,-0.0239929333329201,0.00844650808721781,-0.0270670261234045,0,
00:00:05.952,-0.0114984586834908,-0.00737667270004749,0.0009668806451372801,0,
00:00:05.956,0.0049040392041206395,-0.0256463643163443,0.0376115068793297,0,
00:00:05.96,-0.0123736560344696,0.0132870208472013,0.0092861745506525,0,
00:00:05.964,0.0116787264123559,0.0198251903057098,-0.0230962708592415,0,
00:00:05.968,0.0188510324805975,-0.0112605206668377,-0.0185057613998652,0,
00:00:05.972,-0.0181321240961552,-0.0188211817294359,0.017323337495327,0,
00:00:05.976,0.00533092021942139,0.0146306520327926,-0.01407475117594,0,
00:00:05.98,0.00148119824007154,0.0158486217260361,0.0108563583344221,0,
00:00:05.984,-0.0130750518292189,-0.00149860081728548,0.0122576113790274,0,
00:00:05.988,-0.00011856516357511298,-0.0266366191208363,0.00427422672510147,0,
00:00:05.992,0.00976508669555187,-0.00811571534723043,-0.0200790073722601,0,
00:00:05.996,0.0118714170530438,0.0229478925466537,-0.0055524162016809,0,
00:00:06,0.00380955659784377,0.0164001788944006,0.0065801236778497705,0,
00:00:06.004,-0.0188596025109291,-0.01358937099576,0.0178105011582375,0,
00:00:06.008,-0.0355697274208069,-0.00788128096610308,-0.0147006902843714,0,
00:00:06.012,0.0255654100328684,-0.0020627055782824802,0.0093887085095048,0,
00:00:06.016,0.0237420815974474,-0.00250206026248634,-0.009124257601797579,0,
00:00:06.02,-0.00304277800023556,-0.00155175826512277,0.0165951754897833,0,
00:00:06.024,0.0037875280249863898,0.0195355359464884,-0.0229508951306343,0,
00:00:06.028,-0.00256391637958586,0.00590014643967152,-0.0112246787175536,0,
00:00:06.032,-0.00528021482750773,-0.00817288551479578,-0.00805132277309895,0,
00:00:06.036,-0.0193358324468136,-0.00173948088195175,0.0255537983030081,0,
00:00:06.04,-0.00125055538956076,-0.025906203314662004,0.038579061627388,0,
00:00:06.044,0.0313327796757221,0.00316350325010717,-0.0123008908703923,0,
00:00:06.048,-0.0206009652465582,0.00824179407209158,-0.0191508680582047,0,
00:00:06.052,-0.0132325300946832,0.0159243196249008,-0.0208887793123722,0,
00:00:06.056,0.0230631325393915,0.008795817382633691,-0.0035394839942455296,0,
00:00:06.06,0.007777568418532609,0.000947602326050401,0.00332731916569173,0,
00:00:06.064,-0.0155047085136175,-0.0257179886102676,0.011966897174716001,0,
00:00:06.068,0.0110676446929574,-0.00397344725206494,0.0100628202781081,0,
00:00:06.072,-0.00799762830138206,-0.0006287811556831,-0.00043410109356045696,0,
00:00:06.076,0.0061238668859005,0.0106920404359698,-0.00219441275112331,0,
00:00:06.08,-0.0035401445347815795,0.0171098429709673,0.0192084815353155,0,
00:00:06.084,-0.0200181864202023,-0.0178259685635567,0.00851097982376814,0,
00:00:06.088,0.008723767474293709,0.0151494685560465,-0.0445132553577423,0,
00:00:06.092,0.0179501064121723,-0.0030364366248249995,-0.0354916267096996,0,
00:00:06.096,-0.00902572367340326,-0.00880708638578653,0.0300191938877106,0,
00:00:06.1,-0.000571064534597099,-0.0065501593053340895,0.0327876172959805,0,
00:00:06.104,0.00551623478531837,-0.00364305009134114,-0.0100354682654142,0,
00:00:06.108,0.000849656120408326,0.0043377475813031205,-0.00919120572507381,0,
00:00:06.112,0.000625518383458257,0.00540241459384561,0.00682689901441336,0,
00:00:06.116,-0.0145742753520608,0.00316491932608187,0.0249701105058193,0,
00:00:06.12,-0.0227644015103579,-0.0058206785470247295,-0.0150380665436387,0,
00:00:06.124,0.0324842520058155,-0.00371738499961793,-0.0224986113607883,0,
00:00:06.128,0.00772333005443215,0.0069465162232518205,-0.00182628363836557,0,
00:00:06.132,0.00652372604236007,0.0078016258776187905,0.0143390847370028,0,
00:00:06.136,0.00887104403227568,0.0114235570654273,-0.00572143821045756,0,
00:00:06.14,-0.0356697924435139,-0.0120293647050858,0.00491998717188835,0,
00:00:06.144,-0.0147404568269849,-0.0218090359121561,0.0030147824436426197,0,
00:00:06.148,0.0062955874018371105,-0.00630396185442805,-0.0154783008620143,0,
00:00:06.152,0.0275732353329659,0.0163380485028028,-0.0035943409893661703,0,
00:00:06.156,0.0318219177424908,0.0129908565431833,0.037386566400528,0,
00:00:06.16,-0.0513854846358299,0.000685918959788978,-0.0102607905864716,0,
00:00:06.164,-0.0123473899438977,-0.00683190813288093,-0.00346759962849319,0,
00:00:06.168,0.0262674242258072,0.0052100783213973,-0.0269795246422291,0,
00:00:06.172,0.007241552229970691,-0.0132070053368807,0.00251948786899447,0,
00:00:06.176,-0.0115306628867984,-0.006796633824706079,0.0182011108845472,0,
00:00:06.18,0.0018280971562489898,0.015378488227725001,0.0119894640520215,0,
00:00:06.184,0.0085068242624402,-0.0022888537496328397,-0.00343935727141798,0,
00:00:06.188,-0.0125234927982092,-0.0054545090533793,-0.0255965776741505,0,
00:00:06.192,-0.0072353663854301,0.00597032019868493,0.00447833957150579,0,
00:00:06.196,0.0167358368635178,0.00392921082675457,0.00845556799322367,0,
00:00:06.2,-0.00690284511074424,-0.000686563667841256,0.0164824519306421,0,
00:00:06.204,0.0029187798500061,-0.00948078744113445,-0.00607286440208554,0,
00:00:06.208,-0.00462411530315876,-0.0013372381217777699,-0.0222400482743979,0,
00:00:06.212,-0.00169483211357147,0.00951623078435659,0.00439674779772758,0,
00:00:06.216,0.0103134661912918,0.0021734859328717,0.0305909272283316,0,
00:00:06.22,0.00571467122063041,-0.008721012622118,-0.00978032872080803,0,
00:00:06.224,-0.0246127303689718,-0.0017905265558511,-0.0347188748419285,0,
00:00:06.228,-0.000754448410589248,0.00661471066996455,-0.0006871839868836099,0,
00:00:06.232,0.0219899117946625,0.0035100907552987302,0.0363258942961693,0,
00:00:06.236,0.00566525990143418,-0.00316963810473681,0.00205492717213929,0,
00:00:06.24,-0.0137906242161989,-0.00339455367065966,0.0119154350832105,0,
00:00:06.244,-0.0130745889618993,-0.00339174713008106,-0.0172888543456793,0,
00:00:06.248,0.0105334324762225,0.0129683800041676,-0.0335505045950413,0,
00:00:06.252,0.0092115206643939,-0.00679145753383636,-0.0278298053890467,0,
00:00:06.256,0.009736404754221441,-0.0275487285107374,0.0457359440624714,0,
00:00:06.26,-0.0119675546884537,0.0268689598888159,0.0317086316645145,0,
00:00:06.264,-0.026247339323163,0.0198758654296398,0.00902595277875662,0,
00:00:06.268,0.00581862637773156,-0.0107521461322904,-0.0315982066094875,0,
00:00:06.272,0.024705471470952003,-0.0215260647237301,-0.0127431992441416,0,
