Elapsed Time,EMG1,EMG2,EMG3,BioRadio Event,Unnamed: 5
00:00:00,2.27090334892273,0.8863580822944641,-0.628961384296417,0,
00:00:00.004,-2.16515421867371,-0.843462646007538,0.588143765926361,0,
00:00:00.008,-1.78829276561737,-0.7032281160354611,0.515718758106232,0,
00:00:00.012,-0.19434662163257602,-0.07154431194067,0.0560273565351963,0,
00:00:00.016,0.9252495169639591,0.35951459407806396,-0.263007044792175,0,
00:00:00.02,1.1121133565902699,0.43941006064415,-0.322088211774826,0,
00:00:00.024,0.684340476989746,0.26418006420135504,-0.197357699275017,0,
00:00:00.028,0.0968416109681129,0.0350202545523643,-0.009683544747531409,0,
00:00:00.032,-0.31994140148162803,-0.124584205448627,0.107591092586517,0,
00:00:00.036,-0.442640602588654,-0.17500579357147197,0.113761626183987,0,
00:00:00.04,-0.346311450004578,-0.128106653690338,0.0927202478051186,0,
00:00:00.044,-0.12193241715431201,-0.0546356998383999,0.007740028668195009,0,
00:00:00.048,0.0589467734098434,0.0242611095309258,-0.0032683527097106,0,
00:00:00.052,0.130563154816628,0.0523748993873596,-0.0256559271365404,0,
00:00:00.056,0.109075330197811,0.047099631279707004,-0.0360809899866581,0,
00:00:00.06,0.0700478330254555,0.0261926464736462,-0.021928783506155,0,
00:00:00.064,0.0016996749909594698,-0.00361216790042818,0.0018907961202785399,0,
00:00:00.068,-0.0283183176070452,-0.0153056140989065,0.0152568370103836,0,
00:00:00.072,-0.0497533455491066,-0.0145586021244526,0.0153628010302782,0,
00:00:00.076,-0.0223640277981758,0.00039564204053022,0.00566051201894879,0,
00:00:00.08,-0.0035417021717876205,-0.00878517609089613,-0.0112387835979462,0,
00:00:00.084,0.0174169298261404,-0.00111483805812895,0.00147388002369553,0,
00:00:00.088,-0.0227174293249846,0.00574453640729189,0.007442527916282421,0,
00:00:00.092,0.0128955412656069,0.000667060783598572,-0.00738728931173682,0,
00:00:00.096,0.038758497685194,0.0076769832521677,-0.0116760153323412,0,
00:00:00.1,0.0065124724060297,-0.00369511055760086,-0.00260625756345689,0,
00:00:00.104,-0.030432840809226005,-0.00533667439594865,0.00733014568686485,0,
00:00:00.108,-0.00834091100841761,0.0038687048945576,0.00334906345233321,0,
00:00:00.112,0.0015931245870888198,0.005548414308577779,0.007388372905552391,0,
00:00:00.116,0.00433497875928879,-0.00152481475379318,0.00881730299443007,0,
00:00:00.12,0.00342671037651598,-0.00130952650215477,-0.00842173770070076,0,
00:00:00.124,0.00553157599642873,-0.0022695178631693103,-0.0281506776809692,0,
00:00:00.128,-0.00632879650220275,-0.00208491715602577,0.00528903165832162,0,
00:00:00.132,-0.0023594708181917698,-0.00506616570055485,0.048703633248806,0,
00:00:00.136,0.00239693396724761,0.00016225928266067099,0.0026808197144419,0,
00:00:00.14,-0.00680369883775711,0.0021033524535596397,-0.0493798889219761,0,
00:00:00.144,0.0055452948436141,0.0106991222128272,-0.0084781888872385,0,
00:00:00.148,0.00739404372870922,0.00430571939796209,0.000764010881539434,0,
00:00:00.152,0.0013693413930013802,-0.0071855159476399404,0.0155542278662324,0,
00:00:00.156,-0.00765429576858878,-0.00209985766559839,0.00956496316939592,0,
00:00:00.16,-0.00484274793416262,-0.00363751756958663,-0.00734052574262023,0,
00:00:00.164,0.006351267453283071,-0.0014696806902065901,0.0250838976353407,0,
00:00:00.168,-0.00292215496301651,0.00299222231842577,0.0122153861448169,0,
00:00:00.172,0.0023689414374530302,-0.004112438298761839,-0.0240287128835917,0,
00:00:00.176,0.00131123419851065,0.00615192297846079,-0.024140028283000003,0,
00:00:00.18,-0.004799908027052879,0.00195276259910315,-0.00516517274081707,0,
00:00:00.184,-0.0058572138659656,-0.00263912975788116,0.00516776880249381,0,
00:00:00.188,0.0100112119689584,0.000504049356095493,0.0147536667063832,0,
00:00:00.192,0.00453276699408889,0.000383693812182173,0.0073860725387930905,0,
00:00:00.196,0.00350176566280425,-0.00246449653059244,-0.00109253521077335,0,
00:00:00.2,-0.009177170693874359,-0.00293725356459618,-0.0070539228618145,0,
00:00:00.204,-0.0147165190428495,0.0112109435722232,0.0017782805953174801,0,
00:00:00.208,0.0158853214234114,0.0035618068650364897,0.0148069905117154,0,
00:00:00.212,0.00633522961288691,-0.0132500873878598,-0.00945675279945135,0,
00:00:00.216,-0.00582884484902024,-0.00793658755719662,-0.017337067052722,0,
00:00:00.22,0.00321396114304662,0.007381411269307141,-0.008820212446153159,0,
00:00:00.224,-0.0005737070459872481,-0.00185668061021715,0.0231967680156231,0,
00:00:00.228,-0.0249442365020514,0.0051218238659203105,0.0182286612689495,0,
00:00:00.232,0.00721355248242617,0.0041254935786128,0.00245237443596125,0,
00:00:00.236,0.0204062182456255,0.0007441682391799991,-0.0382992476224899,0,
00:00:00.24,0.00492079462856054,-0.00182191596832126,-0.019865969195961997,0,
00:00:00.244,0.004258276429027321,-0.0067006563767790794,0.0252125691622496,0,
00:00:00.248,-0.0247634816914797,-0.0020278731826692802,0.0226561054587364,0,
00:00:00.252,-0.00135904375929385,0.0211942158639431,0.0019265265436843,0,
00:00:00.256,0.0102207818999887,-0.0118241962045431,-0.0112865576520562,0,
00:00:00.26,-0.000648966932203621,-0.00583833223208785,-0.00603320170193911,0,
00:00:00.264,-0.00550164841115475,-0.0148469395935535,0.0048772799782455,0,
00:00:00.268,0.00848071742802858,0.00151044467929751,0.0037146003451198296,0,
00:00:00.272,0.000741700641810894,0.0191246252506971,-0.0191387943923473,0,
00:00:00.276,0.000362397026037797,0.0110143655911088,0.0063082673586905,0,
00:00:00.28,0.000509052886627615,0.0008540996350348,0.000616870180238038,0,
00:00:00.284,-0.000161126852617599,-0.0120747135952115,0.0115450564771891,0,
00:00:00.288,-0.00730907171964645,-0.0119039947167039,-0.0011679542949423198,0,
00:00:00.292,-0.00809718295931816,0.0012244131648913,0.0133600737899542,0,
00:00:00.296,-0.00124180992133915,-0.00173375790473074,-0.0030456834938377103,0,
00:00:00.3,0.0149749862030149,0.0051513365469873,-0.0353550538420677,0,
00:00:00.304,0.0109824994578958,0.0100433994084597,-0.00430986750870943,0,
00:00:00.308,-0.00706539815291762,0.00126427900977433,0.0210090968757868,0,
00:00:00.312,-0.00828912667930126,-0.00127023353707045,0.00918016862124205,0,
00:00:00.316,-0.00149678543675691,-0.00605356460437179,0.00837886333465576,0,
00:00:00.32,0.005226354114711279,-0.00209077307954431,-0.0117997163906693,0,
00:00:00.324,-0.00454765278846025,-0.00259684328921139,-0.00820097420364618,0,
00:00:00.328,-0.000338820653269067,-0.00396211119368672,0.0144323837012053,0,
00:00:00.332,-0.0025622898247093,0.00828277319669724,-0.0051080659031868,0,
00:00:00.336,0.00981099810451269,0.00590095249935985,0.00168370932806283,0,
00:00:00.34,0.00439191982150078,0.000301567575661466,-0.0142105706036091,0,
00:00:00.344,-0.0151851521804929,-0.0115511743351817,-0.0028188566211611,0,
00:00:00.348,0.00618379656225443,0.00214324961416423,0.0244645103812218,0,
00:00:00.352,-0.0111911306157708,0.00436612730845809,-0.0100061986595392,0,
00:00:00.356,0.0155005129054189,0.00422145472839475,-0.0119190849363804,0,
00:00:00.36,0.00523060187697411,-0.000347792898537591,0.0176790431141853,0,
00:00:00.364,0.00165595824364573,-0.007429204415529971,-0.0130823105573654,0,
00:00:00.368,-0.009245952591300009,-0.0035461650695651796,-0.00301791564561427,0,
00:00:00.372,-0.00540731055662036,0.00766682485118508,0.0104816546663642,0,
00:00:00.376,-0.0079707857221365,-0.000137386989081278,0.00823747180402279,0,
00:00:00.38,0.00693712802603841,0.000407789455493912,-0.00514579704031348,0,
00:00:00.384,0.00096771604148671,-0.00490053649991751,-0.00881049502640963,0,
00:00:00.388,0.0023629572242498398,-0.00775480549782515,-0.00765638379380107,0,
00:00:00.392,0.0116112101823092,0.0142357954755425,0.0161905530840158,0,
00:00:00.396,-0.0097849415615201,0.0104942293837667,-0.00461717508733273,0,
00:00:00.4,-0.0168737657368183,-0.00806954223662615,-0.000516437867190689,0,
00:00:00.404,0.0358229279518127,-0.0112432381138206,-0.0183175075799227,0,
00:00:00.408,0.0205441918224096,0.00231986050494015,0.0365646742284298,0,
00:00:00.412,-0.0690222457051277,-0.0133728943765163,0.00712650967761874,0,
00:00:00.416,-0.0451825857162476,0.0145700667053461,-0.0213435739278793,0,
00:00:00.42,0.14764304459095,0.0121037689968944,-0.0195965096354485,0,
00:00:00.424,-0.0156426038593054,0.00379563006572425,-0.0104487966746092,0,
00:00:00.428,-0.0852908194065094,-0.0158869046717882,0.00327815627679229,0,
00:00:00.432,-0.0410337001085281,-0.000844816153403372,0.0321188680827618,0,
00:00:00.436,0.0704139694571495,0.0019206369761377601,0.0188711360096931,0,
00:00:00.44,0.0181343089789152,-0.0012128280941397,-0.0124081084504724,0,
00:00:00.444,-0.0262337159365416,0.00163656799122691,-0.0250949785113335,0,
00:00:00.448,-0.00172910885885358,0.0009727965807542199,0.000666765146888793,0,
00:00:00.452,0.0393129363656044,-0.00637497240677476,0.0042551071383059,0,
00:00:00.456,-0.0201565939933062,0.0052720978856086705,0.00194137345533818,0,
00:00:00.46,-0.0306377094238997,-0.0018230366986244897,0.004117492586374279,0,
00:00:00.464,0.0136568257585168,0.0042730732820928105,-0.00850601680576801,0,
00:00:00.468,0.00533274840563536,0.00669624749571085,0.040300652384757996,0,
00:00:00.472,-0.0023348284885287302,-0.00665307650342584,-0.0316659547388554,0,
00:00:00.476,-0.0019601683598011697,-0.00161989987827837,-0.0321192927658558,0,
00:00:00.48,0.0068108304403722295,0.0032331780530512303,0.0127271423116326,0,
00:00:00.484,-0.007801182102411991,-0.0130873061716557,0.0281584057956934,0,
00:00:00.488,0.0345989242196083,0.00213407236151397,0.00912568345665932,0,
00:00:00.492,-0.0088098831474781,0.00838493555784225,-0.0169052500277758,0,
00:00:00.496,-0.0327246822416782,0.000503596907947212,-0.0144735984504223,0,
00:00:00.5,0.000125268445117399,-0.000639660574961454,0.00284480210393667,0,
00:00:00.504,0.00756363943219185,0.00404189852997661,0.0201313067227602,0,
00:00:00.508,0.00534805189818144,-0.0037072570994496298,-0.008389536291360859,0,
00:00:00.512,-0.006871575955301521,0.00100119144190103,-0.00653947796672583,0,
00:00:00.516,-0.0076451692730188404,-0.00448065670207143,0.007054330315440891,0,
00:00:00.52,0.0126388687640429,0.00215115817263722,-0.0117817623540759,0,
00:00:00.524,0.004828409291803839,-0.0026758620515465697,0.0149077828973532,0,
00:00:00.528,0.00021738802024629,-0.0006261978996917611,-0.007807736285030841,0,
00:00:00.532,0.012827180325985002,0.0121461730450392,-0.0266125742346048,0,
00:00:00.536,0.0155337164178491,-0.007480185478925709,0.0498868525028229,0,
00:00:00.54,-0.0337870456278324,-0.00876970589160919,0.00405322900041938,0,
00:00:00.544,-0.0338408425450325,0.0053991866298019895,-0.0224174782633781,0,
00:00:00.548,0.0365866757929325,0.0010773544199764698,-0.0149987554177642,0,
00:00:00.552,0.00292493938468397,0.00506794871762395,-0.0073633729480207,0,
00:00:00.556,-0.00039151610690169,-0.000754213775508106,-0.00138110725674778,0,
00:00:00.56,-0.0208489652723074,-0.0024438870605081302,0.0164794847369194,0,
00:00:00.564,0.0073795020580291705,-0.0039450069889426205,0.0159076079726219,0,
00:00:00.568,0.0196114871650934,0.00346582592464983,-0.0041049737483263,0,
00:00:00.572,0.016546443104744,0.0042492384091019604,0.0272635612636805,0,
00:00:00.576,-0.00408598314970732,-0.00874722842127085,-0.0446357168257236,0,
00:00:00.58,-0.0306989755481482,0.00239667552523315,-0.0161777008324862,0,
00:00:00.584,-0.0283877402544022,-0.00309688854031265,0.0356554947793484,0,
00:00:00.588,0.0220766663551331,0.0025962612126022603,-0.0041832001879811296,0,
00:00:00.592,0.0200535263866186,0.00574595015496016,-0.00836674869060516,0,
00:00:00.596,0.0071571739390492405,0.00424949359148741,-0.00639040861278772,0,
00:00:00.6,0.0194960050284863,-0.00151472829747945,-0.00564856780692935,0,
00:00:00.604,-0.0227362476289272,-0.00885121524333954,0.00873409304767847,0,
00:00:00.608,-0.0421568490564823,-0.0023937369696795897,0.00571393268182874,0,
00:00:00.612,0.0217279121279716,0.00135084264911711,0.0148734711110592,0,
00:00:00.616,0.0353692732751369,0.00460128532722592,0.0026112576015293603,0,
00:00:00.62,-0.0245443359017372,2.5259244011977e-06,-0.0124968234449625,0,
00:00:00.624,-0.009835890494287009,-0.000869905343279243,-0.0174468439072371,0,
00:00:00.628,0.0208098907023668,-0.004591552074998621,-0.00225805304944515,0,
00:00:00.632,-0.0025592625606805103,0.0081991832703352,0.0277649965137243,0,
00:00:00.636,-0.0376548208296299,-0.0024143005721271,-0.0132463881745934,0,
00:00:00.64,0.0136600909754634,0.00138471578247845,-0.00716386921703815,0,
00:00:00.644,0.0552266128361225,-0.0043789627961814395,-0.0159985795617104,0,
00:00:00.648,-0.026265662163496004,0.00211732508614659,0.0162210036069155,0,
00:00:00.652,-0.0236277431249619,-0.00280263694003224,0.0526046380400658,0,
00:00:00.656,0.0040254732593894,0.00335705722682178,-0.0188021026551723,0,
00:00:00.66,0.00940895546227694,0.00181706110015512,-0.0334191806614399,0,
00:00:00.664,-0.0156240938231349,-0.00908418744802475,-0.0300905145704746,0,
00:00:00.668,0.00467035220935941,0.0038746865466237103,0.007336091715842491,0,
00:00:00.672,0.011962347663939,0.0111172394827008,0.0322444066405296,0,
00:00:00.676,0.0190441701561213,-0.00416562985628843,0.0188639517873526,0,
00:00:00.68,0.00815910752862692,-0.00609848601743579,-0.0131198512390256,0,
00:00:00.684,-0.0552845448255539,-0.00701045943424106,-0.008293784223496909,0,
00:00:00.688,-0.000778305809944868,0.004603312816470861,0.011461615562439,0,
00:00:00.692,0.0273004155606031,0.00566332135349512,0.00317019480280578,0,
00:00:00.696,0.0047211479395628,0.00466753216460347,-0.0256051290780306,0,
00:00:00.7,-0.006954670418053871,-0.0046478365547955,-0.0108640398830175,0,
00:00:00.704,-0.00147782871499658,-0.00183747767005116,-0.00110861018765718,0,
00:00:00.708,-0.00464954692870378,0.00355119328014553,0.0138926701620221,0,
00:00:00.712,0.0307258199900389,-0.00604747096076608,0.012916062027216003,0,
00:00:00.716,-0.0263000912964344,-0.00314759230241179,0.0367213003337383,0,
00:00:00.72,-0.0018146253423765302,0.0056354096159339,-0.0288870465010405,0,
00:00:00.724,-0.00327686662785709,-0.000313351454678923,-0.0105876438319683,0,
00:00:00.728,-0.00308505003340542,0.00184290844481438,-0.009953245520591741,0,
00:00:00.732,0.00175926426891237,0.000872858217917383,-0.00964385736733675,0,
00:00:00.736,0.023566909134387998,0.00155802245717496,0.00862744636833668,0,
00:00:00.74,-0.0129942735657096,-0.00108450453262776,-2.0211944502079897e-05,0,
00:00:00.744,0.0272460374981165,-0.00672653410583735,0.0089703006669879,0,
00:00:00.748,-0.0162165518850088,-0.00237393332645297,0.0305838771164417,0,
00:00:00.752,-0.0468510985374451,0.00439658015966415,-0.025601914152503,0,
00:00:00.756,0.0025945045053958897,0.00618212856352329,-0.00211295997723937,0,
00:00:00.76,0.0213577188551426,0.00151839689351618,-0.0195330809801817,0,
00:00:00.764,0.0272813346236944,-0.00867477804422379,0.006245844531804321,0,
00:00:00.768,0.0102155804634094,0.0023742858320474603,0.00689633982256055,0,
00:00:00.772,-0.0004966612905263901,0.004608306102454661,0.00422393251210451,0,
00:00:00.776,-0.0407384820282459,-0.0102238524705172,0.0324707515537739,0,
00:00:00.78,-0.0117081450298429,0.000555175764020532,-0.0238758958876133,0,
00:00:00.784,-0.0046554356813430795,0.00872998125851154,-0.0212075989693403,0,
00:00:00.788,0.0404153279960155,0.00202621915377676,0.0004735928960144519,0,
00:00:00.792,0.0190636813640594,-0.0018444623565301301,0.00669382931664586,0,
00:00:00.796,-0.029184166342020004,-0.000752467953134328,-0.00476189004257321,0,
00:00:00.8,-0.000382917787646875,-0.00601154239848256,0.00391393806785345,0,
00:00:00.804,0.00859060604125261,-0.000183444179128855,0.00950815062969923,0,
00:00:00.808,-0.0319523327052593,0.00204720627516508,0.0118120322003961,0,
00:00:00.812,0.00945308152586222,0.00615410599857569,-0.00415725819766521,0,
00:00:00.816,0.0164843183010817,-0.00504686497151852,-0.010892091318965,0,
00:00:00.82,0.0172089822590351,-0.00136452610604465,-0.00458858069032431,0,
00:00:00.824,-0.018794072791933996,0.00274267746135592,-0.000373889080947265,0,
00:00:00.828,0.00165787618607283,-0.00493111507967114,-0.000289668067125604,0,
00:00:00.832,0.0036378139629960103,0.00312663894146681,0.00416659796610475,0,
00:00:00.836,-0.0125731006264687,0.00328185199759901,0.00730424746870995,0,
00:00:00.84,0.00245395442470908,0.00297181075438857,-0.0053440909832716,0,
00:00:00.844,-0.0148554733023047,-0.00308862584643066,-0.0211014114320278,0,
00:00:00.848,0.0294618178158998,-0.00134091009385884,0.0257553979754448,0,
00:00:00.852,-0.0145790334790945,-0.00346813932992518,0.0262806341052055,0,
00:00:00.856,0.00564058776944876,-0.007442445494234559,-0.0218643639236689,0,
00:00:00.86,0.00114049506373703,0.0112578319385648,-0.0308196302503347,0,
00:00:00.864,0.018176257610321,0.0051699192263186,-0.00984132941812277,0,
00:00:00.868,0.00410076789557934,-0.000980599084869027,0.0326422564685345,0,
00:00:00.872,-0.0477607473731041,-0.00589349213987589,0.0160115230828524,0,
00:00:00.876,-0.008282767608761791,-0.0035518747754395,-0.0102062225341797,0,
00:00:00.88,0.00538887083530426,-0.00409647123888135,-0.0277112070471048,0,
00:00:00.884,0.0278235245496035,0.0102746626362205,0.0138552570715547,0,
00:00:00.888,0.0323463678359985,-0.000396818941226229,0.0319609418511391,0,
00:00:00.892,-0.019119506701827,0.0024352604523301103,-0.0136006558313966,0,
00:00:00.896,-0.0154053503647447,-0.00438405480235815,-0.0203402861952782,0,
00:00:00.9,-0.0141367567703128,-0.0026742867194116103,-0.00588707532733679,0,
00:00:00.904,0.0009542313055135311,0.00455419346690178,0.00847727619111538,0,
00:00:00.908,0.0205312073230743,0.0042759734205901605,0.00162875116802752,0,
00:00:00.912,-0.0102496426552534,-0.005295699462294579,0.010704499669373,0,
00:00:00.916,-0.0333676598966122,-0.00858023669570684,0.0014260478783398901,0,
00:00:00.92,0.093088872730732,0.00322694331407547,-0.0124846193939447,0,
00:00:00.924,-0.0056022577919066,0.00732748210430145,0.0048706070519983794,0,
00:00:00.928,-0.0706824287772179,0.00305006024427712,0.00361622287891805,0,
00:00:00.932,-0.0302518978714943,0.0026341578923165803,-0.007367851678282021,0,
00:00:00.936,-0.00447345012798905,-0.0135953929275274,-0.0059187370352447,0,
00:00:00.94,0.0667151510715485,-0.00429354887455702,0.007785765454173091,0,
00:00:00.944,0.0142916580662131,-0.00285344664007425,-0.000149520055856556,0,
00:00:00.948,-0.0059339101426303395,0.0201392844319344,0.00245095882564783,0,
00:00:00.952,-0.0022937294561415898,0.00549963349476457,0.00386407459154725,0,
00:00:00.956,-0.0204331260174513,-0.0046605179086327605,0.00641034450381994,0,
00:00:00.96,-0.0192460622638464,-0.0118453223258257,-0.0231851637363434,0,
00:00:00.964,0.0117270387709141,-0.00572592625394464,0.0160541087388992,0,
00:00:00.968,-0.0060356454923749,0.00571681605651975,0.00536606693640351,0,
00:00:00.972,0.0180188603699207,0.0011469924356788401,-0.0251068435609341,0,
00:00:00.976,0.0327510088682175,0.0034304098226129996,0.0228032767772675,0,
00:00:00.98,-0.0263369083404541,0.00391404004767537,-0.0149801848456264,0,
00:00:00.984,-0.0308745428919792,-0.00438326084986329,-0.00792831461876631,0,
00:00:00.988,0.020971329882741,0.0008760395576246081,0.0304224751889706,0,
00:00:00.992,0.00224983273074031,2.36059895541985e-05,-7.77420427766629e-05,0,
00:00:00.996,-0.00903840735554695,-0.00343438563868403,-0.0168303810060024,0,
00:00:01,0.00611957209184766,-0.00166425632778555,-0.00948431342840195,0,
00:00:01.004,-0.000879969447851181,-0.0034078792668879,0.00957923289388418,0,
00:00:01.008,-0.0162901785224676,0.007924671284854409,0.00109801988583058,0,
00:00:01.012,0.0302764382213354,0.00297748297452927,0.00846253335475922,0,
00:00:01.016,0.0157986935228109,-0.00679223658517003,-0.01538344938308,0,
00:00:01.02,-0.0173489432781935,0.00801006238907576,-0.0039084409363567794,0,
00:00:01.024,-0.0221944563090801,0.00321865384466946,0.0226522646844387,0,
00:00:01.028,-0.00513527216389775,-0.00971478130668402,0.00931161921471357,0,
00:00:01.032,0.0001730177027639,-0.00205973931588233,-0.0112244822084904,0,
00:00:01.036,0.0134131889790297,-0.0056207817979157,-0.0219034757465124,0,
00:00:01.04,0.0364402867853642,0.0029369683470577,-0.00743628339841962,0,
00:00:01.044,-0.0239766016602516,0.009808634407818321,0.0067972992546856395,0,
00:00:01.048,-0.0144222043454647,0.00640443526208401,0.0181868262588978,0,
00:00:01.052,-0.00637946557253599,-0.00606000004336238,0.007269995752722021,0,
00:00:01.056,0.000315108831273392,-0.0086178258061409,0.000147959552123211,0,
00:00:01.06,0.000116261180664878,-0.00277201062999666,-0.00390322646126151,0,
00:00:01.064,0.0277020633220673,0.00460908841341734,-0.0132774990051985,0,
00:00:01.068,0.007798528764396909,0.00445017637684941,-0.0104713048785925,0,
00:00:01.072,-0.0308457668870687,-0.00040736427763477,0.0103103155270219,0,
00:00:01.076,-0.0019173596519976898,-0.000907799229025841,0.0035454921890050203,0,
00:00:01.08,0.01174645870924,0.00799315515905619,0.0025861982721835397,0,
00:00:01.084,-0.0204027071595192,-0.00569320982322097,0.0123651521280408,0,
00:00:01.088,0.0159381683915854,-0.00628247857093811,0.00122415868099779,0,
00:00:01.092,0.0111677227541804,-0.0022369611542671897,-0.0228612888604403,0,
00:00:01.096,-0.00323166348971426,-0.000594120239838958,0.0121453488245606,0,
00:00:01.1,0.0128783900290728,0.007040153257548809,-0.0104902116581798,0,
00:00:01.104,-0.0233020149171352,-0.0020139892585575602,-0.0100115165114403,0,
00:00:01.108,-0.009025163948535921,0.00349560147151351,0.0030234609730541697,0,
00:00:01.112,-0.0107348263263702,-0.0022255785297602398,0.0231281612068415,0,
00:00:01.116,0.0224479287862778,0.00933368876576424,0.0042182914912700705,0,
00:00:01.12,0.00571419205516577,-0.004918276332318779,-0.00536303082481027,0,
00:00:01.124,0.0046653295867145105,-0.00455755414441228,-0.0114354267716408,0,
00:00:01.128,-0.00482373125851154,-0.00928738247603178,0.00123876973520964,0,
00:00:01.132,-0.0003521514008753,0.00297450739890337,0.00431691855192184,0,
00:00:01.136,0.00690926657989621,0.009901064448058609,-0.0037559024058282397,0,
00:00:01.14,-0.0165722593665123,-0.0043184729292988795,-0.00486620329320431,0,
00:00:01.144,-0.0130997905507684,0.00137812562752515,-0.0143661918118596,0,
00:00:01.148,0.0153688061982393,0.0015257116174325301,0.0237705856561661,0,
00:00:01.152,0.0251255389302969,-0.00201989756897092,0.0303224660456181,0,
00:00:01.156,-0.0243463963270187,0.0050782784819603,-0.0192529764026403,0,
00:00:01.16,-0.00974443648010492,-0.0014713956043124199,-0.0270514413714409,0,
00:00:01.164,0.0155307035893202,-0.0037695562932640297,-0.0118114743381739,0,
00:00:01.168,0.0149473566561937,-0.00907523557543755,0.0107227694243193,0,
00:00:01.172,-0.0190108641982079,0.0031392981763929103,0.0230120066553354,0,
00:00:01.176,-0.026051452383399,0.00378322438336909,-0.00320033892057836,0,
00:00:01.18,0.0348919741809368,0.00574207399040461,0.0025221211835742,0,
00:00:01.184,-0.0011784031521529,0.004293933510780329,0.0006690344307571651,0,
00:00:01.188,-0.0160569697618485,-0.00338479713536799,-0.0171121917665005,0,
00:00:01.192,0.0249200593680143,-0.0025441360194236,-0.000677435717079788,0,
00:00:01.196,-0.0183071028441191,-0.00467681931331754,0.01163868047297,0,
00:00:01.2,0.0038314042612910297,-0.0039564897306263395,0.00330782379023731,0,
00:00:01.204,-0.0219281427562237,0.00311588426120579,-0.0067095938138663795,0,
00:00:01.208,0.0113755939528346,0.00411791121587157,-0.00026152646751143,0,
00:00:01.212,0.0213542487472296,0.0022922286298126,-0.01203185133636,0,
00:00:01.216,0.009280110709369179,0.00214584544301033,0.0303478799760342,0,
00:00:01.22,-0.0209870655089617,-0.005317657720297579,-0.0104824444279075,0,
00:00:01.224,-0.00543148256838322,0.000936890253797174,-0.0223970673978329,0,
00:00:01.228,-0.0074627767316997095,-0.0035159790422767396,-0.00331764412112534,0,
00:00:01.232,0.0268924999982119,0.00738681992515922,0.0118777388706803,0,
00:00:01.236,-0.0177618972957134,-0.00602082116529346,0.0142966648563743,0,
00:00:01.24,-0.0266883820295334,-0.0018272332381457101,0.011913931928575002,0,
00:00:01.244,0.0664946958422661,-0.00509312283247709,-0.00880270637571812,0,
00:00:01.248,-0.0147457960993052,0.0163099318742752,-0.00959431659430265,0,
00:00:01.252,-0.0425190031528473,-0.0035144095309078698,0.008150651119649409,0,
00:00:01.256,0.00598424393683672,-0.00569449178874493,-0.0135298147797585,0,
00:00:01.26,0.0038502577226609,-0.00421424955129623,-0.0158615130931139,0,
00:00:01.264,0.0132812606170774,0.0114885289222002,-0.004082400351762771,0,
00:00:01.268,-0.00696887774392962,-0.0038347288500517602,0.0154189271852374,0,
00:00:01.272,0.0133070563897491,-0.00665263133123517,0.0201707743108273,0,
00:00:01.276,0.0395991764962673,0.009206892922520641,-0.00894402526319027,0,
00:00:01.28,-0.0523088276386261,-0.00038632794166915097,0.0297831185162067,0,
00:00:01.284,-0.0379785634577274,-0.012069902382791,-0.0104806013405323,0,
00:00:01.288,0.0021110910456627603,-0.00347784953191876,-0.0237034037709236,0,
00:00:01.292,0.0488875582814217,0.0156672950834036,-0.0213758908212185,0,
00:00:01.296,0.0485156141221523,0.0124989226460457,0.00850581657141447,0,
00:00:01.3,-0.0462818257510662,-0.0126880267634988,-0.00396469514816999,0,
00:00:01.304,-0.0237142127007246,-0.009308604523539541,-0.0062545263208448896,0,
00:00:01.308,0.0038389617111533898,-0.0045887348242104106,0.0620823055505753,0,
00:00:01.312,0.00478732585906982,0.00239876611158252,-0.0066866450943052795,0,
00:00:01.316,0.0027299423236399898,0.00982821080833673,-0.0161672346293926,0,
00:00:01.32,-0.0178565662354231,0.0008947185124270619,-0.0315998531877995,0,
00:00:01.324,0.0176810659468174,-0.00133290304802358,-0.00476796226575971,0,
00:00:01.328,0.0207926798611879,0.00299592292867601,0.0200578607618809,0,
00:00:01.332,-0.0126074105501175,0.0017702935729175802,-0.00178901082836092,0,
00:00:01.336,-0.0147223984822631,-0.00927966181188822,0.0137938437983394,0,
00:00:01.34,-0.00960260909050703,-0.0010672474745661,-0.0102497022598982,0,
00:00:01.344,0.0280555095523596,-0.00278637185692787,-0.00269883126020432,0,
00:00:01.348,0.007173635531216859,0.0053703980520367605,0.0077716778032481705,0,
00:00:01.352,-0.013491690158844,-0.0021625275257974898,-0.00970382615923882,0,
00:00:01.356,0.00520120188593864,0.00647311331704259,0.00656257942318916,0,
00:00:01.36,-0.0227761305868626,-0.00102224806323647,0.0107662407681346,0,
00:00:01.364,-0.0137648023664951,0.00434251828119159,-0.0131798535585403,0,
00:00:01.368,0.007144544739276171,-0.00878181867301464,-0.0134288854897022,0,
00:00:01.372,0.04223861172795299,-0.00480527523905039,-0.00190076208673418,0,
00:00:01.376,0.009545630775392059,0.0181666184216738,0.036094605922698995,0,
00:00:01.38,-0.040459617972374,-0.0091233141720295,0.0105432076379657,0,
00:00:01.384,-0.008152285590767859,-0.0153107950463891,-0.0466765686869621,0,
00:00:01.388,0.0119827827438712,0.008590805344283579,-0.007658583577722309,0,
00:00:01.392,0.0191007144749165,0.0134323490783572,0.0239581819623709,0,
00:00:01.396,0.0139293875545263,-0.00323764141649008,0.000361977668944746,0,
00:00:01.4,-0.0460159480571747,-0.0101788714528084,0.00658837473019958,0,
00:00:01.404,-0.00690908776596189,0.0007187968585640191,-0.0068565816618502105,0,
00:00:01.408,0.0395428761839867,0.0055387387983501,0.0186919737607241,0,
00:00:01.412,-0.00431208312511444,0.00248363381251693,-0.0290827378630638,0,
00:00:01.416,-0.0125081511214375,-0.00113515090197325,0.007708587218075991,0,
00:00:01.42,-0.0252697970718145,-0.00681203976273537,-0.00437590712681413,0,
00:00:01.424,0.0394976884126663,-0.0023459738586098,-0.00686242477968335,0,
00:00:01.428,-0.00631744088605046,0.0023740420583635603,0.0412277095019817,0,
00:00:01.432,0.00412864843383431,0.00607900228351355,-0.0235928818583488,0,
00:00:01.436,-0.0266308281570673,0.00714115193113685,-0.0107339089736342,0,
00:00:01.44,0.0107325557619333,-0.0068565346300602,-0.015948910266161003,0,
00:00:01.444,0.0086701400578022,-0.006147284526377921,0.021332822740078,0,
00:00:01.448,0.00359725300222635,-0.00140410335734487,0.0117345517501235,0,
00:00:01.452,0.0116075230762362,0.0083679836243391,0.000666030391585082,0,
00:00:01.456,-0.0148420222103596,-0.00286203413270414,-0.00768375769257545,0,
00:00:01.46,-0.0106681315228343,0.00334560172632337,-0.0147451553493738,0,
00:00:01.464,-0.0274238213896751,-0.008128432556986809,0.00160586752463132,0,
00:00:01.468,0.0520453341305256,0.000831744051538408,0.0201955251395702,0,
00:00:01.472,-0.000806494965218008,0.0009871601359918711,-0.0011755668092519,0,
00:00:01.476,-0.0158478673547506,-8.3023238403257e-05,-0.0031932294368743896,0,
00:00:01.48,-0.0136288991197944,0.0101118460297585,-0.0178464464843273,0,
00:00:01.484,0.0145444069057703,0.00284681585617363,-0.0031178013887256397,0,
00:00:01.488,0.0135394772514701,-0.00883584190160036,0.0199875738471746,0,
00:00:01.492,-0.0200851019471884,-0.00504077365621924,0.00408055959269404,0,
00:00:01.496,0.00521758943796158,-0.0076863006688654405,-0.00155854970216751,0,
00:00:01.5,-0.0017630885122343898,0.0028572974260896397,-0.0112646501511335,0,
00:00:01.504,-0.0327952429652214,0.0110014602541924,0.0052662370726466205,0,
00:00:01.508,0.0279038716107607,0.00154361024033278,-0.0034348769113421397,0,
00:00:01.512,0.0200075190514326,0.00275363214313984,-0.00458614807575941,0,
00:00:01.516,0.0388902798295021,-0.0035012005828321,0.00461169658228755,0,
00:00:01.52,-0.0140664950013161,-0.0041812201961875,0.00205755140632391,0,
00:00:01.524,-0.0594001039862633,-0.0022408210206776896,0.0112668629735708,0,
00:00:01.528,-0.0140024209395051,8.74524175742408e-06,-0.0180139001458883,0,
00:00:01.532,-0.0267418324947357,-0.0028170477598905602,-0.00890515279024839,0,
00:00:01.536,0.0447063483297825,0.00546542461961508,0.0131022790446877,0,
00:00:01.54,0.0567393638193607,0.00423098262399435,0.0255858227610588,0,
00:00:01.544,0.0189566444605589,0.00262260041199625,-0.0178329832851887,0,
00:00:01.548,-0.0396243147552013,-0.00192468392197043,-0.0141063760966063,0,
00:00:01.552,-0.0422838851809502,-0.00825776252895594,0.0118642607703805,0,
00:00:01.556,-0.0145767591893673,-0.00357229518704116,-0.0106301652267575,0,
00:00:01.56,0.0373525992035866,0.010191822424531,-0.00457239802926779,0,
00:00:01.564,0.0028409976512193697,0.00049071985995397,0.00474677979946136,0,
00:00:01.568,-0.0293736476451159,-0.0111705642193556,0.0207195766270161,0,
00:00:01.572,0.0653817504644394,0.00334138353355229,0.002460568677634,0,
00:00:01.576,0.0026632666122168303,0.0077781323343515405,-0.00804683845490217,0,
00:00:01.58,-0.0449108742177486,0.000973659683950245,-0.0158070772886276,0,
00:00:01.584,-0.0169657785445452,-0.00617005350068212,-0.007982808165252209,0,
00:00:01.588,0.00614966498687863,0.0140475276857615,0.024823147803544998,0,
00:00:01.592,-0.00825273711234331,-0.0120180975645781,-0.00595586048439145,0,
00:00:01.596,0.0059235603548586395,-0.0139306578785181,-0.0247194208204746,0,
00:00:01.6,0.0219246968626976,0.00332731637172401,0.0243994705379009,0,
00:00:01.604,0.0433396883308887,0.0149923767894506,0.0273811779916286,0,
00:00:01.608,-0.0143829751759768,0.000734292843844742,-0.0260903406888247,0,
00:00:01.612,-0.0534698739647865,-0.00298877945169806,-0.0192539971321821,0,
00:00:01.616,-0.0354071818292141,0.00174210174009204,-0.000160921947099268,0,
00:00:01.62,0.0816436484456062,-0.00478114280849695,0.0131881851702929,0,
00:00:01.624,0.0139907915145159,0.00532031990587711,0.0011510334443301,0,
00:00:01.628,-0.0531159453094006,-0.0076003079302609,0.0116141270846128,0,
00:00:01.632,-0.0286627393215895,-0.00442832196131349,-0.00120196060743183,0,
00:00:01.636,0.0268569625914097,0.00764382258057594,0.000220520247239619,0,
00:00:01.64,0.02081055380404,0.000559979758691043,-0.0133081041276455,0,
00:00:01.644,0.0150949750095606,-0.00294062681496143,-0.0114542050287127,0,
00:00:01.648,-0.0116807371377945,0.00158480973914266,0.00345453899353743,0,
00:00:01.652,0.00668515311554074,0.00186658767051995,0.0218821801245213,0,
00:00:01.656,-0.007616685237735509,-0.00146997394040227,-0.0061130179092288,0,
00:00:01.66,-0.0348902344703674,0.00555720087140799,-0.00294573791325092,0,
00:00:01.664,0.00329845608212054,-0.00126371625810862,0.007360973861068491,0,
00:00:01.668,0.0205855965614319,-0.0100681642070413,-0.00376717071048915,0,
00:00:01.672,0.007720055524259809,-0.00337543897330761,-0.0103192077949643,0,
00:00:01.676,-0.00454641878604889,0.011984390206635,-0.00805207621306181,0,
00:00:01.68,0.00252000195905566,0.00229647429659963,0.00482239481061697,0,
00:00:01.684,0.00856212433427572,-0.00207764958031476,0.0212818309664726,0,
00:00:01.688,0.0187023282051086,-0.00489125307649374,-0.00966946687549353,0,
00:00:01.692,0.00435278285294771,0.00232922728173435,0.0164065957069397,0,
00:00:01.696,-0.0710564479231834,0.00147288024891168,-0.0239013023674488,0,
00:00:01.7,-0.0155157931149006,-0.00482642324641347,-0.012741070240736,0,
00:00:01.704,0.0170001424849033,0.000246313196839765,0.0071234335191547905,0,
00:00:01.708,0.0445932261645794,-0.000139389565447345,0.0213477201759815,0,
00:00:01.712,0.0219622477889061,0.00359360221773386,0.00302914227358997,0,
00:00:01.716,0.00518605532124639,0.0042945551685988894,-0.0175585150718689,0,
00:00:01.72,-0.0303862113505602,0.00203680153936148,-0.00294693280011415,0,
00:00:01.724,-0.0355731323361397,-0.00921046361327171,0.00510377902537584,0,
00:00:01.728,0.017475314438343003,-0.00312475627288222,-0.000330970127834007,0,
00:00:01.732,0.0332647673785686,-0.000863549415953457,-0.0100717060267925,0,
00:00:01.736,-0.0210914500057697,0.000662957900203764,0.0321031399071217,0,
00:00:01.74,-0.0176117736846209,0.0162468384951353,-0.00587973650544882,0,
00:00:01.744,-0.0295494757592678,-0.00556932669132948,-0.0333408936858177,0,
00:00:01.748,0.0714202374219894,-0.00748646166175604,0.0042671849951148,0,
00:00:01.752,0.0402616783976555,0.00547137530520558,0.0218799393624067,0,
00:00:01.756,-0.0615673922002316,-0.00848620291799307,0.00749495672062039,0,
00:00:01.76,-0.0387813597917557,0.0006279471563175321,-0.0109890205785632,0,
00:00:01.764,0.00415758229792118,0.00557665852829814,-0.00522566493600607,0,
00:00:01.768,0.00986260827630758,-0.00332110468298197,6.37042103335261e-05,0,
00:00:01.772,0.0546574741601944,0.0052926559001207395,-0.003981704823672771,0,
00:00:01.776,-0.0140885803848505,0.00255690584890544,-0.00676360167562962,0,
00:00:01.78,-0.0164921265095472,-0.00576750840991735,0.00044422279461287,0,
00:00:01.784,-0.0161854848265648,0.000509782461449504,0.0123189957812428,0,
00:00:01.788,0.00806081481277943,0.0005157560226507481,0.0217239875346422,0,
00:00:01.792,-1.5238768355629901e-05,-0.008883423171937471,0.00644233310595155,0,
00:00:01.796,0.00576671445742249,0.0089968116953969,-0.0400676913559437,0,
00:00:01.8,-0.00255458359606564,-0.00223723333328962,0.000315328245051205,0,
00:00:01.804,-0.000320986175211146,0.00296510150656104,0.0039698285982012705,0,
00:00:01.808,0.0106373848393559,0.0038729850202798796,-0.0018143075285479398,0,
00:00:01.812,-0.0052867797203362,-0.0025386656634509602,0.00694955512881279,0,
00:00:01.816,0.0381647795438766,0.00273589557036757,0.00195961073040962,0,
00:00:01.82,-0.0469497740268707,-0.0119895553216338,0.0038025884423404897,0,
00:00:01.824,-0.0225442014634609,-0.000957929936703295,0.0119323208928108,0,
00:00:01.828,-0.0018024867167696398,0.00598870078101754,-0.0110042113810778,0,
00:00:01.832,0.0147504564374685,0.0022143735550344,-0.00858801696449518,0,
00:00:01.836,0.0033954295795410898,0.000562618835829198,-0.0113222328945994,0,
00:00:01.84,0.0207861196249723,-0.0043413359671831105,0.0135801890864968,0,
00:00:01.844,0.0626336932182312,0.00762126361951232,0.0122634544968605,0,
00:00:01.848,-0.0421205833554268,-0.0011535647790879,-0.0159226134419441,0,
00:00:01.852,-0.0716527625918388,-0.00949171278625727,0.00673286616802216,0,
00:00:01.856,-9.25112253753468e-05,0.00789871346205473,0.00940918177366257,0,
00:00:01.86,0.0635899156332016,0.0006185192032717169,-0.0155032472684979,0,
00:00:01.864,-0.0280304253101349,-0.003949320875108239,-0.004357667174190279,0,
00:00:01.868,0.0050404714420437795,0.00235275598242879,0.011572509072721,0,
00:00:01.872,-0.00452528242021799,0.00115812302101403,0.00590691063553095,0,
00:00:01.876,0.000959991244599223,-0.000980973010882735,-0.0168098714202642,0,
00:00:01.88,0.0386937782168388,-0.00800883490592241,-0.006622986868023871,0,
00:00:01.884,-0.0201225522905588,0.00467985309660435,0.0184158366173506,0,
00:00:01.888,-0.0322579182684422,0.0026588917244225697,0.015232689678668998,0,
00:00:01.892,0.00528517970815301,-0.00308274454437196,-0.0139871351420879,0,
00:00:01.896,-0.0024961042217910303,0.0038834260776639,-0.00406108144670725,0,
00:00:01.9,0.0123814083635807,0.00471782311797142,-0.012503556907177,0,
00:00:01.904,0.0321150459349155,-0.00025066095986403503,0.00212995149195194,0,
00:00:01.908,-0.026093564927578,-0.00368240615352988,-0.00300478166900575,0,
00:00:01.912,-0.000869350100401789,-0.00390131724998355,0.0304923094809055,0,
00:00:01.916,0.0158054139465094,-0.0103297298774123,-0.00549636455252767,0,
00:00:01.92,-0.0425631962716579,0.00601134868338704,0.00467751827090979,0,
00:00:01.924,0.0027030559722334103,0.00593754136934876,-0.0307694729417562,0,
00:00:01.928,0.0279097445309162,0.00597682781517506,0.000996571267023683,0,
00:00:01.932,0.0188830941915512,0.0052951918914914105,0.011201293207705,0,
00:00:01.936,-0.0174586828798056,-0.00461032008752227,0.00679689552634954,0,
00:00:01.94,-0.0220739934593439,-0.0132259363308549,-0.0205581728368998,0,
00:00:01.944,-0.0185676291584969,0.00551321636885405,0.0225041676312685,0,
00:00:01.948,0.0715817958116531,-0.00394024699926376,0.0110004851594567,0,
00:00:01.952,-0.0168158542364836,-0.0009816183010116222,-0.0255161747336388,0,
00:00:01.956,-0.0201459024101496,0.002998590702191,0.0017578129190951599,0,
00:00:01.96,-0.0203428454697132,0.0103685781359673,0.00642115995287895,0,
00:00:01.964,-0.000163944801897742,-0.0073666009120643096,-0.00111897254828364,0,
00:00:01.968,0.0215069204568863,0.00150154961738735,-0.0114589082077146,0,
00:00:01.972,0.00825881212949753,0.00983094237744808,0.0165937207639217,0,
00:00:01.976,0.000614451826550066,-0.00636338535696268,0.0243133585900068,0,
00:00:01.98,-0.0116333169862628,-0.0165416244417429,-0.0248655378818512,0,
00:00:01.984,-0.023407120257616,-0.0022147123236209197,-0.0251758750528097,0,
00:00:01.988,0.00608477368950844,0.0155044505372643,0.00483818957582116,0,
00:00:01.992,0.0629978775978088,0.00505135161802173,0.0107881184667349,0,
00:00:01.996,-0.0234918911010027,0.0009186395909637211,0.0133693590760231,0,
00:00:02,-0.0338350161910057,-0.0116050727665424,0.00631397636607289,0,
00:00:02.004,-0.0128378914669156,0.00550795299932361,-0.0038860174827277704,0,
00:00:02.008,0.0197220761328936,-0.00257812486961484,-0.0147005161270499,0,
00:00:02.012,0.0323596857488155,0.00443419208750129,-0.0135480919852853,0,
00:00:02.016,-0.0295981597155333,-0.0031644420232623803,0.00998181197792292,0,
00:00:02.02,-0.0138479499146342,-0.00701247900724411,0.0157267991453409,0,
00:00:02.024,0.0156574174761772,0.00150021596346051,-0.00521335750818253,0,
00:00:02.028,0.00317245908081532,0.00670129526406527,0.0010864810319617401,0,
00:00:02.032,-0.00229170173406601,0.00796945579349995,0.00828783679753542,0,
00:00:02.036,-0.0026901427190750803,-0.00429941946640611,-0.00985637865960598,0,
00:00:02.04,0.0053581683896482,-0.0101360082626343,-0.0173113327473402,0,
00:00:02.044,0.0178710017353296,0.000812371494248509,0.0056407977826893295,0,
00:00:02.048,-0.0124288694933057,0.0034642713144421603,0.0159529540687799,0,
00:00:02.052,-0.0143872862681746,0.00238687405362725,-0.00448883371427655,0,
00:00:02.056,-0.0140599114820361,0.00463072396814823,-0.00489853462204337,0,
00:00:02.06,0.0126050747931004,-0.00476162740960717,-0.000406117091188207,0,
00:00:02.064,0.013034051284193998,-0.00856796745210886,0.0088045634329319,0,
00:00:02.068,-0.0139265917241573,0.00283139361999929,0.00516258785501122,0,
00:00:02.072,0.00692398333922029,0.00686580874025822,-0.00116225949022919,0,
00:00:02.076,0.0587502717971802,0.00484794192016125,-0.0174013078212738,0,
00:00:02.08,-0.0565537251532078,-0.0118258977308869,0.0067399456165731,0,
00:00:02.084,-0.0279023423790932,-0.0011685962090268699,-0.0138555001467466,0,
00:00:02.088,0.00695465924218297,0.00982147268950939,-0.0065145678818225895,0,
00:00:02.092,0.0198771879076958,-7.555647607659921e-05,0.0301183760166168,0,
00:00:02.096,-0.0030837741214782,-0.0030704722739756103,0.00799387227743864,0,
00:00:02.1,0.0118566546589136,-0.0024633458815515,-0.011233045719563997,0,
00:00:02.104,0.00723963836207986,-0.000743170618079603,0.0157518722116947,0,
00:00:02.108,-0.0120380893349648,0.0006221373914740981,-0.0236360020935535,0,
00:00:02.112,-0.007551630958914759,0.00112004554830492,-0.0166927501559258,0,
00:00:02.116,-0.0141032114624977,0.000891340838279575,-0.0017661815509200103,0,
00:00:02.12,0.00993539299815893,-0.00380397960543633,0.0293922387063503,0,
00:00:02.124,0.0274727325886488,0.00381541321985424,-0.0025348849594593,0,
00:00:02.128,-0.0218830928206444,0.00499262195080519,-0.00661597261205316,0,
00:00:02.132,0.0138443056493998,0.000105929582787212,-0.00018363214621786,0,
00:00:02.136,0.00789462309330702,-0.00341633148491383,-0.00027207389939576404,0,
00:00:02.14,-0.0362941175699234,-0.00586486514657736,0.009468549862504009,0,
00:00:02.144,0.0203149076551199,-6.86186540406197e-05,-0.00428541237488389,0,
00:00:02.148,0.00902398489415646,-0.00448043644428253,-0.00149659893941134,0,
00:00:02.152,-0.0172318611294031,0.00341587630100548,-0.00018309461302124,0,
00:00:02.156,-0.0208645761013031,0.009740328416228291,-0.0125974398106337,0,
00:00:02.16,0.0058388290926814105,0.0018609709804877602,0.00298691517673433,0,
00:00:02.164,0.0294897854328156,-0.0046375491656363,-0.0017627200577408101,0,
00:00:02.168,0.0065357624553144,0.0025474957656115302,0.0101162837818265,0,
00:00:02.172,0.00790555216372013,-0.00474888551980257,0.0321161821484566,0,
00:00:02.176,-0.0212815925478935,-0.00376273365691304,-0.0148155624046922,0,
00:00:02.18,-0.0154072362929583,-0.0025845365598797802,-0.0419119298458099,0,
00:00:02.184,0.00258211488835514,0.00588794285431504,-0.0077830916270613705,0,
00:00:02.188,0.00559454038739204,0.00412331940606236,0.0225949995219707,0,
00:00:02.192,0.00160282244905829,-0.0039249085821211295,0.0235482845455408,0,
00:00:02.196,0.00948313530534506,-0.00238361791707575,-0.00640444969758391,0,
00:00:02.2,0.0225863102823496,0.006872951518744229,-0.0108004827052355,0,
00:00:02.204,-0.0599413402378559,-0.005903134122490879,-0.00318135553970933,0,
00:00:02.208,0.0213433150202036,0.000886481546331197,0.0405518114566803,0,
00:00:02.212,0.0584502182900906,0.00592504208907485,-0.0286982245743275,0,
00:00:02.216,-0.0462592244148254,-0.005398666020482779,-0.0286752749234438,0,
00:00:02.22,-0.0117545640096068,-0.0018182914936915,0.001356614055112,0,
00:00:02.224,-0.0059714610688388296,0.000358964694896713,0.021570723503827997,0,
00:00:02.228,-0.0323985815048218,0.00115563860163093,0.0022712908685207397,0,
00:00:02.232,0.0515436083078384,0.00307004456408322,-0.00532934255897999,0,
00:00:02.236,0.0458847768604755,-0.00154681247659028,0.0119782295078039,0,
00:00:02.24,-0.0421119965612888,0.000337221834342927,0.0125305550172925,0,
00:00:02.244,0.012901377864182,-0.00251350877806544,-0.019544804468751,0,
00:00:02.248,-0.0537170171737671,-0.00323274312540889,-0.0156760178506374,0,
00:00:02.252,-0.0233313422650099,0.00262651103548706,-0.0024166915100067897,0,
00:00:02.256,0.0937684699892998,-0.0010558232897892599,0.0111304195597768,0,
00:00:02.26,0.0231788139790297,0.00948335975408554,0.007179752923548221,0,
00:00:02.264,-0.0658274292945862,0.00101746444124728,0.00475933589041233,0,
00:00:02.268,-0.0263624154031277,-0.0103267868980765,-0.0089779095724225,0,
00:00:02.272,0.0066029555164277606,-0.00301341922022402,0.0019054422155022602,0,
00:00:02.276,0.0158242825418711,0.00409126607701182,-0.0037681951653212296,0,
00:00:02.28,0.0124459052458405,0.00571652967482805,0.0143329221755266,0,
00:00:02.284,0.0153659312054515,0.0011007139692083,-0.000467011908767745,0,
00:00:02.288,-0.00484448205679655,-0.00467594619840384,-0.00979629531502724,0,
00:00:02.292,-0.009811945259571079,-0.00559558346867561,-0.0178745966404676,0,
00:00:02.296,-0.0153226675465703,0.00348595157265663,-0.0104454355314374,0,
00:00:02.3,0.0016285105375573,0.00118820171337575,0.0433611012995243,0,
00:00:02.304,0.0348964706063271,0.000554173660930246,0.014407685957849,0,
00:00:02.308,-0.00863959360867739,0.00241113221272826,-0.027107497677207004,0,
00:00:02.312,-0.0350858345627785,-0.0018383937422186102,-0.0156231094151735,0,
00:00:02.316,0.00642084423452616,-0.0017020613886416,0.00480521377176046,0,
00:00:02.32,0.00414446042850614,0.00171302584931254,-0.00524761015549302,0,
00:00:02.324,0.0014854779001325401,-0.00549104670062661,0.0132616348564625,0,
00:00:02.328,0.0133568113669753,0.00318948086351156,0.0032072754111141,0,
00:00:02.332,-0.006191095802932979,0.00368065689690411,0.0126942424103618,0,
00:00:02.336,0.0256077591329813,0.00129467190708965,-0.00620088679715991,0,
00:00:02.34,-0.006842647213488821,0.0053190006874501705,-0.0187125038355589,0,
00:00:02.344,-0.0138131659477949,-0.00771121354773641,-0.0173997469246387,0,
00:00:02.348,-0.0550379678606987,-0.0105332806706429,0.0338150598108768,0,
00:00:02.352,0.0202190615236759,0.000768960278946906,0.0231391526758671,0,
00:00:02.356,0.0311646237969399,0.00801386777311563,-0.0281079355627298,0,
00:00:02.36,0.0330962389707565,0.0036215053405612703,-0.0257768891751766,0,
00:00:02.364,-0.0163554660975933,0.0029502606485039,0.0209228731691837,0,
00:00:02.368,-0.0312210507690907,-0.000684963306412101,0.0009448818746022881,0,
00:00:02.372,0.00664428528398275,-0.000906924542505294,-0.0053246165625751,0,
00:00:02.376,-0.0228465627878904,-0.00706778466701508,-0.009488215669989591,0,
00:00:02.38,0.0826755836606026,-0.0012770094908773901,0.0257194060832262,0,
00:00:02.384,0.00693536037579179,0.009782107546925541,0.0285041071474552,0,
00:00:02.388,-0.0924661755561829,-0.0120820142328739,-0.0268414728343487,0,
00:00:02.392,-0.0410734601318836,0.0007576015195809299,-0.0238336939364672,0,
00:00:02.396,0.068253256380558,0.0108686210587621,-0.00122636987362057,0,
00:00:02.4,0.00934573728591204,-0.00232835789211094,-0.00205283844843507,0,
00:00:02.404,-0.0102819474413991,-0.0059970822185277895,0.00784911494702101,0,
00:00:02.408,0.0205383319407701,-0.0037433342076838,0.0137347336858511,0,
00:00:02.412,0.0012107628863304901,0.0105034252628684,-0.006448981817811729,0,
00:00:02.416,0.0114233139902353,0.0011902470141649199,0.005269322544336321,0,
00:00:02.42,-0.0195284001529217,-0.00451573822647333,0.0199296455830336,0,
00:00:02.424,-0.0233585070818663,-0.004806750454008579,-0.0193270966410637,0,
00:00:02.428,-0.00932903867214918,0.00839799735695124,-0.0111259119585156,0,
00:00:02.432,0.007127777207642791,-0.000468185899080709,-0.0075822668150067295,0,
00:00:02.436,0.0223048180341721,-0.00298646092414856,0.007971224375069141,0,
00:00:02.44,0.00342832948081195,-0.0022028274834156,-0.000776586530264467,0,
00:00:02.444,-0.00649480894207954,-0.004635581746697429,0.00624549575150013,0,
00:00:02.448,0.0197289902716875,0.00889279879629612,0.000701192242559046,0,
00:00:02.452,-0.0309110414236784,0.00258981180377305,0.0069581847637891795,0,
00:00:02.456,0.0152074005454779,-0.00818332750350237,-0.000731366919353604,0,
00:00:02.46,-0.0243240874260664,0.00264217262156308,-0.0104358252137899,0,
00:00:02.464,0.0323834009468555,-0.0014940679538995,-0.004298741929233071,0,
00:00:02.468,0.0212382469326258,0.0040112710557878,0.023456983268261,0,
00:00:02.472,-0.0454767532646656,0.00165866909082979,-0.0123001905158162,0,
00:00:02.476,-0.0269257128238678,-0.00343145430088043,0.00226460117846727,0,
00:00:02.48,0.0139721855521202,-0.00674856826663017,-0.0160605423152447,0,
00:00:02.484,0.00039262929931282997,0.00156899204012007,-0.00619085878133774,0,
00:00:02.488,0.0596285834908485,0.00443689059466124,0.0119872456416488,0,
00:00:02.492,0.00512361340224743,0.0138249443843961,0.0064859944395721,0,
00:00:02.496,-0.0219809133559465,-0.00887325685471296,-0.00321805151179433,0,
00:00:02.5,-0.0327674597501755,-0.00508526526391506,0.0103388847783208,0,
00:00:02.504,-0.013873347081243999,-0.008750418201088909,0.00569213554263115,0,
00:00:02.508,0.00990756042301655,0.0075877471826970595,-0.000375381467165425,0,
00:00:02.512,0.0231022201478481,0.00186348019633442,-0.0193455517292023,0,
00:00:02.516,-0.0023747121449559897,-0.00180444750003517,-0.0150858368724585,0,
00:00:02.52,-0.000470722938189283,0.00411242619156837,0.009912689216434959,0,
00:00:02.524,-0.002652628114447,-0.00232427893206477,0.00601754058152437,0,
00:00:02.528,-0.0115426266565919,-0.00361360656097531,0.00557072227820754,0,
00:00:02.532,-0.00220765499398112,0.00863718893378973,-0.00030828095623292,0,
00:00:02.536,0.0437842793762684,0.0033057075925171397,0.0153450770303607,0,
00:00:02.54,0.008267556317150591,-0.00958204455673695,0.0085817901417613,0,
00:00:02.544,-0.0369283184409142,-0.00602761283516884,-0.0241128969937563,0,
00:00:02.548,-0.0293364357203245,0.006750307511538271,-0.0240904409438372,0,
00:00:02.552,-0.00590569386258721,0.000389955122955143,0.0163643769919872,0,
00:00:02.556,0.01610292121768,-0.0026336340233683603,-0.00438021356239915,0,
00:00:02.56,0.0195435732603073,-3.7505120417335995e-05,0.00956297386437655,0,
00:00:02.564,0.0158443581312895,0.0041899955831468105,0.0166474133729935,0,
00:00:02.568,-0.000541232526302338,0.0044640526175499,-0.00985239632427692,0,
00:00:02.572,-0.0171193405985832,-0.0024070376530289698,-0.0157981868833303,0,
00:00:02.576,-0.0159434713423252,-0.00779325421899557,0.0100060999393463,0,
00:00:02.58,0.0191953331232071,0.0100927175953984,0.00855556968599558,0,
00:00:02.584,0.0262995772063732,-0.00480785593390465,-0.00574033102020621,0,
00:00:02.588,-0.0145358722656965,-0.00930844526737928,0.00522707868367434,0,
00:00:02.592,-0.0278822723776102,0.0007866143132559959,0.0038226123433560103,0,
00:00:02.596,-0.0268222168087959,0.00536146434023976,-0.0281728077679873,0,
00:00:02.6,0.0334685780107975,0.00703498348593712,0.0065212519839406,0,
00:00:02.604,0.00672121671959758,0.00637697800993919,0.0135787585750222,0,
00:00:02.608,-0.000840284512378275,-0.00618181983008981,-0.00466720573604107,0,
00:00:02.612,0.00939150992780924,-0.007154705002903941,0.00122799817472696,0,
00:00:02.616,-0.00949977152049541,-0.00543418386951089,0.000119460884889122,0,
00:00:02.62,0.0198228806257248,0.006748350802809,-0.00953265652060509,0,
00:00:02.624,-0.0112432828173041,-0.00171001092530787,0.0108896689489484,0,
00:00:02.628,-0.00801224820315838,0.005667779128998521,0.0148858623579144,0,
00:00:02.632,-0.0225347578525543,-0.008305838331580159,0.0112643474712968,0,
00:00:02.636,0.00493221031501889,0.0035333982668817,-0.0215520970523357,0,
00:00:02.64,0.0281367134302855,0.0043616634793579604,-0.0193921271711588,0,
00:00:02.644,-0.0178447291254997,0.00140882947016507,-0.0118569182232022,0,
00:00:02.648,0.00563445687294006,-0.00128901947755367,0.007612430956214671,0,
00:00:02.652,0.0201064199209213,-0.0022877233568579,0.0147170871496201,0,
00:00:02.656,-0.0117684276774526,0.000291694275802001,0.0031748434994369698,0,
00:00:02.66,-0.00456095393747091,-0.0026104347780346896,0.0118245705962181,0,
00:00:02.664,-0.0162689741700888,-0.00127736770082265,0.00397747894749045,0,
00:00:02.668,0.0234169159084558,0.0027207904495298897,0.0076730907894671,0,
00:00:02.672,-0.0174980368465185,-0.00453392788767815,-0.0076835504733026,0,
00:00:02.676,-0.00184220401570201,0.00580369168892503,-0.0283160675317049,0,
00:00:02.68,0.01155467890203,-0.00029774277936667204,-0.0155374808236957,0,
00:00:02.684,-0.0166983716189861,0.0014013862237334301,0.00915135350078344,0,
00:00:02.688,0.0180289372801781,-0.0018218572949990602,0.0158395506441593,0,
00:00:02.692,0.018846794962883,0.00514454348012805,0.00716235488653183,0,
00:00:02.696,-0.0133383208885789,-0.00572856469079852,0.000931987422518432,0,
00:00:02.7,-0.0291222557425499,1.40403853947646e-05,0.0102848969399929,0,
00:00:02.704,0.000118450450827368,-0.0017614908283576397,-0.0124188987538218,0,
00:00:02.708,0.0471887364983559,0.0015851159114390599,-0.0010039279004558901,0,
00:00:02.712,-0.0055424296297133,-0.0031223404221236697,0.0142106413841248,0,
00:00:02.716,-0.0154574671760201,-0.000316440680762753,-0.0174773782491684,0,
00:00:02.72,-0.0136091914027929,0.00449891947209835,-0.00922921858727932,0,
00:00:02.724,-0.0286401435732841,0.0029950470197945803,-0.00452524516731501,0,
00:00:02.728,-0.0013744457392022,-0.0040632304735481704,0.00463716546073556,0,
00:00:02.732,0.0516995787620544,0.00217714812606573,0.00461028190329671,0,
00:00:02.736,0.0400725267827511,0.00954272318631411,0.0255627315491438,0,
00:00:02.74,-0.0436517260968685,-0.00464243721216917,-0.0204051285982132,0,
00:00:02.744,-0.0333296470344067,-0.0165435411036015,0.00337634538300335,0,
00:00:02.748,0.0179893430322409,-0.00570273259654641,-0.00045699565089307693,0,
00:00:02.752,0.0172881092876196,0.0159749686717987,0.00257439888082445,0,
00:00:02.756,-0.022201556712389003,-0.00231923209503293,0.00521648395806551,0,
00:00:02.76,-0.0007322614546865219,0.00505884597077966,-0.0114644831046462,0,
00:00:02.764,-0.0054974481463432295,0.00505085941404104,-0.0102591458708048,0,
00:00:02.768,0.0451679080724716,0.00126214930787683,-0.00238441559486091,0,
00:00:02.772,-0.0195493958890438,-0.00868091825395823,0.0147326439619064,0,
00:00:02.776,-0.0236504953354597,-0.0105933779850602,0.0031429817900061603,0,
00:00:02.78,0.0028675319626927397,0.0029145455919206103,-0.0066805761307478,0,
00:00:02.784,0.00120386970229447,0.00191613368224353,0.0131260342895985,0,
00:00:02.788,0.0123905055224895,0.0121692568063736,0.00442242436110973,0,
00:00:02.792,0.0222940258681774,0.00224015908315778,-0.0207574926316738,0,
00:00:02.796,-0.020180705934763,-0.00840584374964237,-7.484525849577041e-05,0,
00:00:02.8,-0.00851339846849442,0.000379694800358266,0.0086726788431406,0,
00:00:02.804,-0.00389793678186834,-0.0105752786621451,-0.005148260854184629,0,
00:00:02.808,-0.0027274249587208,0.00397876091301441,0.0010652708588168,0,
00:00:02.812,0.0224978681653738,0.00827364809811115,-0.0022980037610977897,0,
00:00:02.816,-0.00271549914032221,0.00129515398293734,-0.0139152305200696,0,
00:00:02.82,-0.0320131927728653,-0.00392803782597184,0.0249829180538654,0,
00:00:02.824,0.005131026729941371,-0.000330301932990551,0.0146678164601326,0,
00:00:02.828,0.0726876854896545,0.00233035604469478,-0.00787091441452503,0,
00:00:02.832,-0.0513103902339935,-0.00201372592709959,-0.0113788126036525,0,
00:00:02.836,-0.0273224078118801,0.000145002515637316,-0.0172310881316662,0,
00:00:02.84,0.00547521887347102,-0.00658194767311215,-0.00789826735854149,0,
00:00:02.844,0.0159701220691204,0.00305004464462399,0.0222208704799414,0,
00:00:02.848,0.0038558226078748703,0.00836995895951986,0.0107160732150078,0,
00:00:02.852,-0.00533031253144145,-0.00609630020335317,0.00409889128059149,0,
00:00:02.856,0.00620917836204171,0.0044108103029429895,-0.0157475955784321,0,
00:00:02.86,0.0151470182463527,-0.00472617987543345,-0.0156659316271544,0,
00:00:02.864,0.00660959305241704,-0.000843422836624086,0.0111643979325891,0,
00:00:02.868,-0.0440865568816662,0.0050035677850246395,0.0243306327611208,0,
00:00:02.872,-0.0167180560529232,-0.00700654415413737,-0.014120158739388001,0,
00:00:02.876,0.0335236117243767,0.00130410923156887,-0.00066370441345498,0,
00:00:02.88,0.0516405552625656,-0.00115586188621819,-0.0200594961643219,0,
00:00:02.884,-0.0462697818875313,0.0119229545816779,0.00400241697207093,0,
00:00:02.888,-0.0182291511446238,-0.00264191441237926,0.025726068764925,0,
00:00:02.892,-0.0323739312589169,-0.00561375170946121,0.0006566821830347179,0,
00:00:02.896,0.106924839317799,-0.0033794790506362898,-0.0132785243913531,0,
00:00:02.9,-0.0284325461834669,-0.00229612272232771,-0.012958625331521001,0,
00:00:02.904,-0.0622228495776653,0.00162793474737555,0.005416900850832461,0,
00:00:02.908,-0.00584703544154763,0.00565860280767083,0.0161837227642536,0,
00:00:02.912,0.0185544770210981,0.007241181097924709,-0.00805051531642675,0,
00:00:02.916,0.0349709540605545,-0.000240358131122775,-0.007140304893255229,0,
00:00:02.92,0.0099428528919816,-0.0158432442694902,0.00592331076040864,0,
00:00:02.924,-0.0142239481210709,-0.0021805118303746,0.00855094380676746,0,
00:00:02.928,-0.0142263397574425,0.00904126092791557,-0.0020720825996249897,0,
00:00:02.932,0.00230676587671041,0.00394403235986829,-0.0206459145992994,0,
00:00:02.936,0.008109470829367641,0.00218590022996068,0.00687577854841948,0,
00:00:02.94,-0.0218047685921192,-0.0078797796741128,-0.000456332607427612,0,
00:00:02.944,0.00635095220059156,0.0024863481521606398,0.0182631425559521,0,
00:00:02.948,-0.00721456995233893,0.0021148519590497,0.000681991456076503,0,
00:00:02.952,0.0259723532944918,-0.00462478445842862,-0.0148202488198876,0,
00:00:02.956,-0.004549802280962471,-6.556822881975679e-06,0.0159485787153244,0,
00:00:02.96,0.00278839166276157,-0.000547127623576671,-0.0145588740706444,0,
00:00:02.964,-0.0186069626361132,0.0053731407970190005,-0.00860855262726545,0,
00:00:02.968,0.007891803979873659,0.0022389718797057897,0.0028531588613987,0,
00:00:02.972,-0.004905398003757,-0.00573710678145289,-0.00217096111737192,0,
00:00:02.976,0.0352188646793365,-0.0053720213472843205,0.0269951540976763,0,
00:00:02.98,-0.007759776432067159,0.0151372831314802,-0.0141426688060164,0,
00:00:02.984,-0.0358193516731262,-0.007473904173821209,-0.00188377639278769,0,
00:00:02.988,-0.0454082041978836,-0.00719713931903243,5.631547082884941e-06,0,
00:00:02.992,0.0681132152676582,0.0011952541535720199,-0.009063703939318659,0,
00:00:02.996,0.00310272676870227,0.00371121126227081,0.00464553665369749,0,
00:00:03,0.012004024349153,0.0028292436618357897,0.0015523980837315301,0,
00:00:03.004,-0.0194133426994085,-0.0012326881987974,0.00828909501433373,0,
00:00:03.008,-0.0019915748853236398,0.00331363547593355,0.012721186503768,0,
00:00:03.012,-0.009159173816442491,0.000404100748710334,-0.0135151520371437,0,
00:00:03.016,-0.0069546685554087205,-0.00661231018602848,-0.0219991914927959,0,
00:00:03.02,-0.00675749778747559,-0.00530650839209557,-0.00715740956366062,0,
00:00:03.024,0.0543361343443394,0.00949159637093544,0.0281371250748634,0,
00:00:03.028,-0.0216408334672451,0.005307022016495471,0.00141472008544952,0,
00:00:03.032,-0.0221534576267004,-0.00989192072302103,-0.0018093070248141898,0,
00:00:03.036,0.0150497667491436,-0.00530534936115146,-0.00618725968524814,0,
00:00:03.04,-0.0126555040478706,0.01232969481498,0.0171211417764425,0,
00:00:03.044,0.00452630780637264,-0.00247218552976847,-0.0132573377341032,0,
00:00:03.048,-0.00669716205447912,-0.00156029127538204,-0.0176254902034998,0,
00:00:03.052,0.0221072006970644,-0.00282745785079896,0.0232820212841034,0,
00:00:03.056,-0.00982523243874311,0.0018271718872711101,-0.00927830394357443,0,
00:00:03.06,0.0018219000194221698,0.00390348630025983,-0.0137336617335677,0,
00:00:03.064,0.00679491134360433,-0.00152779335621744,0.0198733080178499,0,
00:00:03.068,-0.00833875499665737,-0.000213815554161556,0.0141617394983768,0,
00:00:03.072,-0.0248007345944643,-0.0072651500813663,-0.0150417536497116,0,
00:00:03.076,-0.00753322103992105,0.00456028431653976,0.00405516708269715,0,
00:00:03.08,0.0664186775684357,0.00199819705449045,-0.0177993476390839,0,
00:00:03.084,-0.0136853698641062,0.00249232118949294,-0.007744222879409791,0,
00:00:03.088,-0.0222163926810026,-0.00442906329408288,0.00339097040705383,0,
00:00:03.092,-0.0109331961721182,-0.00232092523947358,0.0192030183970928,0,
00:00:03.096,0.0135987512767315,0.00509018218144774,0.0127681260928512,0,
00:00:03.1,-0.0257105175405741,0.000528783712070435,-0.00761646218597889,0,
00:00:03.104,-0.006536524742841721,-0.00329728983342648,-0.00170541205443442,0,
00:00:03.108,0.0315133221447468,0.00278766523115337,-0.015216319821775,0,
00:00:03.112,0.0027884764131158603,-0.0009280762751586741,-0.000380511395633221,0,
00:00:03.116,0.049731258302926996,-0.00138179119676352,-0.00629815878346562,0,
00:00:03.12,-0.0251288749277592,-0.000581546279136091,0.00517933536320925,0,
00:00:03.124,-0.0453986302018166,0.000260481116129085,0.0197635926306248,0,
00:00:03.128,-0.0247740242630243,0.0027214728761464396,0.0115361344069242,0,
00:00:03.132,0.0128844156861305,-0.00348128867335618,-0.0161909982562065,0,
00:00:03.136,0.0169745199382305,-0.00148413551505655,-0.029251940548419997,0,
00:00:03.14,0.0204677060246468,0.00546678155660629,0.0240676086395979,0,
00:00:03.144,0.0136271612718701,-0.0016053573926910801,0.0038812274578958797,0,
00:00:03.148,0.0184078384190798,0.00047058489872142694,0.00514046009629965,0,
00:00:03.152,-0.0441887713968754,-0.0019853708799928396,-0.0175266992300749,0,
00:00:03.156,-0.014738904312253,0.0055451737716794,-0.00606182357296348,0,
00:00:03.16,-0.0130001092329621,-0.00308708613738418,0.00884397607296705,0,
00:00:03.164,0.0257909204810858,-0.005697315558791161,0.0169658269733191,0,
00:00:03.168,0.0357716530561447,0.0027671600691974198,-0.0109562193974853,0,
00:00:03.172,-0.040579691529274,0.00263691926375031,0.00177096191328019,0,
00:00:03.176,0.00573466951027513,-0.005822142120450739,-0.0035230191424489,0,
00:00:03.18,0.00936575885862112,0.00481469603255391,-0.0109060257673264,0,
00:00:03.184,-0.0257630944252014,0.0036023680586367798,0.00565921235829592,0,
00:00:03.188,0.00208128127269447,-0.00639127474278212,0.0162344332784414,0,
00:00:03.192,0.045831710100174006,0.0055650295689702,0.00230739801190794,0,
00:00:03.196,-0.020601736381650002,-0.00578132830560207,-0.0234613381326199,0,
00:00:03.2,0.0154097760096192,0.0035695121623575705,0.00946815963834524,0,
00:00:03.204,-0.031905684620142004,0.00239784899167717,-0.00207625003531575,0,
00:00:03.208,-0.022481631487607998,-0.000691544788423926,0.00739070679992437,0,
00:00:03.212,0.035785373300314,-0.0105817830190063,0.00455140834674239,0,
00:00:03.216,-0.00984618719667196,0.00591350346803665,-0.0154634518548846,0,
00:00:03.22,0.0209282040596008,0.0016848053783178301,-0.0132439909502864,0,
00:00:03.224,0.000629782094620168,0.0051289927214384105,0.0309245716780424,0,
00:00:03.228,-0.0226863790303469,0.0009688519057817759,0.0023874775506556,0,
00:00:03.232,-0.007125394418835641,-0.00692234979942441,-0.0230282917618752,0,
00:00:03.236,0.012470074929296998,0.000281828019069508,0.0117363827303052,0,
00:00:03.24,-0.004075932316482071,-0.0052725602872669705,0.00612797634676099,0,
00:00:03.244,0.007611437700688841,0.0080461036413908,-0.0128655694425106,0,
00:00:03.248,-0.009797791019082071,-0.00173634046223015,-0.000515430583618581,0,
00:00:03.252,-0.00985870603471994,0.0023708753287792197,-0.0010960036888718599,0,
00:00:03.256,0.0707680881023407,-0.00571345537900925,0.000285470741800964,0,
00:00:03.26,-0.024066923186183,0.0043454235419631,0.00804577488452196,0,
00:00:03.264,-0.04906040802598,0.0028257947415113397,0.00063500483520329,0,
00:00:03.268,-0.0306356959044933,-0.00284606986679137,0.0138349737972021,0,
00:00:03.272,0.0243644006550312,-0.00480621913447976,-0.00808790605515242,0,
00:00:03.276,0.0441294834017754,-0.000888597744051367,-0.0280804447829723,0,
00:00:03.28,0.0176314283162355,0.0044328449293971105,0.0054818051867187,0,
00:00:03.284,-0.0179115533828735,0.00110367871820927,0.0215844865888357,0,
00:00:03.288,-0.0212366580963135,0.00856449082493782,0.00698366109281778,0,
00:00:03.292,-0.00875462591648102,-0.0037374114617705297,-0.0174618680030108,0,
00:00:03.296,-0.00553489476442337,-0.010695131495595,0.0132026700302958,0,
00:00:03.3,0.00298336823470891,-0.00846847519278526,-0.0170523021370173,0,
00:00:03.304,0.0288579370826483,0.0107539594173431,-0.00532808061689138,0,
00:00:03.308,-0.00975779909640551,0.0110673001036048,0.0102887842804193,0,
00:00:03.312,-0.00987719930708408,-0.00650557782500982,0.0012772758491337302,0,
00:00:03.316,-0.000831676239613444,0.000729233783204108,-0.0016505754319950901,0,
00:00:03.32,0.0403414182364941,-0.00211453041993082,0.00509424367919564,0,
00:00:03.324,-0.0343685932457447,0.000232619335292839,0.008968028239905829,0,
00:00:03.328,-0.00497354567050934,-0.000429090898251161,-0.00907835084944963,0,
00:00:03.332,-0.0252302847802639,-0.009285242296755309,-0.00184902630280703,0,
00:00:03.336,0.0560492053627968,0.00506448280066252,-0.00770616810768843,0,
00:00:03.34,-0.0352852232754231,0.00635131960734725,-0.0123608289286494,0,
00:00:03.344,-0.0223052371293306,0.000625236483756453,0.021834421902895,0,
00:00:03.348,0.081005834043026,0.007222983520478009,0.0118866683915257,0,
00:00:03.352,-0.0355537496507168,-0.00488697644323111,-0.0120679102838039,0,
00:00:03.356,-0.0417821146547794,-0.0174334421753883,0.007387525402009491,0,
00:00:03.36,0.0109272403642535,0.0037687653675675396,-0.0288677923381329,0,
00:00:03.364,0.0214116014540195,0.0122201144695282,0.0200424585491419,0,
00:00:03.368,-0.0167311541736126,0.0009416991961188609,0.0144098084419966,0,
00:00:03.372,0.0462089963257313,-0.00495447916910052,-0.0101992469280958,0,
00:00:03.376,-0.0169754140079021,-0.000742125848773867,-0.0258727334439754,0,
00:00:03.38,-0.00916746445000172,0.00465681264176965,0.00971111468970776,0,
00:00:03.384,-0.0529435761272907,-0.00347365811467171,0.0203023999929428,0,
00:00:03.388,0.0468273535370827,-0.00731741543859243,-0.0076539576984942,0,
00:00:03.392,0.0203558038920164,0.00552907725796103,0.0056772455573082,0,
00:00:03.396,-0.0287211611866951,0.00486546475440264,-0.0115616638213396,0,
00:00:03.4,0.00540977157652378,-0.00340922735631466,-0.00958884321153164,0,
00:00:03.404,0.0114671122282743,-0.00027595431311056,0.0216328129172325,0,
00:00:03.408,-0.0199306383728981,-0.0015862351283431099,0.008587869815528391,0,
00:00:03.412,-0.0124153420329094,0.00225392868742347,-0.0137014454230666,0,
00:00:03.416,0.0153848482295871,0.00361989345401526,-0.0132392635568976,0,
00:00:03.42,0.0476550199091434,-0.0062441979534924,-8.902629633666949e-05,0,
00:00:03.424,-0.0208402667194605,0.00327258789911866,0.008198549970984459,0,
00:00:03.428,-0.0296040959656239,-1.8221016944153197e-05,0.0187820233404636,0,
00:00:03.432,-0.0119056291878223,0.00102756929118186,-0.0123173119500279,0,
00:00:03.436,0.0200101472437382,-0.000706068472936749,-0.0243356674909592,0,
00:00:03.44,-0.00317002763040364,-0.00585984345525503,0.00721080508083105,0,
00:00:03.444,0.025963056832552,0.00255824322812259,0.0371019765734673,0,
00:00:03.448,-0.0296191908419132,-0.00126113824080676,-0.0107465609908104,0,
00:00:03.452,0.0150928618386388,-0.00140814599581063,-0.0213029161095619,0,
00:00:03.456,-0.022498045116662996,0.0105147277936339,-0.00614227587357163,0,
00:00:03.46,0.0116153405979276,-0.00210117665119469,0.0050563262775540395,0,
00:00:03.464,0.00413506338372827,-0.00177205831278116,0.0271747708320618,0,
00:00:03.468,0.0193809643387794,0.00242527201771736,-0.0137706240639091,0,
00:00:03.472,0.008846576325595379,-0.00310008483938873,0.00331116700544953,0,
00:00:03.476,-0.042853519320488,-0.011926875449716998,-0.0178345944732428,0,
00:00:03.48,-0.00434751994907856,0.00209173560142517,0.00113800494000316,0,
00:00:03.484,0.0038148597814142704,0.00897599849849939,-0.00193290039896965,0,
00:00:03.488,0.0288692470639944,0.0097615784034133,0.0127666583284736,0,
00:00:03.492,-0.0266046430915594,-0.0037080000620335297,0.00804068055003881,0,
00:00:03.496,0.0162848345935345,-0.0042959856800735,-0.0149325309321284,0,
00:00:03.5,0.0048065013252198705,-0.00796933006495237,0.000134996196720749,0,
00:00:03.504,0.0112804360687733,-0.0022198508959263602,0.0344650596380234,0,
00:00:03.508,-0.0213950332254171,0.00933336839079857,-0.017121272161602998,0,
00:00:03.512,-0.000711824686732143,-0.0011449289740994599,-0.0342030338943005,0,
00:00:03.516,-0.0265119913965464,-0.0036165858618915103,0.007103479001671079,0,
00:00:03.52,0.0637039542198181,0.00437141070142388,0.00564035819843411,0,
00:00:03.524,-0.009391136467456821,0.0072631500661373095,0.0134031334891915,0,
00:00:03.528,-0.0202146247029305,-3.95848383050179e-06,0.0146738272160292,0,
00:00:03.532,-0.0475792922079563,-0.0136402333155274,-0.00983207393437624,0,
00:00:03.536,0.0257464572787285,7.63267325964989e-06,-0.0249669160693884,0,
00:00:03.54,0.0012428789632394901,-0.000730851199477911,-0.00463505880907178,0,
00:00:03.544,0.0181220397353172,0.00857452675700188,0.0289397928863764,0,
00:00:03.548,0.0301056168973446,-0.00212136330083013,0.00806089304387569,0,
00:00:03.552,-0.00941481254994869,4.7116685891524e-05,-0.0122186411172152,0,
00:00:03.556,-0.0212777853012085,-0.0016457776073366401,-0.0124694798141718,0,
00:00:03.56,-0.0133788464590907,-1.9580935259000398e-05,0.00153383077122271,0,
00:00:03.564,0.0046046650968492,0.00330726895481348,0.00303150387480855,0,
00:00:03.568,-0.008320841006934641,0.00759251089766622,0.00769174890592694,0,
00:00:03.572,0.0249303933233023,-0.006943663116544489,0.00263558002188802,0,
00:00:03.576,-0.0341076701879501,-0.0069348057731986,-0.00244629010558128,0,
00:00:03.58,0.0535419695079327,-0.00421442091464996,-0.0208522416651249,0,
00:00:03.584,0.0042003826238215,0.00393418036401272,0.00850840285420418,0,
00:00:03.588,-0.0452507771551609,0.000930192472878844,0.0307392235845327,0,
00:00:03.592,-0.0146031500771642,0.0130329336971045,-0.00191056355834007,0,
00:00:03.596,0.016452843323349998,-0.00459588086232543,-0.0262161400169134,0,
00:00:03.6,0.018411323428154,-0.00622314726933837,-0.021023616194725,0,
00:00:03.604,0.0123225199058652,0.00371638545766473,0.00798029825091362,0,
00:00:03.608,-0.0436907298862934,-0.00699565839022398,0.0119732469320297,0,
00:00:03.612,0.0162915959954262,-0.000529348384588957,0.0155124003067613,0,
00:00:03.616,0.0359508320689201,0.0051486068405211,0.0249632205814123,0,
00:00:03.62,0.00575207825750113,0.009709827601909641,-0.0189372058957815,0,
00:00:03.624,-0.0546128004789352,-0.00776807824149728,-0.0264639649540186,0,
00:00:03.628,-0.0134474020451307,-0.00271219410933554,-0.0059924004599452,0,
00:00:03.632,0.0209116116166115,-0.0050869234837591605,0.00383128901012242,0,
00:00:03.636,0.00750755425542593,0.00174905930180103,0.00274768867529929,0,
00:00:03.64,0.012973215430975,0.0035494442563504,0.0264289584010839,0,
00:00:03.644,-0.00025688949972391096,-0.0037253575865179296,0.0009686327539384369,0,
00:00:03.648,0.0285191815346479,0.0169309843331575,-0.0139102442190051,0,
00:00:03.652,-0.0253562517464161,-0.00572915468364954,-0.0327940098941326,0,
00:00:03.656,-0.0316470861434937,-0.0130886016413569,0.0470566339790821,0,
00:00:03.66,0.00837498437613249,-0.00459649227559567,0.00670137722045183,0,
00:00:03.664,-0.00212302152067423,0.0059029832482338,-0.0220407303422689,0,
00:00:03.668,0.008621986024081709,0.00899498909711838,-0.0184290688484907,0,
00:00:03.672,0.0115338191390038,0.009831857867538929,-0.0105634164065123,0,
00:00:03.676,0.00913356710225344,-0.00573377404361963,0.0211614947766066,0,
00:00:03.68,-0.0121141634881496,-0.0152893606573343,0.0201486498117447,0,
00:00:03.684,-0.00676235323771834,-0.00387099361978471,-0.00146525306627154,0,
00:00:03.688,0.0140874115750194,0.0102978413924575,-0.00763185461983085,0,
00:00:03.692,-0.0067339725792408,0.000409368571126834,-0.0103347208350897,0,
00:00:03.696,-0.0122990645468235,-0.00046135677257552694,0.0036174494307488203,0,
00:00:03.7,-0.00710512232035398,0.00271660927683115,0.00613532355055213,0,
00:00:03.704,0.0238077566027641,0.00745446886867285,-0.00325211184099317,0,
00:00:03.708,-0.000853024481330067,-0.0109064057469368,-0.00131556077394634,0,
00:00:03.712,-0.0287781003862619,-0.00274712615646422,0.00761908013373613,0,
00:00:03.716,-0.00252582179382443,-0.00289856712333858,-0.0206108801066875,0,
00:00:03.72,0.11875484138727199,0.012440568767488001,0.0199508164077997,0,
00:00:03.724,-0.0754840672016144,-0.00517981825396419,-0.00222007487900555,0,
00:00:03.728,-0.0601619519293308,-0.000141129203257151,-0.0252103041857481,0,
00:00:03.732,-0.0134298335760832,0.00483625289052725,0.0185155533254147,0,
00:00:03.736,0.0604908429086208,0.000323845684761181,0.00941841490566731,0,
00:00:03.74,0.0035701319575309797,-0.0118238814175129,0.00727334106341004,0,
00:00:03.744,-0.00912234280258417,-0.00440753204748034,-0.0116261458024383,0,
00:00:03.748,-0.0052235918119549795,0.0102894576266408,-0.00944609194993973,0,
00:00:03.752,0.0113082593306899,0.0136731425300241,0.00443849200382829,0,
00:00:03.756,0.0210251566022635,-0.00944087281823158,-0.00432285806164145,0,
00:00:03.76,-0.00555483577772975,-0.0151325650513172,-0.0166623964905739,0,
00:00:03.764,-0.0322633311152458,0.0102645447477698,0.0491238534450531,0,
00:00:03.768,-0.009758687578141691,0.0044211195781827,-0.00342735811136663,0,
00:00:03.772,0.0032566455192863898,0.00031176311313174703,-0.0165541879832745,0,
00:00:03.776,0.0105105489492416,-0.00370742357335985,-0.0326336324214935,0,
00:00:03.78,-0.000310095929307863,0.00224226992577314,0.00223527220077813,0,
00:00:03.784,0.0295069422572851,0.000704194128047675,0.0355752967298031,0,
00:00:03.788,-0.0100715961307287,-0.00770498299971223,0.0018099970184266602,0,
00:00:03.792,-0.0101777845993638,-0.000306726054986939,0.000277758605079725,0,
00:00:03.796,0.00422360794618726,0.00759101845324039,-0.0188148524612188,0,
00:00:03.8,-0.0196572598069906,0.0016897919122129698,-0.0111834881827235,0,
00:00:03.804,0.0034397526178509,-0.00144194532185793,0.020026832818985003,0,
00:00:03.808,0.0167586728930473,-0.00423756148666143,0.007422565948218109,0,
00:00:03.812,-0.00454993965104222,0.00260124425403774,-0.0154989650472999,0,
00:00:03.816,-0.00792093854397535,0.00347918807528913,0.007011926267296079,0,
00:00:03.82,0.00481451209634542,-0.00701728509739041,-0.00789074599742889,0,
00:00:03.824,0.0145322857424617,-0.00158252823166549,0.00348490849137306,0,
00:00:03.828,-0.00753153814002872,0.00168351526372135,0.0042895004153251605,0,
00:00:03.832,-0.037382822483778,0.0045659956522285895,-0.00680501526221633,0,
00:00:03.836,0.0206856559962034,-0.0023650242947042,0.0192901324480772,0,
00:00:03.84,0.0286888685077429,-0.00134955148678273,-0.0031772679649293397,0,
00:00:03.844,-0.0096662500873208,0.007018165197223421,-0.0188650321215391,0,
00:00:03.848,0.00036333239404484597,-0.0042722038924694105,-0.0022712696809321603,0,
00:00:03.852,-0.0198510102927685,-0.00581539329141378,-0.00606997078284621,0,
00:00:03.856,0.00129735469818115,0.00785260461270809,0.0106196021661162,0,
00:00:03.86,0.00963924918323755,-0.00030453421641141203,0.0253366362303495,0,
00:00:03.864,0.0121543714776635,-0.0024680127389729,-0.0136254988610744,0,
00:00:03.868,-0.0099851805716753,-0.0038119505625218205,-0.013572059571743,0,
00:00:03.872,-0.0230133663862944,0.00376797397620976,0.0157203115522861,0,
00:00:03.876,0.0189306847751141,0.000393444672226906,-0.00661796610802412,0,
00:00:03.88,0.0157038476318121,-0.00463994406163692,-0.0222738459706306,0,
00:00:03.884,0.0366557575762272,0.0098273353651166,0.0180146619677544,0,
00:00:03.888,-0.0563903525471687,-0.00472475495189428,0.0125547340139747,0,
00:00:03.892,-0.0341499969363213,-0.000323597982060164,-0.00118500518146902,0,
00:00:03.896,0.00862480234354734,-0.0023425982799381,-0.0230525210499763,0,
00:00:03.9,0.0191603749990463,0.00326120341196656,0.0101559413596988,0,
00:00:03.904,0.0289775338023901,-0.0031666997820138897,0.0191651713103056,0,
00:00:03.908,0.0166314020752907,-0.008056081831455229,-0.00978307798504829,0,
00:00:03.912,-0.0282801873981953,0.00464519578963518,-0.0173706226050854,0,
00:00:03.916,-0.0165158417075872,0.006915123201906679,0.00439781369641423,0,
00:00:03.92,0.0149976909160614,0.0101019404828548,0.0183683894574642,0,
00:00:03.924,-0.0150722498074174,-0.0018784521380439399,-0.00768670020624995,0,
00:00:03.928,0.0028813646640628602,-0.0135028762742877,-0.0106351561844349,0,
00:00:03.932,0.0309654008597136,-0.000599703926127404,-0.0021378102246671898,0,
00:00:03.936,-0.015843141824007,8.316797175211829e-05,0.0046996753662824605,0,
00:00:03.94,-0.0022142282687127603,0.00341173144988716,0.0290885791182518,0,
00:00:03.944,-0.0469926707446575,-0.0022346677724272,-0.0261470191180706,0,
00:00:03.948,0.0491040013730526,0.00173756259027869,-0.0035381913185119603,0,
00:00:03.952,0.0151988277211785,0.00618195766583085,-0.00337415421381593,0,
00:00:03.956,-0.0189793687313795,-0.00518955895677209,0.008528590202331541,0,
00:00:03.96,-0.0139581430703402,-0.0037560681812465204,0.00152544665616006,0,
00:00:03.964,0.0034871420357376302,0.00024501277948729705,0.00392473954707384,0,
00:00:03.968,0.0180751234292984,0.00877253245562315,-0.00633472763001919,0,
00:00:03.972,0.005573992151767021,-0.00134342222008854,0.00477532623335719,0,
00:00:03.976,-0.025609390810132002,-0.005767995491623879,0.00148538709618151,0,
00:00:03.98,-0.00960091780871153,-0.00043334040674381,-0.0070742657408118205,0,
00:00:03.984,0.0170270297676325,-0.0007736807456240059,-0.0002014075871557,0,
00:00:03.988,0.0234859976917505,0.0031802284065634,-0.0117592327296734,0,
00:00:03.992,-0.0164523404091597,0.0042082294821739205,0.0037650894373655298,0,
00:00:03.996,-0.00424834387376904,0.00013874047726858402,0.0156138734892011,0,
00:00:04,-0.0120850652456284,-0.00695202499628067,0.0117229614406824,0,
00:00:04.004,-0.007986712269484999,-0.00331899127922952,-0.0106286350637674,0,
00:00:04.008,0.0213467814028263,0.00348416878841817,-0.00258077494800091,0,
00:00:04.012,0.0350095815956593,0.0077920132316649,-0.0242614708840847,0,
00:00:04.016,-0.0303823407739401,-0.00251633580774069,0.007469600532203909,0,
00:00:04.02,-0.0197023712098598,-0.00388778815977275,0.0261529292911291,0,
00:00:04.024,0.000741642143111676,-0.00599430967122316,-0.00166276062373072,0,
00:00:04.028,-0.000954624498263001,0.006417279131710529,-0.00932232197374105,0,
00:00:04.032,0.0164001509547234,0.00486850924789906,-0.009008532389998441,0,
00:00:04.036,0.0053144334815442605,0.00020247514476068302,-0.006028159987181429,0,
00:00:04.04,-0.0139367608353496,-0.0110446512699127,0.0200021099299192,0,
00:00:04.044,0.0140616204589605,0.000725360645446926,-0.00356498546898365,0,
00:00:04.048,-0.00165091571398079,0.0109661426395178,-0.0061569232493639,0,
00:00:04.052,0.0130855720490217,0.0020796936005353897,-0.0082836477085948,0,
00:00:04.056,-0.0299696698784828,-0.00561221269890666,0.0180091913789511,0,
00:00:04.06,-0.00560272997245193,-0.00684154545888305,0.0083588408306241,0,
00:00:04.064,0.0105857960879803,0.0027328515425324397,-0.0258691366761923,0,
00:00:04.068,0.0109818940982223,0.00107886525802314,-0.00753633491694927,0,
00:00:04.072,-0.0140451248735189,-0.0012101241154596199,0.0280737262219191,0,
00:00:04.076,-0.0129905994981527,0.00272490130737424,0.00230170856229961,0,
00:00:04.08,0.0313663221895695,0.00414318731054664,-0.0141929853707552,0,
00:00:04.084,0.0300737898796797,0.00030350498855114,-0.00412635644897819,0,
00:00:04.088,-0.0439217574894428,-0.0088693043217063,-0.00081402959767729,0,
00:00:04.092,0.0137442070990801,0.0028381694573909,0.0152819603681564,0,
00:00:04.096,-0.018931744620203996,0.0010831467807292901,-0.0121483048424125,0,
00:00:04.1,-0.00693398108705878,0.000390647823223844,-0.007457032799720759,0,
00:00:04.104,-0.0022374668624252103,0.000118110510811675,0.0191640369594097,0,
00:00:04.108,0.0143984686583281,-3.78735194317414e-06,-0.008346605114638809,0,
00:00:04.112,0.0140759693458676,-0.00213804328814149,-0.000582118693273515,0,
00:00:04.116,-0.0047507020644843604,-0.000180048344191164,-0.000979793025180697,0,
00:00:04.12,0.00288947578519583,0.00977783184498549,0.00246556266210973,0,
00:00:04.124,-0.00112319446634501,-0.00622127950191498,0.00334706925787032,0,
00:00:04.128,-0.00696587515994906,-0.00155072764027864,-0.00460223387926817,0,
00:00:04.132,-0.0176168847829103,-0.0048017627559602295,0.00307263736613095,0,
00:00:04.136,0.0086964713409543,0.0013953309971839198,-0.0140721825882792,0,
00:00:04.14,0.032503180205822,0.0050805383361876,0.00921669509261847,0,
00:00:04.144,-0.0100475093349814,-0.00194318138528615,6.461786688305439e-05,0,
00:00:04.148,-0.03188107162714,-0.00123470451217145,0.0236364398151636,0,
00:00:04.152,-0.0017552386270836,0.0006896801642142241,-0.0152900004759431,0,
00:00:04.156,0.0201474893838167,0.00357314688153565,-0.0158187001943588,0,
00:00:04.16,0.0229566041380167,0.005338770337402821,-0.0148173766210675,0,
00:00:04.164,-0.0204708892852068,-0.0073975198902189706,0.0169193278998137,0,
00:00:04.168,-0.0142480041831732,-0.0035989391617476897,0.0349778719246387,0,
00:00:04.172,0.0030687842518091197,0.00165623112116009,-0.00846378691494465,0,
00:00:04.176,0.00310876709409058,-0.0006215984467417,-0.033356923609972,0,
00:00:04.18,0.0109453722834587,6.179429328767579e-05,-0.010993299074471002,0,
00:00:04.184,0.000214290994335897,0.00304124294780195,0.023537814617157,0,
00:00:04.188,-0.00108551443554461,-0.0008159421849995849,0.0123400669544935,0,
00:00:04.192,-0.00484240753576159,-0.00506670726463199,-0.00360139296390116,0,
00:00:04.196,0.00326117733493447,0.0038745261263102297,-0.0060887411236763,0,
00:00:04.2,-0.00603651162236929,0.00585055071860552,-0.00135904632043093,0,
00:00:04.204,-0.0157901644706726,-0.0010845388751477,0.0019116902258247102,0,
00:00:04.208,0.0317815169692039,-0.000995133072137833,-0.00409821234643459,0,
00:00:04.212,-0.006455322261899711,-0.0042765527032315705,0.0044289561919868,0,
00:00:04.216,-0.0106654604896903,-0.00439467886462808,-0.0128416763618588,0,
00:00:04.22,0.00660973601043224,0.00239019631408155,0.0118983667343855,0,
00:00:04.224,-0.0051139909774065,0.00147189700510353,0.0105136223137379,0,
00:00:04.228,-0.0010833144187927198,0.0081920437514782,-0.0110092423856258,0,
00:00:04.232,0.0054728579707443705,-8.77368147484958e-05,-0.0101565569639206,0,
00:00:04.236,-0.0103479782119393,-0.0102792214602232,0.00820729788392782,0,
00:00:04.24,0.00591324595734477,-0.000147891245433129,0.004761678166687489,0,
00:00:04.244,0.0106868986040354,0.00295134144835174,0.000595200806856155,0,
00:00:04.248,-0.00612040515989065,0.0024381356779485898,-0.0018674234161153399,0,
00:00:04.252,0.000754544395022094,0.00287216575816274,0.00395087199285626,0,
00:00:04.256,-0.0231901034712791,-0.0045815915800631,-0.011462552472949,0,
00:00:04.26,0.0424733497202396,0.0013746969634667,-0.00323509844020009,0,
00:00:04.264,-0.00589175149798393,-0.00342576531693339,0.00329157011583447,0,
00:00:04.268,-0.0296600330621004,0.0010182121768593801,0.0177422408014536,0,
00:00:04.272,-0.00323868100531399,0.0017710319953039302,-0.0122567219659686,0,
00:00:04.276,0.0108053255826235,-0.0011090327752754099,-0.00496383989229798,0,
00:00:04.28,0.0160460658371449,0.00194153864867985,0.0009457953274250029,0,
00:00:04.284,-0.00849441532045603,0.0010439463658258302,-0.00292254937812686,0,
00:00:04.288,0.0013674795627594,-0.00046266606659628494,0.0232140589505434,0,
00:00:04.292,-0.0036342174280434795,0.000870507443323731,-0.0037938954774290297,0,
00:00:04.296,0.00203555449843407,-0.0009551228140480821,-0.0259528458118439,0,
00:00:04.3,-0.00147886876948178,-0.00405923323705792,0.0118141379207373,0,
00:00:04.304,-0.00149887101724744,-0.0037379579152911897,0.0016250819899141801,0,
00:00:04.308,-0.00657838489860296,0.00103324826341122,0.0032783364877104803,0,
00:00:04.312,0.012769659049808998,0.0038749030791223,-0.00437418092042208,0,
00:00:04.316,-6.87958672642708e-05,0.009871445596218109,-0.00905486941337585,0,
00:00:04.32,-0.0182308182120323,-0.00014590987120755,-0.00191319570876658,0,
00:00:04.324,0.011004569940268999,-0.0052052480168640605,0.0130554819479585,0,
00:00:04.328,0.0149438017979264,-0.0114832259714603,0.0113029032945633,0,
00:00:04.332,0.0147693064063787,-0.0008188157225959,0.00503014214336872,0,
00:00:04.336,-0.0319260060787201,0.00711568258702755,0.0061805946752429,0,
00:00:04.34,-0.0221578106284142,0.0036327475681901,-0.0330708362162113,0,
00:00:04.344,0.0209254212677479,0.007661864161491391,-0.0164804384112358,0,
00:00:04.348,0.0110812894999981,-0.00192704051733017,0.00433937786146998,0,
00:00:04.352,8.651680400362241e-05,-0.00992610398679972,0.0187797266989946,0,
00:00:04.356,-0.0050930567085743,-0.00503946002572775,0.0177843701094389,0,
00:00:04.36,-0.0109043074771762,0.00129067886155099,0.007406643126159909,0,
00:00:04.364,0.0147134121507406,0.00648837862536311,-0.013839571736753,0,
00:00:04.368,0.0067860558629036,0.00620182976126671,-0.0263965260237455,0,
00:00:04.372,-0.00445350026711822,0.00035129295429214797,0.00185755093116313,0,
00:00:04.376,-0.00867273937910795,-0.007871826179325579,0.0157084353268147,0,
00:00:04.38,-0.0020390332210809,-0.000318769365549088,0.0120003568008542,0,
00:00:04.384,0.0053426125086844,-0.00122700468637049,-0.00564810633659363,0,
00:00:04.388,-0.0143337957561016,0.000171344130649231,-0.00709487358108163,0,
00:00:04.392,-0.00229057273827493,-0.00075355009175837,-0.0113399010151625,0,
00:00:04.396,0.0531417019665241,0.00552589073777199,0.00667270040139556,0,
00:00:04.4,-0.0192401558160782,-0.00152773526497185,0.006912848446518179,0,
00:00:04.404,-0.0313270390033722,0.000611376890446991,0.0375234074890614,0,
00:00:04.408,-0.00345832784660161,0.0022616691421717397,-0.0204893127083778,0,
00:00:04.412,0.00780386803671718,-0.006719368044286971,-0.0463524386286736,0,
00:00:04.416,0.00660427054390311,0.0014321283670142302,-0.0017765170196071302,0,
00:00:04.42,-0.00150144542567432,0.008695196360349659,0.0275470092892647,0,
00:00:04.424,0.0100042698904872,-0.00906381849199533,0.0115987015888095,0,
00:00:04.428,-0.00789039582014084,-0.00351468427106738,-0.00150546175427735,0,
00:00:04.432,-0.0075718960724771,0.00573013722896576,-0.0130371879786253,0,
00:00:04.436,0.0361085571348667,0.0037466553039848796,0.000197326138732024,0,
00:00:04.44,0.0160700939595699,-0.00443555461242795,0.0113317500799894,0,
00:00:04.444,-0.0530023351311684,0.0014146807370707401,0.0066185514442622705,0,
00:00:04.448,-0.0258863344788551,-0.00128630932886153,-0.0158210080116987,0,
00:00:04.452,0.00466965138912201,0.00117457390297204,0.00783418491482735,0,
00:00:04.456,0.0219582207500935,-0.00391282280907035,-0.0175521019846201,0,
00:00:04.46,0.0251792762428522,0.00315939355641603,0.00486768549308181,0,
00:00:04.464,-0.00463636266067624,-0.00599111663177609,0.0256018973886967,0,
00:00:04.468,0.000133975074277259,0.00360204186290503,-0.00449999375268817,0,
00:00:04.472,-0.0117406193166971,0.0151726985350251,-0.0274174492806196,0,
00:00:04.476,0.0165034588426352,-0.00971915014088154,-0.007724975235760209,0,
00:00:04.48,-0.0268865432590246,-0.00895796343684196,0.0236294586211443,0,
00:00:04.484,0.0319485105574131,0.00887277256697416,0.029315585270523997,0,
00:00:04.488,-0.0366409979760647,-0.00398993119597435,-0.0336474217474461,0,
00:00:04.492,-0.00557590834796429,0.000892753538209945,-0.0120760537683964,0,
00:00:04.496,0.00987336225807667,0.00692041451111436,0.00724223675206304,0,
00:00:04.5,0.00176934606861323,-0.0166681334376335,0.0006617387407459321,0,
00:00:04.504,0.0253416206687689,2.2394178813556197e-06,0.00790814217180014,0,
00:00:04.508,0.0135190701112151,0.01109161041677,0.0201612375676632,0,
00:00:04.512,-0.0334276258945465,0.00253543467260897,-0.013142635114491001,0,
00:00:04.516,-0.00735194515436888,0.00356806558556855,-0.0164378825575113,0,
00:00:04.52,0.00808053836226463,-0.00528893433511257,-0.00511064752936363,0,
00:00:04.524,-0.0102971522137523,-0.00235170451924205,0.0213987231254578,0,
00:00:04.528,0.00626544049009681,-0.00299710687249899,-0.00977977085858583,0,
00:00:04.532,0.0328625552356243,0.00188707781489938,-0.00523286126554012,0,
00:00:04.536,-0.0239215828478336,0.00409033242613077,0.00187588820699602,0,
00:00:04.54,0.0192026514559984,0.00079186144284904,0.0154651664197445,0,
00:00:04.544,-0.0390993915498257,-0.00404028501361609,0.0025836124550551198,0,
00:00:04.548,-0.00565282022580504,0.0015205297386273698,-0.0148070873692632,0,
00:00:04.552,0.0495475083589554,-0.00596928922459483,-0.0107809975743294,0,
00:00:04.556,-0.0478399731218815,-0.00583882629871368,0.0010212373454123699,0,
00:00:04.56,0.00867368094623089,0.0111345797777176,0.032855898141861,0,
00:00:04.564,0.0582076720893383,0.00793325062841177,-0.00748968031257391,0,
00:00:04.568,-0.0403365567326546,-0.0018122304463759102,-0.0217421427369118,0,
00:00:04.572,-0.0189857520163059,-0.0046909507364034705,-0.0072445976547896905,0,
00:00:04.576,-0.0032283638138324,-0.0036058756522834297,0.0108662974089384,0,
00:00:04.58,0.00158363673835993,0.000866630172822624,-0.00325779058039188,0,
00:00:04.584,0.0162524431943893,-0.0053942003287375,0.00787196308374405,0,
00:00:04.588,0.0199698600918055,0.005908525548875329,0.00459610391408205,0,
00:00:04.592,-0.0081209409981966,0.0024330664891749603,0.0137698389589787,0,
00:00:04.596,-0.00354303186759353,-0.00608155364170671,-0.0089589012786746,0,
00:00:04.6,-0.007876330055296421,0.011228347197175,-0.00794039200991392,0,
00:00:04.604,-0.00821322482079268,0.00211422075517476,-0.0124294087290764,0,
00:00:04.608,-0.0019444759236648698,-0.00897361058741808,-0.00512840365990996,0,
00:00:04.612,-0.0007796013960614799,-0.00853754952549934,0.00112680508755147,0,
00:00:04.616,-0.00963215902447701,-0.000785111973527819,0.0279832519590855,0,
00:00:04.62,0.0559935607016087,0.000589063623920083,-0.0011008121073246,0,
00:00:04.624,-0.0298274755477905,0.0179119743406773,-0.000342585437465459,0,
00:00:04.628,-0.0180528070777655,0.000827537733130157,-0.0142914913594723,0,
00:00:04.632,0.0422787182033062,-0.00582124385982752,-0.00412890501320362,0,
00:00:04.636,-0.0354053676128387,-0.00573821645230055,-0.00924400053918362,0,
00:00:04.64,-0.0443463772535324,0.0014077468076720801,0.00659298989921808,0,
00:00:04.644,0.0409646704792976,-0.00989357847720385,0.0250302497297525,0,
00:00:04.648,0.0409841723740101,0.00247893016785383,-0.00700003281235695,0,
00:00:04.652,-0.0339872390031815,0.0106263104826212,-0.0166992768645287,0,
00:00:04.656,0.00072917144279927,0.00097159796860069,0.0223117079585791,0,
00:00:04.66,0.0160361621528864,0.0064190374687314,-0.00704150646924973,0,
00:00:04.664,-0.0046359421685338,-0.0138652073219419,-0.0199186466634274,0,
00:00:04.668,-0.031909640878439,0.00065262260613963,-0.00194842473138124,0,
00:00:04.672,0.0178995784372091,0.0027072224766016,0.00971669889986515,0,
00:00:04.676,0.0315752923488617,-0.00112314743455499,0.00883430149406195,0,
00:00:04.68,-0.042464155703783,-0.0028745750896632697,0.00544999912381172,0,
00:00:04.684,-0.0127631574869156,0.00028841313906014,0.0048279445618391,0,
00:00:04.688,0.0245959125459194,0.0108771910890937,-0.0152731835842133,0,
00:00:04.692,0.0074447141960263296,-0.0031852761749178197,-0.0225461032241583,0,
00:00:04.696,-0.007460241205990309,-0.0114235086366534,0.026522122323513,0,
00:00:04.7,0.00853863917291164,0.00754575012251735,-0.003915979061275721,0,
00:00:04.704,0.00890754815191031,-0.000640751386526972,0.0084560876712203,0,
00:00:04.708,0.0123085575178266,0.00118042156100273,0.0005117219407111411,0,
00:00:04.712,-0.0541061870753765,0.00270332954823971,-0.0169310048222542,0,
00:00:04.716,0.007270378526300191,-0.00228313612751663,-0.0056582489050924795,0,
00:00:04.72,0.0233649276196957,-0.00864773523062468,0.0396376438438892,0,
00:00:04.724,-0.00118240364827216,0.00920862425118685,-0.00057968235341832,0,
00:00:04.728,0.00887375418096781,0.0056626433506608,-0.0452525243163109,0,
00:00:04.732,-0.0328975431621075,-0.0055993329733610205,-0.0017463932745158698,0,
00:00:04.736,0.0305868685245514,-0.0135550852864981,0.0180490128695965,0,
00:00:04.74,0.0161752011626959,0.0106740426272154,0.0090084969997406,0,
00:00:04.744,-0.0252007581293583,0.00226359697990119,0.00225766096264124,0,
00:00:04.748,-0.0116323996335268,1.80825281859143e-05,0.00653665792196989,0,
00:00:04.752,0.0166846122592688,0.00808050204068422,-0.0296879485249519,0,
00:00:04.756,-0.00153523799963295,-0.0080250408500433,0.019062789157033,0,
00:00:04.76,-0.0272027794271708,-0.008771351538598541,0.007209896575659509,0,
00:00:04.764,0.0115107325837016,0.007284901104867459,-0.0112181697040796,0,
00:00:04.768,0.00800854805856943,-0.0032509947195649104,0.00124851241707802,0,
00:00:04.772,0.0239407029002905,0.0094053978100419,-0.008938238024711609,0,
00:00:04.776,-0.00916753243654966,-0.00110385683365166,0.015331675298511998,0,
00:00:04.78,-0.00207584630697966,-0.0106321731582284,-0.00780008966103196,0,
00:00:04.784,-0.0278117693960667,-0.00157966976985335,-0.0077819875441491595,0,
00:00:04.788,0.0112562784925103,0.00801684707403183,0.00329550006426871,0,
00:00:04.792,0.0261206515133381,0.00285428087227046,-0.00156920857261866,0,
00:00:04.796,-0.0219264160841703,-0.000451444328064099,0.0313213802874088,0,
00:00:04.8,-0.0307342503219843,-0.00385255599394441,-0.00822766683995724,0,
00:00:04.804,0.0711115673184395,-0.00173089350573719,0.002677092095837,0,
00:00:04.808,-0.0051454058848321394,0.00697250757366419,-0.023149661719799,0,
00:00:04.812,-0.0526561811566353,-0.00209080264903605,-0.0255483221262693,0,
00:00:04.816,0.00697088288143277,-0.00136542820837349,-0.00651825033128262,0,
00:00:04.82,0.00238465284928679,-0.00571731152012944,0.03599464148283,0,
00:00:04.824,-0.0069613172672689,-0.00137165887281299,0.0293549802154303,0,
00:00:04.828,0.0186459142714739,0.00692731654271483,-0.00582396052777767,0,
00:00:04.832,0.0436602532863617,0.008270969614386559,-0.00583668053150177,0,
00:00:04.836,-0.0233214609324932,-0.010667260736226999,-0.0307435672730207,0,
00:00:04.84,-0.0462534576654434,-0.00657392805442214,-0.0108287213370204,0,
00:00:04.844,-0.00140397506766021,0.00551281217485666,0.0161111559718847,0,
00:00:04.848,0.0334068462252617,0.009813005104660991,0.000598856946453452,0,
00:00:04.852,0.000532629434019327,-0.0062462207861244705,0.0335538685321808,0,
00:00:04.856,0.0109799019992352,-0.00493127573281527,-0.0138253215700388,0,
00:00:04.86,-0.0227426011115313,0.0166582763195038,-0.0128920758143067,0,
00:00:04.864,-0.00436578504741192,-0.00448999041691422,0.00447244849056005,0,
00:00:04.868,0.0020253041293472104,-0.0180048141628504,-0.0030878989491611697,0,
00:00:04.872,-0.000823759764898568,-0.00870057474821806,-0.0145261585712433,0,
00:00:04.876,0.0024643549695611,0.009632075205445291,-0.000188982259714976,0,
00:00:04.88,0.0274067521095276,0.0118795465677977,0.00883147120475769,0,
00:00:04.884,0.0133257647976279,0.0125358942896128,0.017858074977994,0,
00:00:04.888,-0.0294473730027676,0.0021022043656557803,0.00547342328354716,0,
00:00:04.892,-0.0388340651988983,-0.0149071728810668,-0.014744034036994,0,
00:00:04.896,0.0105668380856514,-0.0157844107598066,-0.00256318063475192,0,
00:00:04.9,0.0268579367548227,0.00134456274099648,-0.0176795925945044,0,
00:00:04.904,0.000743015261832625,0.007430230733007191,0.0122950309887528,0,
00:00:04.908,-0.0158809423446655,0.010659403167665,0.0265463758260012,0,
00:00:04.912,0.0334673002362251,0.00297719752416015,-0.0212028715759516,0,
00:00:04.916,-0.008940762840211391,-0.0162003226578236,-0.0222545675933361,0,
00:00:04.92,-0.0426588170230389,-0.00016939632769208401,0.0250716116279364,0,
00:00:04.924,0.0507723279297352,0.0179616957902908,0.0141372485086322,0,
00:00:04.928,-0.0177283976227045,-0.0050241006538271895,-0.0152324829250574,0,
00:00:04.932,-0.00841943733394146,-0.0143870720639825,-0.0284650567919016,0,
00:00:04.936,0.0171578451991081,0.0042380667291581605,0.0294018909335136,0,
00:00:04.94,-0.0280261412262917,-0.000178046801011078,0.0262208189815283,0,
00:00:04.944,0.008450319059193129,0.0123709347099066,-0.0186319854110479,0,
00:00:04.948,-0.009948696941137309,-0.00648502167314291,-0.028568584471941005,0,
00:00:04.952,0.0125216273590922,0.00059815967688337,-0.0054832831956446206,0,
00:00:04.956,0.0252140611410141,3.86682950193062e-05,0.0212783142924309,0,
00:00:04.96,-0.0197506230324507,-0.0035740684252232296,0.0109521159902215,0,
00:00:04.964,0.0217731595039368,0.000156993497512303,0.0055493339896202105,0,
00:00:04.968,-0.0213391575962305,-0.00559893762692809,-0.0101151941344142,0,
00:00:04.972,-0.0154036451131105,0.0082740094512701,-0.008566928096115591,0,
00:00:04.976,-0.00790188554674387,-0.00535852229222655,-0.0063974941149354,0,
00:00:04.98,0.0175296738743782,0.00882299058139324,0.00855903886258602,0,
00:00:04.984,0.0121578862890601,-0.00221063126809895,0.0156408548355103,0,
00:00:04.988,-0.00115724070928991,-0.00115119444672018,-0.00213328376412392,0,
00:00:04.992,-0.0017031418392434699,-0.0010564165422692901,-0.0173344295471907,0,
00:00:04.996,0.0016956194303929801,0.00121635105460882,-0.00801305845379829,0,
00:00:05,-0.0083509897813201,-0.000323942746035755,0.00970785226672888,0,
00:00:05.004,-0.0027272948063910003,-0.00980615336447954,0.000603812921326607,0,
00:00:05.008,0.0175724904984236,0.008585727773606779,0.012582415714859999,0,
00:00:05.012,-0.0217849966138601,-5.40982473467011e-05,0.00010016244050348199,0,
00:00:05.016,0.0133109986782074,-0.00279615726321936,-0.0009412519284524019,0,
00:00:05.02,-0.028518307954072997,0.0065326620824635,-0.01102907769382,0,
00:00:05.024,0.0243303999304771,0.00282803177833557,0.00039676515734754503,0,
00:00:05.028,0.007706047501415009,-0.00426797941327095,-0.00245731207542121,0,
00:00:05.032,-0.00535008404403925,-0.00224418030120432,0.000260509841609746,0,
00:00:05.036,0.0017919770907610698,-0.0036868443712592103,-0.00978400930762291,0,
00:00:05.04,-0.00648351851850748,-0.000903309846762568,0.00448887515813112,0,
00:00:05.044,-0.00517586385831237,0.00374611606821418,0.0401971340179443,0,
00:00:05.048,0.013824556954205,0.000520669564139098,-0.0187246222048998,0,
00:00:05.052,-0.002746207639575,-0.00190274603664875,-0.0017245104536414099,0,
00:00:05.056,0.0072323614731431,0.00234508258290589,-0.0108372876420617,0,
00:00:05.06,-0.0184476133435965,-8.09124467195943e-05,-0.00160290882922709,0,
00:00:05.064,-0.00525890989229083,0.0022608928848058,-0.00088910321937874,0,
00:00:05.068,0.00431537814438343,-0.00143745332024992,-0.0154245840385556,0,
00:00:05.072,0.0114419907331467,-0.00125332397874445,-0.0028000820893794303,0,
00:00:05.076,0.00550100905820727,0.006011406425386671,0.0097338268533349,0,
00:00:05.08,-0.007812215480953459,-0.0013308075722307,0.0235230401158333,0,
00:00:05.084,0.00300803710706532,-0.004210208542644979,0.0300970822572708,0,
00:00:05.088,-0.009864884428679941,-0.00338028441183269,-0.0235075559467077,0,
00:00:05.092,0.011007072404027,-0.00930583942681551,-0.0283396877348423,0,
00:00:05.096,-0.0057205562479794,0.00895409006625414,-0.00883382186293602,0,
00:00:05.1,-0.0131202712655067,0.00640527065843344,0.0241986978799105,0,
00:00:05.104,0.0205570720136166,-0.0019040149636566602,-0.007210393901914359,0,
00:00:05.108,-0.00400085980072618,0.0029130275361239897,0.00390625977888703,0,
00:00:05.112,-0.00159932195674628,0.00292757852002978,-0.0105156600475311,0,
00:00:05.116,-0.0030043136794120104,0.000374216411728412,-0.00227466365322471,0,
00:00:05.12,-0.0048942556604743,-0.0124743385240436,-0.00204373244196177,0,
00:00:05.124,0.00931385532021523,-0.0035767343360930703,0.024473300203681003,0,
00:00:05.128,0.0197251923382282,0.0134800104424357,0.0182117652148008,0,
00:00:05.132,-0.0300017148256302,-0.008822213858366009,0.0013096472248435,0,
00:00:05.136,-0.00474594812840223,0.00161253823898733,-0.0280477274209261,0,
00:00:05.14,0.00577219948172569,0.00358489109203219,-0.0260043814778328,0,
00:00:05.144,0.00487169390544295,-0.000153028027852997,-0.007134321145713329,0,
00:00:05.148,0.00581256626173854,0.00173470692243427,0.0111624719575047,0,
00:00:05.152,0.0018478254787623897,0.000200492097064853,0.0131241781637073,0,
00:00:05.156,-0.00179292412940413,-0.00130028778221458,0.0145456176251173,0,
00:00:05.16,-0.0176998991519213,-0.0037310917396098397,0.0111451037228107,0,
00:00:05.164,0.0154691459611058,0.0009078874718397859,-0.00554023450240493,0,
00:00:05.168,0.0273519065231085,0.00976356584578753,-0.00561637058854103,0,
00:00:05.172,-0.0400466397404671,-0.0134815471246839,-0.0111018614843488,0,
00:00:05.176,0.0107250828295946,0.0012709085131064099,0.012937355786562,0,
00:00:05.18,-0.00945602171123028,0.00174081895966083,-0.0189902652055025,0,
00:00:05.184,-0.007633828558027741,-0.00230591255240142,0.00197792332619429,0,
00:00:05.188,0.0175197552889586,0.0052189342677593205,0.00702079478651285,0,
00:00:05.192,0.00999950058758259,0.0036774883046746297,-0.0120512340217829,0,
00:00:05.196,-0.006133646704256529,0.00211465987376869,-0.000355750700691715,0,
00:00:05.2,-0.00173722265753895,-0.00635745981708169,-0.0023609495256096103,0,
00:00:05.204,-0.0137297995388508,-0.00227247853763402,0.0332081280648708,0,
00:00:05.208,0.0208540875464678,0.00199714559130371,0.00517955143004656,0,
00:00:05.212,0.0197102297097445,0.0071751312352716905,-0.0191404670476913,0,
00:00:05.216,-0.0459124520421028,-0.0127553157508373,-0.0058463620953261896,0,
00:00:05.22,0.00609562173485756,-0.0042686113156378295,0.00012322085967753101,0,
00:00:05.224,-0.0023689835797995303,0.0055694212205708,0.0015891753137111699,0,
00:00:05.228,0.0014474161434918599,0.00419358583167195,-0.009404585696756841,0,
00:00:05.232,0.0160675048828125,0.00497525697574019,-0.0005671607214026151,0,
00:00:05.236,0.00475692236796021,-0.000915683282073587,0.0028562110383063602,0,
00:00:05.24,0.00027764154947362797,0.0018877058755606398,0.005554789211601021,0,
00:00:05.244,-0.0020385901443660303,-0.0014850141014903801,0.0110640674829483,0,
00:00:05.248,-0.00930830836296082,-0.0078902579843998,-0.0143185732886195,0,
00:00:05.252,-0.00949426367878914,0.0006249860743992031,-0.00214617443270981,0,
00:00:05.256,0.0168220736086369,-0.00428014528006315,0.0257494822144508,0,
00:00:05.26,0.007565860636532309,0.009012735448777679,0.000446177640696988,0,
00:00:05.264,-0.0258393120020628,-0.00118815852329135,-0.0172439366579056,0,
00:00:05.268,-0.00885995756834745,0.000368978886399418,-0.019865682348608995,0,
00:00:05.272,0.022767573595047,-0.00189499440602958,-0.0015958311269059801,0,
00:00:05.276,-0.008077581413090229,0.00162537675350904,0.00938943866640329,0,
00:00:05.28,0.00026448167045600696,-0.00311415153555572,0.0234299078583717,0,
00:00:05.284,0.0676123648881912,0.005702325142920021,-0.0115237226709723,0,
00:00:05.288,-0.0477498546242714,0.0023312687408179,-0.0010793545516207801,0,
00:00:05.292,-0.0342472605407238,0.0020011302549392,0.0070484555326402205,0,
00:00:05.296,-0.0269007794559002,-0.016080591827631,-0.0226610694080591,0,
00:00:05.3,0.0509665906429291,-0.00233938521705568,0.00354575482197106,0,
00:00:05.304,0.0213443730026484,0.0136291207745671,0.0442781671881676,0,
00:00:05.308,-0.0272465590387583,-0.0055284989066422,-0.0279005169868469,0,
00:00:05.312,-0.00188414345029742,0.0033004239667207,-0.0125485742464662,0,
00:00:05.316,0.000266171497059986,0.0030055453535169398,-0.0044887363910675,0,
00:00:05.32,0.00479533104225993,0.00226057902909815,-0.00544086424633861,0,
00:00:05.324,0.005218778271228079,0.0024053689558059,0.0221144054085016,0,
00:00:05.328,0.00439029652625322,-0.0118497600778937,0.00156568258535117,0,
00:00:05.332,-0.0176596008241177,-0.00864814873784781,-0.0121280113235116,0,
00:00:05.336,-0.00136807735543698,0.00777005637064576,0.0152024049311876,0,
00:00:05.34,0.00963719189167023,0.00357369496487081,0.004047800786793229,0,
00:00:05.344,0.00578900426626205,0.00648530665785074,-0.0169490091502666,0,
00:00:05.348,-0.00878804456442595,-0.000609572278335691,-0.00377209461294115,0,
00:00:05.352,0.00604232121258974,-0.005192815326154229,-0.00233013648539782,0,
00:00:05.356,-0.0034649865701794603,-0.0028346786275506,-0.0012413519434630901,0,
00:00:05.36,-0.00510694133117795,0.00657812878489494,0.005180812906473879,0,
00:00:05.364,0.008033039979636671,0.0043337787501514,0.0281784161925316,0,
00:00:05.368,-0.000479650188935921,-0.0151512855663896,-0.0168350469321013,0,
00:00:05.372,-0.00686257565394044,-0.00028496651793830097,-0.00951399840414524,0,
00:00:05.376,0.00623868498951197,0.00286126742139459,0.00174713355954736,0,
00:00:05.38,-0.007151108235120771,0.00849066581577063,0.0021428167819976802,0,
00:00:05.384,0.00384325021877885,-0.000635900825727731,-0.00613157358020544,0,
00:00:05.388,0.00607057055458426,0.0019419711316004398,0.0130984839051962,0,
00:00:05.392,0.00101543520577252,-0.0072662397287786,-0.00817246362566948,0,
00:00:05.396,-0.005151902325451371,0.00483292480930686,-0.00442919274792075,0,
00:00:05.4,-0.00195222976617515,-0.00209933193400502,-0.00164664012845606,0,
00:00:05.404,-0.0298033580183983,-0.00253635086119175,0.0111958337947726,0,
00:00:05.408,0.0359434299170971,-0.00489375134930015,-0.00755987269803882,0,
00:00:05.412,0.040485892444849,0.0110500948503613,-0.00152283173520118,0,
00:00:05.416,-0.0395437516272068,-0.0032723797485232397,0.0010991848539561,0,
00:00:05.42,-0.019730456173419997,0.00058658717898652,0.0184246730059385,0,
00:00:05.424,-0.0153680043295026,-0.00216298550367355,0.00023225025506690098,0,
00:00:05.428,0.0267095454037189,-0.00537498248741031,-0.0116401864215732,0,
00:00:05.432,0.00220899982377887,0.0042424472048878704,-0.0141515545547009,0,
00:00:05.436,0.00402706395834684,0.00436544558033347,-0.00771791813895106,0,
00:00:05.44,0.00011766082752728798,0.00343504012562335,0.00941957626491785,0,
00:00:05.444,-0.0006615748861804599,-0.00320399412885308,0.0135909104719758,0,
00:00:05.448,0.0158186405897141,-0.007956823334097859,-0.00406350987032056,0,
00:00:05.452,-0.0166356395930052,1.83417669177288e-05,0.0186227168887854,0,
00:00:05.456,-0.009773765690624709,0.00758151337504387,0.009357332251966,0,
00:00:05.46,0.00232520536519587,0.00346497958526015,-0.0284037757664919,0,
00:00:05.464,-0.006865738891065121,-0.00165220466442406,-0.0229460708796978,0,
00:00:05.468,0.00525785097852349,-0.00798801332712173,-0.0126532297581434,0,
00:00:05.472,0.011991267092526,-0.00122790108434856,0.0344021022319794,0,
00:00:05.476,-0.00117809686344117,6.9061410613358e-05,0.0110592003911734,0,
00:00:05.48,0.0033530658110976197,0.00882509723305702,-0.0019193717744201398,0,
00:00:05.484,-0.000953724083956331,-0.00271660182625055,-0.0019438789458945398,0,
00:00:05.488,-0.00647848146036267,-0.00499664572998881,-0.00670259259641171,0,
00:00:05.492,-0.0066594490781426395,0.00581587012857199,0.007650374434888359,0,
00:00:05.496,-0.000821193039882928,0.0012220377102494199,0.00806548446416855,0,
00:00:05.5,0.00356393400579691,-0.00138132285792381,-0.0170879177749157,0,
00:00:05.504,0.008606838062405591,-0.00194747489877045,-0.0139282206073403,0,
00:00:05.508,0.0009216886246576911,-0.0012547639198601198,-0.00213376269675791,0,
00:00:05.512,-0.004839929752051829,-0.00022514168813358998,0.0151527896523476,0,
00:00:05.516,0.00503229256719351,0.000507938268128783,0.018017865717411,0,
00:00:05.52,-0.0206297729164362,0.000729788444004953,-0.00329062971286476,0,
00:00:05.524,0.0255207698792219,0.00054844981059432,-0.0153337530791759,0,
00:00:05.528,-0.00271462905220687,-0.00186937407124788,0.0116629814729095,0,
00:00:05.532,-0.0257772598415613,0.00189212651457638,-0.00263416464440525,0,
00:00:05.536,0.0163983702659607,0.00142449920531362,-0.0218347143381834,0,
00:00:05.54,0.00292960298247635,-2.6067962608067302e-05,-0.010047790594399,0,
00:00:05.544,0.00788150262087584,-0.000950383779127151,0.0367939583957195,0,
00:00:05.548,-0.00831441953778267,0.00311823887750506,0.00656043132767081,0,
00:00:05.552,0.005949673708528279,-0.00660064723342657,-0.0198749955743551,0,
00:00:05.556,-0.0289917066693306,-0.00339780724607408,-0.0102279055863619,0,
00:00:05.56,0.0009917682036757471,0.00568612897768617,0.0221701227128506,0,
00:00:05.564,0.0445719212293625,0.00402712915092707,-0.00405859295278788,0,
00:00:05.568,-0.000418412790168077,-0.0019371028756722801,0.0181205123662949,0,
00:00:05.572,-0.0202335175126791,-0.00233702035620809,-0.0197445657104254,0,
00:00:05.576,-0.0142344711348414,-0.000892958720214665,-0.0238676946610212,0,
00:00:05.58,-0.00224022031761706,0.000429196486948058,0.00218744529411197,0,
00:00:05.584,0.010003131814301002,-0.0011254767887294301,0.00361973093822598,0,
00:00:05.588,0.00576421618461609,0.00689204502850771,0.0225990321487188,0,
00:00:05.592,-0.000267327821347862,-0.00411387579515576,0.009191176854074,0,
00:00:05.596,-0.00304219871759415,-0.00129984889645129,-0.00987233687192202,0,
00:00:05.6,0.0119841303676367,0.00215197005309165,-0.00333864474669099,0,
00:00:05.604,-0.0102567132562399,-0.0035516228526830704,0.00102909409906715,0,
00:00:05.608,0.00024002285499591402,0.000740749761462212,-0.0152082135900855,0,
00:00:05.612,-0.0061284676194191,0.0016105092363432,-0.00529917329549789,0,
00:00:05.616,0.00438620429486036,0.0050996919162571396,0.0100971907377243,0,
00:00:05.62,-0.0114020621404052,-0.0122305573895574,0.0184079501777887,0,
00:00:05.624,0.00940601993352175,0.008232631720602509,0.0128146763890982,0,
00:00:05.628,0.0112938629463315,0.0058038393035531,-0.0281166583299637,0,
00:00:05.632,0.00461453106254339,-0.00936383847147226,-0.0203794576227665,0,
00:00:05.636,-0.0149420956149697,-0.00521195912733674,0.0114150820299983,0,
00:00:05.64,-0.0107503132894635,0.0100271105766296,0.0102450102567673,0,
00:00:05.644,0.0180015619844198,0.0054416605271399,0.0105519881471992,0,
00:00:05.648,0.0132384449243546,-0.00809034891426563,-0.0022455130238086,0,
00:00:05.652,-0.0270118061453104,-0.0035322152543813,-0.007142340298742059,0,
00:00:05.656,-0.00193907727953047,-0.0018519674194976698,-0.0015115721616894,0,
00:00:05.66,-0.00435604527592659,0.00396836875006557,0.0131392311304808,0,
00:00:05.664,0.009134136140346529,0.0036139700096100603,-0.006731133442372079,0,
00:00:05.668,0.0121667049825191,0.00533736450597644,-0.0112447375431657,0,
00:00:05.672,-0.0116601502522826,-0.0069047082215547605,-0.00430821208283305,0,
00:00:05.676,0.0569133460521698,-0.00298667536117136,0.0007370248204097151,0,
00:00:05.68,-0.03629519790411,-7.951977750053629e-05,0.00775988912209868,0,
00:00:05.684,-0.0362868681550026,-0.000767420162446797,0.00642033480107784,0,
00:00:05.688,-0.0133096585050225,0.0033741411752998803,0.00623065419495106,0,
00:00:05.692,0.0119791077449918,0.00242872606031597,-0.0076179029420018205,0,
00:00:05.696,0.023362785577773996,0.0023221159353852302,-0.0147751867771149,0,
00:00:05.7,0.0139301940798759,-0.0011270244140178,0.00855260528624058,0,
00:00:05.704,-0.0116722658276558,-0.00512940809130669,0.0109656946733594,0,
00:00:05.708,0.00657653762027621,-0.00693421717733145,0.0148344608023763,0,
00:00:05.712,-0.00702644651755691,0.00235876813530922,-0.0206119362264872,0,
00:00:05.716,-0.0021844380535185302,0.00958642456680536,-0.0164223425090313,0,
00:00:05.72,0.00269469618797302,0.00223915418609977,-0.00627136835828424,0,
00:00:05.724,-0.00512382760643959,6.81291639921255e-05,0.015925420448183996,0,
00:00:05.728,-0.0017121605342254,-0.005097408778965471,0.0029000649228692102,0,
00:00:05.732,-0.0124319028109312,-0.0080015491694212,0.0008499418618157509,0,
00:00:05.736,0.0169154386967421,0.0031353540252894198,0.0387471467256546,0,
00:00:05.74,0.00291116815060377,0.00678329588845372,-0.0133582139387727,0,
00:00:05.744,0.0026708883233368397,0.00253071659244597,-0.0361702963709831,0,
00:00:05.748,-0.007851934991776941,-0.00172681384719908,-0.017206909134984,0,
00:00:05.752,0.0122597888112068,-0.00953091867268085,0.005438235122710471,0,
00:00:05.756,-0.0189166814088821,0.0013504798989743,0.0142132453620434,0,
00:00:05.76,-0.0180053971707821,0.00410539144650102,0.0145493922755122,0,
00:00:05.764,0.00235746894031763,0.000767964695114642,0.0329796448349953,0,
00:00:05.768,0.0880005285143852,0.00462667131796479,-0.0173373632133007,0,
00:00:05.772,-0.0328783914446831,0.00279409484937787,-0.0286209527403116,0,
00:00:05.776,-0.050844993442297,-0.0110407620668411,-0.0048823673278093295,0,
00:00:05.78,-0.0165665745735168,-0.00140941992867738,-0.000104945138446055,0,
00:00:05.784,0.00163955299649388,0.00449417857453227,0.00527236191555858,0,
00:00:05.788,0.0316293053328991,0.000719259260222316,0.00679027428850532,0,
00:00:05.792,0.0181385185569525,-0.000225577940000221,0.000607843627221882,0,
00:00:05.796,-0.0010289596393704401,-0.000160555529873818,-0.0112735610455275,0,
00:00:05.8,0.0118507361039519,5.7565765018807704e-05,0.0239978712052107,0,
00:00:05.804,-0.0219243932515383,-0.0019333675736561398,0.0176075585186481,0,
00:00:05.808,-0.0201112087816,0.00206509488634765,-0.00665372889488935,0,
00:00:05.812,0.0044407588429749,0.0016298230038955801,-0.0444794334471226,0,
00:00:05.816,0.010815691202878999,9.05143169802614e-05,-0.00804228242486715,0,
00:00:05.82,-0.0009486948256380859,-0.0009459754801355301,0.0164074935019016,0,
00:00:05.824,0.000865638256072998,0.000974646245595068,0.0207222085446119,0,
00:00:05.828,0.0010194296482950401,-0.00263238954357803,-0.00481357891112566,0,
00:00:05.832,0.00040313974022865295,0.000363768398528919,-0.0009166071540676061,0,
00:00:05.836,0.0018262333469465399,-0.00389829208143055,-0.0100953560322523,0,
00:00:05.84,-0.0025453350972384197,-0.00254013482481241,0.0284841451793909,0,
00:00:05.844,-0.0063204090110957605,0.0129867810755968,-0.0040984898805618295,0,
00:00:05.848,0.00142021966166794,-0.000878558028489351,-0.0208923909813166,0,
00:00:05.852,0.0060906186699867205,-0.00643487693741918,-0.0157823916524649,0,
00:00:05.856,0.0114774238318205,-0.00106718938332051,0.0116477813571692,0,
00:00:05.86,-0.0231278445571661,0.00104077160358429,0.0122103299945593,0,
00:00:05.864,0.0170200299471617,0.00125400931574404,0.000188551930477843,0,
00:00:05.868,-0.00361987971700728,0.0027399456594139303,-0.00883487705141306,0,
00:00:05.872,-0.0168541017919779,-0.00404537562280893,-0.00627296697348356,0,
00:00:05.876,0.007187849842011929,-3.4103213693015304e-05,0.0206441227346659,0,
00:00:05.88,0.015782292932272,0.00728379329666495,0.0116149298846722,0,
00:00:05.884,-0.0102270068600774,-0.00930096488445997,-0.0158991441130638,0,
00:00:05.888,0.0138729317113757,-0.0029003040399402397,-0.00792020466178656,0,
00:00:05.892,-0.0181484650820494,0.00443835975602269,-0.00963225588202477,0,
00:00:05.896,-0.00845725648105145,0.00204510963521898,-0.00250669615343213,0,
00:00:05.9,0.0241516586393118,0.00327324867248535,0.0147297140210867,0,
00:00:05.904,-0.00702434917911887,0.00471713719889522,0.00338598643429577,0,
00:00:05.908,-0.0340374000370502,-0.00572923291474581,0.0019474822329357301,0,
00:00:05.912,0.0462573915719986,-0.0077529698610305795,-0.0132254268974066,0,
00:00:05.916,0.00761352851986885,0.00208228849805892,0.0219264701008797,0,
00:00:05.92,-0.0205798633396626,0.00513760140165687,-0.00022612686734646602,0,
00:00:05.924,-0.0155024761334062,-0.00692621665075421,-0.0120117869228125,0,
00:00:05.928,-0.000212910730624571,0.00183377310167998,-0.013593846000731,0,
00:00:05.932,0.00270792935043573,0.0036523274611681704,-0.000483532407088205,0,
00:00:05.936,0.0110497176647186,8.38995911180973e-05,0.0042988597415387604,0,
00:00:05.94,0.00499108945950866,-5.651835817843679e-05,0.006869017146527771,0,
00:00:05.944,0.00447401870042086,0.00442173797637224,0.00964037515223026,0,
00:00:05.948,0.00203385995700955,0.000443146156612784,-0.0019313700031489101,0,
00:00:05.952,-0.0161543022841215,-0.0031398658175021397,-0.0106758568435907,0,
00:00:05.956,-0.0070077655836939794,-0.0100080193951726,-0.00336958444677293,0,
00:00:05.96,0.00186986266635358,0.00580486143007874,0.0307375695556402,0,
00:00:05.964,0.0100567676126957,0.0008230258245021099,-0.00535511551424861,0,
00:00:05.968,0.00757305976003408,0.000183595606358722,-0.0272965058684349,0,
00:00:05.972,-0.0110028497874737,-0.00358306197449565,-0.0132539160549641,0,
00:00:05.976,0.000197375367861241,0.00465659005567431,0.00866011716425419,0,
00:00:05.98,0.00036101863952353597,0.0037183649837970703,0.0152701623737812,0,
00:00:05.984,0.00945170968770981,0.00243987166322768,0.008553272113204,0,
00:00:05.988,-0.0108374869450927,0.000188932273886167,-0.00830991938710213,0,
00:00:05.992,0.00216460600495338,-0.0142651787027717,-0.00951299630105495,0,
00:00:05.996,0.000605454901233315,0.00506320223212242,0.0129550332203507,0,
00:00:06,-0.00831926241517067,0.0011831255396828099,0.00736869405955076,0,
00:00:06.004,0.0161012094467878,-0.00563367130234838,-0.0047365939244628,0,
00:00:06.008,-0.0137807689607143,0.0108030727133155,0.00887304451316595,0,
00:00:06.012,0.0185587126761675,0.0016272759530693301,-0.0271629150956869,0,
00:00:06.016,-0.0017891227034851898,-0.00452120741829276,-0.00400674529373646,0,
00:00:06.02,-0.0196121484041214,-0.00306370947510004,0.00164427782874554,0,
00:00:06.024,-0.00186048552859575,0.0019020977197215,0.00285639497451484,0,
00:00:06.028,0.0139362020418048,0.0078628696501255,0.0136433122679591,0,
00:00:06.032,-0.0121971964836121,-0.00788082648068666,-0.00456073461100459,0,
00:00:06.036,0.0065207090228796,-0.0058994791470468,0.00283645372837782,0,
00:00:06.04,0.0158341433852911,0.0062563051469624,0.0203574560582638,0,
00:00:06.044,-0.0158632304519415,0.00194883905351162,-0.0041773486882448205,0,
00:00:06.048,0.00109699356835335,-0.00488167814910412,-0.022473219782113998,0,
00:00:06.052,0.00563032738864422,-0.00168957794085145,-0.00202746759168804,0,
00:00:06.056,-0.00498437182977796,0.00623109750449657,-0.00607544742524624,0,
00:00:06.06,0.0010494141606614,-0.004806895274668929,-0.000835267244838178,0,
00:00:06.064,0.00521180080249906,0.0070589822717011,0.0212305337190628,0,
00:00:06.068,-0.0062772473320365,0.00350144109688699,-0.00305117131210864,0,
00:00:06.072,-0.00437361327931285,-0.00418308144435287,-0.014068927615881001,0,
00:00:06.076,0.006542190909385679,-0.000558181782253087,-0.000250168173806742,0,
00:00:06.08,0.009631047025322909,-0.0103109208866954,0.0222922768443823,0,
00:00:06.084,-0.0260533224791288,-0.0030690720304846803,0.00230535469017923,0,
00:00:06.088,-0.00106185174081475,0.010742143727839,0.0047613629139959795,0,
00:00:06.092,0.0234228651970625,0.0072078718803823,-0.0123057635501027,0,
00:00:06.096,0.00752379931509495,-0.00191221432760358,-0.0309565793722868,0,
00:00:06.1,-0.0105978436768055,-0.00423154514282942,-0.00411233212798834,0,
00:00:06.104,-0.00256852246820927,-0.005072352010756729,0.0196541845798492,0,
00:00:06.108,-0.0057733892463147606,0.0032612073700875,0.00447453232482076,0,
00:00:06.112,-0.00184797064866871,0.00258439895696938,0.00496224453672767,0,
00:00:06.116,0.00208222912624478,2.7385543944547e-05,0.0427526049315929,0,
00:00:06.12,0.0138685880228877,-0.00563574256375432,-0.0244411919265985,0,
00:00:06.124,-0.0300826355814934,-0.0016988463466987,-0.0258754659444094,0,
00:00:06.128,0.0434068329632282,0.00450525432825089,-0.0187812000513077,0,
00:00:06.132,-0.009089359082281591,0.00586843444034457,-0.0031130334828048897,0,
00:00:06.136,-0.0159882102161646,-0.00101552740670741,0.0277928989380598,0,
00:00:06.14,-0.0154490116983652,-0.00706402445212007,0.00986091233789921,0,
00:00:06.144,0.0015796982916072,0.0038535948842763896,0.00433609960600734,0,
00:00:06.148,0.0120735727250576,0.00480629550293088,-0.00995702017098665,0,
00:00:06.152,0.00768783502280712,-0.00264575472101569,-0.005644272547215221,0,
00:00:06.156,0.00923582445830107,-0.0124020958319306,0.0047196839004755,0,
00:00:06.16,-0.00883547682315111,0.00555529678240418,-0.0007531140581704679,0,
00:00:06.164,0.00045315697207115596,0.0066090449690818795,-0.000885799410752952,0,
00:00:06.168,-0.005645481403917071,-0.0018976735882461101,-0.0105217415839434,0,
00:00:06.172,-0.005997744854539629,0.00029907366842962796,0.0100047122687101,0,
00:00:06.176,0.00170582591090351,0.000244265305809677,-0.0105402376502752,0,
00:00:06.18,0.00176072400063276,-0.00240557733923197,0.0037614027969539205,0,
00:00:06.184,0.0048185377381742,0.00548533722758293,0.0134977176785469,0,
00:00:06.188,0.00252454611472785,-0.00286358362063766,-0.00337403221055865,0,
00:00:06.192,0.00160115060862154,-0.00542827183380723,-0.00460665719583631,0,
00:00:06.196,-0.0123619809746742,-0.00123642187099904,0.00684384210035205,0,
00:00:06.2,0.0062820804305374605,0.00450213765725493,-0.0005960190901532769,0,
00:00:06.204,0.00541997374966741,0.007629162631928921,-0.00868279207497835,0,
00:00:06.208,2.7551501261768896e-05,0.00085559842409566,0.0017281351611018198,0,
00:00:06.212,-0.0199890490621328,-0.0127647742629051,0.00155795551836491,0,
00:00:06.216,0.0246907621622086,-0.00158881139941514,-0.0108583867549896,0,
00:00:06.22,-0.0025587051641196,0.00123828684445471,0.00229319161735475,0,
00:00:06.224,-0.0144656961783767,0.00989287439733744,0.00700561050325632,0,
00:00:06.228,0.0177901405841112,-0.00026043865364044905,0.0097286207601428,0,
00:00:06.232,-0.027276361361146,-0.00512125622481108,-0.0042811105959117395,0,
