Elapsed Time,EMG1,EMG2,EMG3,BioRadio Event,Unnamed: 5
00:00:00,0.786720633506775,-0.03943981975317,3.1302764415741002,0,
00:00:00.004,-0.74657142162323,0.0396069064736366,-2.98086190223694,0,
00:00:00.008,-0.624309599399567,0.0292234942317009,-2.4763011932373,0,
00:00:00.012,-0.0708153918385506,-0.000354092539055273,-0.263356626033783,0,
00:00:00.016,0.323270678520203,-0.0142136830836535,1.27266359329224,0,
00:00:00.02,0.387906581163406,-0.0191160291433334,1.55108058452606,0,
00:00:00.024,0.242597579956055,-0.00464916648343205,0.9470452070236209,0,
00:00:00.028,0.0302293598651886,-0.0019966685213148603,0.117778040468693,0,
00:00:00.032,-0.117718629539013,-0.00238533574156463,-0.4548802673816679,0,
00:00:00.036,-0.151844665408134,0.0080497432500124,-0.60986191034317,0,
00:00:00.04,-0.117048598825932,0.00332602486014366,-0.4543784260749821,0,
00:00:00.044,-0.0416543632745743,0.000762550218496472,-0.16855821013450598,0,
00:00:00.048,0.0207184385508299,0.008276063948869709,0.0639335215091705,0,
00:00:00.052,0.0413421168923378,-0.00574296712875366,0.180722877383232,0,
00:00:00.056,0.0397259667515755,-0.00401434535160661,0.163779929280281,0,
00:00:00.06,0.0269271619617939,0.0128810210153461,0.0893836542963982,0,
00:00:00.064,0.00330713880248368,0.009513638913631441,0.0040526045486331,0,
00:00:00.068,-0.0151047306135297,-0.017000038176775,-0.0415950492024422,0,
00:00:00.072,-0.0170421898365021,-0.0230556204915047,-0.0546753257513046,0,
00:00:00.076,-0.0121991690248251,-0.0018658002372831102,-0.0460624657571316,0,
00:00:00.08,0.0045242109335959,0.0220115650445223,-0.0059753707610070705,0,
00:00:00.084,0.00170811789575964,0.007814359851181509,0.00415767263621092,0,
00:00:00.088,0.00239574140869081,-0.00635134615004063,0.0176656171679497,0,
00:00:00.092,-0.0034711430780589602,0.00459643732756376,0.0195398889482021,0,
00:00:00.096,0.0079000536352396,0.00149532791692764,0.007377541624009609,0,
00:00:00.1,0.0117704514414072,-0.0051738386973738705,0.00277753127738833,0,
00:00:00.104,-0.00800156593322754,-0.00891935266554356,0.00506420200690627,0,
00:00:00.108,-0.00859703868627548,0.00427816621959209,-0.0206035953015089,0,
00:00:00.112,0.00114486832171679,0.00226376764476299,-0.0171172246336937,0,
00:00:00.116,-1.05418612292851e-05,0.000838960171677172,-0.0018218649784103,0,
00:00:00.12,-0.00157587160356343,-0.00415627751499414,0.0110064269974828,0,
00:00:00.124,-0.00118073681369424,0.00152792688459158,0.00899354927241802,0,
00:00:00.128,0.00655213743448257,0.00283999275416136,0.00728248991072178,0,
00:00:00.132,0.006061273161321879,0.00379235995933414,0.000977658899500966,0,
00:00:00.136,-0.00036809517769142996,0.004280406516045329,-0.0037467952352017203,0,
00:00:00.14,-0.00455965613946319,0.00380417425185442,-0.00703750038519502,0,
00:00:00.144,-0.0068580117076635395,-0.0161798372864723,0.000594329030718654,0,
00:00:00.148,-0.0025846131611615398,-0.0186173748224974,-0.00133607268799096,0,
00:00:00.152,-0.000334066920913756,0.00653162924572825,-0.000541353248991072,0,
00:00:00.156,0.005537778604775671,0.0199774242937565,-0.00348375574685633,0,
00:00:00.16,0.00253648078069091,0.00815226696431637,0.0010404100175947,0,
00:00:00.164,0.00545416958630085,-0.0104571348056197,0.00829986110329628,0,
00:00:00.168,-0.0015770700993016401,-0.00298200431279838,0.0124306390061975,0,
00:00:00.172,-0.00579310953617096,0.008596377447247509,-0.00515714567154646,0,
00:00:00.176,0.00119894417002797,-0.00276082661002874,-0.0167224034667015,0,
00:00:00.18,0.000794505816884339,-0.007913727313280109,-0.00574353383854032,0,
00:00:00.184,-0.00490582780912519,-0.00400676531717181,0.00298312632367015,0,
00:00:00.188,-0.00150832033250481,-0.0010757669806480401,0.00635957811027765,0,
00:00:00.192,0.00433384347707033,0.00142331793904305,0.00316491606645286,0,
00:00:00.196,0.007712289225310091,0.00903122127056122,0.0020120081026107103,0,
00:00:00.2,-0.00517304334789515,0.00518505368381739,-0.00127610156778246,0,
00:00:00.204,-0.0025292118079960303,0.00147012178786099,0.00777395581826568,0,
00:00:00.208,-0.004719926975667479,-0.005886741913855079,0.000749935861676931,0,
00:00:00.212,0.0086088553071022,-0.00567092699930072,-0.00781787279993296,0,
00:00:00.216,0.0001203047359013,-0.00030667003011331,-0.0111446203663945,0,
00:00:00.22,-0.00236300774849951,-0.00121049873996526,-0.000563519075512886,0,
00:00:00.224,-0.00185607187449932,0.000650590925943106,0.00277702463790774,0,
00:00:00.228,-0.00256508379243314,-0.00215839268639684,0.00526313064619899,0,
00:00:00.232,0.000450988271040842,0.00592842977494001,0.00254133809357882,0,
00:00:00.236,0.00658281473442912,0.00433283159509301,0.00813806522637606,0,
00:00:00.24,0.00258784578181803,0.000333529431372881,0.00536287669092417,0,
00:00:00.244,-0.00613256031647325,-0.00444986764341593,-0.011011010967195,0,
00:00:00.248,0.00021778709196951202,0.00118326465599239,-0.007717248518019909,0,
00:00:00.252,-0.0016314786626026,0.00200679269619286,-0.0069340062327683,0,
00:00:00.256,-0.000579040613956749,-0.0036700698547065297,0.00106719031464309,0,
00:00:00.26,0.00279667577706277,-0.00762626016512513,0.00829285476356745,0,
00:00:00.264,-0.00281316717155278,-0.00537194963544607,0.00438493583351374,0,
00:00:00.268,-0.004924246110022071,-9.38029843382537e-05,0.0058354064822197,0,
00:00:00.272,0.0139651708304882,0.0353547222912312,-0.0043052216060459605,0,
00:00:00.276,0.0039694895967841105,-0.00325809489004314,-0.00269696256145835,0,
00:00:00.28,-0.0127691375091672,-0.0192612037062645,0.000165955367265269,0,
00:00:00.284,-0.00320983049459755,-0.00993009749799967,-0.000905598921235651,0,
00:00:00.288,-0.0025478410534560698,-0.006601011846214529,-0.00577975576743484,0,
00:00:00.292,0.00886106491088867,0.0129595035687089,0.000692584144417197,0,
00:00:00.296,0.00540724908933043,0.0106368763372302,0.00510598812252283,0,
00:00:00.3,-0.00473908195272088,-0.0038616191595792796,-0.0014469135785475401,0,
00:00:00.304,-0.0020188526250422,-0.00403702771291137,0.00138968124520034,0,
00:00:00.308,-0.000646136875730008,0.00545904925093055,0.0031881108880043,0,
00:00:00.312,5.04522868141066e-05,0.0100439125671983,-0.0040608081035316,0,
00:00:00.316,0.000337806501192972,-0.00873696897178888,-0.00045740359928458897,0,
00:00:00.32,0.000359319383278489,-0.0191378444433212,0.000550586904864758,0,
00:00:00.324,0.00231420062482357,-0.00351565075106919,-0.00162689294666052,0,
00:00:00.328,-0.00396684277802706,0.0115845026448369,-1.8183289284934303e-05,0,
00:00:00.332,0.00237920065410435,-0.00022525168606080099,0.00760173425078392,0,
00:00:00.336,-0.00266321492381394,0.0070326421409845396,-0.000271062948741019,0,
00:00:00.34,0.0033603936899453397,0.0160444974899292,-0.0102044474333525,0,
00:00:00.344,-0.00035803631180897404,-0.000470871280413121,-0.00407430436462164,0,
00:00:00.348,-0.00309228617697954,-0.0125280963256955,0.0133870895951986,0,
00:00:00.352,0.00353254354558885,-0.0193947926163673,-7.77065451984527e-06,0,
00:00:00.356,-0.00232172780670226,-0.00460484810173512,-0.0036826590076088897,0,
00:00:00.36,-0.00117970642168075,0.0144722471013665,0.0014060940593481099,0,
00:00:00.364,0.00503081874921918,0.0204489082098007,-0.004560676403343679,0,
00:00:00.368,0.00189297017641366,-0.00449845334514976,-0.00235754810273647,0,
00:00:00.372,-0.00808124244213104,-0.0141892824321985,-0.0031474013812840002,0,
00:00:00.376,0.00273365550674498,-0.00253417994827032,0.0065960455685854,0,
00:00:00.38,0.00054439838277176,0.00435122055932879,0.005609380081295971,0,
00:00:00.384,0.00196265941485763,0.00307053164578974,-0.000734706525690854,0,
00:00:00.388,-0.00415819836780429,-0.00391452386975288,-0.00210922281257808,0,
00:00:00.392,0.0024640187621116603,0.0045949798077344894,0.000553082034457475,0,
00:00:00.396,-0.0024364693090319603,-0.0064577772282064,0.00577993644401431,0,
00:00:00.4,-0.000586351845413446,-0.00440045772120357,-0.00733889965340495,0,
00:00:00.404,0.00576187623664737,0.0132180713117123,-0.0083616329357028,0,
00:00:00.408,-0.0018030019709840397,0.0025374973192811,0.000838376698084176,0,
00:00:00.412,8.7109008745756e-05,-0.00513354782015085,0.00231118826195598,0,
00:00:00.416,0.00185737118590623,0.0040358635596931,0.007992931641638279,0,
00:00:00.42,-0.00267683528363705,-0.0027909872587770198,0.00349411298520863,0,
00:00:00.424,-0.00444695819169283,-0.0195768550038338,-0.0037901955656707296,0,
00:00:00.428,0.0034901816397905397,0.0083128996193409,-0.00202223425731063,0,
00:00:00.432,0.00262167165055871,0.0109294299036264,-0.005859087686985729,0,
00:00:00.436,-0.00418493850156665,0.000430132611654699,0.000751767714973539,0,
00:00:00.44,0.000294372061034665,0.00021255380124785,0.00294480053707957,0,
00:00:00.444,-0.00047643855214119006,-0.00535452319309115,0.00240520387887955,0,
00:00:00.448,0.00316532840952277,0.00206816080026329,-0.00121292180847377,0,
00:00:00.452,0.00191540515515953,0.00590484542772174,0.0015180632472038302,0,
00:00:00.456,0.00183366180863231,-0.00423435540869832,0.0006103498744778339,0,
00:00:00.46,0.000691935536451638,-0.000619554310105741,-0.000735687150154263,0,
00:00:00.464,-0.0112568782642484,-0.00572870532050729,-0.0012835998786613302,0,
00:00:00.468,-0.00239262240938842,-0.00430534966289997,-0.000996678834781051,0,
00:00:00.472,0.00575276277959347,-0.00027096964186057405,-0.000333478616084903,0,
00:00:00.476,0.0052159014157950895,0.00920103397220373,-0.00390645116567612,0,
00:00:00.48,-0.000300899293506518,0.0125805418938398,-0.0017712354892864802,0,
00:00:00.484,-0.00125511980149895,-0.0053519583307206605,0.0117400931194425,0,
00:00:00.488,0.0137614943087101,-0.0102924099192023,0.0076916939578950405,0,
00:00:00.492,-0.0160887911915779,-0.00674540037289262,0.00779187073931098,0,
00:00:00.496,-0.0073498594574630295,0.0055223093368113,-0.0240747276693583,0,
00:00:00.5,-0.00147562811616808,0.0039323284290731,-0.0176775641739368,0,
00:00:00.504,0.00441667856648564,0.00226461258716881,0.0069863400422036604,0,
00:00:00.508,0.00813265237957239,0.00675698928534985,0.0083239795640111,0,
00:00:00.512,0.00626177387312055,-0.00666233757510781,0.00805246084928513,0,
00:00:00.516,-0.00680503901094198,-0.00823167525231838,0.00480626011267304,0,
00:00:00.52,-0.0010085126850754,0.0045491699129343,0.00268304068595171,0,
00:00:00.524,0.008068801835179329,0.0142252743244171,-0.00230327364988625,0,
00:00:00.528,-0.010597113519907,-0.0117882462218404,-0.00280778389424086,0,
00:00:00.532,-0.0074001667089760295,-0.0145667875185609,-0.006270227488130329,0,
00:00:00.536,0.004577962681651121,0.00240427441895008,-0.00360070494934917,0,
00:00:00.54,0.00119820679537952,0.0061265565454959895,0.00020334351575002099,0,
00:00:00.544,0.00623426260426641,0.00865499582141638,0.000436128786532208,0,
00:00:00.548,-0.00148640666157007,0.00609285198152065,0.000602961052209139,0,
00:00:00.552,-0.00173754885327071,-0.0052103535272181,0.00936821475625038,0,
00:00:00.556,0.0018228326225653302,-0.0117777651175857,0.00801484752446413,0,
00:00:00.56,0.000798557652160525,0.0077804555185139205,-0.00872543919831514,0,
00:00:00.564,-0.000809522287454456,0.00576532632112503,-0.0108536509796977,0,
00:00:00.568,-0.00147393473889679,-0.00482221879065037,-0.0011246504727751,0,
00:00:00.572,0.000932337658014148,-0.000402980629587546,0.00357649731449783,0,
00:00:00.576,-0.004417209420353171,-0.00298794312402606,0.00412986567243934,0,
00:00:00.58,0.000642656348645687,0.00046833668602630496,0.000345919019309804,0,
00:00:00.584,0.00207243510521948,0.0005548345507122581,0.000200300986762159,0,
00:00:00.588,0.0036341177765279995,-0.00823821779340506,0.00253360345959663,0,
00:00:00.592,0.000560069107450545,0.0160753708332777,0.00039618654409423503,0,
00:00:00.596,-0.00608487334102392,-0.00757186580449343,0.0024837045930326,0,
00:00:00.6,-0.000546271912753582,-0.0018178132595494398,-0.00406496552750468,0,
00:00:00.604,0.00382038974203169,0.0010514033492654599,-0.00669740187004209,0,
00:00:00.608,-0.00223035574890673,-0.000463855511043221,-0.00434094946831465,0,
00:00:00.612,0.00122352631296963,0.000839679734781384,0.00616289209574461,0,
00:00:00.616,0.0013721422292292099,0.00363634945824742,0.0034594191238284102,0,
00:00:00.62,0.000384804705390707,0.00124922150280327,-0.000551744305994362,0,
00:00:00.624,-0.000487929122755304,0.0007311623194254929,0.00204357388429344,0,
00:00:00.628,-0.0028714754153043,-0.00429577333852649,0.00087015563622117,0,
00:00:00.632,0.00136448710691184,-0.00342014152556658,-0.000792868377175182,0,
00:00:00.636,0.00349964434280992,-0.000762094394303858,-0.00155511987395585,0,
00:00:00.64,-0.00167850509751588,-0.000795147730968893,-0.0013134608743712302,0,
00:00:00.644,-0.00221074954606593,-0.000259767286479473,0.00151453632861376,0,
00:00:00.648,-0.00303001655265689,0.00908957980573177,-0.00181824050378054,0,
00:00:00.652,0.00439401110634208,0.004045223351567979,-0.0031852915417403,0,
00:00:00.656,0.000617879733908921,-0.004401829559355971,0.00233362545259297,0,
00:00:00.66,-0.000603738706558943,-0.0030935234390199197,0.00279737217351794,0,
00:00:00.664,-0.000613432377576828,0.00166291184723377,0.00125499267596751,0,
00:00:00.668,-0.00023974715440999703,-0.0114791784435511,-0.00241185608319938,0,
00:00:00.672,8.49619464133866e-05,0.000643439532723278,-0.00121881905943155,0,
00:00:00.676,-0.0039364350959658605,0.00133511226158589,0.00463487580418587,0,
00:00:00.68,0.004128014203161,0.00687947729602456,0.00345912971533835,0,
00:00:00.684,0.007500801235437391,0.007420595735311509,-0.00831418298184872,0,
00:00:00.688,-0.00155686540529132,0.005565485451370479,-0.0133873596787453,0,
00:00:00.692,-0.00910410843789577,-0.0115903252735734,0.0190475005656481,0,
00:00:00.696,-0.00215293117798865,-0.00418235966935754,0.00689388485625386,0,
00:00:00.7,0.00184877961874008,0.00785416085273027,-0.0075064254924655,0,
00:00:00.704,0.00290963891893625,-0.0067679677158594105,-0.00725523941218853,0,
00:00:00.708,0.00206932984292507,-0.00931757688522339,-0.000226285745156929,0,
00:00:00.712,-0.00146584771573544,0.00215099449269474,-0.000109385378891602,0,
00:00:00.716,-0.000629168178420514,0.00485839648172259,0.00173170666676015,0,
00:00:00.72,0.00472275586798787,0.0120456898584962,-0.00170033611357212,0,
00:00:00.724,0.0011103143915534,0.0061814961954951295,0.00780227733775973,0,
00:00:00.728,-0.0067232050932943795,-0.0101568354293704,0.00180114211980253,0,
00:00:00.732,0.00041606131708249504,-0.00679868925362825,-0.0018602164927870003,0,
00:00:00.736,-0.00104863976594061,-0.00027234191657044,-0.0028748402837663898,0,
00:00:00.74,-1.79164762812434e-05,-0.0030245732050389103,-0.0020808121189475103,0,
00:00:00.744,-0.0010460307821631401,0.000702866760548204,-0.00273594912141562,0,
00:00:00.748,0.00116658897604793,0.0035409699194133295,0.00245101004838943,0,
00:00:00.752,0.00859182700514793,0.007779650390148159,0.0025827793870121197,0,
00:00:00.756,-0.00197148788720369,0.0020591989159584,0.000985383638180792,0,
00:00:00.76,-0.0084332637488842,-0.0053565744310617395,-0.000460431096144021,0,
00:00:00.764,0.00330427614971995,-0.000841030792798847,0.001015888992697,0,
00:00:00.768,0.00302053824998438,-0.00787657126784325,-0.0049432613886892796,0,
00:00:00.772,-0.00416164938360453,-0.0045172264799475705,-0.0021079177968204,0,
00:00:00.776,-1.3090247193758801e-05,0.0115285338833928,0.0014905221760273,0,
00:00:00.78,0.0012632133439183198,0.00512475846335292,0.00500971265137196,0,
00:00:00.784,0.00103346153628081,-0.00285392650403082,0.00444248132407665,0,
00:00:00.788,0.00032813588040880897,-0.00774523802101612,-0.00283460482023656,0,
00:00:00.792,0.0018346295692026602,0.004337424878031021,-0.00403762236237526,0,
00:00:00.796,-0.00035558882518671496,-0.0025916094891727,0.00599372247233987,0,
00:00:00.8,-0.0039867213927209395,0.00592773547396064,-0.007998311892151829,0,
00:00:00.804,-0.00611918419599533,-0.00150437350384891,-0.0115267690271139,0,
00:00:00.808,0.00674304878339171,0.00208391598425806,0.00464432500302792,0,
00:00:00.812,-0.000823472742922604,-0.00458746077492833,0.0112411146983504,0,
00:00:00.816,0.00446461094543338,-0.00273802899755538,0.0127339502796531,0,
00:00:00.82,0.00221329741179943,0.00259341089986265,-0.00607404531911016,0,
00:00:00.824,0.0030817233491689,0.0106429290026426,-0.0131808631122112,0,
00:00:00.828,-0.00869256723672152,-0.00942320842295885,0.0009739106753841039,0,
00:00:00.832,-0.00158001657109708,-0.007453794125467541,-0.0009159122710116211,0,
00:00:00.836,-0.00586463650688529,0.00384582742117345,0.0054987343028187795,0,
00:00:00.84,0.004447543527930979,0.000376822106773034,0.0009177266620099539,0,
00:00:00.844,0.0115169854834676,0.0036278576590120797,-0.000789395708125085,0,
00:00:00.848,-0.00558699481189251,0.00034901080653071404,-0.0009599920595064759,0,
00:00:00.852,-0.007646197453141209,4.89346020913217e-05,-0.00259433640167117,0,
00:00:00.856,0.00512909004464746,0.00224639545194805,-0.000133068067952991,0,
00:00:00.86,0.00209476705640554,0.00223095947876573,0.0017826680559665,0,
00:00:00.864,0.00205191364511848,-0.00165094237308949,0.0061447513289749605,0,
00:00:00.868,-0.00293804029934108,-0.00366372568532825,0.00538953160867095,0,
00:00:00.872,-0.0026064850389957398,-0.00509007042273879,-0.0113197518512607,0,
00:00:00.876,-0.000673991395160556,-0.00111265538726002,-0.0077827307395637,0,
00:00:00.88,0.0008509486215189099,0.000294853351078928,0.00208695139735937,0,
00:00:00.884,-0.00281966850161552,0.00538035575300455,0.000739178853109479,0,
00:00:00.888,0.00285170576535165,-0.000101184283266775,0.00137460546102375,0,
00:00:00.892,0.0159407742321491,0.0110182920470834,0.0248698778450489,0,
00:00:00.896,-0.00812998414039612,-0.00213376502506435,-0.00525512406602502,0,
00:00:00.9,-0.0143494047224522,-0.0109213283285499,-0.0203030854463577,0,
00:00:00.904,-0.000246596493525431,-0.00150365883018821,-0.0105559686198831,0,
00:00:00.908,0.00500840600579977,-0.0006162406643852589,0.00215709744952619,0,
00:00:00.912,0.0026321643963456197,-0.0005298558389768,0.00866647157818079,0,
00:00:00.916,0.00616701459512115,0.00446279440075159,0.0061177788302302395,0,
00:00:00.92,-0.00694617116823792,-0.000545621151104569,0.010026560164988001,0,
00:00:00.924,0.00694987829774618,0.00278408732265234,0.00538876606151462,0,
00:00:00.928,0.00244724960066378,0.00819368939846754,-0.0100102070719004,0,
00:00:00.932,-0.00988273322582245,-0.0038888193666935,-0.0150871025398374,0,
00:00:00.936,-0.00594383059069514,-0.00835194997489452,-0.00542004778981209,0,
00:00:00.94,0.0028746644966304302,0.000250299257459119,0.00606704829260707,0,
00:00:00.944,0.00670502986758947,-0.000681184406857938,0.00984789617359638,0,
00:00:00.948,0.000939148012548685,0.000423969730036333,0.000516657193657011,0,
00:00:00.952,-0.00324198207817972,-0.000732871936634183,0.000836099789012223,0,
00:00:00.956,-0.0014270435785874698,0.00545510184019804,-0.00478711351752281,0,
00:00:00.96,0.0028997918125242,0.000490746868308634,-0.00393522158265114,0,
00:00:00.964,0.00383212324231863,-0.00551958288997412,0.0137967942282557,0,
00:00:00.968,-0.000256542291026562,0.0066851186566054795,0.00881981290876865,0,
00:00:00.972,-0.007202403154224159,-0.0013840583851561,-0.0180961042642593,0,
00:00:00.976,-0.00128541071899235,0.00330256065353751,-0.0150136779993773,0,
00:00:00.98,0.00162378884851933,-0.0137893054634333,0.00350784556940198,0,
00:00:00.984,0.00216772523708642,-0.00100353802554309,0.00913801696151495,0,
00:00:00.988,0.0034681272227317103,0.0115771545097232,0.0028931729029864103,0,
00:00:00.992,-0.00582750979810953,0.0018840186530724198,-0.00203065760433674,0,
00:00:00.996,-0.000236056090216152,-0.0102055063471198,0.0179576426744461,0,
00:00:01,0.0106018632650375,0.00557350879535079,0.00214499514549971,0,
00:00:01.004,-0.0077741546556353595,0.00525338761508465,-0.0119681553915143,0,
00:00:01.008,0.000420030788518488,0.00679297931492329,-0.014147954992949999,0,
00:00:01.012,0.00067154283169657,-0.004586565773934129,-0.011775728315115001,0,
00:00:01.016,-0.00272533274255693,-0.0123024331405759,0.0047440193593502,0,
00:00:01.02,-0.00131548126228154,-0.00590210361406207,0.013608924113214,0,
00:00:01.024,0.000719206058420241,0.0019338300917297602,0.007636636495590209,0,
00:00:01.028,-0.000400566088501364,0.0037339238915592397,0.0020680129528045698,0,
00:00:01.032,0.00341178756207228,0.007316141389310359,-0.0018812492489814802,0,
00:00:01.036,0.00223506498150527,0.0041722198948264105,-0.00140342093072832,0,
00:00:01.04,-0.0041893906891346,-0.004337267484515911,0.00535415625199676,0,
00:00:01.044,0.00455468893051147,-0.0030328959692269603,-0.0110256345942616,0,
00:00:01.048,-0.00033672057907097004,-7.46943042031489e-05,-0.0104628531262279,0,
00:00:01.052,-0.0043476396240294,0.0118687888607383,-0.0009026502375490961,0,
00:00:01.056,0.00620881654322147,0.00604137498885393,0.00393785303458571,0,
00:00:01.06,-0.00504705822095275,-0.0153710544109344,0.0112971942871809,0,
00:00:01.064,-0.00644908752292395,-0.0208617802709341,0.0165599230676889,0,
00:00:01.068,0.00151584832929075,-0.0008799533825367689,-0.0127466721460223,0,
00:00:01.072,0.00398895191028714,0.0154948560521007,-0.0130009539425373,0,
00:00:01.076,0.00307343760505319,0.0169854704290628,-0.00413960451260209,0,
00:00:01.08,-0.00109167990740389,1.0213544555881501e-05,0.00331129622645676,0,
00:00:01.084,-0.000823737413156778,-0.010719888843596,0.0142162516713142,0,
00:00:01.088,0.0022028137464076302,-0.00657607987523079,0.0007369842496700581,0,
00:00:01.092,0.00684627424925566,0.00404466269537807,-0.0111587587743998,0,
00:00:01.096,-0.0071402490139007594,0.009932002052664759,-0.00107290269806981,0,
00:00:01.1,-0.008797141723334791,-0.00329320435412228,0.00252849492244422,0,
00:00:01.104,0.00019751931540668,-0.00440151477232575,0.00247886683791876,0,
00:00:01.108,0.0038913681637495795,-0.0102425320073962,-0.0031008964870125103,0,
00:00:01.112,0.00374004850164056,-0.0043040132150054,0.0098842941224575,0,
00:00:01.116,0.0018069912912324101,0.007037960924208159,-0.00149618298746645,0,
00:00:01.12,-0.0022439635358750803,0.0107574611902237,-0.0115675311535597,0,
00:00:01.124,0.0007166714058257639,0.0029026670381426803,-0.000342349288985133,0,
00:00:01.128,0.000294956233119592,-0.00364203308708966,0.00360094360075891,0,
00:00:01.132,0.0035178589168936,0.0050627919845283,0.00538014806807041,0,
00:00:01.136,-0.00701150251552463,0.00132681592367589,-0.00265926565043628,0,
00:00:01.14,-0.00409881584346294,-0.00983863323926926,-3.90229797631036e-05,0,
00:00:01.144,0.00515558524057269,-0.009853082709014421,0.000250211625825614,0,
00:00:01.148,-0.000294178636977449,-0.007918208837509159,-0.000128993488033302,0,
00:00:01.152,0.0021485842298716302,0.00650947075337172,-0.000405424972996116,0,
00:00:01.156,0.00328929512761533,0.0194279439747334,-0.00039197801379486897,0,
00:00:01.16,-0.00228008441627026,0.00630275160074234,0.00188568246085197,0,
00:00:01.164,-0.0027814747299999,-0.00843252055346966,0.00220854743383825,0,
00:00:01.168,-0.0033589429222047303,-0.00415852060541511,-0.00958125852048397,0,
00:00:01.172,0.00432839244604111,-0.00722039770334959,-0.00140902434941381,0,
00:00:01.176,0.000721937045454979,0.00412300461903214,0.00586123531684279,0,
00:00:01.18,-0.000451944535598159,0.000918555248063058,0.0047378828749060605,0,
00:00:01.184,-0.00257795862853527,-0.00666249915957451,-0.0009308941662311551,0,
00:00:01.188,-0.00030182610498741296,-0.000783520983532071,0.00451750261709094,0,
00:00:01.192,0.0057568838819861395,0.0108417300507426,-0.0027028045151382698,0,
00:00:01.196,1.17859890451655e-05,0.0100141419097781,-0.008981600403785709,0,
00:00:01.2,-9.659810893936079e-05,-0.00749408034607768,0.0006162765203043821,0,
00:00:01.204,-0.00397853692993522,-0.0106781041249633,-0.00151132862083614,0,
00:00:01.208,-0.00249321153387427,-0.00166266516316682,0.0057037360966205606,0,
00:00:01.212,-0.00200816337019205,0.00285130669362843,0.00160149089060724,0,
00:00:01.216,0.0036055427044630103,-0.000541054992936552,-0.0022609094157815,0,
00:00:01.22,0.00135417096316814,0.0062000541947782,-0.000843214453198016,0,
00:00:01.224,0.0052691800519824,0.00369190541096032,0.00293887313455343,0,
00:00:01.228,0.00100592745002359,-0.000503935909364372,0.0035173022188246302,0,
00:00:01.232,-0.00290782726369798,0.00331779872067273,-0.00479733711108565,0,
00:00:01.236,-0.00594036234542727,-0.00473388843238354,0.00271180854178965,0,
00:00:01.24,-0.00464360602200031,-0.0146122211590409,-0.0019264123402535898,0,
00:00:01.244,0.00109705387149006,-0.0040199961513280895,-0.00693007372319698,0,
00:00:01.248,0.00653465464711189,0.0103856073692441,-0.00166660582181066,0,
00:00:01.252,0.000210783400689252,0.0054132929071784,0.00540966959670186,0,
00:00:01.256,0.00854820664972067,0.0114970402792096,0.0027546349447220603,0,
00:00:01.26,-0.000743178825359792,0.0014780267374589998,0.0015150064136833,0,
00:00:01.264,-0.00965873245149851,-0.00905217044055462,0.008709426037967209,0,
00:00:01.268,-0.0013765199109911901,-0.0150574911385775,-0.00634056376293302,0,
00:00:01.272,-0.00334370788186789,-0.0062258830294013,-0.00744840782135725,0,
00:00:01.276,0.0027569632511586,0.0160053167492151,-0.00111577485222369,0,
00:00:01.28,0.00369744817726314,0.0129045667126775,-0.000902490632142872,0,
00:00:01.284,0.00213688891381025,-0.00800909288227558,0.00144069804809988,0,
00:00:01.288,0.000164745666552335,-0.00607240479439497,0.000569537922274321,0,
00:00:01.292,-0.00314401485957205,-0.00630443170666695,0.00210552266798913,0,
00:00:01.296,0.00274461461231112,0.0027588643133640302,0.00658585643395782,0,
00:00:01.3,-0.00119450711645186,0.01564178802073,0.00156531087122858,0,
00:00:01.304,-0.00168039137497544,-0.004159038886427879,-0.009426693432033059,0,
00:00:01.308,-0.000756356748752296,-0.00735421804711223,0.00136524147819728,0,
00:00:01.312,0.000249560456722975,-0.00798349361866713,0.00390979601070285,0,
00:00:01.316,0.000746733567211777,0.000180744827957824,-0.0041634002700448,0,
00:00:01.32,0.000699439726304263,0.0140191130340099,-0.00719242170453072,0,
00:00:01.324,-0.00172351067885756,0.00442357128486037,0.00204191543161869,0,
00:00:01.328,0.00196010316722095,-0.0155662866309285,0.0115813137963414,0,
00:00:01.332,0.00141100224573165,0.00412461906671524,0.00242825597524643,0,
00:00:01.336,0.0019911136478185697,0.0159001685678959,-0.00758415227755904,0,
00:00:01.34,-0.000911120267119259,-0.004395264200866221,0.00123981607612222,0,
00:00:01.344,-0.00676340237259865,-0.0143288746476173,-0.005950634367764,0,
00:00:01.348,-0.00250078644603491,-0.0072824857197701905,3.11752919515129e-05,0,
00:00:01.352,0.006359051913023001,0.00178897415753454,0.00053774134721607,0,
00:00:01.356,0.00208088289946318,0.000217249660636298,0.00452793389558792,0,
00:00:01.36,-0.000212526545510627,0.0140966344624758,0.00286522996611893,0,
00:00:01.364,-0.00103877671062946,0.0100762769579887,-0.00205371645279229,0,
00:00:01.368,-0.00302137504331768,-0.00953993294388056,0.00021540457964874799,0,
00:00:01.372,-0.0005645070923492309,-0.00841671228408813,0.0058693685568869105,0,
00:00:01.376,0.00569937750697136,0.00220603006891906,-0.00904016941785812,0,
00:00:01.38,0.0021838997490704103,0.00500198407098651,-0.00397962145507336,0,
00:00:01.384,-0.00606737937778234,-0.0012221224606037099,0.0047591621987521605,0,
00:00:01.388,-0.00153800914995372,-0.0026542281266301896,-0.0032226981129497303,0,
00:00:01.392,0.000679514952935278,-0.0037143190857023,-0.0006838761037215589,0,
00:00:01.396,-0.0028861197642982,-0.000183215452125296,0.0067066904157400105,0,
00:00:01.4,0.00903836265206337,0.00870139803737402,-0.000605433713644743,0,
00:00:01.404,0.0017303779022768099,0.00314994319342077,-0.00332427909597754,0,
00:00:01.408,-0.00714680552482605,-0.00507647404447198,-0.000356721167918295,0,
00:00:01.412,4.4570479076355696e-06,-0.0155950374901295,0.0185655076056719,0,
00:00:01.416,-0.00327048660255969,0.007784736342728141,-0.007426207885146141,0,
00:00:01.42,0.00200319802388549,0.00914540980011225,-0.016034385189414,0,
00:00:01.424,0.00276834075339139,0.00324078788980842,-0.0045939008705318,0,
00:00:01.428,-0.00057835306506604,-0.00621237745508552,0.0014875963097438199,0,
00:00:01.432,-0.00013378360017668502,-0.008412044495344159,0.00824323017150164,0,
00:00:01.436,0.00476921908557415,0.0100725861266255,0.00435940455645323,0,
00:00:01.44,0.00297124194912612,0.0080046784132719,0.00589530263096094,0,
00:00:01.444,-0.00687768217176199,-0.0037671138998121,-0.0063054752536118,0,
00:00:01.448,-0.00750823738053441,-0.0155463209375739,-0.00276646995916963,0,
00:00:01.452,-0.00101581402122974,-0.0033637348096817697,0.00583362253382802,0,
00:00:01.456,0.00597514677792788,0.005286452360451221,0.0009559544268995519,0,
00:00:01.46,0.00498972553759813,0.00535601424053311,-0.00181727798189968,0,
00:00:01.464,0.00148564542178065,0.0110288495197892,-0.0109333163127303,0,
00:00:01.468,-0.00133785954676569,0.0027756225317716603,-0.0107657928019762,0,
00:00:01.472,-0.000283575849607587,-0.006981011480093,0.0006879969150759281,0,
00:00:01.476,-0.007990347221493721,-0.0197909623384476,0.0253768917173147,0,
00:00:01.48,0.00159449281636626,0.014552891254425,0.0125941745936871,0,
00:00:01.484,0.00755804823711514,0.01061434391886,-0.0106818694621325,0,
00:00:01.488,-0.0019725919701159,-0.00509645603597164,-0.0107806986197829,0,
00:00:01.492,-0.00320650357753038,-0.00976870954036713,-0.0125031163915992,0,
00:00:01.496,-0.0034586787223815896,-0.0104621844366193,0.00291010364890099,0,
00:00:01.5,0.00458538811653852,0.00985782872885466,0.007429989520460371,0,
00:00:01.504,-0.00101677258498967,0.0117317056283355,0.00564799690619111,0,
00:00:01.508,0.00171843101270497,-0.0031003032345324802,0.00180828152224422,0,
00:00:01.512,0.00113281572703272,-0.00433664582669735,-0.00126800872385502,0,
00:00:01.516,-0.00016811839304864398,0.0026324209757149198,-0.00663857720792294,0,
00:00:01.52,-0.0009523182525299491,0.00525721022859216,-0.00228876899927855,0,
00:00:01.524,0.0010947702685371,-0.0115948878228664,0.0104598375037313,0,
00:00:01.528,-0.0045873443596065,-0.0058934418484568605,0.00815930590033531,0,
00:00:01.532,0.000318660022458062,0.00682267546653748,-0.0117710707709193,0,
00:00:01.536,0.0059320814907550794,0.00676229409873486,-0.0140476748347282,0,
00:00:01.54,-0.00462381914258003,0.004428841639310121,-0.00416436744853854,0,
00:00:01.544,-0.000861614942550659,-0.00972297322005033,0.0132852969691157,0,
00:00:01.548,-0.00940710678696632,0.00330434809438884,0.0171388499438763,0,
00:00:01.552,0.0111309178173542,-0.0018098371801897899,0.000926784006878734,0,
00:00:01.556,0.019303297623992,0.0027738008648157102,-0.008345454931259159,0,
00:00:01.56,-0.011040604673326,-0.0037252856418490397,-0.015444140881299999,0,
00:00:01.564,-0.0108560100197792,-0.00213613174855709,-0.00534218503162265,0,
00:00:01.568,-0.0027954813558608302,0.0131973102688789,0.0046226955018937605,0,
00:00:01.572,-0.00106384977698326,-0.0034491661936044697,0.0124746486544609,0,
00:00:01.576,0.00215649115853012,-0.0159464813768864,0.00243806932121515,0,
00:00:01.58,0.00146739953197539,-0.00117421627510339,0.0029451840091496697,0,
00:00:01.584,0.00272129173390567,0.0017703465418890101,-0.00591179588809609,0,
00:00:01.588,0.00677483854815364,0.00622072676196694,-0.000662879378069192,0,
00:00:01.592,0.00142657372634858,0.0148145575076342,-0.000940873695071787,0,
00:00:01.596,-0.00761959562078118,-0.000329167698509991,-0.00779562955722213,0,
00:00:01.6,-0.00291392183862627,-0.00671904161572456,0.00263040489517152,0,
00:00:01.604,-1.42273365781875e-05,-0.006536202039569621,0.00664241937920451,0,
00:00:01.608,0.00126372743397951,-0.00322203407995403,0.0007101587252691389,0,
00:00:01.612,0.0013382013421505698,0.00230016303248703,-0.00561877992004156,0,
00:00:01.616,0.0007862250786274669,0.0001891806605272,-0.00589073961600661,0,
00:00:01.62,0.00013648382446263002,-0.00135768763720989,0.0145692452788353,0,
00:00:01.624,-0.00236361171118915,-0.0009054914116859439,0.0133695984259248,0,
00:00:01.628,0.00572487479075789,0.0150213614106178,-0.00954381562769413,0,
00:00:01.632,-0.00675024930387735,-0.0101654166355729,-0.0174677241593599,0,
00:00:01.636,0.0028223933186382103,0.00080008857185021,-0.0138122737407684,0,
00:00:01.64,-0.0019048571120947602,-0.00513007119297981,0.00502972863614559,0,
00:00:01.644,0.00147057545837015,-0.0032318378798663603,0.0212556309998035,0,
00:00:01.648,-0.000761010800488293,0.0151719227433205,0.0133144538849592,0,
00:00:01.652,0.0125525938346982,0.0100775361061096,-0.0123481266200542,0,
00:00:01.656,-0.0129998410120606,-0.017456965520977998,-0.0110136950388551,0,
00:00:01.66,-0.00486992998048663,-0.0129618141800165,0.0036494517698884,0,
00:00:01.664,-0.00309589598327875,0.00110939366277307,0.00181499985046685,0,
00:00:01.668,0.00740945897996426,0.00493197469040751,0.0045352424494922204,0,
00:00:01.672,0.00632619671523571,0.0105951707810163,-0.00427756458520889,0,
00:00:01.676,0.0016823966288939099,0.0027396292425692103,-0.00372084090486169,0,
00:00:01.68,-0.0020001588854938698,-0.008113523013889791,-0.000585399684496224,0,
00:00:01.684,-0.00322154257446527,-0.00157019030302763,0.00170972023624927,0,
00:00:01.688,-0.00243179174140096,0.0145511981099844,0.000156520953169093,0,
00:00:01.692,0.0012413577642291802,-0.00307146622799337,-0.000720618816558272,0,
00:00:01.696,-0.00146299123298377,-0.00834259111434221,0.010029349476099002,0,
00:00:01.7,-0.000534275488462299,-0.0102186352014542,-0.00314073311164975,0,
00:00:01.704,0.000815837411209941,0.000493012368679047,0.00357109261676669,0,
00:00:01.708,0.00134701246861368,0.00332839717157185,-0.0142464376986027,0,
00:00:01.712,-0.00104455486871302,0.00316449766978621,-0.00632514804601669,0,
00:00:01.716,0.00231546838767827,0.0124621968716383,0.0206417851150036,0,
00:00:01.72,0.00138602661900222,0.00148072734009475,0.0007992706960067151,0,
00:00:01.724,-0.000344363594194874,-0.0137302791699767,-0.0103926723822951,0,
00:00:01.728,-0.0033846739679575,0.00131558068096638,-0.00577652547508478,0,
00:00:01.732,-0.00136776536237448,0.0046670311130583295,0.00729150790721178,0,
00:00:01.736,0.0112832840532064,-0.00587697792798281,0.00280765839852393,0,
00:00:01.74,-0.0143352448940277,-0.009493549354374409,-0.0025263519492000302,0,
00:00:01.744,0.00527592562139034,0.00938649196177721,-0.0038802474737167397,0,
00:00:01.748,0.00470263138413429,0.0169689264148474,0.00209295284003019,0,
00:00:01.752,-0.00448341853916645,-0.0037135507445782397,0.00286000547930598,0,
00:00:01.756,-0.0035261611919850102,-0.009507661685347559,-0.000699738855473697,0,
00:00:01.76,-0.00220802519470453,-0.00474629504606128,-0.000400735239963979,0,
00:00:01.764,0.0040716133080422896,-0.0118817817419767,0.0045058666728436895,0,
00:00:01.768,0.0019352324306964898,0.00443804217502475,0.000740632065571845,0,
00:00:01.772,0.00350488093681633,0.00983082503080368,-0.00907892361283302,0,
00:00:01.776,0.00294008501805365,0.0136706046760082,0.00022327214537654102,0,
00:00:01.78,-0.0036062935832887897,0.00040316884405911,0.004710266366600989,0,
00:00:01.784,-0.00823881477117538,-0.0172448493540287,-0.00419131387025118,0,
00:00:01.788,-9.229200077243149e-05,-0.00175555737223476,0.0069430284202098794,0,
00:00:01.792,0.00970044080168009,0.0121500855311751,0.000688307627569884,0,
00:00:01.796,-0.000461642950540408,-0.0020308557432144898,-0.004898448009043929,0,
00:00:01.8,-0.00119284051470459,-0.00488285394385457,-0.00116569339297712,0,
00:00:01.804,-0.0064456751570105605,-0.00275106611661613,-0.00412051193416119,0,
00:00:01.808,-0.00226600095629692,-0.0019068339606747,-0.00191373820416629,0,
00:00:01.812,0.00843313056975603,0.00591092929244041,0.0117050753906369,0,
00:00:01.816,-4.46485319116618e-05,0.0058072111569345,-0.00047860073391348096,0,
00:00:01.82,-0.0020172570366412397,-0.00842404365539551,-0.000659817655105144,0,
00:00:01.824,-0.0054562184959650005,-0.00231756735593081,0.00271309516392648,0,
00:00:01.828,0.0059239091351628295,0.00830608978867531,-0.00552197592332959,0,
00:00:01.832,-0.000146611695527099,-0.000603850989136845,-0.00638247327879071,0,
00:00:01.836,0.00554338004440069,-0.0006327970768325031,-0.0027695910539478103,0,
00:00:01.84,-0.005854938179254529,-0.005834538023918871,0.009707175195217129,0,
00:00:01.844,-0.00233992445282638,0.00217826897278428,0.00411211745813489,0,
00:00:01.848,0.0020440011285245397,-0.0018139259191229898,-0.00663032615557313,0,
00:00:01.852,-0.0030418736860156103,0.000245289120357484,0.00133527768775821,0,
00:00:01.856,0.00139924103859812,-0.00406292686238885,0.0210376158356667,0,
00:00:01.86,0.00207298924215138,0.0144289862364531,-0.0149139882996678,0,
00:00:01.864,0.00109573942609131,0.006333389319479471,-0.0154841607436538,0,
00:00:01.868,-7.81165872467682e-05,-0.00643421616405249,-0.00664648320525885,0,
00:00:01.872,-0.0007403940544463691,-0.0109439566731453,0.00461589265614748,0,
00:00:01.876,-0.000788367877248675,-0.00958740059286356,0.0115450276061893,0,
00:00:01.88,-0.00045665085781365595,0.00295238546095788,0.00575844245031476,0,
00:00:01.884,-0.0021282043308019603,0.00976252183318138,0.00332209072075784,0,
00:00:01.888,0.00218963506631553,0.00434782262891531,0.000473045220132917,0,
00:00:01.892,0.00399988517165184,0.0048770243301987605,-0.00839155726134777,0,
00:00:01.896,-0.0036718943156302,0.0030047912150621397,0.000386827916372567,0,
00:00:01.9,0.00163554027676582,-0.0110899601131678,-0.00457729818299413,0,
00:00:01.904,0.0004997329087927941,-0.006325326394289729,-0.0042620706371963,0,
00:00:01.908,-0.00331262941472232,-0.007428818382322791,0.0011076735099777599,0,
00:00:01.912,-0.005942745134234429,0.00396608002483845,0.00648637535050511,0,
00:00:01.916,0.0065583861432969605,0.0141659751534462,-0.00601597130298615,0,
00:00:01.92,0.000963890284765512,-0.0040246369317174,0.0165981408208609,0,
00:00:01.924,0.00021211300918366798,0.00918653327971697,0.0105692027136683,0,
00:00:01.928,0.004573300946503879,-0.013026780448853997,-0.0186331477016211,0,
00:00:01.932,-0.00151106587145478,-0.00295088300481439,-0.008566754870116709,0,
00:00:01.936,-0.00317614106461406,0.0132111646234989,-0.0103582013398409,0,
00:00:01.94,-0.00224830908700824,-0.00173936586361378,0.005574498325586321,0,
00:00:01.944,-0.000540188048034906,-0.00565497716888785,0.00964077655225992,0,
00:00:01.948,0.000748223508708179,-0.00388190895318985,0.0066560520790517295,0,
00:00:01.952,0.00118663732428104,-0.000637031916994601,-0.000472114625154063,0,
00:00:01.956,0.0009260288788937029,-0.00042666814988478997,-0.000189483223948628,0,
00:00:01.96,0.000367913657100871,0.00838548224419355,-0.0038832651916891297,0,
00:00:01.964,-0.000121968347229995,0.00344488467089832,-0.0005482286796905099,0,
00:00:01.968,-0.00035915261832997203,-0.0107135148718953,0.00386728276498616,0,
00:00:01.972,-0.000345116655807942,-0.00299090915359557,-0.00446092849597335,0,
00:00:01.976,-0.000189333150046878,0.00896930508315563,-0.005799155216664079,0,
00:00:01.98,-1.71526389749488e-05,0.00259030680172145,0.00358678167685866,0,
00:00:01.984,9.083607437787579e-05,-0.00591567158699036,0.00157361198216677,0,
00:00:01.988,0.00011496303341118601,-0.0032492938917130197,-0.00110543775372207,0,
00:00:01.992,-0.0019960803911089897,0.00508523778989911,0.000483229145174846,0,
00:00:01.996,-0.00422716606408358,-0.0010233526118099698,0.00586055126041174,0,
00:00:02,0.013777457177639,-0.000770867220126092,0.00173944630660117,0,
00:00:02.004,0.00536933774128556,0.0047125192359089895,-0.0129344845190644,0,
00:00:02.008,-0.0132696982473135,-0.00492792669683695,0.0101115377619863,0,
00:00:02.012,-0.009127845056355,-0.0005601732991635799,0.00568444328382611,0,
00:00:02.016,0.0019021299667656398,0.00549016147851944,-0.0111014703288674,0,
00:00:02.02,0.00754228606820107,0.00157404399942607,-0.0069885905832052205,0,
00:00:02.024,0.00240007787942886,-0.00252526695840061,-0.0011315221199765801,0,
00:00:02.028,-0.004208924248814579,-0.0037023096811026296,0.00734625570476055,0,
00:00:02.032,0.0029878446366637897,-0.00865148566663265,0.0172773115336895,0,
00:00:02.036,0.00230228621512651,-0.0006312609184533361,-0.00301391421817243,0,
00:00:02.04,-0.000244692724663764,0.0100010260939598,-0.0113399904221296,0,
00:00:02.044,0.000226278047193773,0.0112153934314847,-0.0113540356978774,0,
00:00:02.048,-0.00390520226210356,-0.00310400128364563,0.0054496671073138705,0,
00:00:02.052,-0.0026834367308765698,-0.008727344684302809,0.00491676386445761,0,
00:00:02.056,-0.000170702493051067,-0.0026259331498295103,0.0009468810749240221,0,
00:00:02.06,0.0015072664245963099,0.0005620644660666589,0.00279466644860804,0,
00:00:02.064,0.0018164860084652899,0.00164362951181829,0.0008827456622384491,0,
00:00:02.068,0.00116461142897606,0.0014261879259720401,-0.00116975011769682,0,
00:00:02.072,-0.0018339499365538398,-0.00347181083634496,-0.00195996579714119,0,
00:00:02.076,0.00154853484127671,0.00600411603227258,-0.0036134435795247602,0,
00:00:02.08,0.00307023664936423,0.007137925829738379,-0.0006718625663779679,0,
00:00:02.084,-0.00437866477295756,-0.0159475300461054,0.0101267667487264,0,
00:00:02.088,0.00135963794309646,0.00708460109308362,-0.00134596694260836,0,
00:00:02.092,0.000593322387430817,0.0009354277863167231,-0.0110793793573976,0,
00:00:02.096,-0.00304335705004632,-0.0058680856600403794,-0.0018250034190714398,0,
00:00:02.1,-0.0036105697508901397,0.00012758289813063998,0.0018261969089508102,0,
00:00:02.104,0.0005703199421986941,0.00256498763337731,0.00483766570687294,0,
00:00:02.108,0.00535876303911209,0.00445608468726277,0.0128043126314878,0,
00:00:02.112,0.00335059338249266,-0.00510269636288285,0.0106844343245029,0,
00:00:02.116,0.00206688954494894,0.00201267749071121,-0.0189099498093128,0,
00:00:02.12,-0.00404679868370295,0.00421501230448484,-0.0199709888547659,0,
00:00:02.124,-0.0018770971801132,0.0024235351011157,-0.00770966848358512,0,
00:00:02.128,-0.0118219321593642,-0.0171583071351051,0.027620580047369,0,
00:00:02.132,0.00693937670439482,0.0028621605597436398,0.007822670973837379,0,
00:00:02.136,0.014294421300292,0.009745076298713679,-0.00503734964877367,0,
00:00:02.14,-0.00288189947605133,0.00302158016711473,-0.008326843380928041,0,
00:00:02.144,-0.00656214356422424,0.00311883422546089,-0.00321949296630919,0,
00:00:02.148,-0.00616639573127031,-0.00023157197574619198,0.00169416959397495,0,
00:00:02.152,0.00362075562588871,-0.00513760838657618,0.007699571084231141,0,
00:00:02.156,0.0015642439248040301,-0.0101307099685073,0.0008499901159666481,0,
00:00:02.16,-0.00119785382412374,-0.0077296425588429,-0.00238719349727035,0,
00:00:02.164,-0.00168966059572995,0.00506319757550955,-0.0027298319619149,0,
00:00:02.168,0.00779536133632064,0.0111302863806486,-0.00361967366188765,0,
00:00:02.172,0.0034062834456563,0.00668415520340204,0.0018608205718919602,0,
00:00:02.176,-0.0043927361257374295,0.00232324097305536,0.0024294368922710397,0,
00:00:02.18,-0.00272246403619647,-0.00158558983821422,0.0011522819986566901,0,
00:00:02.184,-0.004150609485805029,-0.0037625199183821704,-0.00225733174011111,0,
00:00:02.188,-0.00114614714402705,-0.0183796491473913,0.00321281095966697,0,
00:00:02.192,0.00166926521342248,-0.00112888077273965,-0.0011343709193170099,0,
00:00:02.196,0.00264116493053734,0.0101218074560165,-0.00600734958425164,0,
00:00:02.2,-0.00216607609763741,-0.0035275863483548203,0.00712538231164217,0,
00:00:02.204,0.00461026607081294,0.0171844735741615,0.00151562655810267,0,
00:00:02.208,0.00490093789994717,0.0144777493551373,-0.00626672245562077,0,
00:00:02.212,-0.00257046078331769,-0.0123142814263701,0.0011169541394338,0,
00:00:02.216,-0.00417196983471513,-0.0172212906181812,0.00369863514788449,0,
00:00:02.22,-0.000583996996283531,0.000620929640717804,-0.00581117812544107,0,
00:00:02.224,-0.0023963125422596897,-0.005536931101232771,-0.00248606572858989,0,
00:00:02.228,-0.0046830540522933,-0.00358071597293019,0.0042058192193508105,0,
00:00:02.232,0.00529207522049546,0.00976823177188635,0.0040084826759994,0,
00:00:02.236,0.0031369132921099697,0.0097353495657444,-0.000715239497367293,0,
00:00:02.24,0.00786056835204363,0.0061056022532284294,0.00307342922315001,0,
00:00:02.244,-0.00152481370605528,0.00684238504618406,-0.00433497270569205,0,
00:00:02.248,-0.007540201302617791,-0.009580284357070921,-0.00109734700527042,0,
00:00:02.252,-0.0048237987793982,-0.0142006445676088,0.00200790842063725,0,
00:00:02.256,-0.00029755025752820096,-0.0110454931855202,-0.00388983986340463,0,
00:00:02.26,0.000500156078487635,-0.000716437178198248,-0.00157494226004928,0,
00:00:02.264,0.00501844706013799,0.0131778316572309,0.0035779355093836797,0,
00:00:02.268,0.00353362783789635,0.0132373236119747,-0.00138135778252035,0,
00:00:02.272,-0.00157411489635706,-0.006640464533120389,0.008542582392692571,0,
00:00:02.276,0.000355518684955314,-0.00266804569400847,0.00851919781416655,0,
00:00:02.28,0.00365566462278366,0.0195388086140156,-0.018516918644309,0,
00:00:02.284,-0.0031666255090385697,-0.0055930777452886105,-0.0114662861451507,0,
00:00:02.288,-0.00858243834227324,-0.0195953790098429,0.00785446260124445,0,
00:00:02.292,-0.000631335424259305,-0.00797120854258537,0.00499105174094439,0,
00:00:02.296,0.00117581360973418,0.00035849239793606097,0.00583028793334961,0,
00:00:02.3,0.00557617517188191,0.00704722432419658,0.00210269982926548,0,
00:00:02.304,-0.00048612747923470996,0.00804279372096062,-0.00148428371176124,0,
00:00:02.308,0.008419257588684559,0.00690127490088344,-0.000932716473471373,0,
00:00:02.312,-0.0025598611682653397,0.00271447864361107,-0.004526678938418629,0,
00:00:02.316,-0.00525847589597106,-0.0059368847869336605,-0.0048412517644465,0,
00:00:02.32,-0.0035567025188356603,-0.0045167007483542,0.00411337427794933,0,
00:00:02.324,0.00136364263016731,0.0008218548609875139,0.00146864971611649,0,
00:00:02.328,0.00141504511702806,-0.009530883282423021,-0.00153215252794325,0,
00:00:02.332,-0.00585499312728643,-0.0009553887648507949,0.00216413661837578,0,
00:00:02.336,0.00146622862666845,-0.0018473743693903102,0.00163504190277308,0,
00:00:02.34,0.00848734192550182,0.00909192208200693,4.69053120468743e-05,0,
00:00:02.344,0.0016143142711371199,0.014230695553123998,-0.00309603428468108,0,
00:00:02.348,-0.00210376619361341,-0.00344539992511272,0.0028691766783595102,0,
00:00:02.352,-0.00291058304719627,-0.00307670491747558,-0.00312962406314909,0,
00:00:02.356,-0.00194185262080282,-0.00662542320787907,0.004558267537504429,0,
00:00:02.36,-0.000475655688205734,-0.006247240118682379,-0.00300392415374517,0,
00:00:02.364,0.00267759431153536,0.00575526989996433,-0.0049204537644982295,0,
00:00:02.368,-0.0030784087721258398,-0.0063930694013834,0.00358379376120865,0,
00:00:02.372,0.00317664002068341,0.0117286639288068,-0.0031534195877611602,0,
00:00:02.376,-0.00434754509478807,-0.000390204280847684,0.00631914939731359,0,
00:00:02.38,0.00739192217588425,-0.0011758899781853,0.0014462708495557302,0,
00:00:02.384,-0.00302119925618172,-0.008277434855699541,0.000839415937662125,0,
00:00:02.388,-0.000789362355135381,0.004118331242352721,-0.00388778536580503,0,
00:00:02.392,-7.520013605244459e-05,0.0020547497551888197,-0.00298289465717971,0,
00:00:02.396,3.82957623514812e-05,-0.00139477930497378,-0.000559112173505127,0,
00:00:02.4,-2.84765997093928e-06,0.0018224180676043,-0.00295548373833299,0,
00:00:02.404,-3.1261530239135e-05,-0.00301156938076019,0.007684236858040091,0,
00:00:02.408,-1.8924638425232802e-05,0.00571895018219948,0.006608578842133279,0,
00:00:02.412,1.1540969353518401e-05,0.00434047402814031,-0.0070061627775430705,0,
00:00:02.416,3.4410302760079496e-05,-0.00631420593708754,-0.00351510057225823,0,
00:00:02.42,0.00211431924253702,-0.0036022302228957397,0.0015593671705573802,0,
00:00:02.424,-0.00194823346100748,-0.00140941049903631,-0.00498698279261589,0,
00:00:02.428,-0.0016321305884048302,-0.0038403179496526705,0.00791847053915262,0,
00:00:02.432,-0.000181002571480349,0.00312117417342961,0.000102951460576151,0,
00:00:02.436,-0.00331908115185797,0.000383325357688591,-0.00395013438537717,0,
00:00:02.44,0.0049687591381371,0.0046721217222511794,-0.0055801928974688105,0,
00:00:02.444,0.0059854150749743,0.0076606152579188295,0.007337385788559909,0,
00:00:02.448,-0.00153982324991375,-0.00340305012650788,0.0138999652117491,0,
00:00:02.452,-0.0057016434147954,-0.000868584436830133,-0.00549352308735251,0,
00:00:02.456,0.00348886544816196,0.00156410911586136,-0.0137715563178062,0,
00:00:02.46,-0.00510300323367119,-0.0113224582746625,-0.00403043674305081,0,
00:00:02.464,0.00169644190464169,-0.00347154145129025,0.00475227925926447,0,
00:00:02.468,-0.0023277739528566603,0.00262597226537764,0.00502994051203132,0,
00:00:02.472,0.00218556658364832,0.00270775612443686,-0.0018652824219316199,0,
00:00:02.476,0.0024603761266917,0.0057120923884213,-0.000532683276105672,0,
00:00:02.48,0.00312130432575941,0.0113010965287685,0.0035783683415502297,0,
00:00:02.484,-0.00442434335127473,-0.0105078341439366,-0.0041897175833582895,0,
00:00:02.488,0.00135618273634464,-0.0112404432147741,0.00748962489888072,0,
00:00:02.492,-0.0035612997598946103,0.0023427892010659,0.0072462554089725,0,
00:00:02.496,0.000864913803525269,0.007488439325243229,-0.00892783515155315,0,
00:00:02.5,0.00167144904844463,-0.000538487453013659,-0.0106914369389415,0,
00:00:02.504,0.00094149517826736,-0.00120299472473562,0.00337795470841229,0,
00:00:02.508,-4.19922571381903e-06,0.00200254516676068,-0.0020867655985057397,0,
00:00:02.512,-0.0005487179150804879,0.00283446512185037,-0.00107953452970833,0,
00:00:02.516,0.00147608912084252,-0.000828297750558704,0.0119103053584695,0,
00:00:02.52,-0.0023203680757433198,-0.00519187608733773,0.00147412205114961,0,
00:00:02.524,-0.00374889653176069,-0.00507958373054862,-0.00288029154762626,0,
00:00:02.528,-0.000102613259514328,0.00228755129501224,-0.00122951762750745,0,
00:00:02.532,0.00676033040508628,0.0038607132155448203,-0.0038559434469789297,0,
00:00:02.536,0.00103018013760448,0.00455584656447172,-0.0039301966316998,0,
00:00:02.54,-0.00370015599764884,-0.00362279824912548,0.00262004160322249,0,
00:00:02.544,-2.2126920157461397e-05,-0.00478914519771934,0.0035229797940701203,0,
00:00:02.548,0.006685419473797079,0.0123733328655362,-0.000176491113961674,0,
00:00:02.552,-0.00797769241034985,-0.00040518632158637003,0.00194479920901358,0,
00:00:02.556,-0.00535106984898448,-0.0102829365059733,0.00464450800791383,0,
00:00:02.56,0.00481438916176558,-0.00585366133600473,-0.00297323917038739,0,
00:00:02.564,0.0022159880027175,0.000850432435981929,-0.0068722874857485294,0,
00:00:02.568,0.000838882697280496,0.00245500542223454,-0.00314735411666334,0,
00:00:02.572,3.28113565046806e-05,0.00231221178546548,-0.000879276602063328,0,
00:00:02.576,-0.00245369598269463,0.009954076260328291,0.00523735117167234,0,
00:00:02.58,-0.000570437638089061,0.005485511384904379,0.00456259585916996,0,
00:00:02.584,0.0074174692854285205,-0.0076866722665727095,0.00150216394104064,0,
00:00:02.588,-0.00436167977750301,-0.0121371438726783,-0.00318838143721223,0,
00:00:02.592,0.000114518894406501,0.00265576248057187,-0.00019008942763321102,0,
00:00:02.596,-0.00245953979901969,0.0065269130282104,0.00813326518982649,0,
00:00:02.6,-0.00341117917560041,-0.0062333904206752794,-0.00851585995405912,0,
00:00:02.604,0.00235801609233022,0.00172016094438732,-0.009318882599473,0,
00:00:02.608,0.00294594769366086,0.00107932474929839,0.000908680027350783,0,
00:00:02.612,0.0014221146702766401,0.00576067250221968,0.00713901733979583,0,
00:00:02.616,-0.000218558925553225,-0.000475691369501874,0.0026282810140401103,0,
00:00:02.62,-0.0010724033927545,-0.00266321399249136,0.00040066227666102404,0,
00:00:02.624,-0.00106937217060477,-0.00021393792121671102,0.0014461816754192099,0,
00:00:02.628,-0.00264941365458071,-0.00496704922989011,-0.00496230134740472,0,
00:00:02.632,0.0040353173390030896,-0.00142271758522838,-0.000406230159569532,0,
00:00:02.636,-4.60847559224931e-06,0.0105688134208322,-0.0009927328210324051,0,
00:00:02.64,-0.00107070163358003,-0.0024223800282925398,0.000868882285431027,0,
00:00:02.644,0.00132153858430684,-0.00412880908697844,0.0101711442694068,0,
00:00:02.648,-0.00208328338339925,0.000309321068925783,-0.00432261452078819,0,
00:00:02.652,-0.0033869713079184302,-0.0054279831238091,-0.00601911963894963,0,
00:00:02.656,0.0043014618568122396,0.00823365896940231,-0.0027516488917172,0,
00:00:02.66,-0.0012853565858677,0.0027393177151679997,-0.00342362560331821,0,
00:00:02.664,0.00159939669538289,-0.00553811434656382,0.00636929459869862,0,
00:00:02.668,-0.000923717278055847,-0.0071565969847142705,0.0117646791040897,0,
00:00:02.672,-0.000182678020792082,0.0007511799340136349,-0.00240328931249678,0,
00:00:02.676,0.004823561292141679,0.0162530150264502,-0.00870180781930685,0,
00:00:02.68,0.00305631035007536,0.0104324975982308,-0.0029561724513769197,0,
00:00:02.684,-0.00887207500636578,-0.0111861163750291,-0.00383705529384315,0,
00:00:02.688,-0.00339814089238644,-0.0170552376657724,0.0035473355092108297,0,
00:00:02.692,0.0007570363814011219,-0.00415927870199084,0.0069388709962368,0,
00:00:02.696,0.00254081306047738,0.004462903365492821,-0.00116021814756095,0,
00:00:02.7,0.00231972965411842,0.0070063644088804704,0.000579024897888303,0,
00:00:02.704,0.0011118947295472,0.00512355007231236,-1.8040042050415697e-05,0,
00:00:02.708,-0.000106498569948599,0.0016304834280163,0.00122665043454617,0,
00:00:02.712,-0.0028613298200070897,0.000873554730787873,-0.0030756187625229398,0,
00:00:02.716,-0.000948898901697248,-0.006430468522012229,-0.00242233159951866,0,
00:00:02.72,0.00724805286154151,-0.00172527763061225,0.0016648950986564198,0,
00:00:02.724,-0.00223649083636701,0.0025509563274681603,-0.000923574960324913,0,
00:00:02.728,-0.0037657923530787204,-0.000895088654942811,-0.00022121616348158598,0,
00:00:02.732,-0.0019501348724588802,0.0012681522639468301,0.00079376419307664,0,
00:00:02.736,-0.0018389925826340899,-0.00390950543805957,0.00109149876516312,0,
00:00:02.74,0.00547586334869266,0.00315031851641834,0.000722405849955976,0,
00:00:02.744,-0.0009566798107698561,-0.0018425525631755601,-0.008183452300727371,0,
00:00:02.748,0.0013033284340053801,0.00172802782617509,0.00341384974308312,0,
00:00:02.752,-0.00142047449480742,-0.00254166754893959,0.0307897087186575,0,
00:00:02.756,0.00567492516711354,0.00843650102615356,-0.0140654593706131,0,
00:00:02.76,-0.0053713489323854394,-0.0055037192068994,-0.0236490909010172,0,
00:00:02.764,9.587941167410459e-05,0.0083357710391283,-0.007198675069957971,0,
00:00:02.768,-0.0018896290566772199,-0.00321667129173875,0.00337213976308703,0,
00:00:02.772,-0.00069421308580786,-0.0149042932316661,0.0118171656504273,0,
00:00:02.776,-0.00131096784025431,-0.00282802665606141,0.00509816128760576,0,
00:00:02.78,0.00332940486259758,0.007664187345653771,0.010946805588900998,0,
00:00:02.784,0.0027127661742270006,0.00344241969287395,-0.0051493002101779,0,
00:00:02.788,-0.00150957319419831,0.0030643912032246603,-0.00129141926299781,0,
00:00:02.792,0.000916492659598589,0.0104576079174876,-0.0060253394767642,0,
00:00:02.796,0.0021902481094002698,0.00500694289803505,-0.0092069199308753,0,
00:00:02.8,-0.000815639272332191,-0.0112116355448961,0.00228448025882244,0,
00:00:02.804,-0.0047888373956084295,-0.0181813053786755,0.0046376003883779,0,
00:00:02.808,-0.00256258435547352,-0.00574937695637345,0.0009574526338838039,0,
00:00:02.812,0.000568444957025349,0.008125762455165391,-0.00150460284203291,0,
00:00:02.816,0.00016877701273188,0.00825712736696005,0.0047097192145884,0,
00:00:02.82,0.00415163720026612,0.008146650157868859,0.00010230812040390401,0,
00:00:02.824,0.00274821906350553,0.00236736214719713,0.000610834336839616,0,
00:00:02.828,0.000115996750537306,-0.00268861022777855,-0.00335711962543428,0,
00:00:02.832,-0.00367362098768353,-0.006656329147517679,-0.00439030257984996,0,
00:00:02.836,-0.00405926257371902,-0.0058276052586734295,-0.00234550982713699,0,
00:00:02.84,0.00440726336091757,0.00205844221636653,0.0109531860798597,0,
00:00:02.844,0.0115386657416821,0.0142471231520176,0.00508127920329571,0,
00:00:02.848,-0.00793167389929295,0.00510304560884833,-0.00479471869766712,0,
00:00:02.852,-0.00860664620995522,-0.019636444747448002,-0.00822525564581156,0,
00:00:02.856,-0.00495230499655008,-0.0159118715673685,-0.0034084757789969397,0,
00:00:02.86,0.0042091826908290395,0.00776486238464713,0.0016707880422473,0,
00:00:02.864,0.00582607742398977,0.0125692104920745,0.00804727803915739,0,
00:00:02.868,0.00559170311316848,0.00988427177071571,-0.00478328904137015,0,
00:00:02.872,-0.00570971332490444,-0.00303519447334111,-0.00625706650316715,0,
00:00:02.876,-0.00345971970818937,-0.0135340373963118,0.0165998134762049,0,
00:00:02.88,0.0111887464299798,0.0150825511664152,0.00958814192563295,0,
00:00:02.884,-0.000822151487227529,0.00647823559120297,-0.0151989087462425,0,
00:00:02.888,-0.00971607025712729,-0.0163956210017204,-0.0100710205733776,0,
00:00:02.892,-0.00295068160630763,-0.0111750653013587,0.000225297146243975,0,
00:00:02.896,0.0035067922435700898,0.00208590109832585,0.0037795710377395205,0,
00:00:02.9,-0.00110350188333541,0.0090973973274231,0.00144853885285556,0,
00:00:02.904,0.000630419526714832,0.0019811091478914,-0.000415759801398963,0,
00:00:02.908,0.00438038492575288,0.000785170064773411,0.0035596422385424397,0,
00:00:02.912,0.0023349006660282603,0.0006514952983707191,0.0045414324849844,0,
00:00:02.916,-0.000570576579775661,0.000240552122704685,-0.003996842540800571,0,
00:00:02.92,-0.0042005586437881,0.00379786593839526,-0.00125682400539517,0,
00:00:02.924,0.00199970416724682,0.00151550851296633,0.00371995847672224,0,
00:00:02.928,0.0006999098113738,-0.0058638472110033,-0.004169464111328129,0,
00:00:02.932,-0.00338510633446276,-0.00355967134237289,-0.0033944784663617602,0,
00:00:02.936,-0.0040295580402016605,-0.010336434468626999,-0.00242516957223415,0,
00:00:02.94,0.0024163888301700397,0.00135317875538021,0.0037593345623463397,0,
00:00:02.944,0.00132737448439002,0.0052658086642622896,0.0059087472036480895,0,
00:00:02.948,0.00386450230143964,0.0131299709901214,0.0058047776110470295,0,
00:00:02.952,0.0037410226650536104,0.00508630694821477,-0.0164891667664051,0,
00:00:02.956,-0.000809873919934034,-0.0035944958217442,0.00532788317650557,0,
00:00:02.96,-0.00570015236735344,-0.00299926521256566,0.00975868664681911,0,
00:00:02.964,-0.0036147441715002103,-0.0159546434879303,-0.0117924576625228,0,
00:00:02.968,-0.00010804291378008199,-0.00157873402349651,-0.006728047039359811,0,
00:00:02.972,-0.00206867326050997,0.00144416396506131,0.0107199307531118,0,
00:00:02.976,0.0063384915702045,0.008307761512696741,0.009307892061769959,0,
00:00:02.98,0.0068063433282077295,0.0110718319192529,-0.00854059029370546,0,
00:00:02.984,-0.00141222996171564,0.0024888892658054803,-0.00460618827491999,0,
00:00:02.988,-0.00396939646452665,-0.0027562172617763303,-0.00028877693694084904,0,
00:00:02.992,-0.0031147489789873396,-0.0109638702124357,-1.6086536561488198e-05,0,
00:00:02.996,-0.0031464877538383,-0.0106651755049825,9.525817586109041e-05,0,
00:00:03,0.004674719180911779,-0.00413770694285631,0.0130600305274129,0,
00:00:03.004,0.0010017362656071802,0.0216336995363235,-0.000383043923648074,0,
00:00:03.008,-0.00238232500851154,0.00974574405699968,-0.00815551169216633,0,
00:00:03.012,0.00149865262210369,-0.0113357165828347,-0.00786985736340284,0,
00:00:03.016,0.00347423367202282,-0.0029398698825389103,0.00103222473990172,0,
00:00:03.02,0.000284689827822149,-0.00320091284811497,0.00820245686918497,0,
00:00:03.024,-0.0043293246999383,0.00323549075983465,-0.000561933673452586,0,
00:00:03.028,-0.00479568960145116,-0.00489085773006082,-0.00611114781349897,0,
00:00:03.032,0.00206704554148018,0.0005871317116543651,0.00517782336100936,0,
00:00:03.036,0.00341449328698218,0.00070898630656302,0.00373562821187079,0,
00:00:03.04,0.00208070501685143,0.00234539830125868,-0.0024404502473771602,0,
00:00:03.044,0.000222179849515669,0.004601928871124979,-0.0028716162778437103,0,
00:00:03.048,-0.0009776544757187369,0.00350849237293005,0.00292944768443704,0,
00:00:03.052,-0.0012334261555224698,-0.00577455526217818,-0.00564230838790536,0,
00:00:03.056,-0.0008260604226961731,-0.00046811139327473895,-0.0022723590955138198,0,
00:00:03.06,0.0018611759878695,-0.000638864119537175,0.006331708282232279,0,
00:00:03.064,-0.00380561384372413,-0.00127516919746995,0.004051398485898971,0,
00:00:03.068,0.000747467391192913,-0.00311705120839179,-0.0023220069706440002,0,
00:00:03.072,0.00180214911233634,-0.000323035521432757,-0.0048890081234276295,0,
00:00:03.076,-0.0009079073206521571,-0.00206172117032111,0.0007497924962081019,0,
00:00:03.08,0.00213438901118934,0.00240387208759785,0.00611427426338196,0,
00:00:03.084,0.00112854933831841,0.0130305886268616,-0.00275500002317131,0,
00:00:03.088,-0.000491283717565238,0.00201172032393515,-0.0052951565012335795,0,
00:00:03.092,0.0007804760825820269,-0.00942326057702303,0.000988647690974176,0,
00:00:03.096,-0.00312181306071579,-0.00482548680156469,0.00466537056490779,0,
00:00:03.1,-0.004213624633848671,-0.00304960343055427,-0.000196277484064922,0,
00:00:03.104,-0.00013030847185291298,0.00330579956062138,-0.00544805964455009,0,
00:00:03.108,0.00909982528537512,0.00985350739210844,0.005176589824259279,0,
00:00:03.112,-0.00268780835904181,-0.0104889879003167,0.00326370541006327,0,
00:00:03.116,-0.00105492793954909,-0.00135721638798714,-0.00293418602086604,0,
00:00:03.12,0.0016235652146861,0.0113581428304315,-0.00102630257606506,0,
00:00:03.124,-0.00218422617763281,0.0017306838417425802,-0.00312925432808697,0,
00:00:03.128,0.000367217056918889,-0.0108275450766087,-0.00101797142997384,0,
00:00:03.132,-0.00419456139206886,-0.00592195335775614,0.0053373440168798,0,
00:00:03.136,0.00126340729184449,-0.000633093586657196,-0.00403589522466064,0,
00:00:03.14,0.000509486941155046,0.0050619007088244,-0.00187555176671594,0,
00:00:03.144,0.0036894765216857204,0.0124785611405969,0.00375002296641469,0,
00:00:03.148,0.0019326832843944398,0.00406785542145371,0.00312366150319576,0,
00:00:03.152,0.00154751003719866,-0.00230314093641937,0.00270725693553686,0,
00:00:03.156,-0.00172153196763247,-0.0072642499580979295,-0.00532956188544631,0,
00:00:03.16,-0.007425963878631591,-0.0174016151577234,-0.00149828300345689,0,
00:00:03.164,-0.000705377897247672,-0.0017703369958326199,0.00015065583284013,0,
00:00:03.168,0.00237824930809438,0.0168157964944839,0.00269312295131385,0,
00:00:03.172,0.00266285007819533,0.00221323617734015,-0.00145875231828541,0,
00:00:03.176,-0.000575496698729694,0.00145390257239342,-0.0014057424850761901,0,
00:00:03.18,0.0020978185348212697,0.006064991932362321,-0.000181217852514237,0,
00:00:03.184,0.0009001136641018089,-0.00111576856579632,-0.00135392788797617,0,
00:00:03.188,0.00133067858405411,-0.0105340201407671,0.00287990574724972,0,
00:00:03.192,-0.00136642216239125,-0.0108172269538045,0.00428458675742149,0,
00:00:03.196,-0.00689753470942378,0.0038749102968722604,-0.0037904873024672296,0,
00:00:03.2,0.0017651094822213101,0.0073103671893477405,-0.000769386999309063,0,
00:00:03.204,-0.00153118523303419,0.00491262134164572,7.534163160016759e-05,0,
00:00:03.208,0.00292605813592672,0.0010551642626524,0.00219290889799595,0,
00:00:03.212,0.00487586297094822,0.000398850330384448,9.875543764792379e-05,0,
00:00:03.216,-0.0030593101400882,-0.00654830597341061,-0.00782787520438433,0,
00:00:03.22,-0.00237697828561068,-0.0056662899442017104,0.00209567230194807,0,
00:00:03.224,0.004195368383079771,0.0068542491644620895,0.00396808004006743,0,
00:00:03.228,-0.00044302680180408093,0.004769664257764821,0.0043579088523984,0,
00:00:03.232,-0.0017883351538330301,-0.0022735889069736,-0.0019384560873732,0,
00:00:03.236,-0.00132740975823253,-0.00733272777870297,-0.00294089340604842,0,
00:00:03.24,-0.000324420398101211,0.000299664447084069,-0.00164238782599568,0,
00:00:03.244,0.0025151162408292302,0.0096363453194499,-3.8341713661793606e-05,0,
00:00:03.248,-0.00335678481496871,-0.000781367998570204,-0.00325098820030689,0,
00:00:03.252,0.000867308059241623,-0.0015423456206917802,0.000816618092358112,0,
00:00:03.256,-0.00040918440208770297,-0.00667449831962585,0.0119982110336423,0,
00:00:03.26,0.0049856579862535,0.0018188264220953,0.0060039269737899295,0,
00:00:03.264,-0.0024435925297439103,-0.0037672508042305704,-0.0170357935130596,0,
00:00:03.268,-9.186667739413679e-05,0.00674757547676563,-0.0013853753916919199,0,
00:00:03.272,0.00203991495072842,-0.0039229448884725605,0.0025953473523259198,0,
00:00:03.276,-0.00237228930927813,0.0137135582044721,-0.00417644809931517,0,
00:00:03.28,-0.00421501835808158,-0.00457550352439284,0.00443046260625124,0,
00:00:03.284,0.0056465542875230295,-0.00745117012411356,0.0106774726882577,0,
00:00:03.288,-0.0035530568566173298,-0.00389234907925129,-0.00857987999916077,0,
00:00:03.292,0.00217015785165131,0.0003645216638688,-0.0020873707253485896,0,
00:00:03.296,-0.0006438026321120559,0.00061218929477036,0.00061559648020193,0,
00:00:03.3,-0.000536204548552632,0.00266984035260975,0.0011377754854038401,0,
00:00:03.304,0.000177495399839245,0.00721490988507867,-0.00138240098021924,0,
00:00:03.308,-0.00151413038838655,-0.00423774728551507,0.0020566319581121198,0,
00:00:03.312,0.00246412283740938,-0.0033542823512107104,0.0013407199876382901,0,
00:00:03.316,0.00181834830436856,0.0062277955003082796,0.0018785399151966,0,
00:00:03.32,0.0021297803614288603,0.004290107171982529,-0.0051332204602658705,0,
00:00:03.324,-0.00308630638755858,-0.00267314584925771,-0.00489339744672179,0,
00:00:03.328,-0.00291896285489202,-0.0101383263245225,0.0048755393363535396,0,
00:00:03.332,-0.00301944999955595,-0.0112314857542515,0.0105842556804419,0,
00:00:03.336,0.00272311712615192,0.00754006626084447,-0.00705804536119103,0,
00:00:03.34,0.00303435348905623,0.00986837316304445,-0.00665883487090468,0,
00:00:03.344,0.00129776855465025,0.007177318446338179,-0.00130410469137132,0,
00:00:03.348,-0.00247778696939349,-0.004397945944219829,0.0006008053896948701,0,
00:00:03.352,-0.0012985207140445698,-0.0071961646899581,0.00350339780561626,0,
00:00:03.356,0.00251952977851033,0.010130513459444001,0.00177468417678028,0,
00:00:03.36,0.00544297881424427,-0.00359363574534655,0.00820346642285585,0,
00:00:03.364,-0.000408141291700304,-0.0103130647912621,0.0182732157409191,0,
00:00:03.368,-0.0128700248897076,-0.0035566284786909797,-0.0120392674580216,0,
00:00:03.372,-0.0009263550746254619,0.00341171841137111,-0.0355252586305141,0,
00:00:03.376,0.00416396604850888,0.00801873207092285,-0.00831763353198767,0,
00:00:03.38,0.00437087658792734,0.00456550065428019,0.00958073977380991,0,
00:00:03.384,0.00432984530925751,-0.000203253672225401,0.0315669737756252,0,
00:00:03.388,-0.0041040675714612,-0.0030000980477780104,0.00782186631113291,0,
00:00:03.392,-0.0031308645848184802,-0.00325471814721823,-0.0148436864838004,0,
00:00:03.396,0.0039578503929078605,-0.0019016328733414399,-0.00476802885532379,0,
00:00:03.4,-0.000286621041595936,-0.0022972142323851603,-0.00329811661504209,0,
00:00:03.404,-0.00148279312998056,0.00494835106655955,0.0018362383125349899,0,
00:00:03.408,-0.00107617641333491,0.00292892497964203,-0.00024342414690181602,0,
00:00:03.412,-0.00229466357268393,-0.00466123223304749,0.00039403248229064,0,
00:00:03.416,0.00238659465685487,-0.004540869966149329,0.0031265141442418103,0,
00:00:03.42,0.00224083918146789,0.0029993811622262,0.0010947908740490699,0,
00:00:03.424,0.000616582867223769,0.00424706982448697,-0.00109966401942074,0,
00:00:03.428,-0.000694610294885933,0.004387855064123871,-0.00395027361810207,0,
00:00:03.432,-0.0011193959508091198,0.00411064922809601,-0.00146990828216076,0,
00:00:03.436,-0.000826278002932668,-0.00296047888696194,0.00118424056563526,0,
00:00:03.44,-0.000255539227509871,-0.00660962890833616,0.00011122083378722901,0,
00:00:03.444,0.00228976830840111,-0.00752380350604653,0.0119472267106175,0,
00:00:03.448,-0.00156545150093734,-0.00402011116966605,-0.00782452896237373,0,
00:00:03.452,-0.00128772517200559,-0.00538668315857649,-0.00696417689323425,0,
00:00:03.456,-0.0041566276922822,0.0017324639484286302,0.0115548437461257,0,
00:00:03.46,0.00270980806089938,0.0258455909788609,-0.00233673676848412,0,
00:00:03.464,0.004101827275007961,0.0190806295722723,-0.0118047995492816,0,
00:00:03.468,0.0127832135185599,-0.0106040639802814,0.00253557623364031,0,
00:00:03.472,-0.00361136510036886,-0.014035671018064,0.000752287392970175,0,
00:00:03.476,-0.0156341604888439,-0.0205276813358068,0.0024726083502173398,0,
00:00:03.48,-0.005532708019018171,-0.00832567922770977,0.0030661677010357397,0,
00:00:03.484,0.00257372227497399,0.01116759236902,0.00405722111463547,0,
00:00:03.488,0.00578059675171971,0.0136174047365785,-0.00172816612757742,0,
00:00:03.492,0.0027546260971576,0.00766582740470767,-0.00271166162565351,0,
00:00:03.496,0.00604139594361186,-0.00161917670629919,0.00039913487853482404,0,
00:00:03.5,-0.0009688846766948699,-0.004099718760699029,-0.00230189878493547,0,
00:00:03.504,-0.00341435871087015,-0.0012107657967135301,0.0009586546802893279,0,
00:00:03.508,-0.00292095867916942,0.00279432651586831,-0.00143043964635581,0,
00:00:03.512,0.000827390467748046,-0.00334383407607675,-0.00032205821480602004,0,
00:00:03.516,-0.00169668486341834,-0.00202464195899665,-0.007350834086537359,0,
00:00:03.52,-0.00268366700038314,-0.00809749308973551,0.0133512010797858,0,
00:00:03.524,0.000735517125576735,-0.00961487740278244,0.0117626469582319,0,
00:00:03.528,0.00501286424696445,0.0106811784207821,-0.00828046351671219,0,
00:00:03.532,0.00288571300916374,0.0148366009816527,-0.008529438637197021,0,
00:00:03.536,-0.000316875957651064,0.0104893362149596,-0.00515424972400069,0,
00:00:03.54,-6.27602057647891e-05,0.00585972052067518,-0.00910376105457544,0,
00:00:03.544,-0.00209870003163815,-0.0137200821191072,0.00186776695773005,0,
00:00:03.548,-0.00896286591887474,-0.0264155771583319,0.015607594512403,0,
00:00:03.552,0.00418050680309534,-0.00487864809110761,0.0137829398736358,0,
00:00:03.556,0.00267936545424163,0.00639388104900718,-0.00408007297664881,0,
00:00:03.56,-0.00272040627896786,0.00737224332988262,-0.00932208634912968,0,
00:00:03.564,0.00432284874841571,0.0133651802316308,-0.00907893013209105,0,
00:00:03.568,0.009183919057250021,0.0132169900462031,-0.00228374963626266,0,
00:00:03.572,-0.008237083442509171,-0.00299469474703074,0.00528671592473984,0,
00:00:03.576,-0.0030618766322732,-0.0126873916015029,0.00293194083496928,0,
00:00:03.58,-0.00524216052144766,-0.00981585867702961,0.0019047376699745698,0,
00:00:03.584,0.0038531769532710296,-0.000822890782728791,0.00293891271576285,0,
00:00:03.588,0.0017062347615137698,0.000632983457762748,-0.0021174952853471,0,
00:00:03.592,0.00100295036099851,0.00510567240417004,-0.00241871131584048,0,
00:00:03.596,0.0005413110484369099,0.00163819070439786,-0.00315735791809857,0,
00:00:03.6,-0.00406232383102179,-0.00336848245933652,0.0021707604173570897,0,
00:00:03.604,0.00369652803055942,0.00022169151634443597,0.00449652876704931,0,
00:00:03.608,0.00496645364910364,0.00519182300195098,0.0051364260725677,0,
00:00:03.612,-0.0019605383276939396,0.00945102237164974,-0.00602486031129956,0,
00:00:03.616,-0.0014327395474538198,3.5326680517755395e-05,-0.0123417340219021,0,
00:00:03.62,-0.00215207436122,-0.007073957938700909,0.00377305527217686,0,
00:00:03.624,-0.0039574890397489106,-0.00991990976035595,0.008462836965918541,0,
00:00:03.628,-0.00292992894537747,-0.0105838356539607,-0.000553014921024442,0,
00:00:03.632,0.00394354993477464,0.0055813328363001295,-0.0038390480913221797,0,
00:00:03.636,0.00443379860371351,0.011641020886600002,-0.00279630813747644,0,
00:00:03.64,4.7628225729567896e-05,-0.0037880656309425796,0.00394722726196051,0,
00:00:03.644,0.00163020077161491,0.00354616390541196,0.0123804584145546,0,
00:00:03.648,-0.00210165348835289,0.00808373745530844,0.00810458790510893,0,
00:00:03.652,0.00460060313344002,0.0117579223588109,-0.0193503070622683,0,
00:00:03.656,-0.00204232870601118,-0.0145153077319264,-0.0163358747959137,0,
00:00:03.66,-0.00828856602311134,-0.0164696611464024,0.00273632211610675,0,
00:00:03.664,-0.00103716203011572,-0.0009426663746126,0.009105676785111429,0,
00:00:03.668,0.00471009500324726,0.0051180832087993604,0.00545430323109031,0,
00:00:03.672,0.00119043455924839,0.0012449094792828,0.00284555018879473,0,
00:00:03.676,0.0002707616367843,0.0028579304926097397,0.000471698265755549,0,
00:00:03.68,-0.00196751742623746,0.0035384786315262296,-0.00120604608673602,0,
00:00:03.684,0.00408539734780788,0.0064361807890236395,0.00024479997227899703,0,
00:00:03.688,-0.00040732935303822203,-0.00579150998964906,-0.0055860229767859,0,
00:00:03.692,-0.0037065767683088797,-0.000567253504414111,0.00163143663667142,0,
00:00:03.696,0.00284068286418915,0.00784739758819342,0.0036015389487147297,0,
00:00:03.7,0.0014099819818511599,-0.00901750009506941,-0.0041819061152637,0,
00:00:03.704,-0.0031144858803600103,-0.00354492012411356,-0.00696004647761583,0,
00:00:03.708,-3.8493421016028205e-05,0.00103126128669828,0.000199970279936679,0,
00:00:03.712,-0.00399237079545856,-0.0181296113878489,0.0219368692487478,0,
00:00:03.716,0.0017250578384846401,0.00919649563729763,-0.00391945103183389,0,
00:00:03.72,0.0029635708779096603,0.022365914657712,-0.0120703689754009,0,
00:00:03.724,0.0018504350446164601,-0.00412689801305532,-0.00244392268359661,0,
00:00:03.728,0.00020763181964866798,-0.000623893167357892,-0.00118516269139946,0,
00:00:03.732,-0.000891133153345436,-0.00644905166700482,-0.0027031642384827102,0,
00:00:03.736,-0.0011501967674121302,0.000446682242909446,0.00255021965131164,0,
00:00:03.74,-0.0007959880749695,0.00662068743258715,0.009597005322575571,0,
00:00:03.744,0.00183909852057695,-0.00260365149006248,0.00469938013702631,0,
00:00:03.748,-0.00177671504206955,-0.0101011376827955,-0.00362231326289475,0,
00:00:03.752,-0.00127065426204354,-0.00454693986102939,-0.00475035281851888,0,
00:00:03.756,0.000137547322083265,-0.00192193652037531,-0.000645831634756178,0,
00:00:03.76,0.000989677384495735,0.0134831601753831,-0.00225418689660728,0,
00:00:03.764,-0.00106211425736547,0.0019459119066596,-0.00044051936129108093,0,
00:00:03.768,-0.00164768006652594,-0.00514591298997402,0.0012937969295308,0,
00:00:03.772,0.00971623882651329,0.007056931499391791,-0.00236873305402696,0,
00:00:03.776,0.00536976661533117,0.004998120944947,0.00102027493994683,0,
00:00:03.78,-0.0142725175246596,-0.0153449587523937,0.0179018527269363,0,
00:00:03.784,-0.0022454529535025397,0.007076838985085491,0.0037062582559883603,0,
00:00:03.788,-0.000299934879876673,0.00422415649518371,-0.0201177168637514,0,
00:00:03.792,0.00410145381465554,-0.0149701675400138,-0.0113288080319762,0,
00:00:03.796,-0.00337838404811919,0.00232550990767777,-0.00636855559423566,0,
00:00:03.8,0.0063445377163589,0.00979931000620127,0.010272990912199,0,
00:00:03.804,0.0037849971558898705,-0.00478285131976008,0.0161787606775761,0,
00:00:03.808,-0.00711557595059276,-0.0074483049102127595,0.00242549739778042,0,
00:00:03.812,0.00046866459888406103,0.00506462482735515,-0.00349813839420676,0,
00:00:03.816,0.0016609966987744,0.00660518044605851,-0.00447822036221623,0,
00:00:03.82,0.00270061497576535,0.009382922202348709,0.00326437270268798,0,
00:00:03.824,-0.000375147676095366,-0.00045651278924197,-0.00887962803244591,0,
00:00:03.828,-0.00450448878109455,-0.0116394264623523,-0.00025942226056940897,0,
00:00:03.832,-0.00249012280255556,-0.0103022065013647,-0.0017909563612192897,0,
00:00:03.836,-0.00160516146570444,0.00289315823465586,0.00603782292455435,0,
00:00:03.84,0.00612629530951381,0.0033990682568401103,0.00417801784351468,0,
00:00:03.844,-0.000380240933736786,0.00133322575129569,-0.00392930023372173,0,
00:00:03.848,0.0015402112621814,0.00424250261858106,0.00167097605299205,0,
00:00:03.852,0.0026327713858336197,0.0022860593162477,-0.00139672821387649,0,
00:00:03.856,-0.00685113435611129,-0.00461123092100024,0.0028914429713040603,0,
00:00:03.86,0.0031301632989198,0.00401834957301617,-0.00213453685864806,0,
00:00:03.864,0.00428106216713786,0.00965099688619375,-0.00685912510380149,0,
00:00:03.868,-0.00477885082364082,-0.0122987283393741,0.0006305849528871481,0,
00:00:03.872,-0.0039435466751456295,-0.0101554747670889,0.0056464914232492395,0,
00:00:03.876,-0.000490389298647642,-0.00358329387381673,0.00116750632878393,0,
00:00:03.88,0.0019557592459023,0.0025461190380156,0.00169161567464471,0,
00:00:03.884,0.0024530531372875,0.0158674735575914,0.0035740262828767295,0,
00:00:03.888,0.00363410147838295,0.00558921508491039,-0.0122308470308781,0,
00:00:03.892,-0.00378220365382731,-0.0090841893106699,0.00067035312531516,0,
00:00:03.896,0.00175160740036517,0.00393572635948658,0.00156409584451467,0,
00:00:03.9,-0.00145602016709745,-0.00613564113155007,0.00645916443318129,0,
00:00:03.904,-0.0013433590065687901,-0.00897878780961037,0.0041821491904556795,0,
00:00:03.908,-0.000277261628070846,0.00341145461425185,-0.010497285053134001,0,
00:00:03.912,-0.0015394433867186301,0.007827079854905609,-0.007751022465527059,0,
00:00:03.916,0.00480102049186826,0.00145658559631556,0.0121056688949466,0,
00:00:03.92,0.000174985223566182,-0.00135320983827114,0.00332356966100633,0,
00:00:03.924,-0.00342468451708555,-0.00393118895590305,-0.00148846488445997,0,
00:00:03.928,0.000773393665440381,0.00077605020487681,-0.00490498729050159,0,
00:00:03.932,0.0032449048012495,0.00342789548449218,-0.0042237276211381,0,
00:00:03.936,-0.00163179123774171,0.00477041816338897,0.0050071286968886896,0,
00:00:03.94,-0.004111313726753,-0.00994733441621065,0.0060908030718565,0,
00:00:03.944,0.00532403821125627,-0.00167286652140319,-0.00563194928690791,0,
00:00:03.948,0.000167582111316733,0.00779644586145878,-0.00582577055320144,0,
00:00:03.952,-0.0083128847181797,-0.0163452420383692,0.0066972714848816395,0,
00:00:03.956,0.00190085917711258,0.00197877734899521,0.015088215470314,0,
00:00:03.96,0.0061796335503459,0.0155689287930727,-0.0122301513329148,0,
00:00:03.964,0.000555173784960061,0.0102794598788023,-0.0115458276122808,0,
00:00:03.968,-0.00143505074083805,-0.00599338999018073,-0.00265605375170708,0,
00:00:03.972,-0.00352873583324254,-0.0130608659237623,0.00426810560747981,0,
00:00:03.976,0.00333858281373978,0.000656559888739139,0.00621120585128665,0,
00:00:03.98,-0.00238849502056837,0.000675116782076657,0.00638000713661313,0,
00:00:03.984,0.000916868564672768,0.00527399219572544,-0.00506054749712348,0,
00:00:03.988,-0.00102478754706681,-0.00273707835003734,-0.007439838256686929,0,
00:00:03.992,0.0042825737036764604,-0.00865105912089348,0.0231641549617052,0,
00:00:03.996,-0.0007629243773408231,0.00588846765458584,-0.00592117058113217,0,
00:00:04,0.0020817571785301,0.00855298340320587,-0.00597687903791666,0,
00:00:04.004,-0.00537525350227952,0.00234185857698321,-0.0154457157477736,0,
00:00:04.008,-0.0035509888548404,-0.00313338148407638,-0.00755623122677207,0,
00:00:04.012,-0.00187178980559111,-0.00689058564603329,0.009072707965970041,0,
00:00:04.016,0.00445339502766728,-0.0076375235803425295,0.0108242416754365,0,
00:00:04.02,0.00219600927084684,0.00466515682637692,0.00365972425788641,0,
00:00:04.024,0.00567802879959345,0.00826500169932842,-0.00226973346434534,0,
00:00:04.028,0.00508992094546556,0.00742078246548772,-0.00411511911079288,0,
00:00:04.032,-0.011354404501617,-0.00574464816600084,0.005492264404892921,0,
00:00:04.036,-0.00979728531092405,-0.0133549040183425,0.00826852954924107,0,
00:00:04.04,0.00823010131716728,-0.00167883175890893,-0.0044024325907230395,0,
00:00:04.044,-0.00163652596529573,0.00530704483389854,-0.0152559736743569,0,
00:00:04.048,0.0064557325094938296,0.00842158030718565,-0.00494083855301142,0,
00:00:04.052,0.0011341155041009199,0.00376972230151296,0.0009893195237964392,0,
00:00:04.056,-0.0036280690692365204,-0.00341535243205726,0.00599665427580476,0,
00:00:04.06,-0.000102233760117088,-0.00182112527545542,0.00652862992137671,0,
00:00:04.064,0.00235843285918236,0.0023248055949807197,0.00582913728430867,0,
00:00:04.068,-0.0021203528158366697,-0.0033555855043232398,0.000326226727338508,0,
00:00:04.072,-0.00206195353530347,-0.005903204437345271,-0.00574916321784258,0,
00:00:04.076,-0.000535445287823677,-0.00385299674235284,-0.00452458113431931,0,
00:00:04.08,0.0007312641828320919,0.00835142191499472,-0.00126751535572112,0,
00:00:04.084,0.00322572817094624,0.0054959082044661,-0.00503173610195518,0,
00:00:04.088,-0.00318982102908194,-0.0125884795561433,0.0162294898182154,0,
00:00:04.092,0.00062224455177784,0.000194306674529798,0.00890335068106651,0,
00:00:04.096,0.0012740952661261,0.012253338471055001,-0.0174995679408312,0,
00:00:04.1,0.000618979276623577,0.0100168101489544,-0.00982198771089315,0,
00:00:04.104,0.0019039906328544,-0.008543065749108791,0.0024099112488329398,0,
00:00:04.108,-0.004628056660294529,-0.00978023745119572,0.0060859052464366,0,
00:00:04.112,-0.000215611114981584,-0.0063783866353333,0.000571256969124079,0,
00:00:04.116,0.00118736340664327,0.00109574804082513,0.0035191036295145798,0,
00:00:04.12,0.00103318283800036,0.0033130943775177,0.00644933898001909,0,
00:00:04.124,-0.0017055593198165302,0.0114444568753242,-0.00400396250188351,0,
00:00:04.128,-0.00028756828396581097,0.00658334605395794,-0.0028712742496281897,0,
00:00:04.132,0.007355832494795321,-0.00514493463560939,-0.00430313963443041,0,
00:00:04.136,-0.000403718033339828,-0.00999408215284348,-0.00128103198949248,0,
00:00:04.14,-0.0060721375048160605,-0.00320034055039287,0.0035820461343973897,0,
00:00:04.144,-0.0038254293613135797,0.0028073331341147397,0.000480634975247085,0,
00:00:04.148,-1.27004241221584e-05,-0.00587631249800324,0.00433037849143147,0,
00:00:04.152,0.00232168403454125,0.00443801702931523,0.00265340274199843,0,
00:00:04.156,0.0025855319108814,0.00384969497099519,-0.00886337086558342,0,
00:00:04.16,0.0035897241905331603,0.007198965176939959,-0.0072630331851542,0,
00:00:04.164,-0.0059694717638194604,-0.000552389246877283,0.00502855004742742,0,
00:00:04.168,0.00155998335685581,-0.0036595887504518,0.006014050450176,0,
00:00:04.172,0.00212776986882091,-0.00965619273483753,0.0006176656461320821,0,
00:00:04.176,0.000493466854095459,0.00011076426744693898,0.00130691158119589,0,
00:00:04.18,-0.000901423569303006,0.0172966383397579,-0.0027201857883483197,0,
00:00:04.184,0.000779880967456847,0.00116770970635116,-0.00621193461120129,0,
00:00:04.188,-0.007015245035290721,-0.00942455139011145,-0.000545911374501884,0,
00:00:04.192,0.0041811438277363795,-0.0162399988621473,0.0204770136624575,0,
00:00:04.196,0.0035321023315191295,0.007637461181730029,-0.00306740449741483,0,
00:00:04.2,-0.00190577376633883,0.00689052464440465,-0.0124699808657169,0,
00:00:04.204,-0.00413810694590211,-0.00311472453176975,-0.00587580306455493,0,
00:00:04.208,0.0013981917873024901,0.00149797345511615,-0.00246854056604207,0,
00:00:04.212,0.00230195210315287,0.00696347327902913,0.000563889276236296,0,
00:00:04.216,0.0012290506856516,-0.00014255617861636002,0.00482196314260364,0,
00:00:04.22,-0.00215899129398167,-0.0094592347741127,0.007680967915803191,0,
00:00:04.224,0.00115824956446886,0.00274379551410675,-0.000684218306560069,0,
00:00:04.228,0.00285592814907432,0.0137106440961361,0.000605077424552292,0,
00:00:04.232,-0.000210082172998227,-0.00510897999629378,0.0057987789623439295,0,
00:00:04.236,-0.00242400076240301,-0.0115670254454017,-0.00323770823888481,0,
00:00:04.24,-0.00664787134155631,-0.0122208585962653,-0.012597119435668,0,
00:00:04.244,0.000685475533828139,0.00292261876165867,-0.000852732104249299,0,
00:00:04.248,0.00347598851658404,0.0118140112608671,0.00570288300514221,0,
00:00:04.252,0.00305111170746386,0.00870220921933651,-0.000329399743350223,0,
00:00:04.256,-0.0008161840378306809,-3.7289144529495395e-05,0.0022680361289531,0,
00:00:04.26,0.00156546733342111,-0.00516930548474193,-0.000551929697394371,0,
00:00:04.264,0.000412183202570304,0.0030362987890839603,0.0019866181537509,0,
00:00:04.268,0.0010722309816628699,0.00418630335479975,-0.00347500713542104,0,
00:00:04.272,-0.00345778069458902,-0.00728411041200161,0.0050986190326511895,0,
00:00:04.276,-0.00271401391364634,-0.0133472513407469,-0.00436228699982166,0,
00:00:04.28,-0.00255776150152087,-0.00482162227854133,0.00567830493673682,0,
00:00:04.284,0.00521574774757028,0.0209102351218462,-0.00287237530574203,0,
00:00:04.288,-0.00287970923818648,-0.00343859009444714,-0.00174457824323326,0,
00:00:04.292,0.007760376203805209,0.0063994610682129895,-0.005720603279769421,0,
00:00:04.296,-0.00136719876900315,-0.000926348613575101,0.000954578747041523,0,
00:00:04.3,-0.00342728663235903,-0.00874903053045273,-0.000949990993831307,0,
00:00:04.304,-0.00220267847180367,-0.00452800374478102,0.00658007152378559,0,
00:00:04.308,-0.00236705108545721,0.00111964088864625,0.00427378015592694,0,
00:00:04.312,0.007085493765771391,0.0142883704975247,0.00406941724941134,0,
00:00:04.316,0.000995095120742917,-9.40836107474752e-05,-0.0108682466670871,0,
00:00:04.32,-0.00634629931300879,-0.0125818559899926,-0.00237058871425688,0,
00:00:04.324,-0.0027494709938764603,-0.00626385165378451,-0.000899640028364956,0,
00:00:04.328,-0.000325239700032398,0.00215978315100074,0.00593836326152086,0,
00:00:04.332,0.009679984301328659,0.0102801630273461,0.000942673243116587,0,
00:00:04.336,0.0045813820324838205,0.00138099677860737,-0.0031706397421658,0,
00:00:04.34,-0.00626062462106347,0.0009401580318808561,0.000685513892676681,0,
00:00:04.344,-0.0136453220620751,-0.00116159534081817,-0.00110366032458842,0,
00:00:04.348,-0.0016556119080632901,0.00184321228880435,-0.004052489530295129,0,
00:00:04.352,0.0452994927763939,-0.00598587701097131,0.00921595189720392,0,
00:00:04.356,-0.0115733658894897,-0.0063100224360823605,0.0067058918066322795,0,
00:00:04.36,-0.0319092981517315,0.00177022709976882,-0.008338773623108859,0,
00:00:04.364,-0.0104608181864023,0.0082457484677434,-0.0050811143592,0,
00:00:04.368,0.005715428385883571,0.0032538422383368,-0.00554695911705494,0,
00:00:04.372,0.0116824777796865,-0.0104573043063283,0.0009672325104475019,0,
00:00:04.376,0.0011174902319908099,-0.00874019134789705,0.0196988750249147,0,
00:00:04.38,0.0156828295439482,0.0131957810372114,0.0016860828036442401,0,
00:00:04.384,-0.00098514067940414,0.00960768945515156,-0.0168096534907818,0,
00:00:04.388,-0.00250543700531125,0.00029379272018559304,-0.0097977127879858,0,
00:00:04.392,-0.00572444498538971,-0.00976924132555723,0.00131237134337425,0,
00:00:04.396,-0.00994738657027483,-0.00646943692117929,0.00528319226577878,0,
00:00:04.4,-0.0012847060570493301,0.00162983464542776,0.0091796824708581,0,
00:00:04.404,0.00323713151738048,0.00341976946219802,0.0113901300355792,0,
00:00:04.408,0.00611920328810811,0.0106066074222326,-0.00414501549676061,0,
00:00:04.412,-0.00142600375693291,-0.00735417380928993,-0.0105272717773914,0,
00:00:04.416,-0.00111034815199673,-0.0113804042339325,-0.00207491451874375,0,
00:00:04.42,0.0047136037610471205,0.00223352503962815,-0.00413481146097183,0,
00:00:04.424,-0.000600096944253892,0.00592984305694699,0.00011535957310115901,0,
00:00:04.428,-0.00228856829926372,0.00217268499545753,0.0076144817285239705,0,
00:00:04.432,-0.0038998778909444796,0.00300253601744771,-3.16969781124499e-05,0,
00:00:04.436,0.0034394513349980103,0.00234283437021077,0.00315180514007807,0,
00:00:04.44,6.176844181027261e-05,-0.00188760797027498,-0.00414903415367007,0,
00:00:04.444,-0.002730926964432,0.000108977968920954,-0.0049523925408721,0,
00:00:04.448,0.00164848181884736,-0.0176960304379463,0.00411900877952576,0,
00:00:04.452,-0.000301174906780943,-0.007097920868545771,0.00351830036379397,0,
00:00:04.456,0.00250512408092618,0.0246141217648983,0.00459505524486303,0,
00:00:04.46,0.00318407244049013,0.0122678214684129,-0.0056471354328095896,0,
00:00:04.464,-0.0026959485840052397,-0.00267026550136507,-0.00744130648672581,0,
00:00:04.468,-0.0052354186773300206,-0.0140980640426278,-0.0037856390699744203,0,
00:00:04.472,0.00470574339851737,-0.00514803826808929,0.00507874321192503,0,
00:00:04.476,-0.004004757851362229,-0.004890600219368929,0.003993730992078779,0,
00:00:04.48,-0.0019296748796477899,-0.0029124456923455,0.00307196308858693,0,
00:00:04.484,0.007794536184519529,0.00502157025039196,0.0158639848232269,0,
00:00:04.488,-0.0008390419534407559,0.0145773366093636,-0.0018428059993311802,0,
00:00:04.492,-0.0046023805625736705,0.00237043225206435,-0.0248877890408039,0,
00:00:04.496,-0.0015293002361431698,-0.00314969988539815,-0.00651694973930717,0,
00:00:04.5,0.00573687860742211,0.00200277101248503,-0.000103099147963803,0,
00:00:04.504,0.000698535528499633,-0.00676753465086222,0.007091556675732141,0,
00:00:04.508,-0.00349842570722103,-0.00579739175736904,0.0108185363933444,0,
00:00:04.512,0.000388992397347465,-0.0036565361078828604,0.0036496547982096702,0,
00:00:04.516,0.000803946633823216,0.0038559460081160103,-0.000659856130369008,0,
00:00:04.52,0.000176847635884769,0.00476075988262892,-0.0005424936534836889,0,
00:00:04.524,0.0017223748145625,0.00470403442159295,-0.00261644413694739,0,
00:00:04.528,-0.00244713434949517,0.00229018344543874,-0.00535724125802517,0,
00:00:04.532,-0.00192509475164115,-0.00698270788416266,0.00181072461418808,0,
00:00:04.536,-0.000187669924343936,-0.00924030691385269,0.0012212953297421301,0,
00:00:04.54,-0.00105612946208566,-0.000743087031878531,-0.0046804565936327,0,
00:00:04.544,0.0032255866099149,0.00973140727728605,0.00274012028239667,0,
00:00:04.548,0.00450753746554255,0.0087645361199975,-0.00165583996567875,0,
00:00:04.552,-0.00373660773038864,0.00274119339883327,-0.0018826266750693302,0,
00:00:04.556,-0.00291416724212468,-0.011118377558887,0.00402942486107349,0,
00:00:04.56,0.00609057582914829,-0.00356521527282894,0.00798905361443758,0,
00:00:04.564,-0.0022802900057286,-0.00451662065461278,0.00146105908788741,0,
00:00:04.568,-0.007297693286091091,0.000708792766090482,-0.00624482939019799,0,
00:00:04.572,0.00270361709408462,0.008445044048130509,-0.0014593575615435802,0,
00:00:04.576,0.00393798248842359,0.0025499276816844897,-0.0080027561634779,0,
00:00:04.58,0.008056222461164,0.00119753659237176,-0.00217734067700803,0,
00:00:04.584,-0.0188109092414379,-0.00403210613876581,0.0058082127943635,0,
00:00:04.588,-0.0070534106343984595,-0.0033544956240803,0.00568664167076349,0,
00:00:04.592,0.015603550709783998,-0.00299539277330041,-0.00177460489794612,0,
00:00:04.596,-0.00611441163346171,-0.00327005935832858,0.00525308446958661,0,
00:00:04.6,-0.013168266043067,0.00917943753302097,0.00110722158569843,0,
00:00:04.604,0.163487672805786,0.0166965313255787,-0.00746859284117818,0,
00:00:04.608,-0.0919153019785881,-0.007703236304223541,-0.00676664849743247,0,
00:00:04.612,-0.13562485575676,-0.0223115012049675,0.00214516324922442,0,
00:00:04.616,-0.022463059052825002,-0.000977758667431772,0.0108673330396414,0,
00:00:04.62,0.0771198496222496,0.0163337793201208,0.00154395308345556,0,
00:00:04.624,0.0575862713158131,0.0105126891285181,-0.00805583503097296,0,
00:00:04.628,-0.00511360913515091,-0.016755124554038003,-0.00489726383239031,0,
00:00:04.632,-0.00341793289408088,-0.0117133613675833,0.0025068444665521396,0,
00:00:04.636,-0.0062718759290874,0.0108646843582392,0.0034966415259987103,0,
00:00:04.64,-0.0056815929710865,0.0168797895312309,0.00185019569471478,0,
00:00:04.644,-0.0062392195686698,0.00138004042673856,-0.00211958261206746,0,
00:00:04.648,-0.00884918123483658,-0.0244460422545671,0.009186863899230959,0,
00:00:04.652,0.00427552638575435,0.00482702488079667,-0.007427330594509841,0,
00:00:04.656,0.00431636394932866,0.014329263009131002,-0.0091270636767149,0,
00:00:04.66,-0.0072111347690224595,-0.0113023230805993,-0.00377634190954268,0,
00:00:04.664,0.0108504602685571,0.00519581558182836,0.0103566022589803,0,
00:00:04.668,-0.00319391465745866,-0.00363145628944039,0.00332426163367927,0,
00:00:04.672,-0.00160058436449617,-0.00490493467077613,0.00258809560909867,0,
00:00:04.676,-0.00248718075454235,0.00427061319351196,-0.000523563532624394,0,
00:00:04.68,0.0063800420612096795,-0.0023500837851315698,-0.000450351973995566,0,
00:00:04.684,-0.00186410383321345,0.00264294049702585,-0.004598258528858421,0,
00:00:04.688,-0.0027739356737583897,0.00750218192115426,-0.00518849771469831,0,
00:00:04.692,-0.00108088180422783,0.006022764835506679,-0.00451829610392451,0,
00:00:04.696,0.000596244120970368,-0.0157092474400997,0.0112927472218871,0,
00:00:04.7,0.0012871244689449698,-0.0045369234867394,0.0113933142274618,0,
00:00:04.704,-0.00101784593425691,0.00883375573903322,-0.00654022255912423,0,
00:00:04.708,0.0023806383833289103,-0.00116402260027826,-0.0083438940346241,0,
00:00:04.712,0.00352816632948816,0.00062226940644905,-0.00592147465795279,0,
00:00:04.716,-0.00227500055916607,0.00262472406029701,-0.0013036850141361401,0,
00:00:04.72,-0.000858368934132159,0.00215637171640992,0.0108713693916798,0,
00:00:04.724,-0.00550002045929432,-0.00600425060838461,0.00452925963327289,0,
00:00:04.728,-0.0036268066614866296,-0.0101473443210125,-0.00268221250735223,0,
00:00:04.732,0.00440445868298411,0.00614484027028084,-0.00100673129782081,0,
00:00:04.736,0.0156630259007216,0.00553657580167055,0.00291442195884883,0,
00:00:04.74,-0.00720243528485298,0.00740503054112196,-0.00524991564452648,0,
00:00:04.744,-0.00646508717909455,-0.0013392595574259801,-0.0041014738380909,0,
00:00:04.748,-0.000756992492824793,-0.00248003099113703,-0.000470851227873936,0,
00:00:04.752,-0.0035686467308551103,-0.00792742148041725,2.2249463654588898e-05,0,
00:00:04.756,0.00242877844721079,-0.00123911607079208,0.00254649785347283,0,
00:00:04.76,0.00350368651561439,0.0019951725844293802,0.00119536719284952,0,
00:00:04.764,0.00208685384131968,0.00879604835063219,0.00821679178625345,0,
00:00:04.768,-0.00603538379073143,-0.0063403449021279795,1.2937678548041699e-05,0,
00:00:04.772,0.004897234030067921,-0.0087816771119833,-0.00205241027288139,0,
00:00:04.776,0.011939924210309998,0.0065362085588276395,-0.008335135877132421,0,
00:00:04.78,-0.0123926792293787,0.0026856947224587198,0.00016503968799952399,0,
00:00:04.784,-0.00330952950753272,0.0102604143321514,-0.00044845126103609806,0,
00:00:04.788,-0.00224229996092618,0.00158367573749274,0.000829065742436796,0,
00:00:04.792,0.000612441683188081,-0.0061096684075892,0.0016751355724409199,0,
00:00:04.796,0.00235094712115824,-0.0139846419915557,-0.00261980085633695,0,
00:00:04.8,0.00029323788476176603,-0.00297487806528807,0.00263501866720617,0,
00:00:04.804,0.00327253271825612,0.00014353968435898402,0.00727263279259205,0,
00:00:04.808,0.0016948472475633,0.0101659558713436,-0.00260523520410061,0,
00:00:04.812,-0.000559941050596535,0.0076186885125935095,-0.00594556145370007,0,
00:00:04.816,0.000329201109707356,0.0036139562726020796,0.0062659652903676,0,
00:00:04.82,-0.0036265279632061703,-0.00284539209678769,0.00210749660618603,0,
00:00:04.824,-0.0045446190051734395,-0.007862113416194921,-0.0073810066096484704,0,
00:00:04.828,0.003928766585886479,-0.00488808238878846,-0.007087776437401771,0,
00:00:04.832,-0.00306925037875772,-0.00446197250857949,-0.00010045095405075699,0,
00:00:04.836,0.00208068871870637,0.00654064957052469,0.00679569132626057,0,
00:00:04.84,0.00943587720394135,0.0022202485706657197,0.00537988543510437,0,
00:00:04.844,-0.00195308565162122,0.00626015104353428,0.00143443013075739,0,
00:00:04.848,-0.00689270067960024,0.00198458274826407,-0.00371564854867756,0,
00:00:04.852,-0.0013370064552873401,0.0037901862524449795,-0.00071111269062385,0,
00:00:04.856,0.00303390505723655,-0.00789178814738989,-0.00665396265685558,0,
00:00:04.86,0.00146539404522628,-0.0141146164387465,0.0032656337134540103,0,
00:00:04.864,-0.0027245888486504602,0.00285739591345191,0.014725798740983,0,
00:00:04.868,-0.0036542897578328796,0.000265869137365371,-0.00172083172947168,0,
00:00:04.872,0.00243131653405726,0.0122623890638351,-0.0147606693208218,0,
00:00:04.876,0.00315858377143741,0.0017377674812451,-0.00767112476751208,0,
00:00:04.88,-0.000508423428982496,-0.00673861755058169,0.00195960537530482,0,
00:00:04.884,0.0038277921266853796,0.0008587490883655849,0.0109714362770319,0,
00:00:04.888,0.0005495828227140009,0.00768778612837195,0.00650304229930043,0,
00:00:04.892,-0.00466216634958982,-0.0037900838069617705,-0.0043428223580122,0,
00:00:04.896,-0.00334864435717463,-0.00998467858880758,-0.00424345768988132,0,
00:00:04.9,-0.00249822624027729,-0.00341833289712667,-0.00120177515782416,0,
00:00:04.904,0.005633016582578421,0.00740969646722078,0.00525106675922871,0,
00:00:04.908,-0.000396815710701048,0.00378159107640386,0.0019181658281013398,0,
00:00:04.912,0.0018290549051016602,-0.00103339238557965,-0.0061237141489982605,0,
00:00:04.916,0.0009108224185183641,0.00131765566766262,-0.0014308406971395,0,
00:00:04.92,-0.00047946715494617804,0.00243396102450788,0.000853908073622733,0,
00:00:04.924,-0.00117629917804152,-0.00497499573975801,0.0014161984436214,0,
00:00:04.928,-0.00105463701765984,-0.00520340772345662,0.00101504614576697,0,
00:00:04.932,-0.00256469426676631,0.00646250089630485,-0.00174835266079754,0,
00:00:04.936,0.00413478165864944,0.00407771579921246,0.0017721726326271898,0,
00:00:04.94,6.83090183883905e-05,-0.0069660134613513894,0.00123058771714568,0,
00:00:04.944,-0.00104018207639456,0.00264430162496865,-0.0022448759991675602,0,
00:00:04.948,-0.00283513497561216,-0.00017173940432258002,-0.00524802878499031,0,
00:00:04.952,0.003920412622392179,0.007472548168152571,0.00864450540393591,0,
00:00:04.956,0.00412627076730132,-0.008375804871320721,0.006772560533136129,0,
00:00:04.96,-0.00915279984474182,-0.0147961303591728,0.00036823240225203303,0,
00:00:04.964,-0.00214963592588902,0.00759379426017404,-0.0146433496847749,0,
00:00:04.968,0.00686339009553194,0.00620791735127568,-0.00783074274659157,0,
00:00:04.972,-6.566474621649829e-05,0.00693799182772636,0.00409842329099774,0,
00:00:04.976,0.00127834465820342,0.0065165888518095,0.00716014765202999,0,
00:00:04.98,0.0021654122974723604,0.000276060309261084,0.004995333496481179,0,
00:00:04.984,-0.00302553200162947,-0.0068255797959864105,-0.0007928931736387309,0,
00:00:04.988,-0.00502527598291636,-0.0123804686591029,0.00046555040171369905,0,
00:00:04.992,-0.00319539639167488,-0.0051278225146234,-0.00292345369234681,0,
00:00:04.996,0.0145880673080683,0.00276984483934939,-0.0018966728821396802,0,
00:00:05,-0.000978692318312824,0.0104814702644944,0.00196791440248489,0,
00:00:05.004,-0.012029298581183002,0.0015321061946451699,0.00102403969503939,0,
00:00:05.008,-0.0006242527742870151,-0.00709645124152303,0.0036014311481267205,0,
00:00:05.012,0.003659478854388,0.00293291988782585,-0.0030982780735939698,0,
00:00:05.016,0.00143824832048267,0.00436603603884578,-0.00828588847070932,0,
00:00:05.02,0.00560483103618026,0.00401459960266948,-0.0023560118861496396,0,
00:00:05.024,-0.000677192234434187,0.00133570306934416,0.00546055380254984,0,
00:00:05.028,-0.00276347505860031,-0.0016280325362458801,0.0052978522144258,0,
00:00:05.032,-0.00436895061284304,-0.0115317925810814,0.0021183581557124897,0,
00:00:05.036,0.00109982118010521,-0.0055762566626071895,-0.0029112573247402898,0,
00:00:05.04,0.0019991195295006,0.00213964958675206,-0.0064387652091682,0,
00:00:05.044,0.00316636567004025,0.00999612268060446,0.0035115415230393397,0,
00:00:05.048,-0.00198747147805989,0.0012359799584373801,0.0123434588313103,0,
00:00:05.052,-0.00225618784315884,0.00105995184276253,-0.000368277833331376,0,
00:00:05.056,-0.000822601781692356,0.00120706623420119,-0.00951405428349972,0,
00:00:05.06,0.0025741548743099,-0.0019046521047130199,-0.009614638052880759,0,
00:00:05.064,-0.00301879784092307,-0.009609603323042391,-0.00823683943599463,0,
00:00:05.068,-0.0008923726272769269,-0.0029167418833822,0.0100463619455695,0,
00:00:05.072,0.00377871003001928,0.0121507486328483,0.0149488905444741,0,
00:00:05.076,0.004607075359672311,0.00638717459514737,-0.0013639034004882,0,
00:00:05.08,-0.0019747344776988,-0.00408505601808429,-0.0047749178484082205,0,
00:00:05.084,-0.0032288201618939603,-0.0123160844668746,-0.0010467617539688901,0,
00:00:05.088,0.00013031589332968,0.00229939329437912,-0.00261279894039035,0,
00:00:05.092,-0.00424116104841232,0.000522696005646139,-0.00282906088978052,0,
00:00:05.096,-0.0008150112116709349,0.00641904352232814,0.00505425781011581,0,
00:00:05.1,0.0045932028442621205,-0.0009992693085223439,0.0115813408046961,0,
00:00:05.104,0.00549837620928884,0.000767251651268452,-0.0102887935936451,0,
00:00:05.108,-0.0035034078173339397,-0.0020131377968937198,-0.00694197788834572,0,
00:00:05.112,-0.0011472869664430599,-0.0009366073645651339,-0.00140446145087481,0,
00:00:05.116,-0.0005033767083659769,0.00459691975265741,0.00240912009030581,0,
00:00:05.12,-0.00030751427402719904,-0.00091375398915261,0.00344470096752048,0,
00:00:05.124,-0.000139150753966533,-0.00457867840304971,0.00243424321524799,0,
00:00:05.128,3.8553149352083e-05,-0.0019000761676579699,-0.0013639569515362401,0,
00:00:05.132,0.0022367115598171897,0.0073721152730286095,0.0013281002175062901,0,
00:00:05.136,-0.00178506120573729,0.0006078600417822599,-0.0016194807831198,0,
00:00:05.14,-0.00150022516027093,-0.0028375918045640005,-0.0050753904506564106,0,
00:00:05.144,-0.00219189748167992,-0.00506517523899674,0.008335558697581291,0,
00:00:05.148,0.00696088653057814,-0.001492835348472,0.00422246661037207,0,
00:00:05.152,-0.00132514722645283,0.00397076271474361,-8.2067730545532e-05,0,
00:00:05.156,-0.00252190441824496,-0.007236827164888379,-0.00698191998526454,0,
00:00:05.16,-0.00736901257187128,-0.00188044318929315,-0.007792825344949959,0,
00:00:05.164,0.00835449621081352,0.021083377301693,0.000427746213972569,0,
00:00:05.168,0.00605312921106815,0.0155558427795768,-0.0006021196604706349,0,
00:00:05.172,-0.0042701573111116895,-0.0157880559563637,0.00317966984584928,0,
00:00:05.176,6.63928367430344e-05,-0.0172614697366953,0.0027557059656828603,0,
00:00:05.18,-0.00289366114884615,-0.00518797198310494,0.00756417587399483,0,
00:00:05.184,0.00019103470549453,0.00053596158977598,0.00675884913653135,0,
00:00:05.188,-0.00196805573068559,0.00960481073707342,-0.00665244506672025,0,
00:00:05.192,-0.000428719911724329,0.000294806057354435,-0.0122164273634553,0,
00:00:05.196,-0.000874498044140637,-0.00145315087866038,-0.00225201179273427,0,
00:00:05.2,0.00573637150228024,0.00392501661553979,0.00348876183852553,0,
00:00:05.204,-0.0012457591947168099,0.00553071685135365,0.0109145827591419,0,
00:00:05.208,-0.00129008304793388,-0.0012273300671949998,0.0033237496390938802,0,
00:00:05.212,0.00425534369423985,-0.00321067054755986,-0.00611611781641841,0,
00:00:05.216,-0.00309209991246462,0.0036459229886531795,-0.0105692567303777,0,
00:00:05.22,0.00158959603868425,-0.00491318292915821,-0.00299469917081296,0,
00:00:05.224,-4.1430612327531e-06,-0.0025234506465494602,0.006033030338585379,0,
00:00:05.228,-0.007991692051291471,-0.0032233938109129698,0.006257628556340929,0,
00:00:05.232,0.00189466204028577,-0.0042037176899612,0.0007551409653387959,0,
00:00:05.236,0.00385698000900447,0.00430156895890832,0.00136378454044461,0,
00:00:05.24,0.00438592303544283,0.008136497810482979,-0.0007227928726933901,0,
00:00:05.244,-0.0038879367057234,0.0038037151098251295,-0.0042255208827555206,0,
00:00:05.248,-0.000818915956187993,0.00295243365690112,-0.00012932412209920601,0,
00:00:05.252,0.00217977538704872,-0.0076126693747937705,0.00262091099284589,0,
00:00:05.256,-0.00179787015076727,-0.00874784588813782,-0.00175575050525367,0,
00:00:05.26,-0.00367465405724943,-1.31318520288914e-05,-0.00174105609767139,0,
00:00:05.264,0.00174908735789359,0.00143640313763171,-0.000340699101798236,0,
00:00:05.268,0.00242964760400355,0.0033516236580908303,0.0007898729527369139,0,
00:00:05.272,0.00119276240002364,0.00951311085373163,0.00111439311876893,0,
00:00:05.276,-0.00017920497339218898,0.0040603643283247896,-0.0033609326928854,0,
00:00:05.28,0.00118261738680303,-0.0109221432358027,2.90205025521573e-05,0,
00:00:05.284,-0.0028614879120141302,-0.0124701913446188,0.00701749837026,0,
00:00:05.288,-0.00210952665656805,0.00479978788644075,0.0136204678565264,0,
00:00:05.292,-0.00225353124551475,0.0029608893673867,-0.011544493958353998,0,
00:00:05.296,0.0031018431764096,0.0013606280554086,-0.0141857974231243,0,
00:00:05.3,0.0009274268522858619,0.0048071900382638,-0.0042898426763713395,0,
00:00:05.304,0.00508023705333471,0.00694993836805224,0.0065134800970554395,0,
00:00:05.308,0.0010430634720251,0.00398134300485253,0.0054364628158509705,0,
00:00:05.312,-0.0048271189443767105,-0.0114416647702456,0.00595415942370892,0,
00:00:05.316,-0.00380452955141664,-0.009358694776892659,0.0016176289645955,0,
00:00:05.32,-0.00290705519728363,-0.006276119966059921,-0.00425673695281148,0,
00:00:05.324,0.003365388372913,0.005282955709844829,0.00054721103515476,0,
00:00:05.328,0.0036792999599129,0.008261756971478459,-0.000936348456889391,0,
00:00:05.332,0.00371628231368959,0.009742282330989841,-0.0023179491981864,0,
00:00:05.336,-0.00237539014779031,0.0034723565913736803,-0.00618639262393117,0,
00:00:05.34,-0.00512309884652495,-0.011289113201200998,-0.000904584070667624,0,
00:00:05.344,0.00045566516928374805,-0.008454602211713791,0.0078507075086236,0,
00:00:05.348,0.00179372949060053,0.00283202226273716,0.000757468107622117,0,
00:00:05.352,0.00121508445590734,0.00170347013045102,-0.000346201588399708,0,
00:00:05.356,0.00229223142378032,0.0035236403346061702,0.00208179280161858,0,
00:00:05.36,-0.00242638611234725,-0.00296932412311435,0.000309290015138686,0,
00:00:05.364,-0.00225012563169003,0.00914560165256262,-0.0014955142978578802,0,
00:00:05.368,-0.000582512118853629,-0.0106286527588964,0.00011719619942596201,0,
00:00:05.372,-0.00132509018294513,-0.0102665331214666,-0.00534077035263181,0,
00:00:05.376,0.0031448144000023603,0.00816845335066319,8.794455061433841e-05,0,
00:00:05.38,0.0004197517700959,0.0136657124385238,0.0020022091921418897,0,
00:00:05.384,0.0044865449890494295,0.00423909816890955,-0.000254924641922116,0,
00:00:05.388,-0.00347821833565831,-0.00043961769551970097,0.0027896009851247103,0,
00:00:05.392,0.00320831895805895,-0.0115457279607654,-0.0047159306704998,0,
00:00:05.396,-0.0064003630541265,-0.0192474219948053,0.0075725284405052705,0,
00:00:05.4,0.000501783099025488,0.0120729515329003,0.009807288646698,0,
00:00:05.404,-0.0008219609735533599,0.00553669221699238,-0.0103697245940566,0,
00:00:05.408,0.00026486799470148997,0.00047529730363749006,-0.00992458965629339,0,
00:00:05.412,0.00121606991160661,0.000681291392538697,-0.00493311043828726,0,
00:00:05.416,0.00129395129624754,0.00326251308433712,0.00499623036012053,0,
00:00:05.42,0.000726262805983424,-0.00115640088915825,0.00461696274578571,0,
00:00:05.424,-0.0020546640735119603,-0.00167979404795915,0.0080812918022275,0,
00:00:05.428,-0.000542517984285951,-0.000923811050597578,-0.00192139239516109,0,
00:00:05.432,0.00307082873769104,0.0040186266414821105,-0.00133472890593112,0,
00:00:05.436,0.00143462617415935,0.000468014215584844,-0.00178321765270084,0,
00:00:05.44,0.00335628422908485,-0.000717061397153884,-0.0037619741633534397,0,
00:00:05.444,-0.0036719993222504898,-0.00114060449413955,-0.0031372597441077198,0,
00:00:05.448,-0.0109093422070146,-0.00948183797299862,0.00343446037732065,0,
00:00:05.452,0.0076113720424473294,-0.00756558729335666,0.0121803684160113,0,
00:00:05.456,-0.0029195686802268,0.00531973131000996,-0.00201669172383845,0,
00:00:05.46,-0.0010661822743713901,0.007183428388088941,-0.0130853354930878,0,
00:00:05.464,0.0022821300663054,0.00647299038246274,0.000518993765581399,0,
00:00:05.468,0.00750328553840518,0.009339078329503541,0.00537538947537541,0,
00:00:05.472,0.00033782501122914303,0.0017494572093710301,-0.00406944612041116,0,
00:00:05.476,-0.0049740797840058795,-0.0115739749744534,-0.00157652096822858,0,
00:00:05.48,0.0009866171749308712,-0.0100963972508907,0.00425172876566648,0,
00:00:05.484,-0.00407199934124947,-0.00545289972797036,0.00356934126466513,0,
00:00:05.488,0.00043585486127995,0.00436673732474446,-0.00121701788157225,0,
00:00:05.492,0.0035921726375818296,0.0105363391339779,0.0006947647780179981,0,
00:00:05.496,0.00116364366840571,0.0022998049389571,-0.000329775968566537,0,
00:00:05.5,-0.0033551766537129896,-0.0022568991407752,0.000774183718021959,0,
00:00:05.504,-0.0021110835950821603,-0.00949285086244345,-0.00125447975005955,0,
00:00:05.508,-0.0018589149694889801,-0.00034589617280289504,-0.0043450677767396,0,
00:00:05.512,0.0035292573738843203,0.00432763667777181,-0.0038649751804769,0,
00:00:05.516,0.00321571249514818,0.00859871972352266,0.00315374787896872,0,
00:00:05.52,0.000986192841082811,-0.00183230184484273,0.0020408935379236898,0,
00:00:05.524,-0.00504788523539901,-0.00370393414050341,0.00214741844683886,0,
00:00:05.528,0.00650118803605437,0.004021483939141039,0.0056922142393887,0,
00:00:05.532,-0.0019470457918942,3.8809346733614796e-05,-0.00149249192327261,0,
00:00:05.536,-0.00343540497124195,-0.0120598236098886,-0.00590223260223866,0,
00:00:05.54,-0.00392686622217298,-0.00245843431912363,0.00105712900403887,0,
00:00:05.544,0.00420709885656834,0.0104492409154773,-0.00133595417719334,0,
00:00:05.548,0.0009639568743295971,0.00196042330935597,-0.00287783821113408,0,
00:00:05.552,-9.10512462724e-05,-0.0010346131166443198,0.00439728237688541,0,
00:00:05.556,-0.00230457587167621,-0.0034576833713799698,0.000668545078951865,0,
00:00:05.56,0.0018745999550446898,-0.00294343521818519,-0.000502103881444782,0,
00:00:05.564,-0.000416840426623821,0.00342288077808917,0.0015597416786477,0,
00:00:05.568,0.0063570118509233,0.0119391782209277,-0.0063151060603559,0,
00:00:05.572,-0.0031223869882524,-0.00237783044576645,0.000316797202685848,0,
00:00:05.576,-0.0041466779075563,-0.0113396728411317,0.0135665209963918,0,
00:00:05.58,0.000209824313060381,-0.00165459152776748,-0.00700137903913856,0,
00:00:05.584,-0.00144042132887989,-0.00254291831515729,-0.00503628235310316,0,
00:00:05.588,-0.0020188121125102,0.00588524201884866,-0.00137844262644649,0,
00:00:05.592,0.00337939523160458,0.000331168906996027,0.00126332975924015,0,
00:00:05.596,0.00118276278953999,-0.00155389378778636,3.21717634506058e-05,0,
00:00:05.6,0.00518761994317174,0.00322255212813616,0.0035510903690010296,0,
00:00:05.604,-0.0031725480221211897,0.00271980627439916,0.0021574366837739897,0,
00:00:05.608,-0.00311799650080502,0.00460389023646712,0.0018893113592639602,0,
00:00:05.612,0.00543530005961657,0.00507157715037465,-0.00770810153335333,0,
00:00:05.616,-0.00289535499177873,-0.0109175089746714,0.000633531075436622,0,
00:00:05.62,-0.00550869107246399,-0.016005327925086,0.00215811375528574,0,
00:00:05.624,-0.0012879759306088099,-0.0010124410036951301,-0.0009502922766841949,0,
00:00:05.628,0.00867793988436461,0.0098912613466382,0.00181669113226235,0,
00:00:05.632,-0.000387173116905615,0.00896454602479935,0.00500092701986432,0,
00:00:05.636,-0.00045212564873509104,0.00768810603767633,-0.00450871046632528,0,
00:00:05.64,-0.00570815242826939,-0.00326875643804669,-0.00652076955884695,0,
00:00:05.644,0.000149189974763431,-0.0109922578558326,-0.0034551112912595302,0,
00:00:05.648,0.000137116221594624,-0.005433773156255479,0.0111250067129731,0,
00:00:05.652,0.0039024613797664603,0.0013933286536485,0.0101131238043308,0,
00:00:05.656,0.00238228961825371,0.00469158310443163,-0.0140736466273665,0,
00:00:05.66,-0.000144207675475627,0.00631564948707819,-0.00715827150270343,0,
00:00:05.664,0.000428105209721252,0.0019502132199704602,0.00317517761141062,0,
00:00:05.668,-0.0037346919998526604,-0.00207407772541046,0.00526875304058194,0,
00:00:05.672,-0.00471357814967632,0.000634980387985706,0.00119679979979992,0,
00:00:05.676,0.00172874820418656,-0.00456392671912909,0.0024019372649490803,0,
00:00:05.68,0.00509245507419109,-0.00617052987217903,0.00019290125055704298,0,
00:00:05.684,-0.000100489836768247,-0.0034639579243958,-0.00171030487399548,0,
00:00:05.688,-0.00138438493013382,0.0026904062833637,-6.110634421929721e-05,0,
00:00:05.692,-0.0009695683838799599,0.005588015075773001,-0.00336785009130836,0,
00:00:05.696,-0.0001855240407167,0.0066692903637886,-0.0039981952868402,0,
00:00:05.7,-0.00174003501888365,0.00800641346722841,-0.0018096228595823,0,
00:00:05.704,0.00450420426204801,-0.008471334353089329,0.005181462038308379,0,
00:00:05.708,-4.10065840696916e-05,-0.0130857918411493,0.0133375329896808,0,
00:00:05.712,0.000662079895846546,0.0024869532790035,-0.0017940638354048103,0,
00:00:05.716,-0.00311799463815987,0.0028308667242527,-0.00941689312458038,0,
00:00:05.72,-0.00407993653789163,-0.0037534786388278,-0.00623171590268612,0,
00:00:05.724,0.00413613440468907,0.00944860186427832,-0.000656938645988703,0,
00:00:05.728,-0.00107048091012985,0.00739727215841413,0.00299990456551313,0,
00:00:05.732,-0.00428924756124616,-0.00971096660941839,0.0016432290431112099,0,
00:00:05.736,0.0114895096048713,-0.00279528228566051,0.00229894230142236,0,
00:00:05.74,0.00514333369210362,0.0104760620743036,0.00411641830578446,0,
00:00:05.744,-0.007613413501530891,-0.0110258227214217,0.00301281013526022,0,
00:00:05.748,-0.00721041392534971,-0.00957581773400307,-0.00190351193305105,0,
00:00:05.752,-0.00238765613175929,0.00095400185091421,-0.00860575120896101,0,
00:00:05.756,-0.00032092290348373397,0.009584236890077591,-0.00400370731949806,0,
00:00:05.76,0.00532833719626069,0.0097588412463665,0.0057626636698842,0,
00:00:05.764,0.00435954611748457,0.00642103143036366,0.00231645395979285,0,
00:00:05.768,0.0012555016437545401,-0.005750539246946571,0.000435091380495578,0,
00:00:05.772,-0.00124622217845172,-0.0130803314968944,-0.00664214324206114,0,
00:00:05.776,-7.989630103111271e-05,-0.00416028359904885,0.00117703643627465,0,
00:00:05.78,-0.0036874383222311705,0.0019211651524528898,0.0167556218802929,0,
00:00:05.784,-0.00439503835514188,0.00419609621167183,-8.522843563696371e-05,0,
00:00:05.788,0.00411762623116374,0.005599923431873321,-0.0147087853401899,0,
00:00:05.792,-0.000875894504133612,-0.000433769571827725,-0.00663825357332826,0,
00:00:05.796,0.00219920719973743,-0.00609639752656221,0.000840687076561153,0,
00:00:05.8,0.0016154726035893,0.00251904013566673,0.00452656019479036,0,
00:00:05.804,0.0021826708689332,0.004932546522468329,0.0023908661678433397,0,
00:00:05.808,-0.00497141620144248,-0.00340023450553417,0.0043197413906455,0,
00:00:05.812,-0.0028501192573458,-0.00497282203286886,-0.000426986516686156,0,
00:00:05.816,-0.00141414417885244,-0.000396087765693665,-0.00340446643531322,0,
00:00:05.82,0.0106300124898553,0.0154164284467697,0.0010293930536136,0,
00:00:05.824,-2.99717212328687e-05,0.00395589508116245,0.00540020409971476,0,
00:00:05.828,0.000387022504583001,-0.0240971744060516,0.0065582646057009706,0,
00:00:05.832,-0.0031031402759254,0.00113530515227467,-0.00978882145136595,0,
00:00:05.836,-0.010568268597126,0.00210543046705425,-0.0135100474581122,0,
00:00:05.84,-0.00317122135311365,0.0036040549166500603,-0.00107309629675001,0,
00:00:05.844,0.0063380282372236295,0.0034146576654166,0.0037828250788152205,0,
00:00:05.848,0.00681152334436774,0.0018545464845374198,0.00874645076692104,0,
00:00:05.852,0.0011897467775270302,-0.00409907195717096,0.00566107174381614,0,
00:00:05.856,0.00357154081575572,0.0028396644629538103,-0.00141183647792786,0,
00:00:05.86,-0.00491077918559313,0.0039888946339488,-0.000745692173950374,0,
00:00:05.864,-0.00414859037846327,-0.0067380485124886,0.000198978770640679,0,
00:00:05.868,0.00526028173044324,0.00237056170590222,-0.00422069896012545,0,
00:00:05.872,-0.00250298366881907,0.00340679078362882,-0.0052581233903765704,0,
00:00:05.876,-0.0028843202162534,-0.007336553186178209,-0.0006674284813925621,0,
00:00:05.88,-0.0007876828894950451,-0.00195440487004817,0.0049885343760252,0,
00:00:05.884,0.00104770180769265,-0.000592261552810669,0.0058135874569416,0,
00:00:05.888,-0.00040614276076667,0.0024247276596725,0.0008151033543981611,0,
00:00:05.892,0.00115347164683044,0.0013429370010271699,-0.00919817294925451,0,
00:00:05.896,0.00611006049439311,0.008457885123789309,0.00015539221931248898,0,
00:00:05.9,0.0016325053293258,0.00644798157736659,0.00467692129313946,0,
00:00:05.904,-0.00487762317061424,-0.0037139009218663,-0.0042377095669508,0,
00:00:05.908,-0.00629337783902884,-0.0213455092161894,0.0130993369966745,0,
00:00:05.912,0.00279231276363134,0.000260074186371639,-0.005314860958606,0,
00:00:05.916,0.000824716698843986,0.00287912948988378,-0.0140353627502918,0,
00:00:05.92,0.000567721319384873,0.00581230130046606,-0.00192632083781064,0,
00:00:05.924,-0.0014940600376576198,0.005465874448418621,0.00771765457466245,0,
00:00:05.928,0.00239889160729945,0.000633975432720035,0.00699893105775118,0,
00:00:05.932,0.00384966470301151,0.0037034344859421297,0.00253904517740011,0,
00:00:05.936,-0.00192794040776789,0.00370246125385165,-0.00347308255732059,0,
00:00:05.94,-0.000662593636661768,-0.00568787241354585,-0.00110330467578024,0,
00:00:05.944,-0.0034132762812078,-0.0052770171314477895,-0.00102564331609756,0,
00:00:05.948,-0.0015594671713188301,-0.00622741039842367,-0.0031206940766423897,0,
00:00:05.952,-0.0013240084517747198,-0.005899243522435429,0.0033937890548259,0,
00:00:05.956,0.0038040187209844602,0.0043087275698781,-0.000412429741118103,0,
00:00:05.96,0.00323260645382106,0.0030587452929467,0.00512831006199121,0,
00:00:05.964,0.00086064194329083,0.00698867114260793,-0.00642701610922813,0,
00:00:05.968,-0.00104007089976221,0.0066028041765093795,-0.00677367532625794,0,
00:00:05.972,-0.00168718921486288,0.00040364442975260296,0.0020289288368076103,0,
00:00:05.976,-0.00129271356854588,-0.00211712857708335,0.00262453150935471,0,
00:00:05.98,-0.0025434501003474,-0.007061457261443141,0.00548866484314203,0,
00:00:05.984,0.00221508368849754,-0.00281587149947882,-0.00149029341991991,0,
00:00:05.988,0.00635677622631192,-0.00692668417468667,0.00315517350099981,0,
00:00:05.992,-0.0032572923228144602,0.0065090642310679,0.00485367421060801,0,
00:00:05.996,-0.00593304866924882,0.008210971020162109,-0.00606084801256657,0,
00:00:06,0.0006039003492332991,-0.00852102972567081,-0.00623478228226304,0,
00:00:06.004,0.00255138985812664,0.00248869950883091,-0.000302060274407268,0,
00:00:06.008,0.00197644717991352,0.00560142518952489,-0.0048958910629153295,0,
00:00:06.012,-0.00147256511263549,-0.0008581408765167,0.00512938480824232,0,
00:00:06.016,0.0014875401975587,-0.0027777836658060603,0.0035026054829359102,0,
00:00:06.02,0.000742362288292497,-0.00835754070430994,0.00223964615724981,0,
00:00:06.024,0.0015200269408524,0.00942107383161783,0.0027947616763413,0,
00:00:06.028,-0.00312317721545696,0.009796852245926859,0.0036649659741669898,0,
00:00:06.032,0.0015668087871745198,-0.00760882999747992,-0.000500451133120805,0,
00:00:06.036,-0.00655299797654152,-0.0127029614523053,-0.0141865089535713,0,
00:00:06.04,-0.000270692456979305,-0.00558197218924761,-0.00488045113161206,0,
00:00:06.044,0.00277302996255457,0.00679431948810816,0.0028025601059198397,0,
00:00:06.048,0.00292095146141946,0.013185097835957999,0.0036953024100512297,0,
00:00:06.052,-0.000548741489183158,0.00142088485881686,0.0066844932734966295,0,
00:00:06.056,0.00192890840116888,-0.00286772637628019,0.0014189041685313,0,
00:00:06.06,-0.00142097438219935,-0.0032208941411227,-0.000655278679914773,0,
00:00:06.064,0.00310155702754855,0.00428694859147072,-0.00128775183111429,0,
00:00:06.068,-0.0019028219394385802,-0.000172046158695593,0.000874827150255442,0,
00:00:06.072,-0.0026728420052677397,-0.0145421521738172,0.005539976060390471,0,
00:00:06.076,-0.00143232848495245,0.00129234953783453,-0.00571494549512863,0,
00:00:06.08,9.156826126854871e-05,0.007973846979439259,-0.0106769446283579,0,
00:00:06.084,0.000984836486168206,0.00467343116179109,-0.0029738328885287,0,
00:00:06.088,0.00107993569690734,-0.00426275841891766,0.0062961690127849605,0,
00:00:06.092,0.0006585338851436969,-0.00504305213689804,0.0086969044059515,0,
00:00:06.096,0.00011844501568703,0.000127602470456623,0.00114604260306805,0,
00:00:06.1,-0.00233073509298265,0.009750409051775929,-0.00420075515285134,0,
00:00:06.104,-0.000467800186015666,0.008049990050494671,0.00148749130312353,0,
00:00:06.108,0.0074919955804944,-0.00485625071451068,-0.00399510422721505,0,
00:00:06.112,-0.00223734346218407,-0.0130100101232529,0.000169517355971038,0,
00:00:06.116,-0.00391026679426432,-0.0106149921193719,0.00111927569378167,0,
00:00:06.12,-4.1205956222256605e-05,0.00566131947562099,0.00281026074662805,0,
00:00:06.124,-0.00392279122024775,0.007076622452586891,-0.0018735665362328302,0,
00:00:06.128,0.00173021224327385,0.00993103347718716,-0.0019329187925905,0,
