Elapsed Time,EMG1,EMG2,EMG3,BioRadio Event,Unnamed: 5
00:00:00,1.04204165935516,0.19097176194191,3.3274755477905296,0,
00:00:00.004,-0.993687629699707,-0.18380543589592002,-3.16644191741943,0,
00:00:00.008,-0.822330236434937,-0.14909262955188798,-2.63219475746155,0,
00:00:00.012,-0.0872312560677528,-0.0146454945206642,-0.283792644739151,0,
00:00:00.016,0.42323005199432395,0.0714813247323036,1.35090434551239,0,
00:00:00.02,0.512953221797943,0.0913223475217819,1.64729571342468,0,
00:00:00.024,0.31749093532562295,0.0739632546901703,1.0087187290191701,0,
00:00:00.028,0.0461599454283714,0.0224861353635788,0.134963542222977,0,
00:00:00.032,-0.15287567675113697,-0.0405771136283875,-0.4828177094459529,0,
00:00:00.036,-0.21314337849617002,-0.062079943716526,-0.6569274067878721,0,
00:00:00.04,-0.152424529194832,-0.0341964773833752,-0.48570370674133295,0,
00:00:00.044,-0.0536587461829185,-0.00287477299571037,-0.18054161965847002,0,
00:00:00.048,0.0262536406517029,0.0159390848129988,0.07431311160326,0,
00:00:00.052,0.0614095628261566,0.0214380770921707,0.19121220707893397,0,
00:00:00.056,0.0555240847170353,0.0105836093425751,0.175428360700607,0,
00:00:00.06,0.0282397195696831,0.00542389927431941,0.0973971784114838,0,
00:00:00.064,-0.00190093740820885,-0.00616199197247624,0.0037782632280141102,0,
00:00:00.068,-0.0122444536536932,-0.00469911610707641,-0.0512590296566486,0,
00:00:00.072,-0.0192506015300751,-0.009956818073987959,-0.0609263516962528,0,
00:00:00.076,-0.0137840528041124,-0.00274588470347226,-0.0402621515095234,0,
00:00:00.08,-0.00418571662157774,-0.000530591758433729,-0.0108641497790813,0,
00:00:00.084,0.0033631876576691896,-0.0011255808640271401,0.0109787946566939,0,
00:00:00.088,0.0042722881771624106,0.00406157271936536,0.0210942290723324,0,
00:00:00.092,0.0073244241066277,0.00618764851242304,0.0135625917464495,0,
00:00:00.096,0.004090005997568371,0.010610711760819,0.00517868204042315,0,
00:00:00.1,0.0019394306000322101,0.00536164036020637,-0.00138790730852634,0,
00:00:00.104,-0.00254341005347669,-0.00840482674539089,-0.004546793177723879,0,
00:00:00.108,-0.006546225398778921,-0.00922504626214504,-0.0044913240708410705,0,
00:00:00.112,-0.00359436590224504,-0.0151491742581129,-0.00259367423132062,0,
00:00:00.116,0.000372831826098263,-0.0047169919125735794,-0.000415645161410794,0,
00:00:00.12,0.00259664794430137,0.0100521985441446,0.0010101197985932198,0,
00:00:00.124,0.000606140005402267,0.0124126616865397,0.00139667990151793,0,
00:00:00.128,0.00137573247775435,0.00314035057090223,0.0010168474400416,0,
00:00:00.132,0.00160851003602147,0.000360713835107163,-0.00172016932629049,0,
00:00:00.136,0.007120739668607709,0.0116466358304024,0.00386652373708785,0,
00:00:00.14,-0.0019102916121482801,0.00533316098153591,0.00132115778978914,0,
00:00:00.144,-0.00764738395810127,-0.0168848130851984,-0.00589488400146365,0,
00:00:00.148,-0.00471099372953177,-0.0249651148915291,-0.000877604703418911,0,
00:00:00.152,-7.32657208573073e-05,-0.00909784715622664,0.0012808925239369301,0,
00:00:00.156,0.00279449298977852,0.009279219433665279,0.0015295494813472,0,
00:00:00.16,0.0011043279664591,0.0184534918516874,0.00293934135697782,0,
00:00:00.164,0.0039056036621332203,0.0148028302937746,-0.00190572487190366,0,
00:00:00.168,0.0019351149676367601,0.000641551276203245,-0.00206186273135245,0,
00:00:00.172,-0.0006575359147973361,-0.00442951545119286,-0.0027666860260069396,0,
00:00:00.176,7.53016647649929e-05,-0.00317841861397028,0.00247941329143941,0,
00:00:00.18,-0.00386223336681724,-0.0039512705989182,0.00258478405885398,0,
00:00:00.184,-0.00259202928282321,-0.0140932276844978,0.0029864127282053197,0,
00:00:00.188,-0.00012636961764656002,-0.000661164522171021,-0.0025662942789495,0,
00:00:00.192,0.00148322584573179,0.00117148424033076,-0.00283382926136255,0,
00:00:00.196,0.00175145245157182,0.00556526612490416,-0.00115769484546036,0,
00:00:00.2,0.00317410589195788,0.0105807259678841,0.000446665595518425,0,
00:00:00.204,-0.00384992174804211,-0.0021033030934631803,0.0011678034206852302,0,
00:00:00.208,-0.000102409241662826,-0.00298936036415398,0.00103679427411407,0,
00:00:00.212,-0.00332080875523388,-0.0030067318584770003,0.000474855682114139,0,
00:00:00.216,0.00656222645193338,0.0108382608741522,-8.19419365143403e-05,0,
00:00:00.22,0.007530402392148971,0.0111463060602546,-0.000384979706723243,0,
00:00:00.224,-0.00962472520768642,-0.0156949050724506,-0.00040265076677314905,0,
00:00:00.228,-0.00517921289429069,-0.0188928935676813,-0.000242381662246771,0,
00:00:00.232,-0.000309101393213496,-0.004575113300234079,0.00203044968657196,0,
00:00:00.236,0.00245923898182809,0.011676948517561,-0.00188611750490963,0,
00:00:00.24,0.00282175885513425,0.007174862083047629,-0.00151245493907481,0,
00:00:00.244,0.00169083441141993,0.00455327145755291,-7.943874516058709e-05,0,
00:00:00.248,-0.0018444483866915102,-0.0024518130812794,0.0008797511691227561,0,
00:00:00.252,0.00121904897969216,0.00104673812165856,0.00101334706414491,0,
00:00:00.256,0.0006182381766848269,0.00927771907299757,0.000592427037190646,0,
00:00:00.26,-0.0005688716191798451,0.00210391217842698,4.59695402241778e-05,0,
00:00:00.264,-0.0011072251945734,-0.0116360625252128,-0.000319922837661579,0,
00:00:00.268,0.00117869430687279,-0.0143614439293742,-0.00040989401168189905,0,
00:00:00.272,-0.00230015511624515,0.00281661096960306,-0.000292438373435289,0,
00:00:00.276,-0.00144661648664623,0.00623243022710085,-0.000100466095318552,0,
00:00:00.28,0.000265428563579917,-0.00420161988586187,0.00213000481016934,0,
00:00:00.284,0.00125311547890306,0.00269159604795277,-0.00185405206866562,0,
00:00:00.288,0.00124900846276432,0.0053028659895062395,-0.00153360387776047,0,
00:00:00.292,-0.0014271142426878199,0.0017968142637983,-0.00012260941730346498,0,
00:00:00.296,-0.000126603714306839,0.0007246875902637839,0.0008422522223554549,0,
00:00:00.3,0.0031813674140721603,0.00612140307202935,0.0009952753316611052,0,
00:00:00.304,0.005468772724270821,0.00568460719659925,-0.00148229964543134,0,
00:00:00.308,-0.00494722649455071,-0.00760269304737449,-4.27019731432665e-05,0,
00:00:00.312,-0.00524560222402215,-0.0151216052472591,0.005386223085224629,0,
00:00:00.316,-0.00192483165301383,-0.0133306952193379,0.00359355146065354,0,
00:00:00.32,0.0011274194112047599,0.00422592181712389,-0.00654903752729297,0,
00:00:00.324,0.0024016131646931197,0.0119991209357977,-0.0054346485994756204,0,
00:00:00.328,0.00202766666188836,0.0125080114230514,-0.0011194662656635,0,
00:00:00.332,0.000865806767251343,0.00235612457618117,0.0021189188119024,0,
00:00:00.336,-0.000230354242376052,-0.00315134297125041,0.00301229464821517,0,
00:00:00.34,-0.00494776573032141,-0.0108910752460361,0.0021074984688311802,0,
00:00:00.344,0.0031544016674161,0.00237335544079542,0.000574327073991299,0,
00:00:00.348,0.006976817268878221,0.0179930459707975,-0.000627192726824433,0,
00:00:00.352,-0.00158679136075079,-0.00260613043792546,-0.00109019572846591,0,
00:00:00.356,-0.00675318296998739,-0.0185803268104792,-0.0009061373420991,0,
00:00:00.36,-0.0037913091946393295,-0.0132666220888495,-0.000414588808780536,0,
00:00:00.364,0.000435755559010431,-0.00359011930413544,4.92455583298579e-05,0,
00:00:00.368,0.00280036800540984,0.0111885983496904,0.00029901773086749,0,
00:00:00.372,0.0007807032088749111,0.0112183345481753,0.000316736579407007,0,
00:00:00.376,0.00350904581137002,0.00961360521614552,0.00019120010256301598,0,
00:00:00.38,-0.000419356598285958,-4.527047713054339e-05,3.57711905962788e-05,0,
00:00:00.384,0.0012233005836606,-0.0021914611570537103,0.0020053565967828,0,
00:00:00.388,-0.00030635765870101804,0.00786657258868217,-0.0020775659941136802,0,
00:00:00.392,0.00048076582606881906,-0.0081364382058382,-0.0037947418168187102,0,
00:00:00.396,0.00048564412281848496,-0.0162576679140329,0.0038450022693723397,0,
00:00:00.4,-0.0065188086591661,-0.00979707483202219,0.000520867411978543,0,
00:00:00.404,-0.00345213571563363,-0.0016788508510217099,-0.000407190877012908,0,
00:00:00.408,-0.0009757494553923609,0.0112590454518795,-0.000361015874659643,0,
00:00:00.412,0.0054221875034272705,0.0144029147922993,-8.830984734231609e-05,0,
00:00:00.416,0.00483387568965554,0.00459103472530842,0.0021726097911596303,0,
00:00:00.42,-0.00039370649028569503,-0.00601644953712821,-0.0018431830685585698,0,
00:00:00.424,0.000888934242539108,0.0014617304550483801,-0.0015712673775851698,0,
00:00:00.428,-0.000613107869867235,0.00124037603382021,-0.0001880422787508,0,
00:00:00.432,0.00031386644695885496,0.00283964420668781,0.000780481903348118,0,
00:00:00.436,-0.00370782287791371,-0.0111380675807595,-0.00111742201261222,0,
00:00:00.44,-0.00254259677603841,-0.0127366809174418,0.0046364916488528295,0,
00:00:00.444,-0.00012869086640421298,-0.00144152238499373,0.0018119605956599101,0,
00:00:00.448,0.00147682940587401,0.00934085436165333,-0.00580490380525589,0,
00:00:00.452,0.0017609702190384301,0.00913815386593342,0.00100162054877728,0,
00:00:00.456,0.00319705763831735,0.00206396821886301,-0.000980142271146178,0,
00:00:00.46,-0.00382513646036386,0.0011231190292164699,-0.000329958740621805,0,
00:00:00.464,-8.562215953134e-05,-0.00388386799022555,0.000601648236624897,0,
00:00:00.468,-0.0012395859230309699,-0.0116884084418416,0.000941329926718026,0,
00:00:00.472,0.00250772526487708,0.00249978341162205,0.0006910013034939769,0,
00:00:00.476,0.00162922614254057,0.0276128631085157,0.000195918502868153,0,
00:00:00.48,0.00398731930181384,0.00595989683642983,0.00186173093970865,0,
00:00:00.484,-0.0051623862236738205,-0.0289263464510441,-0.00235790736041963,0,
00:00:00.488,-0.0045191617682576206,-0.0219680611044168,-0.0019691924098879103,0,
00:00:00.492,-0.00514683872461319,-0.0031506358645856398,-0.000335809774696827,0,
00:00:00.496,0.0077467183582484705,0.0147403413429856,0.0008488844032399361,0,
00:00:00.5,0.00380950747057796,0.0143140694126487,0.00112705619540066,0,
00:00:00.504,0.000482474162708968,0.0109030241146684,0.000741746684070677,0,
00:00:00.508,-0.00136469677090645,0.00791856460273266,0.000152015112689696,0,
00:00:00.512,0.000352345901774243,-0.00290492456406355,-0.0023604594171047198,0,
00:00:00.516,-0.0031162491068244,-0.0180402174592018,0.0036199484020471603,0,
00:00:00.52,-0.0019362409366294698,-0.0164642576128244,0.00140491384081542,0,
00:00:00.524,0.000152890730532818,0.00241259741596878,-0.0035805064253509,0,
00:00:00.528,0.00139464624226093,0.0111538236960769,-0.00262706237845123,0,
00:00:00.532,0.00147055205889046,0.00789720378816128,-0.0002399324439466,0,
00:00:00.536,0.000818225322291255,-0.000310623494442552,0.0034362580627203,0,
00:00:00.54,3.8701258745277294e-05,-0.00262017035856843,-0.000330656883306801,0,
00:00:00.544,-0.000460749492049217,-0.0042362571693956895,-0.00062062666984275,0,
00:00:00.548,-0.00264428765513003,-0.00305890990421176,-1.78089157998329e-05,0,
00:00:00.552,-0.00256962678395212,-0.00670014088973403,0.000395373615901917,0,
00:00:00.556,0.007544115185737609,0.0138490907847881,0.000400619523134083,0,
00:00:00.56,0.00572302658110857,0.0326457135379314,0.00016022370255086598,0,
00:00:00.564,-0.00590978283435106,-0.0112183401361108,-9.79526375886053e-05,0,
00:00:00.568,-0.00602607056498528,-0.0360993817448616,0.00184143427759409,0,
00:00:00.572,-0.00212626834399998,-0.0150338988751173,-0.00220233574509621,0,
00:00:00.576,0.00136563030537218,0.00600923271849751,-0.0017731817206367898,0,
00:00:00.58,0.00277664652094245,0.017381701618433,-0.000198015564819798,0,
00:00:00.584,0.00230231042951345,0.0133757786825299,0.0008945296867750589,0,
00:00:00.588,0.0009505656198598439,0.0041428287513554105,0.00109964911825955,0,
00:00:00.592,-0.000300496321870014,-0.007491889875382191,0.0027593225240707397,0,
00:00:00.596,-0.00300626433454454,-0.00234496290795505,-0.0018744849367067198,0,
00:00:00.6,0.00106336351018399,9.63289785431698e-05,-0.0019518095068633602,0,
00:00:00.604,0.00320323230698705,-0.00396702624857426,-0.000607255264185369,0,
00:00:00.608,-0.00393699528649449,-0.00707593047991395,0.000520894594956189,0,
00:00:00.612,-0.00028162362286821,-0.0005763904773630201,0.0009050915832631289,0,
00:00:00.616,-0.00133836211171001,0.00458346819505095,0.000676483730785549,0,
00:00:00.62,0.00465382961556315,0.0158151313662529,0.00228203390724957,0,
00:00:00.624,0.0019170306622982,0.00782840233296156,-0.00215918314643204,0,
00:00:00.628,-0.00357884494587779,-0.011506013572216001,-0.00198841281235218,0,
00:00:00.632,-0.0028925088699907103,-0.0199889242649078,-0.00047560734674334504,0,
00:00:00.636,-0.000522173300851136,-0.0115593355149031,-0.00137771258596331,0,
00:00:00.64,0.00328087713569403,0.009330957196652891,0.00508549623191357,0,
00:00:00.644,-0.00241280649788678,0.00967205036431551,0.00038957828655839,0,
00:00:00.648,-0.000633835210464895,0.00866890419274569,-0.00128061370924115,0,
00:00:00.652,0.00578137766569853,0.010842333547771,0.000819791632238775,0,
00:00:00.656,0.00031112961005419504,0.00012753033661283601,-0.00047852672287263,0,
00:00:00.66,-0.0018858410185203,-0.0100471880286932,-0.00561917619779706,0,
00:00:00.664,-0.0039804959669709206,-0.0155493253841996,0.0005600212025456129,0,
00:00:00.668,0.00102917093317956,-0.00221965508535504,0.0027109740767628,0,
00:00:00.672,0.00169550243299454,0.0120621202513576,0.0022638309746980697,0,
00:00:00.676,0.000787155760917813,0.0138011630624533,0.000822307134512812,0,
00:00:00.68,0.0018948528449982398,-0.00608948804438114,-0.000437651295214891,0,
00:00:00.684,-0.00260459794662893,-0.00948027241975069,0.00107911287341267,0,
00:00:00.688,-0.0022051816340535896,-0.0072966953739523905,-0.00286552752368152,0,
00:00:00.692,-0.000416795985074714,-0.00406789127737284,-0.00415638508275151,0,
00:00:00.696,0.0009202518849633631,0.00886932481080294,0.00596886035054922,0,
00:00:00.7,0.00127024122048169,0.006668748334050179,-0.0032602464780211397,0,
00:00:00.704,-0.00120446900837123,0.00340590719133615,0.000211377118830569,0,
00:00:00.708,0.00219552544876933,0.00216961628757417,0.00335213099606335,0,
00:00:00.712,0.00343682570382953,0.00222125649452209,-0.0010113139869645199,0,
00:00:00.716,-0.0022649618331342897,-0.0101138651371002,-0.00142343656625599,0,
00:00:00.72,-0.0049414010718464895,-0.00902870763093233,0.00154187087900937,0,
00:00:00.724,-0.0014745855005458,-0.000490263977553695,-0.0016800177982077,0,
00:00:00.728,0.0038557082880288397,0.0115702617913485,-0.00103437935467809,0,
00:00:00.732,0.0049700061790645105,0.0147192468866706,-0.0017822840018197898,0,
00:00:00.736,0.000500279769767076,-0.00488426676020026,0.0050398558378219604,0,
00:00:00.74,-0.00491788098588586,-0.0176181122660637,0.000563406967557967,0,
00:00:00.744,-0.0034626019187271604,-0.0150239551439881,0.000992322922684252,0,
00:00:00.748,-0.000373888411559165,0.006292807869613171,-0.00520582823082805,0,
00:00:00.752,-0.00037810459616594,0.0128886504098773,0.00181640137452632,0,
00:00:00.756,0.0020039863884449,0.0074514439329505,-0.000519488647114486,0,
00:00:00.76,0.0049647563137114,0.0046548196114599705,-0.000310338597046211,0,
00:00:00.764,0.0041564786806702605,0.00714268069714308,0.00242782314307988,0,
00:00:00.768,-0.00108789920341223,-0.00433948682621121,-0.00132827553898096,0,
00:00:00.772,-0.00626305257901549,-0.017307585105299998,-0.00113943801261485,0,
00:00:00.776,-0.006151316221803429,-0.012105698697269,-2.29084816965042e-05,0,
00:00:00.78,0.0016878914320841401,0.00066788966068998,0.000692681642249227,0,
00:00:00.784,0.00587810762226582,0.0106934839859605,0.000744444550946355,0,
00:00:00.788,0.00079207873204723,0.0114056821912527,0.00245704292319715,0,
00:00:00.792,-0.00292148091830313,0.00163334724493325,-0.00202045449987054,0,
00:00:00.796,0.00108537753112614,-0.00315468129701912,-0.00194542517419904,0,
00:00:00.8,0.0012224048841744698,-0.00818151142448187,-0.0025908553507179,0,
00:00:00.804,-0.0018852500943467,-0.0111726336181164,0.00675043184310198,0,
00:00:00.808,-0.000727639358956367,0.0144085548818111,-0.0013387922663241599,0,
00:00:00.812,0.0069468296132981795,0.0274996403604746,-0.00241577881388366,0,
00:00:00.816,-0.0005965154268778861,-0.009008614346385,-0.00101128686219454,0,
00:00:00.82,-0.0060344343073666104,-0.0252198968082666,0.000441405718447641,0,
00:00:00.824,-0.0036551780067384204,-0.0154488831758499,0.0010528379352763302,0,
00:00:00.828,0.000169605569681153,0.00205857842229307,0.000870493531692773,0,
00:00:00.832,0.000360660458682105,0.0120477378368378,0.000322553125442937,0,
00:00:00.836,0.00458839908242226,0.0100444359704852,0.0018988917581737,0,
00:00:00.84,0.0010454972507432099,0.008257994428277021,-0.00238926289603114,0,
00:00:00.844,0.00225372472777963,0.00341993453912437,-0.0020264147315174302,0,
00:00:00.848,0.00208203215152025,-0.00400714576244354,-0.000382872764021158,0,
00:00:00.852,-0.00382377859205008,-0.0114440573379397,0.000828444841317832,0,
00:00:00.856,-0.00381419411860406,0.00420884927734733,0.00113122374750674,0,
00:00:00.86,0.0005618983996100719,0.00120383664034307,0.0028344199527055,0,
00:00:00.864,-0.00339324306696653,-0.00956093054264784,-0.00180617452133447,0,
00:00:00.868,0.00406400067731738,-0.0045469589531421705,-0.00191678886767477,0,
00:00:00.872,0.000985753838904202,0.00245558377355337,-0.000606730929575861,0,
00:00:00.876,0.00010831376130227,0.00368937267921865,0.00050102814566344,0,
00:00:00.88,-0.00211857631802559,0.00488746119663119,0.00295761786401272,0,
00:00:00.884,0.0019243109272792899,0.005736511200666429,-0.0013140829978510698,0,
00:00:00.888,0.00157131685409695,-0.000914995325729251,-0.00351558066904545,0,
00:00:00.892,7.83675714046694e-05,-0.00702559063211083,-0.00045707565732300303,0,
00:00:00.896,-0.0030246479436755198,-0.00263372762128711,0.0061968029476702205,0,
00:00:00.9,0.0008633966208435599,0.0164523012936115,0.00473030377179384,0,
00:00:00.904,0.00304217683151364,0.00826559960842133,-0.0078456923365593,0,
00:00:00.908,0.00018868301413022,-0.0207333415746689,-0.00326822930946946,0,
00:00:00.912,-0.0041426969692111,-0.0195644292980433,0.000261739915004,0,
00:00:00.916,-0.0024152051191777,0.004487361758947371,0.00394541118294001,0,
00:00:00.92,0.00035392303834669303,0.009232337586581709,-0.000151715401443653,0,
00:00:00.924,-0.00016877338930498798,0.00844780541956425,-0.000714876630809158,0,
00:00:00.928,0.00388553529046476,0.00223624333739281,-0.000208120793104172,0,
00:00:00.932,0.00263757514767349,-0.000193925327039324,0.00025209321756847203,0,
00:00:00.936,0.000143592493259348,0.00087826355593279,0.000360330333933234,0,
00:00:00.94,-0.00150129152461886,-0.00343382707796991,0.00228087068535388,0,
00:00:00.944,-0.00178761046845466,-0.000794492661952972,-0.00199421378783882,0,
00:00:00.948,-0.00320742046460509,-0.000817676424048841,-0.0018097319407388603,0,
00:00:00.952,0.0017560925334692,-0.0030140532180666898,-0.000372715148841962,0,
00:00:00.956,0.0020762055646628102,0.00346565875224769,0.000708971114363521,0,
00:00:00.96,0.00289588281884789,0.00173621566500515,-0.00109047291334718,0,
00:00:00.964,-0.0023229615762829802,-0.0009256295743398369,0.00471030734479427,0,
00:00:00.968,-0.00247133569791913,0.00216633081436157,-0.00019388520740903898,0,
00:00:00.972,-0.000867195893079042,-0.00956180319190025,-0.00171599828172475,0,
00:00:00.976,0.000576401071157306,-0.00377134396694601,0.00274696014821529,0,
00:00:00.98,0.0011501032859087,0.00132360274437815,-0.00443927943706512,0,
00:00:00.984,-0.0011346228420734401,0.0101935872808099,-0.00301516521722078,0,
00:00:00.988,0.00442591262981296,0.0105236154049635,0.000223687777179293,0,
00:00:00.992,-0.00255072442814708,-0.00606452859938145,0.00217629759572446,0,
00:00:00.996,0.00011476518557174099,-0.011548537760973,0.00227131368592381,0,
00:00:01,-0.0039092884398996795,-0.0076703866943717,0.00329211540520191,0,
00:00:01.004,0.00580850383266807,0.022260645404457994,-0.00199369341135025,0,
00:00:01.008,0.00706918071955442,0.0162000861018896,-0.00450509274378419,0,
00:00:01.012,-0.00967034138739109,-0.0164476204663515,0.0029478813521564,0,
00:00:01.016,-0.00493543222546577,-0.0284944120794535,-0.00011229233496123899,0,
00:00:01.02,1.2644538401218599e-05,-0.00795162003487349,-0.000618699239566922,0,
00:00:01.024,0.000618572579696774,0.0149626871570945,-0.00023652770323678903,0,
00:00:01.028,0.00488285021856427,0.0210137814283371,0.000178968155523762,0,
00:00:01.032,0.00537096289917827,0.0130169587209821,0.000332922500092536,0,
00:00:01.036,-0.00166053918655962,-0.00966342724859715,0.000248737836955115,0,
00:00:01.04,-0.00332717970013618,-0.0168425608426332,6.75194023642689e-05,0,
00:00:01.044,-0.00434910226613283,-0.00928437430411577,0.00406866986304522,0,
00:00:01.048,-0.000635691336356103,0.000651406880933791,-0.00409400975331664,0,
00:00:01.052,0.00432330975309014,0.0231346003711224,-0.0034050124231725896,0,
00:00:01.056,0.0049860873259604,0.0162330642342567,-0.000411481945775449,0,
00:00:01.06,0.000250388693530113,-0.0180038902908564,0.00168934313114733,0,
00:00:01.064,-0.00520397070795298,-0.0197003278881311,0.0020931877661496396,0,
00:00:01.068,-0.00363737228326499,-0.00376706407405436,0.00130268186330795,0,
00:00:01.072,-0.000402613804908469,0.00611546030268073,-0.00188658246770501,0,
00:00:01.076,0.00176978204399347,0.006421443540602921,0.0013789531076327,0,
00:00:01.08,0.000130197848193347,0.00568849686533213,0.00496717961505055,0,
00:00:01.084,0.00339842797257006,0.0051063965074718,-0.00439156591892242,0,
00:00:01.088,0.00193195138126612,-0.0020253085531294302,-0.00436208816245198,0,
00:00:01.092,-0.00450873095542192,-0.00994819309562445,-0.00129357748664916,0,
00:00:01.096,0.0023026992566883603,0.00528075871989131,0.00129405548796058,0,
00:00:01.1,0.00785774271935225,0.0123519646003842,0.00219844141975045,0,
00:00:01.104,-0.00853376928716898,-0.00439617363736033,0.0016821596072986698,0,
00:00:01.108,-0.00257223332300782,-0.0117824515327811,0.00057952938368544,0,
00:00:01.112,-0.000312823220156133,-0.00499322731047869,-0.000361325917765498,0,
00:00:01.116,-0.00153937900904566,-0.00397250894457102,-0.000780810543801636,0,
00:00:01.12,-0.00139020883943886,-0.00135364336892962,-0.0007019844488240781,0,
00:00:01.124,0.00423301802948117,0.00633989460766315,0.00171689561102539,0,
00:00:01.128,0.0017649605870246898,0.008877431973814959,-0.00198091240599751,0,
00:00:01.132,0.0032370961271226397,0.008047497831285,-0.0014389483258128199,0,
00:00:01.136,0.000647978915367275,0.009424524381756779,6.0907521401531994e-05,0,
00:00:01.14,0.000340408296324313,-0.00393586186692119,0.000998969888314605,0,
00:00:01.144,-0.006498845294117929,-0.0223682373762131,0.0010690635535866,0,
00:00:01.148,-0.0014037404907867302,-0.007346187252551321,0.00266289431601763,0,
00:00:01.152,0.00304774870164692,0.00522276340052485,-0.00196805293671787,0,
00:00:01.156,-0.000452959502581507,0.00309329805895686,-0.0020035575143992897,0,
00:00:01.16,-0.00263215065933764,0.00429349904879928,-0.000612345524132252,0,
00:00:01.164,0.00216365628875792,0.00399988098070025,0.00054526305757463,0,
00:00:01.168,-0.0018547627842053801,-0.00420912634581327,0.0009362143464386461,0,
00:00:01.172,0.00474632764235139,0.0035694409161806102,0.000698185293003917,0,
00:00:01.176,0.00479906471446157,0.0134766707196832,0.00228890287689865,0,
00:00:01.18,0.00142828945536166,0.0130597446113825,-0.0021639394108206,0,
00:00:01.184,-0.00610675476491451,-0.0237834118306637,-0.00199792487546802,0,
00:00:01.188,-0.0099338898435235,-0.0274081528186798,-0.00048381488886661795,0,
00:00:01.192,-0.00031246908474713596,-0.010122268460691,0.0006941484170965849,0,
00:00:01.196,0.00231088814325631,0.0135682923719287,0.00103466608561575,0,
00:00:01.2,0.00664370227605104,0.0239712931215763,0.000725464371498674,0,
00:00:01.204,0.00418903911486268,0.0114987269043922,0.00018724292749539,0,
00:00:01.208,0.00026958828675560697,-0.00034364702878519904,-0.000234444218222052,0,
00:00:01.212,-0.00226908968761563,-0.0028369193896651303,-0.000393708905903623,0,
00:00:01.216,-0.0048174713738262705,-0.0159439407289028,-0.000323698681313545,0,
00:00:01.22,0.00019775313558057,-0.00430817389860749,0.00192974996753037,0,
00:00:01.224,0.0012395608937367801,0.007987111806869509,-0.00195544795133173,0,
00:00:01.228,0.0028558641206473103,0.00596654461696744,-0.0015338071389123802,0,
00:00:01.232,0.000204470503376797,-0.0016843075864017,-6.35679898550734e-05,0,
00:00:01.236,-0.0038972119800746398,-0.00969826430082321,0.000910600065253675,0,
00:00:01.24,-0.0021367443259805398,-0.0089954687282443,0.0010397299192845802,0,
00:00:01.244,-0.00156670331489295,-0.000591917021665722,0.000604882137849927,0,
00:00:01.248,0.00387727841734886,0.00798872672021389,4.4938446080777794e-05,0,
00:00:01.252,0.00344170327298343,0.011692913249135002,-0.000328393769450486,0,
00:00:01.256,-0.0010356317507103099,0.00373223144561052,-0.000419075484387577,0,
00:00:01.26,0.0010071195429191,0.00281678815372288,0.0017776892054826,0,
00:00:01.264,-7.45856305002235e-05,0.00076562660979107,-0.002076948992908,0,
00:00:01.268,-0.0011954250512644599,-0.008466438390314579,-0.00158585316967219,0,
00:00:01.272,0.00276461150497198,-0.00458554597571492,-5.2819210395682596e-05,0,
00:00:01.276,-0.00478092394769192,-0.0101777445524931,0.0009534317068755631,0,
00:00:01.28,-0.00335589004680514,-0.00459728669375181,0.00108294549863786,0,
00:00:01.284,0.000100246346846689,0.006855117157101629,0.000629781803581864,0,
00:00:01.288,0.00228134216740727,0.006846438627690079,4.8446672735735794e-05,0,
00:00:01.292,0.00249223038554192,0.00744478544220328,-0.00241467379964888,0,
00:00:01.296,-0.000652108225040138,-0.00176961964461952,0.0015420690178871198,0,
00:00:01.3,-2.55688860306691e-06,-0.00042765834950842,0.0054852752946317205,0,
00:00:01.304,0.00284541840665042,-0.00307209882885218,-0.0038787671364843798,0,
00:00:01.308,0.00291905621998012,0.00458450755104423,-0.00406872713938355,0,
00:00:01.312,-0.00125318148639053,0.00456853816285729,-0.001253223977983,0,
00:00:01.316,-0.00571658089756966,-0.00558448862284422,0.00116941821761429,0,
00:00:01.32,-0.00334086501970887,-0.007558749523013829,0.00203082431107759,0,
00:00:01.324,0.000244603725150228,-0.0105300778523088,0.0015613129362464,0,
00:00:01.328,0.0023463403340429102,-0.00224037747830153,0.0005378674832172691,0,
00:00:01.332,0.000418681156588718,0.00755028985440731,-0.00241461046971381,0,
00:00:01.336,0.00339482352137566,0.0144242392852902,0.0012448406778276,0,
00:00:01.34,-0.00031664015841670296,0.00489527126774192,0.00306081515736878,0,
00:00:01.344,0.0034963835496455396,4.26544575020671e-05,-0.00213464628905058,0,
00:00:01.348,-3.26282715832349e-05,0.0055147679522633605,-0.0024906536564230897,0,
00:00:01.352,-0.005125429946929221,-0.0138364154845476,-0.00101507885847241,0,
00:00:01.356,-0.00558562530204654,-0.0162771251052618,0.0025104652158916,0,
00:00:01.36,0.003739780979231,-0.0035489103756845,-0.000883053464349359,0,
00:00:01.364,-0.000588431372307241,0.00700549175962806,-0.00274728867225349,0,
00:00:01.368,0.000665967992972583,0.00582090253010392,0.00224837753921747,0,
00:00:01.372,0.00403382396325469,0.0129179265350103,0.0024166265502572103,0,
00:00:01.376,0.00193186523392797,0.0050826221704483,0.0029274285770952697,0,
00:00:01.38,-0.00287365121766925,-0.00559725565835834,-0.00256073265336454,0,
00:00:01.384,0.0040029757656157,0.00304497056640685,-0.00281495088711381,0,
00:00:01.388,-0.0021335226483643103,-0.0060873064212501,-0.00322905648499727,0,
00:00:01.392,-0.00594265013933182,-0.0148230725899339,0.00240838760510087,0,
00:00:01.396,-0.00265713105909526,-0.00772931706160307,0.0048636682331562,0,
00:00:01.4,-0.000845793576445431,0.00422853324562311,-0.0007804480846971269,0,
00:00:01.404,0.00501986313611269,0.0100250877439976,-0.00201953807845712,0,
00:00:01.408,0.00431658001616597,0.00865147355943918,-0.00128678267356008,0,
00:00:01.412,0.0013604387640953099,0.005659727845340971,-0.000167388003319502,0,
00:00:01.416,-0.00112438260111958,-0.00328092835843563,0.000549703720025718,0,
00:00:01.42,-0.004168150946497921,-0.0116954948753119,0.000693407084327191,0,
00:00:01.424,0.000256243860349059,-9.460172441322359e-05,0.00044640863779932304,0,
00:00:01.428,0.0009154840372502801,0.0221859682351351,-0.00198631430976093,0,
00:00:01.432,0.0024416181258857302,-0.00461472384631634,0.00388233899138868,0,
00:00:01.436,-8.692665142007171e-05,-0.0177118293941021,0.00149000901728868,0,
00:00:01.44,-0.00606820872053504,-0.0104098431766033,-0.00363548495806754,0,
00:00:01.444,-0.00010122018284164399,-0.00561318499967456,-0.00274037010967731,0,
00:00:01.448,0.00227635260671377,0.00687858602032065,-0.000338742567691952,0,
00:00:01.452,0.00218851235695183,0.0165397934615612,0.0013125416589900901,0,
00:00:01.456,0.00101025146432221,0.0078110457397997405,0.0016470429254695801,0,
00:00:01.46,-0.000166938683832996,0.0020374795421958,0.0010521822841838,0,
00:00:01.464,-0.00286577525548637,-0.00855598971247673,0.000193375730304979,0,
00:00:01.468,0.00116684206295758,-0.0048902640119195,-0.00250168843194842,0,
00:00:01.472,0.00325308740139008,0.0042309681884944396,0.00135312275961041,0,
00:00:01.476,-0.00393312005326152,0.00240754801779985,0.00116471713408828,0,
00:00:01.48,-0.000303042092127725,-0.00971216801553965,0.00206231349147856,0,
00:00:01.484,0.000711789703927934,-0.00584365241229534,-0.00483568524941802,0,
00:00:01.488,0.0026619257405400302,0.00101690937299281,-0.0005159123684279621,0,
00:00:01.492,-0.00180482491850853,0.000778010988142341,0.0030824302230030303,0,
00:00:01.496,-0.0038512940518558,0.0005789020215161139,-0.0009425262105651199,0,
00:00:01.5,0.00157575774937868,0.00754539761692286,-0.0011474060593172901,0,
00:00:01.504,0.00233100145123899,0.0252434816211462,-0.000210437006899156,0,
00:00:01.508,0.00324841751717031,0.0007980857044458389,-0.0015369288157671699,0,
00:00:01.512,-0.00212642597034574,-0.0265760216861963,0.00269301841035485,0,
00:00:01.516,-0.0024949372746050397,-0.0226197056472301,0.00210615643300116,0,
00:00:01.52,-0.00311101251281798,-0.00423794146627188,0.00233099330216646,0,
00:00:01.524,0.0044341227039694795,0.0224593374878168,-0.0030221245251596,0,
00:00:01.528,0.0006858443957753481,0.0147026041522622,-0.00296303280629218,0,
00:00:01.532,-0.000564350048080087,-0.0012070052325725599,-0.00103261333424598,0,
00:00:01.536,-0.0006158744217827919,-0.0051929890178144,0.0006704933475703,0,
00:00:01.54,-0.00026939864619635,0.000132197208586149,0.00135484780184925,0,
00:00:01.544,5.05913594679441e-05,-0.0034241937100887303,0.00112257467117161,0,
00:00:01.548,0.00019223487470299,-0.00285872351378202,-0.0016110468422994,0,
00:00:01.552,0.0001709050120553,-0.00291347154416144,0.00390731357038021,0,
00:00:01.556,7.10848398739472e-05,0.0049037020653486295,-0.0007838145829737191,0,
00:00:01.56,-2.5410223315702802e-05,0.00117014953866601,-0.00190724583808333,0,
00:00:01.564,-0.00215034396387637,-0.00438625831156969,-0.00126957183238119,0,
00:00:01.568,0.0019025009823963,0.0013836665311828301,-0.000215652253245935,0,
00:00:01.572,0.0036767441779375102,0.00910691265016794,0.000507446064148098,0,
00:00:01.576,-0.0018033038359135398,6.538788147736341e-05,0.00069441890809685,0,
00:00:01.58,-0.0045423423871398,-0.0170546006411314,0.000486280478071421,0,
00:00:01.584,-0.0054326830431819,-0.0052780006080865895,0.00014256703434512,0,
00:00:01.588,0.0140246273949742,0.0298303496092558,-0.000127070510643534,0,
00:00:01.592,0.00428046565502882,0.0138810956850648,-0.000233824801398441,0,
00:00:01.596,-0.00826020445674658,-0.0159364249557257,-0.000197412533452734,0,
00:00:01.6,-0.00688771391287446,-0.0341746285557747,-9.192203287966551e-05,0,
00:00:01.604,-0.00154435622971505,-0.0108850346878171,9.07778576220153e-06,0,
00:00:01.608,0.000419691554270685,0.0180452037602663,6.42223239992745e-05,0,
00:00:01.612,0.00562989385798573,0.0178400687873363,-0.00200687488541007,0,
00:00:01.616,0.004230538383126261,0.00967026222497225,0.00201739114709198,0,
00:00:01.62,-0.00117149983998388,-0.00164798751939088,0.00165036227554083,0,
00:00:01.624,0.000385689898394048,-0.0033763621468097,0.00223783566616476,0,
00:00:01.628,-0.000710848835296929,0.0013363246107474,-0.00491600809618831,0,
00:00:01.632,-0.0015643861843273,-0.00606166245415807,-0.0007112025632523,0,
00:00:01.636,0.0006365735898725691,-0.00484801596030593,0.00290372152812779,0,
00:00:01.64,-0.0026491063181310896,-0.00350351282395422,-0.0010348699288442698,0,
00:00:01.644,-0.00150194182060659,-0.00939376745373011,0.0009261345840059221,0,
00:00:01.648,-0.00164496374782175,0.00497329514473677,-0.00421016197651625,0,
00:00:01.652,0.00346746807917953,0.00462788203731179,0.000932775321416557,0,
00:00:01.656,0.00307873217388988,0.0100375115871429,0.00222270633094013,0,
00:00:01.66,0.000906597764696926,0.0026350461412221198,0.00149463501293212,0,
00:00:01.664,-0.00295937899500132,-0.0038958382792770897,0.00025209176237694903,0,
00:00:01.668,0.000447928672656417,-0.0014374974416568901,-0.000620107864961028,0,
00:00:01.672,0.000444685778347775,0.000819195818621665,-0.0008577502449043099,0,
00:00:01.676,0.00180254539009184,0.00300613441504538,-0.000614473363384604,0,
00:00:01.68,-0.00053808034863323,0.00403721909970045,-0.00019728495681192702,0,
00:00:01.684,-0.00205736723728478,-0.0130428140982985,0.000138128903927281,0,
00:00:01.688,-0.006023005116730929,-0.0153020415455103,-0.00179732032120228,0,
00:00:01.692,-0.000903520616702735,0.00374359521083534,0.0042936448007822,0,
00:00:01.696,0.00562762655317783,0.00850836094468832,-0.000215263833524659,0,
00:00:01.7,0.00459840940311551,0.00858126021921635,-0.0014702838379889698,0,
00:00:01.704,-0.000859361200127751,0.00477557629346848,-0.0010948401177302,0,
00:00:01.708,0.0005200009327381849,-0.00193403323646635,-0.00234431843273342,0,
00:00:01.712,0.00135329645127058,0.00113980250898749,0.00231964769773185,0,
00:00:01.716,-0.0036151250824332203,0.0043518966995179705,0.00425468850880861,0,
00:00:01.72,-0.0010745357722044,-0.00363010494038463,-0.00139869027771056,0,
00:00:01.724,-0.00285550858825445,-0.0163804292678833,-0.00442604860290885,0,
00:00:01.728,-0.000649626832455397,-0.0070064659230411105,0.00068493775324896,0,
00:00:01.732,-0.000587734917644411,0.00410071015357971,0.00167286489158869,0,
00:00:01.736,0.00412713177502155,0.0110413748770952,0.0009620222263038161,0,
00:00:01.74,0.00110107916407287,0.00136041559744626,8.290858204418331e-06,0,
00:00:01.744,0.0025829488877207,-0.0009633229346945881,-0.000536132487468421,0,
00:00:01.748,0.00034223438706249,0.0139992702752352,-0.000581040454562753,0,
00:00:01.752,-0.00166236259974539,0.00930297933518887,0.0017528282478451698,0,
00:00:01.756,-8.3705825090874e-05,-0.0118119241669774,-0.00198728661052883,0,
00:00:01.76,-0.0013336535776034,-0.0219460222870111,-0.0035315535496920295,0,
00:00:01.764,-0.0039234459400177,-0.013611938804388,0.00410147476941347,0,
00:00:01.768,-0.00335127720609307,0.00829743687063456,0.00066537904785946,0,
00:00:01.772,0.0034804858732968603,0.0119201997295022,-0.00246528023853898,0,
00:00:01.776,0.00210438016802073,0.009677639231085779,0.00155040202662349,0,
00:00:01.78,0.00409788126125932,0.00407807063311338,0.00146954820957035,0,
00:00:01.784,0.00145549222361296,0.000839371641632169,0.000213935258216225,0,
00:00:01.788,0.000773802574258298,0.000210944286664017,0.00134513748344034,0,
00:00:01.792,-0.00439375173300505,-0.007500478066504001,-0.00292031466960907,0,
00:00:01.796,-0.00152297411113977,-0.00940536241978407,-0.0043339729309082,0,
00:00:01.8,-0.0049924096092581706,-0.00332132144831121,0.0016767835477367,0,
00:00:01.804,0.0014935024082660699,0.000471271865535527,0.00272752507589757,0,
00:00:01.808,0.00333804870024323,0.00486260978505015,0.00156802788842469,0,
00:00:01.812,0.00245699589140713,0.009808113798499109,7.11069806129672e-05,0,
00:00:01.816,0.000710907974280417,0.00571376318112016,-0.0008289914112538099,0,
00:00:01.82,-0.0006538822199217981,-0.0109208775684237,-0.000961340381763875,0,
00:00:01.824,-0.00324163399636745,-0.0071778306737542204,-0.000593222386669368,0,
00:00:01.828,0.00309998798184097,0.00443846266716719,-0.000102570287708659,0,
00:00:01.832,-0.000739521055947989,0.00471130665391684,0.000239455024711788,0,
00:00:01.836,-0.0034472858533263198,0.0035251067019999,0.00241762003861368,0,
00:00:01.84,0.0033803915139287697,0.000885826360899955,-0.00379404309205711,0,
00:00:01.844,-0.000167980004334822,-0.00987923424690962,0.000431108317570761,0,
00:00:01.848,-0.000866840477101505,-0.0051998202688992,0.00142788607627153,0,
00:00:01.852,0.00163264630828053,0.00569728435948491,-0.0011560998391360003,0,
00:00:01.856,-0.0039388476870954,0.00717334914952517,0.00206624949350953,0,
00:00:01.86,0.000723248173017055,-0.00271852710284293,0.00327069009654224,0,
00:00:01.864,0.0018244857201352698,-0.00533477077260613,-0.0023500872775912302,0,
00:00:01.868,-0.0008917009690776471,-0.00313406018540263,-0.00284152547828853,0,
00:00:01.872,0.00420082081109285,0.00656137522310019,-0.00128095562104136,0,
00:00:01.876,-0.0008751038694754241,0.007093275897204879,0.000340088794473559,0,
00:00:01.88,-0.00216440320946276,-0.0013803244801238199,0.0011420198716223199,0,
00:00:01.884,-0.0014932682970538699,-0.00411782646551728,-0.000990939908660948,0,
00:00:01.888,-0.00031031999969855,-0.0032823965884745104,0.0046047042123973396,0,
00:00:01.892,-0.00153943907935172,-0.00115355965681374,-0.000348548754118383,0,
00:00:01.896,0.0027621206827461698,-0.00558500504121184,-0.0018174573779106101,0,
00:00:01.9,0.000143939381814562,0.00526451272889972,-0.00142330583184958,0,
00:00:01.904,0.00442285463213921,0.0122967027127743,-0.00044719479046762,0,
00:00:01.908,0.0007796562276780611,0.00712280953302979,-0.00174654147122055,0,
00:00:01.912,-0.00472422083839774,-0.0135818608105183,0.00259904260747135,0,
00:00:01.916,-0.00351980584673584,-0.0174810476601124,0.00215080031193793,0,
00:00:01.92,-0.0026328808162361396,0.00561539782211185,0.00246269186027348,0,
00:00:01.924,0.005593583453446629,0.0113761713728309,-0.00495628686621785,0,
00:00:01.928,0.0017204424366354901,-0.0010046507231891199,-0.000892875599674881,0,
00:00:01.932,-0.0021472773514688,-0.00386008294299245,0.000640026351902634,0,
00:00:01.936,-0.0007680354756303129,0.00210510962642729,0.00082900607958436,0,
00:00:01.94,0.00506694102659822,0.00498588057234883,0.00047336620627902405,0,
00:00:01.944,-0.000491910905111581,0.00552368210628629,6.11461873631924e-05,0,
00:00:01.948,-0.00235491478815675,-0.00401594024151564,-0.00018221915524918602,0,
00:00:01.952,-0.004003648180514571,-0.0147757213562727,-0.000224658419028856,0,
00:00:01.956,-0.000764353957492858,-0.00259836763143539,-0.000139070529257879,0,
00:00:01.96,0.0102576995268464,0.0200974158942699,-0.0020975060760974897,0,
00:00:01.964,-0.00323650124482811,0.00170830998104066,0.00411095004528761,0,
00:00:01.968,-0.00691095599904656,-0.0149212116375566,-0.000249904405791312,0,
00:00:01.972,-6.87404171912931e-05,-0.00518901878967881,-0.00140313233714551,0,
00:00:01.976,0.0024772435426712,0.007239603437483309,-0.000996905728243291,0,
00:00:01.98,0.0022955343592912,-0.00204373663291335,0.00188112433534116,0,
00:00:01.984,-0.00107991613913327,-0.000933419272769243,-0.00367870694026351,0,
00:00:01.988,0.0017347089014947401,0.0102757439017296,0.000859353400301188,0,
00:00:01.992,0.0028606962878257,0.0160639639943838,0.0018357057124376301,0,
00:00:01.996,-0.000558153144083917,0.0010637219529599,0.0011272102128714301,0,
00:00:02,-0.0049125985242426395,-0.0171686112880707,8.48023919388652e-05,0,
00:00:02.004,-0.00287348800338805,-0.0259112752974033,-0.000579201441723853,0,
00:00:02.008,-0.00180306483525783,-0.00613240012899041,-0.0007023738580755889,0,
00:00:02.012,0.00405598431825638,0.013284838758408997,-0.000454053253633901,0,
00:00:02.016,0.00380034022964537,0.0163423623889685,-0.00010081548680318499,0,
00:00:02.02,-0.0007180636748671531,0.0076215653680265,0.00015646306565031398,0,
00:00:02.024,0.0011680431198328699,0.00501807685941458,0.00024339833180420098,0,
00:00:02.028,0.00200301664881408,-0.00102384539786726,-0.0018844675505533801,0,
00:00:02.032,-0.0032621489372104398,-0.0033764578402042398,0.0020546168088913,0,
00:00:02.036,-0.00313547882251441,-0.0145625649020076,0.00369773409329355,0,
00:00:02.04,-0.00107686792034656,-0.0105425966903567,-0.0018678376218304,0,
00:00:02.044,0.000752834544982761,0.000642887665890157,-0.00462918123230338,0,
00:00:02.048,-0.000574079633224756,0.007708591874688859,0.000732027110643685,0,
00:00:02.052,0.00323513592593372,0.0103506203740835,0.0018497094279155103,0,
00:00:02.056,0.00011189851647941398,0.00474430155009031,0.00114037981256843,0,
00:00:02.06,0.00202558864839375,-0.0013227855088189199,0.000111521265353076,0,
00:00:02.064,0.000322667823638767,-0.0043639075011014895,-0.000521002919413149,0,
00:00:02.068,0.00281913974322379,-0.0041535645723342896,-0.000623910222202539,0,
00:00:02.072,-0.00570408627390862,-5.47116906091105e-05,-0.000381346239009872,0,
00:00:02.076,-0.00443605659529567,0.000146034071804024,-5.43775167898275e-05,0,
00:00:02.08,-0.000569332740269601,-0.0022753702942282,0.000171405117725953,0,
00:00:02.084,0.00216971570625901,0.0018016550457105,0.000235033498029225,0,
00:00:02.088,0.00277319364249706,-0.00445196684449911,0.000173418753547594,0,
00:00:02.092,-0.000252661091508344,0.000293239689199254,6.362347630783921e-05,0,
00:00:02.096,0.00445058476179838,0.0146611100062728,-2.7745309125748497e-05,0,
00:00:02.1,-0.00098862883169204,0.00501322047784925,-0.00214505381882191,0,
00:00:02.104,-0.0024818743113428398,-0.0159178879112005,0.0019114689202979198,0,
00:00:02.108,-0.0038989901077002296,-0.007572995498776441,0.00368452630937099,0,
00:00:02.112,0.00145214959047735,0.00126635248307139,-0.00179943349212408,0,
00:00:02.116,0.00211660610511899,0.0075784479267895204,-0.00246664672158659,0,
00:00:02.12,0.0010129660367965698,0.0052104089409112896,-0.00118305860087276,0,
00:00:02.124,-0.00017373867740389,0.00285472092218697,0.00022653354972135297,0,
00:00:02.128,-0.000756654539145529,-0.0062890537083149,-0.0011258618906140301,0,
00:00:02.132,-0.0027918489649891897,-0.00675823399797082,0.0029030411969870303,0,
00:00:02.136,-0.000442982476670295,-0.00486446591094136,0.0021258667111396803,0,
00:00:02.14,0.00574120599776506,0.0179439522325993,0.00017286532965954399,0,
00:00:02.144,0.0021881994325667602,0.0142707023769617,-0.00321736466139555,0,
00:00:02.148,-0.0019191894680261601,-0.0129604442045093,0.0026753940619528302,0,
00:00:02.152,-0.00756253115832806,-0.0236206036061049,-0.0011933983769267802,0,
00:00:02.156,-0.000621286802925169,-0.00533197028562427,-0.0016090922290459301,0,
00:00:02.16,0.00048722710926085705,0.00603170460090041,-0.0006568521494045849,0,
00:00:02.164,0.0068567036651074895,0.0157794952392578,0.000332050112774596,0,
00:00:02.168,-0.000872869917657226,0.0056215017102658705,0.000788079982157797,0,
00:00:02.172,-0.00565040484070778,-0.00174692703876644,0.000700673030223697,0,
00:00:02.176,0.0119404206052423,0.0100749311968684,-0.00174569536466151,0,
00:00:02.18,0.0021429688204079897,0.00334195839241147,-0.000141902593895793,0,
00:00:02.184,-0.009453532285988329,-0.0179688837379217,0.00544476415961981,0,
00:00:02.188,-0.00699740648269653,-0.0203190185129642,0.00165309524163604,0,
00:00:02.192,-0.0030449898913502698,-0.00308677484281361,-0.00444727297872305,0,
00:00:02.196,0.00519871152937412,0.014524919912219,-0.00372397224418819,0,
00:00:02.2,0.0057996911928057705,0.0156783536076546,-0.00301232445053756,0,
00:00:02.204,0.000844046648126096,-0.000603263208176941,0.00321826315484941,0,
00:00:02.208,0.0017431394662708,0.000341479346388951,0.0035848256666213296,0,
00:00:02.212,-0.00035791427944786803,-0.00236517423763871,0.00162498012650758,0,
00:00:02.216,-0.00197115098126233,-0.0059345168992877,-0.000359116733307019,0,
00:00:02.22,-0.00212573679164052,0.000849654141347855,-0.0013473501894623,0,
00:00:02.224,0.000842284469399601,0.00662340316921473,-0.00129909219685942,0,
00:00:02.228,-0.00208203378133476,-0.00893573090434074,-0.0006744895363226531,0,
00:00:02.232,-0.000992494635283947,-0.0103745125234127,4.09644781029783e-06,0,
00:00:02.236,0.000664814957417548,0.00235291523858905,0.000411614630138502,0,
00:00:02.24,-0.000625993241555989,0.007760361302644009,0.000478922360343859,0,
00:00:02.244,0.00321820797398686,0.00254616886377335,0.000314938719384372,0,
00:00:02.248,9.285723353968929e-05,0.00243289559148252,-0.00199120910838246,0,
00:00:02.252,0.00406451290473342,0.0164351183921099,0.0018890337087214,0,
00:00:02.256,0.0024520717561245,0.0114730577915907,0.00356866396032274,0,
00:00:02.26,-0.0090416120365262,-0.0321854390203953,-0.00192019494716078,0,
00:00:02.264,-0.0032627335749566603,-0.0247015617787838,-0.00253843306563795,0,
00:00:02.268,0.000973825983237475,-0.00111331942025572,-0.00327116972766817,0,
00:00:02.272,0.00268240668810904,0.0185962896794081,0.0022295804228633603,0,
00:00:02.276,0.0023387623950839,0.0146748526021838,0.0026311962865293,0,
00:00:02.28,-0.00103388994466513,0.008570029400289059,0.00113386858720332,0,
00:00:02.284,0.00177261442877352,-0.00307916500605643,-0.000348226283676922,0,
00:00:02.288,0.0007845984655432401,-0.0089065246284008,-0.00103648728691041,0,
00:00:02.292,-0.000698755204211921,-0.007799779530614609,-0.0009410707862116401,0,
00:00:02.296,-0.0013532810844481,0.00934379082173109,-0.000440472125774249,0,
00:00:02.3,0.00097116525284946,0.0124114835634828,6.58553835819475e-05,0,
00:00:02.304,-0.0023956065997481303,-0.0112461419776082,0.000346307060681283,0,
00:00:02.308,-0.00143533607479185,-0.0188757795840502,-0.0017084201099351,0,
00:00:02.312,0.00033435865771025403,-0.00531966518610716,0.0042753070592880206,0,
00:00:02.316,0.0013261777348816401,0.009283022955060009,-0.000288325740257278,0,
00:00:02.32,0.00129310984630138,0.007221594918519259,-0.0036198031157255203,0,
00:00:02.324,0.000656886084470898,0.0105490572750568,0.00083794497186318,0,
00:00:02.328,-0.00211822311393917,0.00174145272467285,0.0013674311339855198,0,
00:00:02.332,-0.0005600922158919269,-0.007282290607690809,0.000539192114956677,0,
00:00:02.336,0.00309771951287985,-0.00459399074316025,0.00179404322989285,0,
00:00:02.34,0.00148148136213422,0.00605136668309569,-0.0025859153829515,0,
00:00:02.344,0.00132157397456467,0.0170052442699671,-0.00420783879235387,0,
00:00:02.348,-0.00167549250181764,-0.00593258626759052,0.00162767653819174,0,
00:00:02.352,-0.0051148664206266395,-0.0256778486073017,0.00259715737774968,0,
00:00:02.356,-0.0024008390028029698,-0.0146326282992959,0.0014460863312706401,0,
00:00:02.36,-0.00113393692299724,0.00213541672565043,6.3992688410508e-06,0,
00:00:02.364,0.0045449743047356606,0.0161657333374023,-0.000832486664876342,0,
00:00:02.368,0.00189026806037873,0.0148856118321419,-0.00300334743224084,0,
00:00:02.372,0.00115739367902279,0.00223968620412052,0.00142314552795142,0,
00:00:02.376,0.00674637826159596,0.0019938587211072397,0.00156713323667645,0,
00:00:02.38,-0.0040381271392107,0.007401792798191309,0.00250022206455469,0,
00:00:02.384,-0.005509924143552779,-0.007400213275104759,-0.00040743232239037796,0,
00:00:02.388,-0.0028744661249220397,-0.02129858545959,-0.00647644884884357,0,
00:00:02.392,0.000212097264011391,-0.00993894506245852,-0.000387110194424167,0,
00:00:02.396,0.00402494799345732,0.007952091284096241,0.0021841344423592104,0,
00:00:02.4,-0.00197262084111571,0.00644934922456741,0.0022489423863589803,0,
00:00:02.404,0.0015453462256118699,0.00812321156263351,0.0011339472839608802,0,
00:00:02.408,0.00161685631610453,0.00191312900278717,-0.00213514850474894,0,
00:00:02.412,0.000468078098492697,0.0033356207422912103,-0.0008385017281398179,0,
00:00:02.416,-0.000550197146367282,-0.00779047328978777,0.00488178711384535,0,
00:00:02.42,-0.0030032999347895397,-0.0112953279167414,0.0014211046509444698,0,
00:00:02.424,0.0012420748826116302,0.0101753305643797,-0.00437936233356595,0,
00:00:02.428,0.00135622196830809,0.0185056161135435,-0.0055821337737143,0,
00:00:02.432,0.0023645507171750103,0.0009750719764269891,0.00125208345707506,0,
00:00:02.436,-0.00251435046084225,-0.0226370859891176,0.0030047961045056603,0,
00:00:02.44,-0.00445621414110065,-0.020495468750596,0.0021337121725082397,0,
00:00:02.444,0.00340167921967804,0.00633906945586205,0.000551234465092421,0,
00:00:02.448,-0.00163377996068448,0.0121348202228546,-0.000614497112110257,0,
00:00:02.452,0.0017630400834605102,0.0105049889534712,-0.00307594053447247,0,
00:00:02.456,0.00156576279550791,0.00267586926929653,0.00120870990213007,0,
00:00:02.46,-0.0017661118181422398,0.0051722340285778,0.0013604047708213301,0,
00:00:02.464,0.00339623633772135,-0.000166676138178445,0.00031042008777149,0,
00:00:02.468,0.00082369038136676,-0.009157163091003891,0.00155685388017446,0,
00:00:02.472,-0.00615595374256372,-0.00852856412529945,-0.00478052394464612,0,
00:00:02.476,0.00121770740952343,-0.00556739280000329,-0.00014136738900560902,0,
00:00:02.48,-0.00050089624710381,-0.000763635616749525,0.0013892736751586199,0,
00:00:02.484,0.00010920120257651401,0.00529822893440723,0.00123644853010774,0,
00:00:02.488,0.0008338543120771651,0.00902621634304523,0.0004928819253109401,0,
00:00:02.492,0.0009546679793857039,0.004715112503618,-0.000162017691764049,0,
00:00:02.496,-0.00150462216697633,-0.000644060026388615,-0.000455152825452387,0,
00:00:02.5,0.00202504708431661,-0.0057144984602928205,-0.000411096785683185,0,
00:00:02.504,-0.000746664183679968,-0.0100943958386779,-0.000195466811419465,0,
00:00:02.508,-0.00033481401624158,-0.0008983557927422231,-0.00205381633713841,0,
00:00:02.512,0.00454775197431445,0.0227439850568771,0.00211859703995287,0,
00:00:02.516,0.00285402871668339,0.0099607752636075,0.0017962660640478102,0,
00:00:02.52,-0.00684501742944121,-0.0146322781220078,0.000271991535555571,0,
00:00:02.524,-0.005296477582305671,-0.0179495196789503,-0.000823067908640951,0,
00:00:02.528,-0.000759527552872896,-0.0112467603757977,0.00101535383146256,0,
00:00:02.532,0.00246752798557281,0.00141239888034761,-0.00473107630386949,0,
00:00:02.536,0.00113475986290723,0.0156411994248629,0.00228946539573371,0,
00:00:02.54,0.00411027763038874,0.0126228099688888,-0.000224265808355995,0,
00:00:02.544,0.00213285605423152,0.00171064189635217,-0.00228423601947725,0,
00:00:02.548,-0.000562583503779024,-0.00561634637415409,0.00229995278641582,0,
00:00:02.552,-0.00408981740474701,-0.0047624036669731105,0.00221399241127074,0,
00:00:02.556,0.00208930438384414,0.00441667670384049,-0.00145863543730229,0,
00:00:02.56,0.000712344539351761,0.00904715340584517,0.00333792367018759,0,
00:00:02.564,-0.00343906390480697,-0.0133469589054585,-0.00150134263094515,0,
00:00:02.568,-0.004107462242245671,-0.00878316257148981,-0.00235279812477529,0,
00:00:02.572,0.00235411967150867,-0.0055939033627510105,-0.00132628937717527,0,
00:00:02.576,0.00337522919289768,0.00138676865026355,2.3348748072749e-06,0,
00:00:02.58,0.0018928141798824102,0.0121802212670445,0.000804297917056829,0,
00:00:02.584,0.0021193930879235302,0.0108723323792219,0.0009152957936748859,0,
00:00:02.588,-0.00304122129455209,-0.00456819217652082,-0.00150576350279152,0,
00:00:02.592,-0.00494496989995241,-0.00965538900345564,0.0020861702505499103,0,
00:00:02.596,-0.0010431429836899,-0.00030980995506979503,0.0014295082073658698,0,
00:00:02.6,0.004312149714678529,0.0225214324891567,0.0019387825159356,0,
00:00:02.604,0.0072855604812502904,0.00238613318651915,-0.005133992526680229,0,
00:00:02.608,-0.00148651038762182,-0.0210324302315712,-0.000788790581282228,0,
00:00:02.612,-0.008800481446087359,-0.0194361042231321,0.000865581911057234,0,
00:00:02.616,-0.00185322179459035,-0.00217422330752015,0.00102927535772324,0,
00:00:02.62,0.00198687822557986,0.0104210898280144,0.0005730125703848901,0,
00:00:02.624,0.000793044455349445,0.0087613807991147,5.918585884501229e-05,0,
00:00:02.628,0.0039012231864035104,0.009990414604544641,-0.000242764523136429,0,
00:00:02.632,0.00417771516367793,0.0127679128199816,-0.000293473072815686,0,
00:00:02.636,-0.00242029037326574,-0.00129393639508635,-0.000183173833647743,0,
00:00:02.64,-0.00347678223624825,-0.0132757173851132,-3.2440198992844705e-05,0,
00:00:02.644,-0.0019848516676574898,-0.0119846183806658,7.32589396648109e-05,0,
00:00:02.648,-0.00010612875485094301,-0.00901926215738058,0.000105133345641661,0,
00:00:02.652,0.00103660963941365,0.0037599210627377,-0.00199661473743618,0,
00:00:02.656,0.0012236502952873698,0.00838114321231842,0.00200544367544353,0,
00:00:02.66,0.0007756336126476531,0.004764033947139979,0.0037063313648104702,0,
00:00:02.664,-0.0019156177295371899,-0.0015480708098039,-0.00182920217048377,0,
00:00:02.668,0.00169577891938388,-0.00173119734972715,-0.00458958232775331,0,
00:00:02.672,-0.000855581893119961,0.0143836550414562,0.00075518514495343,0,
00:00:02.676,0.00390207697637379,0.0121312793344259,-0.00022246886510402002,0,
00:00:02.68,0.000768989033531398,-0.0173231270164251,0.00518210465088487,0,
00:00:02.684,-0.006504339631646871,-0.0172845907509327,0.0018410838674753898,0,
00:00:02.688,-0.0011950653279200198,-0.0083569148555398,-0.006046571303159001,0,
00:00:02.692,0.00131637393496931,-0.00251129316166043,-0.00131376786157489,0,
00:00:02.696,0.00178277119994164,0.0156107321381569,0.000900408020243049,0,
00:00:02.7,0.00114877009764314,0.0136574534699321,0.0013663354329764802,0,
00:00:02.704,0.000257003121078014,0.0025113036390394,-0.00116707175038755,0,
00:00:02.708,-0.000367773958714679,-0.0033132501412183,0.00219773198477924,0,
00:00:02.712,-0.000562603876460344,-0.000705842045135796,0.0013744889292866,0,
00:00:02.716,-0.00250103557482362,-0.00555592495948076,0.00182622112333775,0,
00:00:02.72,0.00181882351171225,-0.0109280496835709,-0.00314475758932531,0,
00:00:02.724,-0.000362854218110442,0.00018655206076800802,-0.00486759794875979,0,
00:00:02.728,0.00440292153507471,0.0162550266832113,0.00122068147175014,0,
00:00:02.732,0.0010607814183458699,0.0106037333607674,0.00253710779361427,0,
00:00:02.736,-0.00230819499120116,-0.0128600047901273,0.00370582588948309,0,
00:00:02.74,-0.00526480423286557,-0.0165719166398048,-0.00378885492682457,0,
00:00:02.744,-0.00213142018765211,-0.00410414580255747,-0.000307334528770298,0,
00:00:02.748,-0.000766617944464087,0.008580738678574559,0.00268687517382205,0,
00:00:02.752,0.00476717390120029,0.00763524230569601,-0.0036100517027080102,0,
00:00:02.756,0.00397522654384375,0.0050344048067927395,0.000369667890481651,0,
00:00:02.76,0.00111933564767241,0.00142853963188827,0.0012458364944905,0,
00:00:02.764,-0.00327347777783871,-0.0035776598379015897,0.0028442176990211,0,
00:00:02.768,-5.69801159144845e-05,-0.000798478838987648,-0.00400698557496071,0,
00:00:02.772,0.00211311923339963,0.0116358362138271,-6.55347321298905e-05,0,
00:00:02.776,-0.00242680683732033,-0.00674291979521513,0.00100402522366494,0,
00:00:02.78,-0.00224916194565594,-0.0146387349814177,0.000743366603273898,0,
00:00:02.784,-0.000552401528693736,-0.0125089697539806,0.000149874802445993,0,
00:00:02.788,-0.00124193006195128,0.00490885600447655,-0.000267900002654642,0,
00:00:02.792,0.00533629115670919,0.020452318713069,-0.000375373259885237,0,
00:00:02.796,-0.0014483082341030199,0.0083872489631176,-0.000256117316894233,0,
00:00:02.8,-0.00123932783026248,-0.0108487568795681,-6.26236578682438e-05,0,
00:00:02.804,0.00654348684474826,-0.00363172218203545,8.50054420880042e-05,0,
00:00:02.808,-0.00275591830722988,0.00395654747262597,-0.00193728308659047,0,
00:00:02.812,-0.00394543632864952,0.00312470574863255,0.00208718376234174,0,
00:00:02.816,-0.00187447923235595,-0.0064510740339756,0.00376663520000875,0,
00:00:02.82,0.000408982567023486,0.00121084204874933,-0.00180714973248541,0,
00:00:02.824,0.00156598095782101,-0.0044721267186105295,-0.00459933280944824,0,
00:00:02.828,0.00150735955685377,-0.008546716533601279,0.000731016276404262,0,
00:00:02.832,0.000770303595345467,0.00498122069984674,0.00390685675665736,0,
00:00:02.836,-0.00210269633680582,0.00567987374961376,-0.000855885096825659,0,
00:00:02.84,0.00147466233465821,0.0025892229750752397,-0.0036196040455251897,0,
00:00:02.844,0.00107029324863106,-0.0022101947106421,0.00334993842989206,0,
00:00:02.848,-0.00227029668167233,0.0090225450694561,-0.00011028387234546201,0,
00:00:02.852,0.005187904462218279,0.0155273033306003,-0.0028878536541014897,0,
00:00:02.856,-0.00323048676364124,-0.0117911985144019,0.00153697223868221,0,
00:00:02.86,-0.00355916959233582,-0.0163394398987293,0.00171238149050623,0,
00:00:02.864,0.000941677542869002,-0.0173979178071022,0.000507589837070554,0,
00:00:02.868,-0.00302977371029556,0.0018674077000469,-0.000531231868080795,0,
00:00:02.872,0.0021546941716224,0.0121817858889699,-0.000885598361492157,0,
00:00:02.876,0.0028962192591279697,0.0142040681093931,-0.00066396890906617,0,
00:00:02.88,0.00154527917038649,0.00418406678363681,-0.000211485152249224,0,
00:00:02.884,-0.0021597715094685602,-0.0020772723946720396,0.000166708749020472,0,
00:00:02.888,-0.0011361922370269901,-0.0107546234503388,0.000328096066368744,0,
00:00:02.892,0.00455395830795169,0.0039573521353304395,0.000286985974526033,0,
00:00:02.896,0.00122443307191133,0.0174345131963491,0.00014186615590006102,0,
00:00:02.9,-0.00440811505541205,-0.00877805799245834,-0.00207898556254804,0,
00:00:02.904,-0.00342033081687987,-0.0248212013393641,0.00396459456533194,0,
00:00:02.908,-0.000604787899646908,-0.00702550960704684,-0.00250714691355824,0,
00:00:02.912,0.0014503519050777,0.0076297628693282596,0.000447536382125691,0,
00:00:02.916,0.0019890433177352,0.0144546115770936,0.000607058580499142,0,
00:00:02.92,-0.000695489579811692,0.00710045918822289,1.12569205157342e-05,0,
00:00:02.924,0.000277983112027869,-0.0051827961578965204,-0.00041470001451671096,0,
00:00:02.928,0.00321568595245481,0.00114169623702765,-0.000454147229902446,0,
00:00:02.932,0.00319313257932663,0.0113849760964513,-0.000237614411162212,0,
00:00:02.936,-0.0011485000140965,0.00584904756397009,2.37534768530168e-05,0,
00:00:02.94,-0.00575417187064886,-0.0177906434983015,0.00018555637507233799,0,
00:00:02.944,-0.00344497477635741,-0.021850997582077997,0.00021022732835263,0,
00:00:02.948,0.000146395686897449,-0.00476401532068849,0.000138748451718129,0,
00:00:02.952,0.000217942622839473,0.00956861395388842,3.90768109355122e-05,0,
00:00:02.956,0.0044663702137768295,0.0136201847344637,-3.54440926457755e-05,0,
00:00:02.96,0.005164110101759429,0.0115017620846629,-6.36951517662965e-05,0,
00:00:02.964,-0.0037240504752844602,0.00036154501140117596,-5.28876444150228e-05,0,
00:00:02.968,-0.0012188625987619198,-0.00897043757140636,-2.39005075854948e-05,0,
00:00:02.972,-0.00256423722021282,-0.00145606545265764,3.27969519275939e-06,0,
00:00:02.976,0.0017015727935358901,0.0102315749973059,-0.00205803639255464,0,
00:00:02.98,0.00566918822005391,0.00204317015595734,0.00199389178305864,0,
00:00:02.984,-0.00374595727771521,-0.0187687613070011,-0.000422666722442955,0,
00:00:02.988,-0.00399091094732285,-0.0174053497612476,0.0042300685308873705,0,
00:00:02.992,-0.0032913163304328897,0.0053937025368213706,0.0008955173543654381,0,
00:00:02.996,0.00315831764601171,0.0136204222217202,-0.00447399541735649,0,
00:00:03,0.0036746633704751704,0.00889458227902651,-0.00329686887562275,0,
00:00:03.004,-0.000339513935614377,0.0079490365460515,-0.00044525880366563797,0,
00:00:03.008,0.00374431582167745,0.0036204298958182296,0.0015415046364069,0,
00:00:03.012,-0.0037759956903755704,-0.0186646617949009,-8.856153726810591e-05,0,
00:00:03.016,-0.00292581017129123,-0.006639777217060329,0.00329255545511842,0,
00:00:03.02,0.00601155031472445,0.0184098966419697,0.0019449928076937801,0,
00:00:03.024,-0.00027525899349711803,0.00164658832363784,-0.000276568694971502,0,
00:00:03.028,-0.005124752409756179,-0.0145896542817354,-0.00156089290976524,0,
00:00:03.032,-0.00282581895589828,-0.0114117283374071,-0.00159967073705047,0,
00:00:03.036,-0.00150823651347309,-0.0038679211866110602,-0.000874443911015987,0,
00:00:03.04,0.0043688639998436,0.00976569391787052,-2.98420927720144e-05,0,
00:00:03.044,0.00396346487104893,0.0118169449269772,0.000503302959259599,0,
00:00:03.048,0.0013400117168203,0.008847302757203579,-0.00146340823266655,0,
00:00:03.052,-0.00093800004106015,-0.00171844789292663,0.0044703036546707205,0,
00:00:03.056,-0.00186353048775345,-0.00562745938077569,-0.0022804939653724397,0,
00:00:03.06,-0.0036388647276908203,-0.00922316685318947,0.00041446150862611803,0,
00:00:03.064,0.0012953489786014,0.0014169632922858,0.0025122696533799197,0,
00:00:03.068,0.00386925134807825,0.0157127361744642,-0.00214179139584303,0,
00:00:03.072,-0.0012133624404668801,0.00026701999013312204,-0.00216236896812916,0,
00:00:03.076,-0.0018917366396635801,-0.0198419895023108,-0.000649321300443262,0,
00:00:03.08,-0.000859165447764099,-0.0103463204577565,0.0006459131254814571,0,
00:00:03.084,0.000265374168520793,0.00311230635270476,0.00110910448711365,0,
00:00:03.088,-0.00127018429338932,0.00779482908546925,-0.00121684232726693,0,
00:00:03.092,0.00271359831094742,0.0109794605523348,0.000207144883461297,0,
00:00:03.096,0.0019913634750992103,0.00362835079431534,0.00759979104623199,0,
00:00:03.1,0.00220400490798056,0.0012027581688016699,-0.00251853582449257,0,
00:00:03.104,-0.00308984541334212,0.00542120030149817,-0.0043033706024289105,0,
00:00:03.108,-0.0008846151758916679,-9.617891919333492e-05,-0.00240885559469461,0,
00:00:03.112,-0.00296205026097596,-0.0180215202271938,2.02497249119915e-05,0,
00:00:03.116,-0.0029944616835564397,-0.0160484295338392,0.00144258828368038,0,
00:00:03.12,0.0031878964509815,-0.00254664407111704,0.00159958098083735,0,
00:00:03.124,0.00361674837768078,0.012328919954597999,-0.0011231009848415901,0,
00:00:03.128,0.00165994523558766,0.0156094655394554,0.0021067727357149102,0,
00:00:03.132,-0.00037240132223814704,0.00316045433282852,0.00121828925330192,0,
00:00:03.136,-0.0034857643768191303,0.00223701307550073,0.0016774806426838,0,
00:00:03.14,0.00267133302986622,0.00312405684962869,-0.00323871057480574,0,
00:00:03.144,-0.00107266835402697,-0.007682295516133309,-0.00282056210562587,0,
00:00:03.148,-0.00149251508992165,-0.0160045027732849,-0.00281207147054374,0,
00:00:03.152,-0.0006082495092414321,-0.00610568607226014,0.00290698907338083,0,
00:00:03.156,0.000311896146740764,0.00639613438397646,0.00312611041590571,0,
00:00:03.16,0.000732597894966602,0.00660888245329261,0.0012963741319254,0,
00:00:03.164,0.00064682075753808,0.00531478319317102,-0.00045729891280643604,0,
00:00:03.168,0.000299790815915912,0.0024474435485899396,-0.0012611726997420198,0,
00:00:03.172,-0.00212085200473666,0.00162922590970993,-0.00113844673614949,0,
00:00:03.176,0.00381625629961491,-0.00203369138762355,-0.000537695130333304,0,
00:00:03.18,-0.000581929867621511,-0.00179980497341603,6.878828571643679e-05,0,
00:00:03.184,-0.0036923252046108202,-0.0010643773712217801,0.00040653059841133703,0,
00:00:03.188,0.00507683679461479,-0.00274696946144104,-0.0016405407804995801,0,
00:00:03.192,-0.00244003324769437,-0.00688274530693889,0.00431852880865335,0,
00:00:03.196,-0.00470631243661046,-0.00340772466734052,-0.000278074090601876,0,
00:00:03.2,0.00138794025406241,0.00368699547834694,-0.0015574480639770599,0,
00:00:03.204,0.00270602782256901,0.00257776933722198,-0.0032346583902835803,0,
00:00:03.208,-0.000374376541003585,0.00503273867070675,0.00168372422922403,0,
00:00:03.212,0.00218225596472621,0.0130464835092425,0.00199714745394886,0,
00:00:03.216,0.0029426235705614103,0.0106834499165416,0.000739827170036733,0,
00:00:03.22,-0.00279241148382425,-0.0172285474836826,0.00165627605747432,0,
00:00:03.224,-0.0031555213499814302,-0.0142854228615761,-0.0028563013765960897,0,
00:00:03.228,-0.0013814453268423698,-0.007495945785194641,-0.00235811481252313,0,
00:00:03.232,0.000409667351050302,-0.00808264035731554,-0.000446919613750651,0,
00:00:03.236,-0.000793592829722911,0.017401585355401,0.000974690017756075,0,
00:00:03.24,0.00318185216747224,0.0195626616477966,0.0013507168041542198,0,
00:00:03.244,0.00225442810915411,0.00476073659956455,-0.00114331825170666,0,
00:00:03.248,0.00223434530198574,-0.0115983374416828,0.00221912888810039,0,
00:00:03.252,-0.00320858228951693,-0.0112079568207264,0.00135256710927933,0,
00:00:03.256,-0.0031153233721852303,-0.00252348533831537,-0.000313229713356122,0,
00:00:03.26,-0.00109629507642239,-0.004607240203768011,-0.00124586862511933,0,
00:00:03.264,-0.00138841092120856,0.0024984537158161397,-0.00120904308278114,0,
00:00:03.268,-0.0007641387637704611,0.00687742605805397,-0.000605165085289627,0,
00:00:03.272,0.0109232403337955,0.014516593888402,5.36098013981245e-05,0,
00:00:03.276,0.00415848474949598,0.0051000895909965,0.000442451710114256,0,
00:00:03.28,-0.00993933621793985,-0.0133130634203553,-0.0015824997099116401,0,
00:00:03.284,-0.00484086107462645,-0.0116804847493768,0.00436826935037971,0,
00:00:03.288,-0.000173383523360826,-0.0035548186860978603,-0.000252980680670589,0,
00:00:03.292,0.00231192423962057,0.00106724072247744,-0.0015569742536172301,0,
00:00:03.296,0.00257620471529663,0.00549869937822223,-0.00117284851148725,0,
00:00:03.3,-0.000554978381842375,0.00597876170650125,-0.000308003189275041,0,
00:00:03.304,0.00010170131281483901,0.00134681316558272,0.000344297208357602,0,
00:00:03.308,0.00294176582247019,0.00421219458803535,0.000559872365556657,0,
00:00:03.312,0.00298933289013803,0.008025867864489559,0.000426165614044294,0,
00:00:03.316,-0.00121789262630045,-0.0118090994656086,0.00015174059080891298,0,
00:00:03.32,-0.005712072830647229,-0.008868049830198291,-0.00215713190846145,0,
00:00:03.324,-0.00335432472638786,-0.007296582683920859,-0.00028684732387773703,0,
00:00:03.328,-0.00184869300574064,0.0035446793772280203,0.00552378874272108,0,
00:00:03.332,0.00430945213884115,0.00493705971166492,0.00183228473179042,0,
00:00:03.336,0.00413262890651822,0.007346240803599359,-0.00428500026464462,0,
00:00:03.34,-0.000476622575661168,0.00138619577046484,-0.00364068406634033,0,
00:00:03.344,0.00333071686327457,0.0010085821850225301,-0.0030107898637652397,0,
00:00:03.348,-0.00208815676160157,0.0025349969509989,0.00317138037644327,0,
00:00:03.352,-0.000950052926782519,-0.00485078059136868,0.00352976494468749,0,
00:00:03.356,-0.00165863812435418,-0.00569549622014165,0.00366455502808094,0,
00:00:03.36,-0.00579598126932979,-0.00503341574221849,-0.00441985623911023,0,
00:00:03.364,0.00109290762338787,-0.00187401555012912,-0.00100403768010437,0,
00:00:03.368,0.0034378608688712103,0.00161411939188838,0.00225891591981053,0,
00:00:03.372,0.000712598382961005,0.00979687087237835,-0.0036917896941304203,0,
00:00:03.376,0.00297357351519167,0.00798837840557098,0.0005284074577502911,0,
00:00:03.38,0.00109726493246853,-0.00432221917435527,0.0035542119294405,0,
00:00:03.384,-0.00104840763378888,-0.0057346778921783,-0.00103040307294577,0,
00:00:03.388,-0.0019356725970283198,0.00117408391088247,-0.0036056251265108603,0,
00:00:03.392,0.000508682045619935,-0.00184565677773207,0.00137497403193265,0,
00:00:03.396,-0.004660848993808029,-0.00570937432348728,0.00195568916387856,0,
00:00:03.4,0.000594043871387839,0.0037569468840956705,0.000863895169459283,0,
00:00:03.404,0.00215090601705015,0.00623353617265821,-0.00028173587634228197,0,
00:00:03.408,0.00167376501485705,-0.000450732448371127,-0.00081906421110034,0,
00:00:03.412,0.0005455716163851321,-0.0024853763170540302,-0.0007404503412544731,0,
00:00:03.416,-0.000360439473297447,0.00012177123426226899,-0.000342393759638071,0,
00:00:03.42,0.00135901954490691,0.00157767871860415,5.8623714721761596e-05,0,
00:00:03.424,-0.004648984409868721,-0.00718099297955632,0.000279197440249845,0,
00:00:03.428,7.48368984204717e-05,-0.0005864615086466071,-0.0017822453519329398,0,
00:00:03.432,0.0035992031916976,0.0049398299306631106,0.00215333187952638,0,
00:00:03.436,-0.000733311695512384,0.00122085306793451,0.0037525643128901703,0,
00:00:03.44,-0.00123299658298492,-0.0019590316805988602,-0.0018620670307427601,0,
00:00:03.444,-0.00252031488344073,-0.00024329418374691202,-0.00465456815436482,0,
00:00:03.448,0.00228793709538877,0.00549029838293791,0.000699298630934209,0,
00:00:03.452,0.0022329562343657,-0.00245387200266123,0.0018267211271449897,0,
00:00:03.456,0.000626232998911291,-0.00261616916395724,0.0032087259460240602,0,
00:00:03.46,-0.000707803876139224,0.00348842516541481,-0.00185895443428308,0,
00:00:03.464,-0.00115737179294229,-0.00105777801945806,-0.0021531032398343104,0,
00:00:03.468,-0.000871179043315351,-0.00408820761367679,-0.00286807864904404,0,
00:00:03.472,-0.00028916492010466803,-0.00335208070464432,0.00244088913314044,0,
00:00:03.476,0.000199831265490502,0.009755110368132591,0.00261506601236761,0,
00:00:03.48,0.00041267136111855496,0.00026306693325750497,0.000976296025328338,0,
00:00:03.484,0.000365730869816616,-0.00290618347935379,-0.000529031443875283,0,
00:00:03.488,0.000183542491868138,-0.00459067104384303,-0.00115707912482321,0,
00:00:03.492,-1.0536805348238002e-06,-0.000978106399998069,-0.000976253184489906,0,
00:00:03.496,-0.000108382679172792,0.0103702694177628,-0.0024869351182133,0,
00:00:03.5,0.00195116153918207,0.00530417496338487,0.0020954816136509197,0,
00:00:03.504,-0.00413174647837877,-0.0146229164674878,0.0041097216308116895,0,
00:00:03.508,0.00031294545624405097,-0.008646172471344471,-0.00140997872222215,0,
00:00:03.512,0.00148864660877734,0.00162723800167441,-0.00226301024667919,0,
00:00:03.516,0.0010589634766802198,0.00711760995909572,-0.0032505441922694397,0,
00:00:03.52,0.000216339947655797,0.00881887786090374,0.00209252699278295,0,
00:00:03.524,-0.00038366642547771297,0.00529140420258045,0.00453656492754817,0,
00:00:03.528,-0.00055180280469358,-0.00627611111849546,-0.000958230462856591,0,
00:00:03.532,-0.00039385081618093,-0.004183915909379721,-0.004101344384253029,0,
00:00:03.536,-0.000119143303891178,-0.000259470602031797,0.000789286335930228,0,
00:00:03.54,0.00010010511323344,-0.00466041779145598,0.00367187219671905,0,
00:00:03.544,-0.00188679166603833,-0.0011368087725713801,-0.0011666873469948801,0,
00:00:03.548,0.00421249307692051,0.00660277903079987,-0.0038434413727372898,0,
00:00:03.552,-0.0023325283546000697,-0.00252393214032054,0.00119654787704349,0,
00:00:03.556,0.0005045267171226441,0.00107530748937279,0.0019060808699578,0,
00:00:03.56,0.0026466255076229603,0.008015612140297891,0.0009227695409208539,0,
00:00:03.564,-0.00203922344371676,0.00121546979062259,-0.000178062036866322,0,
00:00:03.568,-0.00419818190857768,-0.0110995611175895,0.00134532665833831,0,
00:00:03.572,0.00338800763711333,-0.00431432295590639,-0.00474838959053159,0,
00:00:03.576,0.00234914990141988,0.0031979870982468102,-1.05355329651502e-05,0,
00:00:03.58,-0.00444429647177458,-0.000575335812754929,0.00149690068792552,0,
00:00:03.584,0.000152326349052601,-0.0027552833780646302,0.0012689442373812199,0,
00:00:03.588,-0.000489499361719936,0.0026376429013907896,-0.00161642348393798,0,
00:00:03.592,0.0032331459224224104,0.0179094187915325,0.0017517652595415698,0,
00:00:03.596,0.00615294789895415,0.0110654877498746,0.00320961303077638,0,
00:00:03.6,-0.00413305684924126,-0.0182711072266102,-0.0022352309897542,0,
00:00:03.604,-0.00474966457113624,-0.0213074050843716,-0.0026792127173394,0,
00:00:03.608,-0.0018799741519615102,-0.00784632097929716,-0.00116639316547662,0,
00:00:03.612,-0.00122293923050165,0.00949393212795258,-0.00170205684844404,0,
00:00:03.616,0.00401270342990756,0.013405411504209,0.00308711524121463,0,
00:00:03.62,0.0033991257660090897,0.0066402880474925,0.00267128343693912,0,
00:00:03.624,0.0009386723395437,0.0056767994537949605,0.0006836531101726,0,
00:00:03.628,-0.00103695236612111,0.000333983247401193,-0.000879929633811116,0,
00:00:03.632,-0.00172170496080071,-0.00634092558175325,-0.00137798034120351,0,
00:00:03.636,0.0007457478204742071,-0.00588492909446359,-0.00101884524337947,0,
00:00:03.64,-0.00246370048262179,-0.00708957621827722,0.00174821098335087,0,
00:00:03.644,-0.0014033839106559801,-0.00661306828260422,-0.00173213600646704,0,
00:00:03.648,-0.00167841790243983,0.00196901778690517,-0.00323210097849369,0,
00:00:03.652,0.00334811094217002,0.007289384491741659,0.0022231966722756603,0,
00:00:03.656,0.00294855842366815,0.00706426147371531,0.0026939841918647302,0,
00:00:03.66,-0.00125515356194228,0.001380585716106,0.00119863566942513,0,
00:00:03.664,-0.0010093918535858401,-0.00266286660917103,-0.00034133886219933597,0,
00:00:03.668,0.0041860593482852,0.00694904429838061,-0.00316747813485563,0,
00:00:03.672,0.0028360963333398104,0.00890991650521755,0.000950881571043283,0,
00:00:03.676,-0.00667644804343581,-0.00511607155203819,0.00320512289181352,0,
00:00:03.68,-0.00511232763528824,-0.0252535957843065,0.000304843590129167,0,
00:00:03.684,-0.000659187149722129,-0.0134166330099106,-0.00411760620772839,0,
00:00:03.688,0.0024681568611413197,0.00762552581727505,-0.00453755678609014,0,
00:00:03.692,0.00314891128800809,0.0170933566987515,0.0022570681758225,0,
00:00:03.696,-1.39612175189541e-05,0.007569721899926659,0.0034913131967186897,0,
00:00:03.7,0.00034132887958549,5.98293117946014e-05,0.00206217565573752,0,
00:00:03.704,0.00286371586844325,0.00477848062291741,0.00015742874529678402,0,
00:00:03.708,0.00273601221852005,0.0091984523460269,-0.00311685865744948,0,
00:00:03.712,-0.00147678959183395,-0.0137424282729626,0.0007066224934533241,0,
00:00:03.716,-0.00586845725774765,-0.0164511445909739,0.000812317710369825,0,
00:00:03.72,-0.00338575965724885,-0.005971389822661879,0.00205457489937544,0,
00:00:03.724,-0.0017942716367542698,0.00402805209159851,-0.00255155423656106,0,
00:00:03.728,0.00439055543392897,0.00611086189746857,-0.0022407965734601,0,
00:00:03.732,0.00419452507048845,0.008820033632218841,-0.000465785298729315,0,
00:00:03.736,0.00162329082377255,0.000371141795767471,-0.0011698112357407802,0,
00:00:03.74,-0.00488021830096841,-0.000854501500725746,0.00327168265357614,0,
00:00:03.744,0.00424790428951383,-0.000489015015773475,0.0025595212355256102,0,
00:00:03.748,-0.00027452749782241897,0.00592842092737556,0.00043897953582927595,0,
00:00:03.752,-0.00203940505161881,0.0019480405608192101,-0.00110094889532775,0,
00:00:03.756,0.00029447485576383797,0.00110449187923223,-0.00149183021858335,0,
00:00:03.76,-0.0005663803895004089,-0.0132286502048373,-0.00102171010803431,0,
00:00:03.764,-0.00326209282502532,-0.0200850535184145,-0.000264465808868408,0,
00:00:03.768,-0.00098838412668556,0.00251191458664835,0.000317746540531516,0,
00:00:03.772,-0.0006500206072814759,0.0129596730694175,0.0005349782295525071,0,
00:00:03.776,0.0042384224943816705,0.0141740702092648,0.00043823657324537597,0,
00:00:03.78,0.00330802542157471,0.00354805053211749,0.000195809014257975,0,
00:00:03.784,0.000667206128127873,-0.00695261498913169,-2.9296348657226197e-05,0,
00:00:03.788,-0.0033998459111899103,0.00313783017918468,-0.00222398131154478,0,
00:00:03.792,6.44746905891225e-05,-0.0006153711001388731,0.0018212068825960198,0,
00:00:03.796,0.00440452340990305,-0.0004922687076032161,0.0036263815127313102,0,
00:00:03.8,-0.00422347849234939,-0.00895897019654512,0.000261934765148908,0,
00:00:03.804,-0.005886499769985679,-0.0100364191457629,-0.00650041177868843,0,
00:00:03.808,0.00123443140182644,0.0018651532009244,-0.000821330351755023,0,
00:00:03.812,0.00325832492671907,0.00498157041147351,0.0017142604338005198,0,
00:00:03.816,0.0024268762208521396,0.00839895848184824,0.00197930284775794,0,
00:00:03.82,0.000711071654222906,0.0045830337330699,0.00111043092329055,0,
00:00:03.824,-0.0006263371906243259,-0.00242904364131391,-0.00199717143550515,0,
00:00:03.828,-0.00112280098255724,-0.00542512210085988,0.00141411903314292,0,
00:00:03.832,-0.00298534310422838,-0.00208326731808484,0.000955906056333333,0,
00:00:03.836,0.0015964312478900001,0.00529626058414578,0.0017962396377697602,0,
00:00:03.84,0.0038208763580769296,0.0107607915997505,-0.0029390535783022603,0,
00:00:03.844,-0.0014531807973980901,-0.00523411342874169,-0.0025395643897354603,0,
00:00:03.848,-0.00214436044916511,-0.0136675918474793,-0.000585128727834672,0,
00:00:03.852,0.00106333813164383,-0.00440691411495209,0.0009425954194739461,0,
00:00:03.856,-0.0017399137141183,0.000254407088505104,0.00140844937413931,0,
00:00:03.86,-0.00285738939419389,0.000708657957147807,0.0010255853412672901,0,
00:00:03.864,0.00261741550639272,0.00141044007614255,-0.00175446341745555,0,
00:00:03.868,0.0008196806302294139,0.0085906470194459,0.00172250287141651,0,
00:00:03.872,0.0031548084225505603,0.0196718517690897,0.0011493656784296,0,
00:00:03.876,0.00322529184632003,0.0068018427118659,-0.000250158598646522,0,
00:00:03.88,-0.000982901663519442,-0.0178383179008961,-0.00105052476283163,0,
00:00:03.884,-0.0076689352281391595,-0.0285792984068394,-0.0010186618892476,0,
00:00:03.888,-0.00141164485830814,-0.00219790288247168,-0.000498863810207695,0,
00:00:03.892,0.00381181947886944,0.0125238867476583,6.52551825623959e-05,0,
00:00:03.896,-0.0016903338255360699,0.0055377478711307,0.000393760652514175,0,
00:00:03.9,0.00187697738874704,0.0090028140693903,0.000430198386311531,0,
00:00:03.904,0.0018233105074614302,0.00172434747219086,0.000272742530796677,0,
00:00:03.908,-0.00154665787704289,1.35911268444033e-05,-0.00408570794388652,0,
00:00:03.912,0.00346801290288568,-0.0009846505708992481,0.0059437369927763896,0,
00:00:03.916,-0.00132273742929101,-0.00810562446713448,0.00325063616037369,0,
00:00:03.92,-0.00224396772682667,0.00159980612806976,-0.0033696799073368302,0,
00:00:03.924,-0.0013189361197874,-0.0033241617493331398,-0.00354922423139215,0,
00:00:03.928,-6.04277011007071e-05,0.0006380376289598639,-0.00137901259586215,0,
00:00:03.932,0.000723826815374196,-0.00270622642710805,0.000647529668640345,0,
00:00:03.936,0.000857476959936321,0.00292450981214643,0.0015329088782891599,0,
00:00:03.94,-0.0015260650543496,-0.0005428851582109929,0.00133576174266636,0,
00:00:03.944,2.05953292606864e-05,-0.0024725012481212603,0.000601120525971055,0,
00:00:03.948,0.00550426263362169,0.015186071395873997,-0.0021904925815761102,0,
00:00:03.952,0.00162688491400331,0.00994165427982807,0.0014765097294002802,0,
00:00:03.956,-0.00451232213526964,-0.0115439314395189,0.00112599995918572,0,
00:00:03.96,-0.00170800799969584,-0.0131429182365537,0.0019455531146377301,0,
00:00:03.964,-0.00294292997568846,-0.0123360846191645,-0.00287220347672701,0,
00:00:03.968,-0.00247578951530159,0.00105038599576801,-0.00462854001671076,0,
00:00:03.972,0.0037581836804747603,0.014032818377018001,0.00341025157831609,0,
00:00:03.976,0.0039530242793262,0.00850969273597002,0.000552122481167316,0,
00:00:03.98,-0.00037404379690997297,0.00441095512360334,-9.02091560419649e-05,0,
00:00:03.984,0.00144709413871169,-0.006175028160214421,3.51615739191402e-07,0,
00:00:03.988,2.39132077695103e-05,0.0027195613365620396,-0.0019259755499661,0,
00:00:03.992,0.00279788253828883,0.004744101315736771,0.0021382465492934,0,
00:00:03.996,-0.00351025559939444,-0.015233944170176998,0.00171202211640775,0,
00:00:04,-0.00836377404630184,-0.0100165884941816,0.00221325876191258,0,
00:00:04.004,-0.00225380901247263,0.000514692917931825,-0.00292022596113384,0,
00:00:04.008,0.007672597654163841,0.00488256895914674,-0.00484857661649585,0,
00:00:04.012,0.0034067258238792398,0.00737367337569594,0.0011044928105548,0,
00:00:04.016,-0.0015877439873293,0.00575747760012746,0.00446457182988524,0,
00:00:04.02,0.0009249050635844471,0.00196540495380759,-0.000449775863671675,0,
00:00:04.024,-0.0018290390726178898,-0.00560315744951367,-0.00348987989127636,0,
00:00:04.028,0.00116213376168162,0.000891255505848676,0.00117911759298295,0,
00:00:04.032,0.00253040553070605,0.0129251228645444,0.00167574908118695,0,
00:00:04.036,-0.000585817149840295,-0.00471804523840547,0.0006652991869486871,0,
00:00:04.04,-0.00471030082553625,-0.0175040867179632,-0.00034143662196583997,0,
00:00:04.044,-0.00259118690155447,-0.0130183240398765,-0.0007688294281251731,0,
00:00:04.048,0.000500237743835896,0.00640587089583278,-0.00064612046116963,0,
00:00:04.052,0.00011292865383438799,0.00949363503605127,-0.00026225158944726,0,
00:00:04.056,0.00413013901561499,0.0059947054833173795,9.621825302019721e-05,0,
00:00:04.06,0.0027574417181313,0.00152075581718236,0.0002757937181741,0,
00:00:04.064,-0.00401179352775216,-0.0013411840191111,0.000267606548732147,0,
00:00:04.068,0.00652660150080919,0.022801548242569,-0.00192575063556433,0,
00:00:04.072,-0.00046198477502912305,-0.000241452798945829,0.00199289014562964,0,
00:00:04.076,-0.00609011901542544,-0.0271335709840059,0.0036505558528006103,0,
00:00:04.08,-0.00391336251050234,-0.0205118749290705,-0.00188627932220697,0,
00:00:04.084,-9.610069537302479e-05,-0.00768832536414266,-0.0025471458211541198,0,
00:00:04.088,0.00230640429072082,0.0153616135939956,-0.00122530246153474,0,
00:00:04.092,0.00264140404760838,0.0206958781927824,-0.00185099511872977,0,
00:00:04.096,-0.00047292257659137195,0.00871011707931757,0.00294791324995458,0,
00:00:04.1,0.00221098540350795,-0.00101632671430707,0.00259697157889605,0,
00:00:04.104,0.000935684889554977,-0.00187777180690318,0.000679035263601691,0,
00:00:04.108,-0.000797584536485374,-0.0103393467143178,0.00123395281843841,0,
00:00:04.112,0.000510918907821178,-0.000980761717073619,-0.00330656324513257,0,
00:00:04.116,-0.005346603225916621,-0.00505934003740549,-0.00470493175089359,0,
00:00:04.12,-0.0001855527079897,-0.003945146687328821,0.00148006097879261,0,
00:00:04.124,0.0016688825562596302,0.00183110660873353,0.0027202104683965397,0,
00:00:04.128,0.00158538436517119,0.0071874619461596,0.0037517538294196103,0,
00:00:04.132,-0.00134315004106611,0.0027022925205528697,-0.00177470280323178,0,
00:00:04.136,-0.00018944597104564298,-0.0015986119396984599,-0.00238437345251441,0,
00:00:04.14,0.0072580031119287,0.00543412426486611,-0.0011139730922877802,0,
00:00:04.144,-0.0005739819607697429,0.00486456649377942,-0.00184876413550228,0,
00:00:04.148,-0.0062116724438965295,-0.007877937518060209,0.00286010536365211,0,
00:00:04.152,-0.00596290873363614,-0.0102553348988295,0.00455445190891624,0,
00:00:04.156,0.0040486720390617795,-0.00133106135763228,-0.00138980254996568,0,
00:00:04.16,0.00203632120974362,0.00312966643832624,-0.0046023223549127605,0,
00:00:04.164,0.00116986234206706,-0.000200269263586961,0.000470869388664141,0,
00:00:04.168,-0.00155264383647591,0.000361888378392905,0.00152650766540319,0,
00:00:04.172,0.0019524435047060301,0.0037341951392591,0.0009173990110866731,0,
00:00:04.176,-0.000796903972513974,0.000186430552275851,4.2159696022281396e-05,0,
00:00:04.18,0.0017058640951290698,0.0166474040597677,-0.00047089642612263604,0,
00:00:04.184,0.00461835321038961,0.00757030583918095,-0.0005254329298622911,0,
00:00:04.188,-0.00494115287438035,-0.021727167069912,-0.000296820187941194,0,
00:00:04.192,-0.00680887745693326,-0.0163867361843586,-0.00209005014039576,0,
00:00:04.196,0.0006180091877467929,0.00187832571100444,0.00629521952942014,0,
00:00:04.2,0.00518055679276586,0.00565244164317846,-0.0021005538292229197,0,
00:00:04.204,-0.00143063743598759,0.0064614899456501,-0.00503878341987729,0,
00:00:04.208,0.00136284623295069,0.00230103195644915,0.000823982525616884,0,
00:00:04.212,0.0010955507168546302,0.00113965990021825,0.00226834486238658,0,
00:00:04.216,8.2624228525674e-06,0.00033209685352630897,0.00153870356734842,0,
00:00:04.22,-0.0028218922670930602,-0.0025449579115957,0.00028229501913301603,0,
00:00:04.224,-0.00304204574786127,-0.00316023640334606,-0.000589369330555201,0,
00:00:04.228,0.0071313320659101,0.006626749411225321,-0.0028977221809327602,0,
00:00:04.232,0.0076226321980357205,0.0152838919311762,-0.0006803664728067821,0,
00:00:04.236,-0.00783197395503521,-0.00586875760927796,0.0075965654104948,0,
00:00:04.24,-0.00541979307308793,-0.0179637745022774,-0.00198206887580454,0,
00:00:04.244,-0.00618232600390911,-0.0190533567219973,-0.00574739836156368,0,
00:00:04.248,0.00264112814329565,-9.32440889300779e-05,-1.3168074474378999e-05,0,
00:00:04.252,0.0032083506230264898,0.0153910871595144,0.0017799922497943,0,
00:00:04.256,0.00588707998394966,0.0170803554356098,0.00151016551535577,0,
00:00:04.26,0.00280324905179441,0.0070004523731768105,0.0026373495347797897,0,
00:00:04.264,-0.000862242595758289,-0.0050637815147638295,-0.00428771646693349,0,
00:00:04.268,-0.00274538807570934,-0.0077767544426024,-0.00023846683325246,0,
00:00:04.272,-0.0046931942924857105,-0.009602523408830171,0.000970169377978891,0,
00:00:04.276,0.000626454246230423,0.00222410424612463,0.0008001056849025191,0,
00:00:04.28,0.0037409630604088298,0.0188993737101555,-0.0018456681864336103,0,
00:00:04.284,0.00112276733852923,0.00321834953501821,0.0017635602271184301,0,
00:00:04.288,-0.00348201557062566,-0.0293630119413137,0.00335851567797363,0,
00:00:04.292,-0.0042800731025636205,-0.0142157636582851,-0.00206957664340734,0,
00:00:04.296,0.00218329159542918,0.0125356810167432,-0.00465049780905247,0,
00:00:04.3,0.0032555665820837,0.0160071458667517,0.00290861027315259,0,
00:00:04.304,0.0018329244339838602,0.00867182109504938,6.9524935497611295e-06,0,
00:00:04.308,3.03951692330884e-05,-3.805898450082171e-05,-0.000405888305976987,0,
00:00:04.312,-0.00312958448193967,-0.00932723097503185,-3.18104612233583e-05,0,
00:00:04.316,-0.00130958878435194,-0.0122826294973493,0.000304830988170579,0,
00:00:04.32,0.0007881107158027589,0.0074536330066621295,0.000364503561286256,0,
00:00:04.324,0.0078009697608649705,0.0202180705964565,-0.00186200824100524,0,
00:00:04.328,-0.0006150924018584191,0.00477393576875329,0.00406035501509905,0,
00:00:04.332,-0.00445967027917504,-0.0179332625120878,-0.000462986849015579,0,
00:00:04.336,-0.0061538461595773706,-0.0286132656037807,-0.0037042519543319897,0,
00:00:04.34,-0.00382448080927134,-0.00375125510618091,0.00291446619667113,0,
00:00:04.344,0.00424314942210913,0.0179004352539778,-0.0005591931985691191,0,
00:00:04.348,0.0052804178558290005,0.0173221305012703,-0.00312331970781088,0,
00:00:04.352,0.00081932550529018,0.0033464832231402397,0.0015518550062552099,0,
00:00:04.356,0.00200386415235698,-0.000169848266523331,0.00188264402095228,0,
00:00:04.36,-5.8786805311683606e-05,-0.00569393485784531,0.00277959858067334,0,
00:00:04.364,-0.00178958335891366,0.00351728871464729,-0.00237553636543453,0,
00:00:04.368,-2.17066681216238e-05,-0.00156377872917801,-0.004565195646137,0,
00:00:04.372,-0.00328564224764705,-0.00373522588051856,0.00110242643859237,0,
00:00:04.376,-0.0018554750131443102,-0.0137239042669535,0.004290022887289521,0,
00:00:04.38,0.00039359275251627,-0.00423719454556704,-0.000653511146083474,0,
00:00:04.384,0.00165566115174443,0.00557725271210074,-0.00362466159276664,0,
00:00:04.388,0.0016473924042657,0.0110579263418913,0.00114196620415896,0,
00:00:04.392,0.000877430313266814,0.00671916035935283,0.00171146169304848,0,
00:00:04.396,6.8070971792622e-06,-0.0016810143133625401,-0.00134753331076354,0,
00:00:04.4,-0.00260690785944462,-0.00374932726845145,0.0037615119945257898,0,
00:00:04.404,0.0013444323558360301,-0.00493437051773071,0.000996771617792547,0,
00:00:04.408,-0.0029338200110942104,-0.00540215987712145,-0.00616584811359644,0,
00:00:04.412,0.00400403561070561,0.0119162695482373,-0.000966430641710758,0,
00:00:04.416,0.00877319276332855,0.0185370352119207,0.0013580149970948698,0,
00:00:04.42,-0.00433086603879929,-0.00415939092636108,0.00168182735797018,0,
00:00:04.424,-0.0111315213143826,-0.0326261967420578,0.000999623211100698,0,
00:00:04.428,-0.0022606416605413,-0.0150989573448896,0.000139883370138705,0,
00:00:04.432,0.0030241662170738,0.00893593113869429,-0.00041745079215616,0,
00:00:04.436,0.004294628277420999,0.0169814713299274,-0.000552058278117329,0,
00:00:04.44,0.000848439405672252,0.0128846811130643,-0.000384159298846498,0,
00:00:04.444,0.00271940534003079,0.00409675948321819,-0.0021909670904278803,0,
00:00:04.448,0.0007424978539347651,-0.00530452840030193,0.0020699305459857,0,
00:00:04.452,-0.00338929984718561,-0.00433842372149229,0.00389588158577681,0,
00:00:04.456,0.00200902158394456,0.00446758372709155,-0.00372311822138727,0,
00:00:04.46,0.000201600880245678,-0.00623013637959957,-0.00043901163735427,0,
00:00:04.464,-0.0018853656947612801,-0.0029283652547746897,0.00250630103982985,0,
00:00:04.468,-0.00429081544280052,-0.00913898926228285,-0.00163522944785655,0,
00:00:04.472,-0.00334787392057478,-0.0021836026571691,-0.0036673431750387,0,
00:00:04.476,0.0036948216147720796,0.00673673860728741,0.00374575471505523,0,
00:00:04.48,0.00647392170503736,0.000677228323183954,0.000363065366400406,0,
00:00:04.484,-0.0018257540650665801,0.00508073205128312,-0.000506204611156136,0,
00:00:04.488,0.000123064703075215,0.0043397699482739,-0.00036762867239303903,0,
00:00:04.492,-0.00218524830415845,0.00332629540935159,-2.98950708383927e-05,0,
00:00:04.496,0.0033949560020119,-0.00144472904503345,-0.0019038071623072,0,
00:00:04.5,-0.00113900261931121,-0.006359124090522529,0.00216166116297245,0,
00:00:04.504,-0.00408460013568401,-0.00625817431136966,0.0017320194747299,0,
00:00:04.508,0.000826588831841946,0.00770340813323855,0.000156645124661736,0,
00:00:04.512,0.00372632732614875,0.00591420941054821,-0.0009270728914998471,0,
00:00:04.516,-0.00108693900983781,-0.0102842226624489,-0.00111696589738131,0,
00:00:04.52,-0.0016776181291788801,-0.00434952229261398,0.0013897541211918,0,
00:00:04.524,-0.0027792938053607897,0.0053417999297380395,-0.004145148675888779,0,
00:00:04.528,0.00435869162902236,-0.00440303096547723,0.000652266899123788,0,
00:00:04.532,0.00042299914639443197,0.0019269755575805898,0.0019019388128072,0,
00:00:04.536,-0.000811907462775707,0.000202793453354388,0.00341981183737516,0,
00:00:04.54,-0.00281734694726765,0.00932404585182667,-0.00374476239085197,0,
00:00:04.544,0.0017086761072278,0.0125102438032627,-0.00011237133730901398,0,
00:00:04.548,0.0038464635144919205,-0.0061725042760372205,0.0007890983251854781,0,
00:00:04.552,-0.0015169911785051198,-0.0180372148752213,0.000518753717187792,0,
00:00:04.556,-0.0043322723358869605,-0.0107908509671688,1.4451557035499698e-05,0,
00:00:04.56,0.00293173547834158,0.0108671262860298,-0.00029361140332184705,0,
00:00:04.564,-0.00016367011994589098,0.0060007842257618895,-0.00032606418244540697,0,
00:00:04.568,-0.00062175455968827,0.000739477633032948,-0.00225992151536047,0,
00:00:04.572,-0.00018354973872192199,0.00246218522079289,0.0019670322071760897,0,
00:00:04.576,0.00025504129007458703,0.000718491734005511,0.0017477476503699998,0,
00:00:04.58,0.00039555114926770297,0.000876906793564558,0.000307688838802278,0,
00:00:04.584,0.000278769992291927,-0.00392525922507048,-0.0007520354702137411,0,
00:00:04.588,6.623512308578941e-05,-0.009417601861059671,-0.000998675124719739,0,
00:00:04.592,-0.0021776279900223,0.0030604931525886102,0.0014257904840633301,0,
00:00:04.596,0.00181074114516377,0.0100486529991031,-0.00209635170176625,0,
00:00:04.6,0.00150761392433196,-0.000208110548555851,-0.00137519184499979,0,
00:00:04.604,0.000116386276204139,0.0033830311149358697,-0.0018603637581691103,0,
00:00:04.608,0.00124103133566678,-0.00183370022568852,0.00312137021683156,0,
00:00:04.612,-0.00295839831233025,-0.007321448996663091,0.00486867502331734,0,
00:00:04.616,-0.00222580088302493,-0.00894551444798708,-0.00120202242396772,0,
00:00:04.62,-0.000230656834901311,-0.000492306891828775,-0.0025146740954369302,0,
00:00:04.624,-0.000926997163332999,0.0058285896666348,-0.0016145360423252,0,
00:00:04.628,0.00132553232833743,0.00473496317863464,-0.0023331178817898,0,
00:00:04.632,0.00453516421839595,0.0018325929995626198,0.00261252373456955,0,
00:00:04.636,0.00200195447541773,0.0100373364984989,0.0024891006760299197,0,
00:00:04.64,0.00313455052673817,0.009743598289787771,0.000749810773413628,0,
00:00:04.644,-0.00427132658660412,-0.0122479535639286,-0.00277289189398289,0,
00:00:04.648,-0.00732597941532731,-0.0167399514466524,0.00492148473858833,0,
00:00:04.652,-0.00287487241439521,-0.009581430815160271,-0.00323488702997565,0,
00:00:04.656,-0.000302366708638147,-0.00173726351931691,-0.0034285446163266897,0,
00:00:04.66,0.0057331845164299,0.0109062707051635,-0.0010007016826421,0,
00:00:04.664,0.00478865625336766,0.0140201132744551,-0.000990137574262917,0,
00:00:04.668,0.00146752363070846,0.00645832065492868,0.0037855668924748898,0,
00:00:04.672,-0.00128792156465352,-0.00383058516308665,0.0030191019177436803,0,
00:00:04.676,-0.00234914966858923,-0.0039803022518754,0.000644940126221627,0,
00:00:04.68,-0.0039980155415833,-0.008269944228231909,-0.0011470855679363,0,
00:00:04.684,0.00116348930168897,-0.0030779880471527602,-0.00167374592274427,0,
00:00:04.688,0.00185095937922597,0.0104681560769677,-0.00328451744280756,0,
00:00:04.692,0.00298128835856915,0.004559067543596029,0.0015995800495147699,0,
00:00:04.696,-0.0020927321165800103,-0.000881778600160033,0.00194005283992738,0,
00:00:04.7,-0.0022552411537617397,-0.009910160675644871,0.000754152715671808,0,
00:00:04.704,-0.000752096762880683,-0.0123355742543936,0.00173150422051549,0,
00:00:04.708,0.000583064218517393,0.00207288330420852,-0.00276218191720545,0,
00:00:04.712,0.0010905284434557,0.0110244555398822,-0.00228514801710844,0,
00:00:04.716,0.000868454750161618,0.0062662037089467,-0.00041382748167961803,0,
00:00:04.72,0.000325668166624382,0.00408035889267921,0.000971823290456086,0,
00:00:04.724,-0.00015591570991091398,-0.00105714041274041,-0.000747185666114092,0,
00:00:04.728,-0.0024590557441115397,-0.0103809284046292,0.00288403313606977,0,
00:00:04.732,-0.00045793739263899597,-0.00449503725394607,0.00187134160660207,0,
00:00:04.736,0.00550191849470139,0.0168504994362593,-0.00011534243094501999,0,
00:00:04.74,0.0019068728433921898,0.005751208402216429,-0.00132790440693498,0,
00:00:04.744,-0.00418604491278529,-0.0172528345137835,-0.0014231955865398,0,
00:00:04.748,-0.0035699422005564,-0.009323119185864929,-0.000806219584774226,0,
00:00:04.752,-0.0009111167164519429,0.0025050044059753396,-5.4052085033617893e-05,0,
00:00:04.756,0.0032580941915512102,0.00804579444229603,0.00043545791413635,0,
00:00:04.76,-0.000117438619781751,-0.0014587518526241198,0.0005481311236508191,0,
00:00:04.764,-0.00233251391910017,-0.0021643596701324,0.000384639919502661,0,
00:00:04.768,0.0022591867018491,0.00214295624755323,0.000126191793242469,0,
00:00:04.772,9.966103971237321e-05,0.00202348618768156,-7.839536556275559e-05,0,
00:00:04.776,0.00253673945553601,0.00699976086616516,-0.00224000355228782,0,
00:00:04.78,0.00293595553375781,0.0125731872394681,0.0018314031185582302,0,
00:00:04.784,-0.00302920630201697,-0.00451815500855446,0.0036475271917879603,0,
00:00:04.788,-0.0034133493900299103,-0.0168227441608906,-0.0017953809583559602,0,
00:00:04.792,-0.00152534944936633,-0.0151463421061635,-0.0024403447750955803,0,
00:00:04.796,0.000405359081923962,-0.0010810727253556301,0.0009207279072143141,0,
00:00:04.8,0.00136784906499088,0.0110382381826639,-0.00380760035477579,0,
00:00:04.804,0.00131128856446594,0.0108143435791135,0.00128642027266324,0,
00:00:04.808,-0.00139099976513535,0.000894804194103926,0.0023865217808634,0,
00:00:04.812,0.00197979249060154,0.00107322470284998,0.0014945479342714,0,
00:00:04.816,0.00123586598783731,0.00133106333669275,0.000173896885826252,0,
00:00:04.82,-0.000300077110296115,-0.00412557646632195,-0.000698514049872756,0,
00:00:04.824,-0.00323442020453513,-0.0081046586856246,-0.000895978242624551,0,
00:00:04.828,0.00293671805411577,0.008503280580043791,-0.000609543407335877,0,
00:00:04.832,-0.000879544182680547,0.0102598099038005,-0.0022436100989580198,0,
00:00:04.836,0.0027529948856681603,-0.00874634645879269,0.00422090012580156,0,
00:00:04.84,-0.00454759038984776,-0.0124855721369386,-3.53077666659374e-05,0,
00:00:04.844,-0.0030059083364903896,-0.008785858750343321,-0.00121842359658331,0,
00:00:04.848,-0.00173906807322055,-0.00111989222932607,-0.000908521993551403,0,
00:00:04.852,0.00428054761141539,0.0135733215138316,-0.00020037402282469,0,
00:00:04.856,0.003990790341049429,0.0121811488643289,0.00031416362617164904,0,
00:00:04.86,0.00140174722764641,0.0043848929926753,0.00046215613838285197,0,
00:00:04.864,-0.00297635514289141,0.00146626646164805,0.00033091040677391003,0,
00:00:04.868,0.00218353932723403,-0.00770776672288775,9.88422689260915e-05,0,
00:00:04.872,-0.0019288469338789602,-0.0083590866997838,-8.675788558321071e-05,0,
00:00:04.876,-0.000107155043224338,-0.000281017040833831,-0.000161700198077597,0,
00:00:04.88,-0.0028696758672595,-0.0017828315030783397,-0.00221345294266939,0,
00:00:04.884,-0.00332605047151446,-0.00450833048671484,0.0039860126562416606,0,
00:00:04.888,0.00279397261328995,0.0053085032850503895,-0.00032814135192893397,0,
00:00:04.892,0.00339045282453299,0.0032888769637793303,-0.00142102630343288,0,
00:00:04.896,0.00165031384676695,-0.00425716070458293,-0.0009719521040096881,0,
00:00:04.9,-0.0002399002405582,0.0044999523088336,-0.00015534769045188999,0,
00:00:04.904,-0.00332180131226778,0.00440231990069151,0.000403256010031328,0,
00:00:04.908,0.00278541794978082,0.00734458770602942,0.000538772321306169,0,
00:00:04.912,-0.00103601929731667,0.000639115984085947,0.000367344444384798,0,
00:00:04.916,-0.00151672016363591,-0.0155933415517211,9.61433470365591e-05,0,
00:00:04.92,-0.0006576568703167139,-0.007193638943135741,-0.000111174224002752,0,
00:00:04.924,0.000268923788098618,-0.0051649110391736,-0.000188325095223263,0,
00:00:04.928,-0.00136397371534258,0.00906636938452721,-0.0022299308329820603,0,
00:00:04.932,0.00469900900498033,0.018281577154994,0.0019067676039412603,0,
00:00:04.936,0.0020556915551424,0.00312515324912965,0.00165281491354108,0,
00:00:04.94,-0.00347055937163532,-0.013267851434648,0.00230533210560679,0,
00:00:04.944,-0.00496313814073801,-0.00944439135491848,-0.0027636701706796898,0,
00:00:04.948,-0.000708974432200193,0.00305282883346081,-0.00263753207400441,0,
00:00:04.952,0.00885413866490126,0.000400444812839851,-0.000802258786279708,0,
00:00:04.956,-0.0026658202987164302,-6.60380319459364e-05,0.000748451857361943,0,
00:00:04.96,-0.00298723997548223,0.000683714344631881,0.00131092534866184,0,
00:00:04.964,0.00166045362129807,0.0159639306366444,0.001026397687383,0,
00:00:04.968,0.005651357118040321,0.00850320048630238,-0.00169649499002844,0,
00:00:04.972,-0.00177140685264021,-0.0176679063588381,0.0017890072194859399,0,
00:00:04.976,-0.00819300301373005,-0.0186933390796185,0.0011923051206395,0,
00:00:04.98,-0.0030894170049578,-0.00119974149856716,-0.00023943861015141002,0,
00:00:04.984,0.0045554358512163206,0.0128762358799577,0.0010125311091542198,0,
00:00:04.988,0.006768323481082921,0.00798226986080408,-0.00509073212742805,0,
00:00:04.992,-0.0020917006768286198,0.000385741121135652,-0.0022581461817026104,0,
00:00:04.996,-0.000324578344589099,-0.00367861590348184,0.00557423708960414,0,
00:00:05,-0.00041957598295994103,-0.0016198349185288,0.0031576179899275303,0,
00:00:05.004,-0.0027895416133105803,0.00478364899754524,-0.00489501468837261,0,
00:00:05.008,0.00338327931240201,0.0119288815185428,-0.000804819166660309,0,
00:00:05.012,0.00140357855707407,-0.00591621641069651,0.000800488400273025,0,
00:00:05.016,-0.00133203156292439,-0.0197540726512671,0.000951947877183557,0,
00:00:05.02,-0.00437485612928867,-0.0084093427285552,0.000490493432153016,0,
00:00:05.024,-0.00377963297069073,0.0046541066840291,-1.62463220476639e-05,0,
00:00:05.028,0.00323986657895148,0.0144958905875683,-0.000297229475108907,0,
00:00:05.032,0.00412280159071088,0.00676396721974015,-0.000320492603350431,0,
00:00:05.036,0.00217251409776509,-0.00186680047772825,-0.00018636274035088702,0,
00:00:05.04,-0.000110443936137017,-0.00555241387337446,-2.1890733478358e-05,0,
00:00:05.044,-0.0035041014198213803,-0.004551720805466179,8.677251025801519e-05,0,
00:00:05.048,-0.0016658412059769,0.00685441074892879,0.00011444744450273,0,
00:00:05.052,0.00474478956311941,0.0162494480609894,-0.00199375068768859,0,
00:00:05.056,0.00383277982473373,-0.0153818521648645,0.004079120233654979,0,
00:00:05.06,-0.00795717723667622,-0.013957972638308997,-0.000348846486303955,0,
00:00:05.064,-0.00282048876397312,-0.000904419575817883,-0.00149938219692558,0,
00:00:05.068,0.000873163109645247,0.007604090031236409,-0.00312618096359074,0,
00:00:05.072,0.00232838210649788,0.00211880402639508,0.0038509143050759996,0,
00:00:05.076,-7.35698558855802e-05,-0.00438305595889688,6.40291691524908e-05,0,
00:00:05.08,0.00076708069536835,0.00564290676265955,-0.0009068917715922,0,
00:00:05.084,0.00548940524458885,0.0202880781143904,-0.0006266132695600389,0,
00:00:05.088,0.00324016530066729,0.00254712952300906,-0.00214602332562208,0,
00:00:05.092,-0.00701484782621264,-0.0250805877149105,0.0043432838283479205,0,
00:00:05.096,-0.0057638492435216895,-0.0160257145762444,2.37296753766714e-05,0,
00:00:05.1,-0.00330174691043794,0.0023086019791662697,-0.00124429282732308,0,
00:00:05.104,0.0041644680313766,0.005982277449220421,-0.00306311901658773,0,
00:00:05.108,0.00479809986427426,0.0112202661111951,0.00169122335501015,0,
00:00:05.112,0.00448547536507249,0.00965474452823401,0.00397763354703784,0,
00:00:05.116,-0.00218316400423646,0.00348818046040833,-0.00342730432748795,0,
00:00:05.12,-0.00537586165592074,-0.00679692486301064,-0.000165107223438099,0,
00:00:05.124,3.8390677218558294e-05,-0.010118942707777,0.00263637397438288,0,
00:00:05.128,0.0014536390081048,-0.0025996034964919103,-0.00165257055778056,0,
00:00:05.132,0.0031396707054227604,0.00130705663468689,-0.00376706989482045,0,
00:00:05.136,-0.00381119013763964,0.00459439912810922,0.00156333937775344,0,
00:00:05.14,-2.4136882075254103e-06,7.49218233977444e-05,0.0022729355841875102,0,
00:00:05.144,-0.00109926064033061,-0.000716078444384038,0.00112241914030164,0,
00:00:05.148,0.00473616365343332,-0.0044094137847423606,-0.000167832869919948,0,
00:00:05.152,-0.000228571356274188,0.004194949753582479,-0.0008384694228880111,0,
00:00:05.156,0.000327908841427416,0.009916616603732109,-0.000829480472020805,0,
00:00:05.16,-0.00335993804037571,-0.00737509969621897,-0.000433942826930434,0,
00:00:05.164,-0.0041373632848262796,-0.0108264489099383,4.88730847791885e-06,0,
00:00:05.168,0.0021515591070056,0.00276483222842216,0.000270632328465581,0,
00:00:05.172,0.0031279104296118,0.0122997295111418,0.000315052893711254,0,
00:00:05.176,0.0038012459408491898,0.0063752462156117,0.000207871955353767,0,
00:00:05.18,-0.0019735507667064697,-0.008081273175776,5.66539602004923e-05,0,
00:00:05.184,-0.0026522688567638397,-0.0128084123134613,-5.59329673706088e-05,0,
00:00:05.188,-0.00131145492196083,-0.0038325442001223603,-9.77563104243018e-05,0,
00:00:05.192,0.000153797227540053,0.00857717916369438,-8.02714057499543e-05,0,
00:00:05.196,0.000915093638468534,0.00529160909354687,-3.56058008037508e-05,0,
00:00:05.2,-0.00116145052015781,-0.00419435603544116,5.7848301366902905e-06,0,
00:00:05.204,0.00245585455559194,0.0054843327961862105,2.7492927983985303e-05,0,
00:00:05.208,0.00371389742940664,0.0074396436102688295,2.8372751330607598e-05,0,
00:00:05.212,-0.00209645461291075,-0.00299183232709765,0.00209247739985585,0,
00:00:05.216,-0.00283273123204708,-0.00875986646860838,-0.004048406146466729,0,
00:00:05.22,-0.00351037876680493,-0.00733445957303047,0.000326628913171589,0,
00:00:05.224,0.00212458265013993,0.00401668017730117,0.0035315244458615797,0,
00:00:05.228,0.00680119078606367,-0.00133009289857,-0.00303813768550754,0,
00:00:05.232,-0.0027340454980731,0.00605011032894254,0.00259150704368949,0,
00:00:05.236,-0.0056232339702546605,0.00649670092388988,-0.0009062355384230609,0,
00:00:05.24,0.0006344586727209389,-0.00148061430081725,0.000907376466784626,0,
00:00:05.244,0.00239426246844232,0.000289481948129833,-0.00442337989807129,0,
00:00:05.248,-0.00030396439251489905,-0.0131512563675642,0.0006723310216329991,0,
00:00:05.252,0.00450765993446112,-0.000425194593844935,0.00205029919743538,0,
00:00:05.256,0.00120422663167119,0.0154691813513637,0.00145679933484644,0,
00:00:05.26,-0.0043127443641424205,-0.0006916566053405401,0.00031642135581933,0,
00:00:05.264,-0.00333357183262706,-0.0119023872539401,-0.0005192531971260911,0,
00:00:05.268,-0.0006124375504441559,-0.000568311137612909,-0.00077654275810346,0,
00:00:05.272,-0.0007236063829623161,0.00157310976646841,-0.000578564824536443,0,
00:00:05.276,0.0038326722569763704,0.00750191090628505,-0.00020285502250772,0,
00:00:05.28,0.00291598634794354,0.00113751122262329,0.000110842687718105,0,
00:00:05.284,0.000504378462210298,-0.006029580719769,0.000250228506047279,0,
00:00:05.288,-0.00331911467947066,-0.000480247748782858,0.00022588230785913798,0,
00:00:05.292,0.0044279806315898895,0.00794785656034946,0.000115268740046304,0,
00:00:05.296,-0.0034880016464740003,0.0019183895783498898,1.2820763686249799e-06,0,
00:00:05.3,-0.00550894252955914,-0.008214634843170641,0.00200989516451955,0,
00:00:05.304,0.0011171342339366698,-0.00785078015178442,-0.00412797601893544,0,
00:00:05.308,0.0049708322621882,-0.000497455708682537,0.000282983062788844,0,
00:00:05.312,0.000122031618957408,0.00676039513200521,0.0014518419047817599,0,
00:00:05.316,-0.00107838725671172,0.009703110903501509,0.00310975359752774,0,
00:00:05.32,-0.000767225865274668,-0.00023394782328978197,-0.00176632578950375,0,
00:00:05.324,-0.000144503690535203,-0.0109193800017238,-0.00409535737708211,0,
00:00:05.328,0.000257222447544336,-0.00485553406178951,0.00333364051766694,0,
00:00:05.332,-0.0017410474829375698,0.00247700489126146,0.0022009448148310197,0,
00:00:05.336,0.00217520166188478,0.0075795641168952,-0.00252744765020907,0,
00:00:05.34,0.0037310386542230797,0.0169056579470634,-0.00193166686221957,0,
00:00:05.344,-0.00191131117753685,-0.00166234071366489,-9.444847819395359e-05,0,
00:00:05.348,-0.0005525468150153759,-0.0206342283636332,-0.000978929572738707,0,
00:00:05.352,-0.00535762682557106,-0.0145211163908243,0.00114168203435838,0,
00:00:05.356,0.000511024671141058,-0.00149532535579056,0.008473617956042291,0,
00:00:05.36,0.0024306089617312,0.0160587411373854,-2.93939501716523e-05,0,
00:00:05.364,0.0019941676873713697,0.00832191947847605,-0.00841725524514914,0,
00:00:05.368,0.000713524350430816,0.00481820898130536,-0.00240484601818025,0,
00:00:05.372,-0.00245251622982323,-0.0051503712311387105,0.0032105550635606103,0,
00:00:05.376,-0.0009460686706006529,-0.008799986913800241,0.000272009230684489,0,
00:00:05.38,0.0007990036392584441,0.00451305508613586,9.81100383796729e-05,0,
00:00:05.384,0.0117451269179583,0.0207878891378641,0.000452944135759026,0,
00:00:05.388,-0.00689114630222321,-0.00930157024413347,-0.00153860647697002,0,
00:00:05.392,-0.00801290757954121,-0.0173618849366903,0.0022823871113359898,0,
00:00:05.396,-0.00294005940668285,-0.008988845162093641,0.0036989364307373797,0,
00:00:05.4,0.0017971396446228,-0.0026784590445458898,3.3923686714842895e-05,0,
00:00:05.404,0.0037340228445828,0.0049365283921361,-0.00683050369843841,0,
00:00:05.408,0.0010177530348300901,0.0144496606662869,-0.00108150043524802,0,
00:00:05.412,0.00322813331149518,0.00713983085006475,0.00160132895689458,0,
00:00:05.416,0.00119566975627095,0.0026061530224978898,0.0019988997373729897,0,
00:00:05.42,-0.0011159139685332801,-0.007534559816122059,0.00327424774877727,0,
00:00:05.424,-0.0041719777509570104,-0.00824686232954264,-0.0018065753392875199,0,
00:00:05.428,0.000247212476097047,0.00431053293868899,-0.00215054815635085,0,
00:00:05.432,0.00300813606008887,0.0115527678281069,-0.0029307212680578197,0,
00:00:05.436,0.000513380393385887,-0.00011386600090190801,0.00234022177755833,0,
00:00:05.44,-0.0037459386512637104,-0.0149764996021986,0.00459511578083038,0,
00:00:05.444,-0.0021460058633238103,-0.011617437005043002,0.0010167172877118,0,
00:00:05.448,0.000433144625276327,-0.00405130675062537,-0.0041635776869952705,0,
00:00:05.452,-0.000234620471019298,0.00969805382192135,-0.00296242674812675,0,
00:00:05.456,0.0037631320301443295,0.00983035378158093,-0.000285150017589331,0,
00:00:05.46,0.000458878988865763,0.00478615751489997,0.0014804236125201,0,
00:00:05.464,-4.190822437522e-06,0.008123281411826609,0.00178801908623427,0,
00:00:05.468,0.00419735908508301,0.0100876688957214,0.00110292807221413,0,
00:00:05.472,0.000165961871971376,-0.0105294194072485,-0.0019138042116537699,0,
00:00:05.476,-0.00330282561480999,-0.0198915414512157,0.0035556103102862796,0,
00:00:05.48,-0.00586220435798168,-0.0145294824615121,0.0031325195450335698,0,
00:00:05.484,-0.004272089339792729,-0.00269315438345075,-0.0059262663125991795,0,
00:00:05.488,0.00359144108369946,0.0153692532330751,-0.006571582052856679,0,
00:00:05.492,0.00484571838751435,0.0193902794271708,0.00151230045594275,0,
00:00:05.496,0.0048921261914074395,0.00499076163396239,0.00600023474544287,0,
00:00:05.5,-0.00175846926867962,-0.0027306335978210003,0.000992463552393019,0,
00:00:05.504,-0.00514216721057892,-0.0120163327082992,-0.000742214499041438,0,
00:00:05.508,-0.00202897866256535,-0.00993018876761198,-0.0009283504914492369,0,
00:00:05.512,0.00537030538544059,0.00314837670885026,-0.000548200390767306,0,
00:00:05.516,0.000566669856198132,0.00531701138243079,-0.000124534897622652,0,
00:00:05.52,-0.00133749842643738,0.00513258669525385,-0.00194985244888812,0,
00:00:05.524,-0.0013900700723752401,0.000340239173965529,0.00423173047602177,0,
00:00:05.528,-0.000647807668428868,-0.00293473829515278,0.0018553129630163301,0,
00:00:05.532,0.002187893493101,-0.0012465778272599,-0.00342699140310287,0,
00:00:05.536,-0.0035398507025092797,-0.0100126508623362,-0.00271752756088972,0,
00:00:05.54,0.000850210955832154,-0.00187297468073666,0.00163964764215052,0,
00:00:05.544,-0.000320486142300069,0.00778830144554377,-0.000789314450230449,0,
00:00:05.548,0.00302290706895292,0.00965720787644386,-0.00216018152423203,0,
00:00:05.552,0.00168640387710184,0.00736615713685751,0.00489695509895682,0,
00:00:05.556,-0.000400063319830224,-0.00673609506338835,0.000721309275832027,0,
00:00:05.56,0.000557743012905121,-0.00630398979410529,0.00125100882723927,0,
00:00:05.564,-0.00342657975852489,-0.0022420492023229603,-0.0029530287720263,0,
00:00:05.568,-0.00235398462973535,-0.00960147567093372,-0.00220617302693427,0,
00:00:05.572,-9.75636357907206e-05,0.00324985873885453,-0.00027219078037887795,0,
00:00:05.576,-0.0006946307257749139,0.0026589005719870303,0.00103044218849391,0,
00:00:05.58,0.00359351583756506,0.00677405064925551,0.0033505086321383697,0,
00:00:05.584,0.0026465978007763603,0.00863439589738846,-0.00118449097499251,0,
00:00:05.588,0.000347911904100329,0.00271123088896275,-0.00567934336140752,0,
00:00:05.592,0.000817155174445361,-0.00539887370541692,0.00756438309326768,0,
00:00:05.596,-0.0035966553259640897,-0.0143402069807053,0.00175340799614787,0,
00:00:05.6,-0.00479712150990963,-0.00599176855757833,-0.0042491722851991705,0,
00:00:05.604,0.0036187702789902704,0.00748098827898502,-0.00319106876850128,0,
00:00:05.608,0.000871490628924221,0.00339546869508922,-0.000410431443015113,0,
00:00:05.612,-0.00193235266488045,0.0028316925745457398,0.0014809267595410301,0,
00:00:05.616,0.00412717880681157,0.00411334447562695,0.0018521639285609102,0,
00:00:05.62,-0.000236240812228061,0.00280625256709754,0.00324125797487795,0,
00:00:05.624,-0.00348466238938272,-0.00213485350832343,-0.0017864702967926899,0,
00:00:05.628,0.0030082033481448897,-0.00877175386995077,-0.00214756187051535,0,
00:00:05.632,-0.0006030035438016059,-0.00200309744104743,-0.0008923436980694529,0,
00:00:05.636,-0.00116796675138175,0.00378529168665409,0.0023786392994225,0,
00:00:05.64,-0.0005450324388220911,0.0007092368905432519,-0.00115653569810092,0,
00:00:05.644,0.000166766389156692,-0.00385535228997469,-0.000938059238251299,0,
00:00:05.648,0.0005109763587825,0.0044008865952491795,0.00011144231393700501,0,
00:00:05.652,0.00046687701251357805,0.00786885246634483,0.00281362142413855,0,
00:00:05.656,0.000217494511161931,-0.0054758461192250295,-0.001250866567716,0,
00:00:05.66,-0.0021123043261468397,-0.00307631166651845,-0.0013062953948974599,0,
00:00:05.664,0.00387372565455735,0.00313388765789568,0.00181483454070985,0,
00:00:05.668,-0.000520649831742048,-0.007765810936689379,-0.00145315355621278,0,
00:00:05.672,-0.00157934066373855,0.0015439958078786698,-0.000949211767874658,0,
00:00:05.676,-0.00311864051036537,0.00371660338714719,0.000248269963776693,0,
00:00:05.68,0.00183046737220138,0.000356188538717106,0.000880815437994897,0,
00:00:05.684,0.00417464831843972,0.00234245928004384,0.00287142908200622,0,
00:00:05.688,-0.00120374071411788,0.000619624042883515,-0.00164854316972196,0,
00:00:05.692,-0.00416008848696947,-0.00118000211659819,-0.00178159191273153,0,
00:00:05.696,0.000872462755069137,0.000303385517327115,-0.000558186031412333,0,
00:00:05.7,0.0038060045335441797,0.000895346573088318,0.00254570716060698,0,
00:00:05.704,-0.00105875905137509,-0.008032741025090221,0.000914205564185977,0,
00:00:05.708,-0.00172080867923796,-0.00110425997991115,-0.00509391911327839,0,
00:00:05.712,-0.000787584693171084,0.0048901136033237,0.000326136098010466,0,
00:00:05.716,0.000226483447477221,-0.000579684274271131,0.00420271418988705,0,
00:00:05.72,0.000707478378899395,0.0045302365906536605,-0.000249483884545043,0,
00:00:05.724,-0.0014333593426272301,-0.00228724163025618,-0.00109824759420007,0,
00:00:05.728,0.0022691497579217,-0.0016717212274670599,-0.00269628316164017,0,
00:00:05.732,0.00366023206152022,0.0023334554862231,0.00197840109467506,0,
00:00:05.736,-0.00412370590493083,0.00132105662487447,0.008192062377929691,0,
00:00:05.74,-0.0007694422383792701,-0.00259851524606347,-0.00543451216071844,0,
00:00:05.744,0.0023566298186779,0.00259315362200141,-0.00563500449061394,0,
00:00:05.748,-0.0016156377969309698,0.0045967479236424,-0.0016115666367113599,0,
00:00:05.752,-0.0014815619215369199,-0.007946117781102659,-0.00032935122726485095,0,
00:00:05.756,-0.0022654831409454302,-0.00991717260330915,0.00690320646390319,0,
00:00:05.76,0.0027409929316490897,0.00172753143124282,0.00384925585240126,0,
00:00:05.764,0.0026133458595722896,0.0129055306315422,-0.00279913633130491,0,
00:00:05.768,0.00287889153696597,0.00201017921790481,-0.0053027472458779795,0,
00:00:05.772,-0.00270047294907272,-0.0024635309819132103,0.000547640898730606,0,
00:00:05.776,-0.00292274658568203,-0.00510562304407358,0.004039720632135871,0,
00:00:05.78,-0.00325637403875589,-0.006047601345926521,-0.0006657433696091179,0,
00:00:05.784,0.000372239679563791,0.00312644010409713,-0.0014498996315524,0,
00:00:05.788,0.00482876366004348,0.0180236864835024,0.00134491501376033,0,
00:00:05.792,0.00911836232990026,0.0104955844581127,0.000220904170419089,0,
00:00:05.796,-0.0081775039434433,-0.0271360818296671,-0.0030713404994458,0,
00:00:05.8,-0.0049062669277191205,-0.0176338944584131,-0.00130337756127119,0,
00:00:05.804,-0.00302050565369427,0.0051660044118762,0.0009068839135579759,0,
00:00:05.808,0.0035531045868992797,0.0121423285454512,0.00390175031498075,0,
00:00:05.812,0.00592768611386418,0.00720922602340579,-0.000520678528118879,0,
00:00:05.816,-0.00234645861200988,0.00084368756506592,-0.0011441914830356802,0,
00:00:05.82,-9.148825483862309e-05,0.00349807715974748,-0.000527091207914054,0,
00:00:05.824,1.3336550637177401e-06,-0.00072547112358734,0.000106479550595395,0,
00:00:05.828,-0.00036951148649677596,-0.00199060118757188,0.000362203310942277,0,
00:00:05.832,0.0015538175357505699,-0.00426699686795473,0.00235985382460058,0,
00:00:05.836,-0.0044266362674534295,-0.00817828252911568,-0.00190780661068857,0,
00:00:05.84,0.00023608481569681298,0.00209922646172345,0.000318214355502278,0,
00:00:05.844,0.00159781752154231,0.0038314629346132296,-0.00441455142572522,0,
00:00:05.848,0.00332151842303574,-0.00185510993469507,0.00102236052043736,0,
00:00:05.852,-0.00367455091327429,-0.00190995133016258,0.00449772132560611,0,
00:00:05.856,-0.00204644864425063,0.00845318287611008,0.00175833655521274,0,
00:00:05.86,0.00704006804153323,0.0105740176513791,-0.00330082420259714,0,
00:00:05.864,0.000347004388459027,-0.00761400675401092,-0.00246373913250864,0,
00:00:05.868,-0.00714551098644733,-0.0157512780278921,-0.000259550201008096,0,
00:00:05.872,-0.00119490793440491,-0.000702155055478215,0.00119178229942918,0,
00:00:05.876,0.00175420567393303,0.0036160494200885296,0.00142620352562517,0,
00:00:05.88,0.000157443035277538,0.00568162417039275,0.00292354519478977,0,
00:00:05.884,0.00332495663315058,0.00442718807607889,-0.0018988500814884899,0,
00:00:05.888,0.00182341551408172,0.0036018779501318897,-0.00208781496621668,0,
00:00:05.892,-0.0004208076861687,-0.000958056596573442,-0.000755479384679347,0,
00:00:05.896,-0.001639474183321,-0.00172895705327392,0.000427076680352911,0,
00:00:05.9,-0.0015943724429234901,-0.0016175536438822699,0.00295848492532969,0,
00:00:05.904,0.00126007001381367,-0.00965606048703194,-0.00126997020561248,0,
00:00:05.908,-0.0040128845721483205,-0.00142064713872969,-0.00138931232504547,0,
00:00:05.912,0.00295809470117092,0.005533259827643629,-0.000324028020258993,0,
00:00:05.916,0.000115637354610953,0.00245698215439916,0.0025876073632389303,0,
00:00:05.92,-0.000213954263017513,0.00330485636368394,-0.00124993070494384,0,
00:00:05.924,-0.00195985077880323,-0.0056937471963465205,-0.00116941728629172,0,
00:00:05.928,0.00230780453421175,0.00212595635093749,0.00197399198077619,0,
00:00:05.932,0.0019269472686573898,0.0004975363262929019,-0.0034245222341269302,0,
00:00:05.936,-0.0018086245981976399,-0.00363504723645747,0.0010538278147578198,0,
00:00:05.94,0.00103733164723963,0.00650550192221999,0.00393707258626819,0,
00:00:05.944,0.0025082316715270303,0.00975126214325428,-0.000967225467320532,0,
00:00:05.948,-0.00259313569404185,-0.00322014675475657,-0.00172966334503144,0,
00:00:05.952,-0.000578460923861712,-0.00653235800564289,0.00118014274630696,0,
00:00:05.956,-0.00288609159179032,-0.0131315803155303,-0.0018995045684278,0,
00:00:05.96,-0.00305415410548449,-0.00829218607395887,0.001012621098198,0,
00:00:05.964,0.00309986365027726,0.00458851829171181,-0.00157923717051744,0,
00:00:05.968,0.0035654811654239897,0.0131812589243054,-0.00259002344682813,0,
00:00:05.972,0.00166035967413336,0.0117146167904139,0.00487300893291831,0,
00:00:05.976,-0.000338149431627244,0.0064770486205816295,0.00092843477614224,0,
00:00:05.98,-0.00136910739820451,-0.008977834135293959,-0.0005887005245313049,0,
00:00:05.984,-0.00342782726511359,-0.0208134390413761,0.00123802456073463,0,
00:00:05.988,0.0012441792059689801,0.00025999342324212204,-0.00252235331572592,0,
00:00:05.992,0.0036836173385381703,0.0206100475043058,-0.0018024918390438,0,
00:00:05.996,-0.0013993524480611099,0.0079535860568285,-7.616048242198299e-05,0,
00:00:06,7.713382365182041e-05,-0.0124957086518407,0.00310296285897493,0,
00:00:06.004,-0.0049252170138061,-0.0158499386161566,-0.000809171353466809,0,
00:00:06.008,0.000643855426460505,-0.0038674799725413296,-0.0009673932800069449,0,
00:00:06.012,0.00233156490139663,0.00629402883350849,-0.000129151841974817,0,
00:00:06.016,0.00180205842480063,0.0113353235647082,0.00047544867265969504,0,
00:00:06.02,-0.00152636133134365,0.00238490826450288,0.000561401771847159,0,
00:00:06.024,-0.000554510101210326,-0.000179130511241965,0.000300631509162486,0,
00:00:06.028,0.00485413568094373,0.0074325492605567,-2.9152835850254602e-05,0,
00:00:06.032,0.00330555369146168,0.00554922176524997,0.00183902052231133,0,
00:00:06.036,-0.008629417046904559,-0.0152310505509377,-0.00224530580453575,0,
00:00:06.04,-0.00328724831342697,-0.0189743358641863,0.000254367012530565,0,
00:00:06.044,0.000728255661670119,0.000851728138513863,-0.00220394134521484,0,
00:00:06.048,0.000358883291482925,0.0053612068295478795,-0.00283045298419893,0,
00:00:06.052,0.00210965680889785,0.0048756441101431795,0.00290755229070783,0,
00:00:06.056,0.00466310838237405,0.0157327111810446,0.00525939697399735,0,
00:00:06.06,0.0037754797376692295,0.0148749044165015,-0.0006577692111022769,0,
00:00:06.064,-0.00132713071070611,-0.00577657204121351,-0.0021590122487396,0,
00:00:06.068,-0.00837709102779627,-0.0213338751345873,-0.00155452557373792,0,
00:00:06.072,-0.0019963567610830103,-0.0151908481493592,-0.0004150707682129,0,
00:00:06.076,0.00150080199819058,-0.0003787717432715,0.0024859721306711396,0,
00:00:06.08,0.00452284282073379,0.0154221598058939,-0.00130263832397759,0,
00:00:06.084,-0.000185855242307298,0.0045296028256416295,-0.00113967317156494,0,
00:00:06.088,-0.00312208314426243,-0.00496724201366305,-1.13190317279077e-05,0,
00:00:06.092,-0.000635947566479445,0.008129820227622991,0.0007292569498531519,0,
00:00:06.096,0.0037065451033413397,0.008633001707494259,0.0007944600074552,0,
00:00:06.1,0.00426959851756692,-0.0059241796843707605,0.000425449397880584,0,
00:00:06.104,-0.00231887050904334,-0.00441377377137542,-1.96463406609837e-05,0,
