Elapsed Time,EMG1,EMG2,EMG3,BioRadio Event,Unnamed: 5
00:00:00,1.0939360857009899,0.5002629756927489,3.0119569301605202,0,
00:00:00.004,-1.04099488258362,-0.478128492832184,-2.86826848983765,0,
00:00:00.008,-0.865356624126434,-0.39375701546669,-2.38062906265259,0,
00:00:00.012,-0.0932992622256279,-0.038948442786932,-0.255240738391876,0,
00:00:00.016,0.442045599222183,0.201300874352455,1.22298562526703,0,
00:00:00.02,0.545613706111908,0.245174765586853,1.4902527332305902,0,
00:00:00.024,0.33197408914566,0.15076130628585802,0.911845326423645,0,
00:00:00.028,0.0394978038966656,0.0178181733936071,0.119843788444996,0,
00:00:00.032,-0.153513789176941,-0.0654653608798981,-0.43309804797172496,0,
00:00:00.036,-0.222133934497833,-0.101997077465057,-0.603110373020172,0,
00:00:00.04,-0.15187600255012498,-0.0693584904074669,-0.43497550487518294,0,
00:00:00.044,-0.0667351707816124,-0.0368467718362808,-0.15976527333259602,0,
00:00:00.048,0.0247196182608604,0.0101415785029531,0.0859873667359352,0,
00:00:00.052,0.0611307509243488,0.0374211072921753,0.178328543901443,0,
00:00:00.056,0.0661565735936165,0.0341258198022842,0.12673345208168,0,
00:00:00.06,0.0344481654465199,0.0137686869129539,0.0651423409581184,0,
00:00:00.064,-0.00255516869947314,-0.00462863687425852,0.0116236545145512,0,
00:00:00.068,-0.0208147652447224,-0.0172180384397507,-0.0329441763460636,0,
00:00:00.072,-0.0217644870281219,-0.0100860260426998,-0.0359273254871368,0,
00:00:00.076,-0.0127813573926687,-0.00268605072051287,-0.03315821662545201,0,
00:00:00.08,-0.0020455855410546103,0.00436318572610617,-0.0145276868715882,0,
00:00:00.084,0.000910290982574224,-0.0021186692174524104,0.0054632429964840395,0,
00:00:00.088,0.0151037229225039,0.00760833639651537,0.0146586066111922,0,
00:00:00.092,0.00235920120030642,0.00042106627370230897,0.00881218630820513,0,
00:00:00.096,0.00290572619996965,0.00122354505583644,0.00346784363500774,0,
00:00:00.1,-0.0033014179207384604,-0.000340275029884651,0.0016234312206506699,0,
00:00:00.104,-0.00602992856875062,-0.00154715764801949,-0.00432418473064899,0,
00:00:00.108,-0.00015671644359826998,-0.0016405719798058302,-0.0061431061476469,0,
00:00:00.112,0.0036674700677394897,-0.0009383687865920359,-0.0100330375134945,0,
00:00:00.116,-0.000633819086942822,-6.63183673168533e-05,0.0224537327885628,0,
00:00:00.12,-0.0011542621068656401,0.000512509664986283,0.00834111869335175,0,
00:00:00.124,-0.00245837378315628,0.000653780880384147,-0.0188557002693415,0,
00:00:00.128,0.000262882269453257,-0.00160883669741452,-0.0101872598752379,0,
00:00:00.132,0.006322385743260379,0.00213742372579873,0.0028998693451285397,0,
00:00:00.136,0.00239191483706236,0.00363391730934381,0.00469944905489683,0,
00:00:00.14,-0.00413970369845629,8.63333480083384e-05,0.009176301769912241,0,
00:00:00.144,-0.00589709216728807,-0.006707574240863321,0.00129707262385637,0,
00:00:00.148,0.000735426845494658,-0.000958004151470959,-0.00264556449837983,0,
00:00:00.152,0.00466202618554235,0.0016774575924500801,-0.00539857195690274,0,
00:00:00.156,-2.53894631896401e-05,0.00409245118498802,-0.000151965563418344,0,
00:00:00.16,-0.00105916045140475,-0.00080022361362353,-0.00506374752148986,0,
00:00:00.164,-0.000647682463750243,-0.0056621516123414,0.0109410034492612,0,
00:00:00.168,-0.00208550761453807,0.0011598456185311099,0.00119311979506165,0,
00:00:00.172,0.00439868262037635,0.0074877091683447404,-0.00919439271092415,0,
00:00:00.176,-0.00204646377824247,-0.0015022213337943,0.0131056187674403,0,
00:00:00.18,-0.00346099468879402,-0.00276011321693659,0.00590837188065052,0,
00:00:00.184,0.008699109777808191,0.004894702229648829,-0.0256135761737823,0,
00:00:00.188,-0.000820411776658148,-0.00365780387073755,-0.00829221121966839,0,
00:00:00.192,-0.0014589459169656,-0.00393897062167525,0.0061010438948869705,0,
00:00:00.196,-0.0066698766313493295,-0.0012899712892249198,0.0111022787168622,0,
00:00:00.2,-0.000308224349282682,0.00110581843182445,0.00838969368487597,0,
00:00:00.204,0.00439227325841784,-3.5122120607411496e-05,0.00467879278585315,0,
00:00:00.208,0.0045381304807961,0.00362807651981711,0.00201547611504793,0,
00:00:00.212,-0.0126870758831501,-0.00392315769568086,-0.007689486257731909,0,
00:00:00.216,0.00234335055574775,0.00794216804206371,-0.0127555076032877,0,
00:00:00.22,0.0124574014917016,0.00557989114895463,-0.00270192953757942,0,
00:00:00.224,-0.00177741155494004,-0.00882111396640539,0.00337321171537042,0,
00:00:00.228,-0.00232273084111512,-0.00293319649063051,0.00499396258965135,0,
00:00:00.232,-0.0024245630484074398,-0.00304788257926703,0.0035824312362819897,0,
00:00:00.236,0.0025077317841351,-0.000174585075001232,-0.000940226600505412,0,
00:00:00.24,-0.00443567568436265,0.00412244768813252,-0.0009091769461520019,0,
00:00:00.244,-0.00284125725738704,0.0005400695954449469,-6.1008406191831495e-05,0,
00:00:00.248,-0.0015963752521202,5.69558596907882e-06,0.00034213182516396,0,
00:00:00.252,0.0043894499540329,-0.00396180804818869,0.0126802995800972,0,
00:00:00.256,0.00406514853239059,0.00213278690353036,-0.00364480563439429,0,
00:00:00.26,0.00144345418084413,0.0074473721906542795,-0.020165765658020997,0,
00:00:00.264,-0.0008856745553202929,-7.67236415413208e-05,-0.00603596260771155,0,
00:00:00.268,-0.0018700158689171102,-0.00545581290498376,0.00987649243324995,0,
00:00:00.272,-0.00160519371274859,0.000739263545256108,0.00567045621573925,0,
00:00:00.276,0.00134881550911814,0.0022189158480614398,0.00588807417079806,0,
00:00:00.28,-0.0060061193071305795,-0.0114539926871657,0.0018368003657087699,0,
00:00:00.284,0.00496094301342964,0.00488448468968272,-0.00187005009502172,0,
00:00:00.288,0.0017328964313492198,0.00367905758321285,-0.00542899873107672,0,
00:00:00.292,-0.00216125906445086,0.0038161976262927103,-0.00493888230994344,0,
00:00:00.296,0.0012053543468937302,-0.00193198898341507,0.000252977013587952,0,
00:00:00.3,0.00300068524666131,-0.006674866192042829,0.0180676244199276,0,
00:00:00.304,-0.0042200004681944795,0.0006901525193825361,0.00018173779244534698,0,
00:00:00.308,-0.00256423396058381,0.00754163321107626,-0.0216772276908159,0,
00:00:00.312,0.00470890710130334,0.00505729438737035,-0.0140284895896912,0,
00:00:00.316,0.000292542186798528,-0.0062633422203362,0.00895196478813887,0,
00:00:00.32,0.00708201713860035,-0.0101069156080484,0.0354926884174347,0,
00:00:00.324,-0.0152224134653807,-0.0020517201628536,0.0065778698772192,0,
00:00:00.328,-0.007252211682498459,0.0109211830422282,-0.0285137388855219,0,
00:00:00.332,0.0145322037860751,0.00661175139248371,-0.0252483077347279,0,
00:00:00.336,0.007447942160069941,-0.00269390223547816,0.0116496765986085,0,
00:00:00.34,-0.0047999001108109994,-0.006804483011364939,0.0222792830318213,0,
00:00:00.344,-0.000845151196699589,-0.00108992867171764,-0.00219891197048128,0,
00:00:00.348,-0.0035073182079941,0.00109399855136871,-0.0019613194745034,0,
00:00:00.352,-0.00206105061806738,0.00135477120056748,-0.00897882599383593,0,
00:00:00.356,-0.00194290291983634,0.0008034108323045071,-0.004903661552816629,0,
00:00:00.36,0.00341054471209645,0.000150015446706675,0.0135504985228181,0,
00:00:00.364,0.00318641168996692,-0.00025645099231042,0.0134149026125669,0,
00:00:00.368,0.00314829288981855,-0.000351385679095984,-0.0167388189584017,0,
00:00:00.372,-0.00479847099632025,-0.00023586452880408599,-0.010382879525423,0,
00:00:00.376,0.0009468885837122801,0.00201940187253058,-0.00248470343649387,0,
00:00:00.38,-0.00378512148745358,-0.00189756404142827,0.0033213393762707697,0,
00:00:00.384,-0.00328757567331195,-0.0035929856821894602,0.0179145857691765,0,
00:00:00.388,0.0119887795299292,-0.000178047790541314,0.00509268697351217,0,
00:00:00.392,-0.0056860311888158295,0.000350591115420684,0.00112074241042137,0,
00:00:00.396,0.00156213471200317,0.0109393317252398,-0.0184135418385267,0,
00:00:00.4,-0.00142362772021443,0.00341415544971824,-0.0111715206876397,0,
00:00:00.404,0.0006337409140542151,-0.008705045096576209,-0.0074456017464399294,0,
00:00:00.408,0.0017396264011040302,-0.0114547498524189,0.0239814203232527,0,
00:00:00.412,-0.0134538393467665,2.71891422016779e-05,0.0233078114688396,0,
00:00:00.416,0.0052087907679379,0.009740574285387991,-0.0215374995023012,0,
00:00:00.42,0.009741314686834809,0.00170719996094704,-0.0133305545896292,0,
00:00:00.424,0.00168046471662819,0.00161707156803459,-0.00162062852177769,0,
00:00:00.428,-0.000348860601661727,-0.000517179490998387,0.00753868743777275,0,
00:00:00.432,-0.00932824332267046,-0.0019087715772911898,0.00668121362105012,0,
00:00:00.436,0.00024873876827769,0.000158851937158033,0.000288450275547802,0,
00:00:00.44,0.00474121375009418,-0.00300399935804307,0.00270059262402356,0,
00:00:00.444,0.004076682496815921,-0.00164400564972311,-0.00944645423442125,0,
00:00:00.448,-0.00726179126650095,-0.0036865493748337,0.0040828455239534395,0,
00:00:00.452,-0.00417597172781825,0.005559709854424,0.0112304547801614,0,
00:00:00.456,0.0032344975043088198,0.00690864911302924,-0.0150958001613617,0,
00:00:00.46,0.0060222572647035105,0.00124382856301963,-0.0181068368256092,0,
00:00:00.464,-0.0021598394960165,-0.009492373093962671,0.0197206009179354,0,
00:00:00.468,-0.00413209665566683,-0.004606817848980429,0.0210142843425274,0,
00:00:00.472,0.0101788295432925,0.0143371596932411,-0.0137583762407303,0,
00:00:00.476,-0.00515895849093795,-0.00502632185816765,-0.00963207054883242,0,
00:00:00.48,-0.00320259830914438,-0.005843986757099629,-0.007529848720878359,0,
00:00:00.484,-0.00100472802296281,0.00288387178443372,-0.000837275350932032,0,
00:00:00.488,0.000539268366992474,-0.0016047223471105099,0.0126558328047395,0,
00:00:00.492,0.00112862267997116,0.0020211806986481,0.00623668963089585,0,
00:00:00.496,-0.00112155079841614,0.0038943886756897,0.000181190043804236,0,
00:00:00.5,0.00240552821196616,-0.00360802467912436,-0.00317859416827559,0,
00:00:00.504,-0.000497923174407333,-0.00031584600219502996,-0.00363142299465835,0,
00:00:00.508,0.00597810512408614,-0.00159969355445355,-0.0022637809161096803,0,
00:00:00.512,-0.00764112314209342,0.000196377251995727,-0.000459733128082007,0,
00:00:00.516,0.0016921352362260199,0.007728088181465859,0.000804873125161976,0,
00:00:00.52,0.0077520897611975705,0.00180373911280185,-0.00710077676922083,0,
00:00:00.524,-0.00853359047323465,-0.010174410417676001,0.0108959227800369,0,
00:00:00.528,-0.016972990706563,-0.0056877266615629205,0.00495086796581745,0,
00:00:00.532,0.0117017384618521,0.0054062707349658,0.00724503910169005,0,
00:00:00.536,0.0143200941383839,-0.00117909128312021,-0.00972665473818779,0,
00:00:00.54,-0.00852708518505096,-0.00095250946469605,-0.0100710662081838,0,
00:00:00.544,0.00698936032131314,0.0135026853531599,-0.00392557354643941,0,
00:00:00.548,-0.0018298426875844602,-0.0012822375865653198,-0.00220849551260471,0,
00:00:00.552,-0.00649673864245415,-0.00317624094896019,0.0044101215898990605,0,
00:00:00.556,0.000805459218099713,0.000318539794534445,0.007204326335340741,0,
00:00:00.56,-0.00119128683581948,-0.00458198646083474,-0.000803626084234566,0,
00:00:00.564,-0.00046294298954308,-0.00813721306622028,0.0199632029980421,0,
00:00:00.568,-0.00142003642395139,-0.00133436208125204,-0.00238985964097083,0,
00:00:00.572,0.0031330124475061898,0.00655084801837802,-0.0183314215391874,0,
00:00:00.576,0.00467613432556391,0.008037031628191471,-0.0091194324195385,0,
00:00:00.58,0.000682320445775986,0.000273652491159737,-0.00187101890332997,0,
00:00:00.584,-0.00665217079222202,-0.00478902598842978,0.007238034158945079,0,
00:00:00.588,-0.00333360373042524,-0.0028121715877205103,0.00939929578453302,0,
00:00:00.592,0.00326567376032472,0.00221571628935635,0.00150789506733418,0,
00:00:00.596,0.00545862130820751,0.00593491969630122,-0.00623723911121488,0,
00:00:00.6,0.00135857833083719,-0.00594822829589248,0.0033024069853127,0,
00:00:00.604,-0.00427654013037682,-0.00232917815446854,-0.000487596378661692,0,
00:00:00.608,-0.00742123695090413,-0.0019184430129826101,-0.00385682261548936,0,
00:00:00.612,-0.0007536030025221411,0.00115181144792587,0.0005545711610466241,0,
00:00:00.616,0.0127511769533157,0.00692933099344373,0.00534726399928331,0,
00:00:00.62,0.00150608876720071,-0.0015764218987897,-0.0034005178604275,0,
00:00:00.624,-0.0034060478210449197,0.0017686077626422,-0.00341765116900206,0,
00:00:00.628,0.000325442699249834,0.00141745363362134,-0.00285412697121501,0,
00:00:00.632,-0.0080912746489048,-0.00872714724391699,0.00123492872808129,0,
00:00:00.636,-0.0034306338056922,-0.00436541670933366,0.007635768037289379,0,
00:00:00.64,0.00442669121548533,0.00385605823248625,0.00743189081549644,0,
00:00:00.644,0.006936533376574521,0.00477221235632896,-0.00995258893817663,0,
00:00:00.648,0.00651272339746356,0.0045584230683744,-0.00958085153251886,0,
00:00:00.652,-0.0079742893576622,-0.00208730576559901,-0.0068642059341073,0,
00:00:00.656,-0.0172576848417521,-0.00736928451806307,0.0176529102027416,0,
00:00:00.66,0.0063523640856146795,-0.0020852109882980602,0.026010412722826,0,
00:00:00.664,0.0148665271699429,0.0091436393558979,-0.0186307542026043,0,
00:00:00.668,0.0104513429105282,0.006700232625007629,-0.0173822455108166,0,
00:00:00.672,-0.0153358709067106,-0.0100044021382928,-0.00402260757982731,0,
00:00:00.676,-0.00250333431176841,-0.000495069019962102,-0.000455374392913654,0,
00:00:00.68,-0.00179921428207308,-0.00138322194106877,0.00570764020085335,0,
00:00:00.684,4.14380428992445e-06,-0.000252810394158587,0.00752010103315115,0,
00:00:00.688,0.0013072045985609302,0.000883987871930003,0.00714106485247612,0,
00:00:00.692,-0.000483876938233152,0.0012592817656695802,0.0011515968944877401,0,
00:00:00.696,0.00306874210946262,0.0030115051195025396,-0.0077367238700389905,0,
00:00:00.7,0.00197211769409478,-0.00788029748946428,0.00531036127358675,0,
00:00:00.704,0.00406431220471859,0.00408975873142481,-0.00397309940308332,0,
00:00:00.708,-0.00529675744473934,0.0043239607475698,-0.009593730792403221,0,
00:00:00.712,-0.00889335479587317,0.00306542264297605,-0.000932996685151011,0,
00:00:00.716,0.00483768014237285,-0.0036742782685905704,0.0077989073470234906,0,
00:00:00.72,0.00292752683162689,-0.00410018768161535,-0.00382017577067018,0,
00:00:00.724,0.00120462535414845,-0.0018782238475978398,0.005329289939254521,0,
00:00:00.728,-4.38308670709375e-05,-0.00165001640561968,0.00134389149025083,0,
00:00:00.732,-0.00273063965141773,0.0035824209917336702,-0.000699713651556522,0,
00:00:00.736,0.00334746693260968,0.007371728308498859,-0.005462897010147571,0,
00:00:00.74,0.0054659270681440796,0.0033068871125578898,-0.00955169927328825,0,
00:00:00.744,-0.0137059697881341,-0.0224650483578444,0.0167565252631903,0,
00:00:00.748,-0.0019510624697431898,0.00300704687833786,0.026976116001606,0,
00:00:00.752,0.00017351678980048703,0.0117881149053574,-0.0280256196856499,0,
00:00:00.756,0.0153385931625962,0.00474693207070231,-0.00554025918245316,0,
00:00:00.76,0.00231722090393305,0.00577813806012273,-0.00933150760829449,0,
00:00:00.764,-0.00235333573073149,-0.00468563940376043,0.000897014397196472,0,
00:00:00.768,-0.00748860463500023,-0.00977509096264839,-0.000302430096780881,0,
00:00:00.772,-0.00498465122655034,-0.00749733671545982,0.00983861554414034,0,
00:00:00.776,-0.0006403867155313491,0.00237057427875698,0.0060347830876708,0,
00:00:00.78,0.00439517945051193,0.0054056067019701,0.00426514446735382,0,
00:00:00.784,0.00104109267704189,0.0042034825310111,-0.00294324499554932,0,
00:00:00.788,-0.0016555314650759099,-0.0005792701267637309,-0.00423077121376991,0,
00:00:00.792,0.000290418800432235,0.00536781642585993,-0.00277868891134858,0,
00:00:00.796,0.00595563929527998,-0.00611834088340402,0.007538892328739171,0,
00:00:00.8,-0.000146733073052019,-0.0068196696229279,0.00103138270787895,0,
00:00:00.804,-0.00459700217470527,0.0036513498052954704,-0.0133893918246031,0,
00:00:00.808,-0.000372977752704173,0.00416680378839374,-0.0064554801210761105,0,
00:00:00.812,0.00265207514166832,0.00350728165358305,0.0050239474512636705,0,
00:00:00.816,-0.00368545413948596,-0.0029624206945300102,0.0053410902619361895,0,
00:00:00.82,0.00241014338098466,-0.00352106732316315,0.006702846847474579,0,
00:00:00.824,-0.0006815133965574201,-0.00163662282284349,0.000370813999325037,0,
00:00:00.828,-0.0028405105695128397,0.000352843664586544,0.00023501203395426298,0,
00:00:00.832,0.0040351497009396605,0.0013721414143219599,-0.0018876452231779699,0,
00:00:00.836,0.000191900282516144,0.00134392257314175,-0.000740420946385711,0,
00:00:00.84,-0.00502002146095037,-0.00135849544312805,-0.0020565427839756,0,
00:00:00.844,0.0053495573811233,-7.923715747892859e-05,-0.00228105112910271,0,
00:00:00.848,0.00114059005863965,0.00736216315999627,-0.00951867178082466,0,
00:00:00.852,-0.0010905951494351,-0.00469537358731031,0.00810094550251961,0,
00:00:00.856,-0.00156372436322272,-0.00230281823314726,0.00977773219347,0,
00:00:00.86,0.00106930732727051,0.00139855640009046,-0.006190527230501171,0,
00:00:00.864,-0.0042362301610410205,-0.0037645497359335396,-0.0023394045419991,0,
00:00:00.868,0.0007278619450517,0.000984026701189578,0.00696601253002882,0,
00:00:00.872,0.0041084187105298,0.00411935290321708,-0.00208388827741146,0,
00:00:00.876,-0.00675920536741614,-0.00895868241786957,0.000568220333661884,0,
00:00:00.88,0.004624349065124989,0.0085402550175786,-0.00376990297809243,0,
00:00:00.884,0.00843400787562132,0.0101022198796272,-0.009240818209946159,0,
00:00:00.888,-0.0032978926319629,-0.00881539564579725,0.0011881934478879,0,
00:00:00.892,-0.0053260102868080104,-0.008043813519179821,0.0102016106247902,0,
00:00:00.896,-0.00299715297296643,0.0023873967584222603,0.0036714484449476,0,
00:00:00.9,-0.00209676334634423,-0.00097715319134295,-0.00497051700949669,0,
00:00:00.904,0.00579521944746375,0.00507458671927452,-0.00911791808903217,0,
00:00:00.908,-0.0045930920168757395,-0.0035603453870862705,0.0231435634195805,0,
00:00:00.912,0.0139603158459067,0.00511534744873643,0.00585754262283444,0,
00:00:00.916,-0.00380091089755297,-0.00169870257377625,-0.0246519483625889,0,
00:00:00.92,-0.00879369676113129,0.00232705031521618,-0.0129152443259954,0,
00:00:00.924,-0.00156034890096635,-0.00423959409818053,0.0038774616550654203,0,
00:00:00.928,0.00196026498451829,-0.00251833745278418,0.0075181289575994,0,
00:00:00.932,0.0025849717203527698,0.0067701181396842,0.0117783257737756,0,
00:00:00.936,0.0016217358643189099,-0.0037995611783117104,0.00255977199412882,0,
00:00:00.94,0.0023760295007377898,-0.000906485482119024,-0.00485049048438668,0,
00:00:00.944,-0.00673428690060973,-0.00168471422512084,-0.00019709090702235701,0,
00:00:00.948,-0.000635857169982046,0.000581508793402463,-0.00347294588573277,0,
00:00:00.952,0.00651883659884334,0.0061608809046447294,-0.00465591670945287,0,
00:00:00.956,0.0027148725930601397,0.00204696250148118,0.00149532954674214,0,
00:00:00.96,-0.0039801336824894,-0.0085529750213027,0.0027194682043045803,0,
00:00:00.964,-0.0038172109052538898,6.02477812208235e-05,0.0017065925057977401,0,
00:00:00.968,-0.003374342340976,0.00836339592933655,-0.00180558185093105,0,
00:00:00.972,0.0007983460091054441,-0.00654740026220679,0.0033923122100532103,0,
00:00:00.976,0.0053875120356679,-0.0048082647845149,0.00709993531927466,0,
00:00:00.98,0.0032762433402240302,0.00251826597377658,-0.0140997245907784,0,
00:00:00.984,0.00200895126909018,0.00363839091733098,-0.00377806578762829,0,
00:00:00.988,-0.0061118542216718206,-8.525698649464179e-05,0.00258047343231738,0,
00:00:00.992,-0.0019108370179310398,0.0040308912284672295,0.00650444254279137,0,
00:00:00.996,0.00225570285692811,-0.00152558123227209,0.00124420085921884,0,
00:00:01,-0.0031341169960796803,-0.00486750574782491,-0.000687270949129015,0,
00:00:01.004,0.007417287211865191,0.000155936359078623,-0.00517715606838465,0,
00:00:01.008,-0.00607844116166234,0.00133251596707851,0.00530840829014778,0,
00:00:01.012,-0.008103594183921809,0.000910455652046949,-0.00105045607779175,0,
00:00:01.016,0.0111910095438361,0.004325291607528921,-0.00135855400003493,0,
00:00:01.02,0.00305504421703517,-0.0063253385014832,0.0060628829523921,0,
00:00:01.024,-0.00121164845768362,-0.0037799023557454296,-0.005281609017401929,0,
00:00:01.028,-0.00451263040304184,0.000944237050134689,-7.64359283493832e-05,0,
00:00:01.032,0.000132036118884571,0.00545296538621187,0.00411485973745584,0,
00:00:01.036,0.0010040878551080801,0.0010787830688059302,-0.00881595071405172,0,
00:00:01.04,0.000518054177518934,0.0037820290308445705,-0.00424376083537936,0,
00:00:01.044,0.0019851818215102,-0.00047641686978749904,0.00247077038511634,0,
00:00:01.048,-0.00234679644927382,-0.00781554449349642,0.00543741183355451,0,
00:00:01.052,-0.004038758575916289,-0.0019358093850314602,0.00857929978519678,0,
00:00:01.056,0.00168595125433058,0.0054069091565907,-0.00240338104777038,0,
00:00:01.06,0.002567044692114,0.00236103148199618,-0.004340530373156071,0,
00:00:01.064,-0.0006978981546126309,-0.0139106614515185,0.0036079580895602703,0,
00:00:01.068,0.00399658503010869,0.00277914619073272,0.0019957206677645397,0,
00:00:01.072,-0.00119616463780403,0.011690828949213002,-0.009788348339498041,0,
00:00:01.076,-0.0023920452222228102,0.00555790262296796,-0.0058010583743453,0,
00:00:01.08,-0.00362934661097825,-0.00614094082266092,-0.00107150641269982,0,
00:00:01.084,0.00381221901625395,-0.00573100615292788,0.00471940543502569,0,
00:00:01.088,-0.001751170726493,0.0023802020587027103,0.00839064829051495,0,
00:00:01.092,0.00139731972012669,-0.000484807096654549,0.00634494656696916,0,
00:00:01.096,0.00124517222866416,-0.000749304192140698,-0.00277463044039905,0,
00:00:01.1,-0.00189514108933508,-0.000100711768027395,-0.00727428728714585,0,
00:00:01.104,0.0034516965970397,-0.00159477896522731,-0.00177912530489266,0,
00:00:01.108,0.000972254551015794,0.00262364652007818,0.00259527820162475,0,
00:00:01.112,-0.00393674382939935,0.00210403348319232,-0.000884965760633349,0,
00:00:01.116,-0.00482861185446382,0.00031892021070234505,-0.00287532177753747,0,
00:00:01.12,0.00181750277988613,-0.0009590568370185789,8.08286349638365e-05,0,
00:00:01.124,0.00318059953860939,-0.0012511134846136,0.00442711496725678,0,
00:00:01.128,0.0040595275349915,0.00125185796059668,0.00471059791743755,0,
00:00:01.132,-0.00171188509557396,-0.00215115770697594,-0.0105174444615841,0,
00:00:01.136,-0.0045825382694602,-0.00341314682736993,0.0209764558821917,0,
00:00:01.14,0.0027509299106895898,0.00434208987280726,-0.0175894573330879,0,
00:00:01.144,0.0059736967086792,-0.0011978569673374302,-0.00878578145056963,0,
00:00:01.148,-0.0148722929880023,-0.00245930044911802,0.00936344638466835,0,
00:00:01.152,-0.00134669116232544,0.007242788095027209,0.0022304335143417103,0,
00:00:01.156,0.0123385973274708,0.00540189491584897,-0.00685590924695134,0,
00:00:01.16,0.00910400133579969,-0.008192529901862141,0.0007105628028512,0,
00:00:01.164,-0.00524755427613854,-0.00413354067131877,0.00421592453494668,0,
00:00:01.168,-0.00938201788812876,-0.0025599962100386602,0.005820691585540771,0,
00:00:01.172,-0.0019788478966802398,0.00562662398442626,0.0035412302240729297,0,
00:00:01.176,0.0016941464273259,-0.00252117635682225,-0.000261487788520753,0,
00:00:01.18,0.0025408100336790102,0.00792322307825089,-0.009285971522331241,0,
00:00:01.184,0.00177142908796668,-0.00344796432182193,-0.00823228619992733,0,
00:00:01.188,0.00261088297702372,-0.0015356796793639699,-0.000431114982347935,0,
00:00:01.192,-0.00445264810696244,-0.000642729748506099,0.0070477314293384595,0,
00:00:01.196,-0.000423328048782423,-0.00222933245822787,0.00586051214486361,0,
00:00:01.2,0.00291593745350838,0.0041727898642420795,-0.00022905554214958102,0,
00:00:01.204,-0.00122662202920765,0.0019738972187042197,-0.0015402471181005198,0,
00:00:01.208,-0.0034764795564115,-0.00737752811983228,0.00922740623354912,0,
00:00:01.212,0.0016268219333142,0.00141717027872801,-0.0103494608774781,0,
00:00:01.216,0.00216423370875418,0.000879491213709116,-0.00408141827210784,0,
00:00:01.22,0.000954113726038486,0.00561370374634862,-0.00470973458141088,0,
00:00:01.224,0.0017748030368238698,-0.000495102256536484,0.00308725656941533,0,
00:00:01.228,-0.0049457335844636,-0.00254874979145825,0.00486448314040899,0,
00:00:01.232,-0.00048339387285523095,-0.00210817949846387,0.00528223672881722,0,
00:00:01.236,0.00315449852496386,-0.000750737672206014,-0.00548235373571515,0,
00:00:01.24,-0.0009030401706695561,0.00041595904622227,-0.0009529004455544051,0,
00:00:01.244,-0.0053108828142285295,0.0029966237489134104,0.009562100283801559,0,
00:00:01.248,0.00577096035704017,-0.00324075925163925,-0.00440098531544209,0,
00:00:01.252,0.00179873371962458,-0.00135427329223603,-0.0100437235087156,0,
00:00:01.256,-0.00267777009867132,0.00133304216433316,-0.00486059347167611,0,
00:00:01.26,0.000568318355362862,0.00437036110088229,0.0183697808533907,0,
00:00:01.264,0.000516156491357833,0.00171259569469839,0.0060891741886735,0,
00:00:01.268,0.0018300786614418,0.000831721117720008,-0.009310266003012659,0,
00:00:01.272,0.00151958025526255,-0.00443387124687433,-0.0131969787180424,0,
00:00:01.276,-0.0144593482837081,-0.0056981015950441395,-0.00338808237574995,0,
00:00:01.28,0.00215924112126231,0.00107109465170652,0.00512776477262378,0,
00:00:01.284,0.0112441945821047,0.00288260681554675,0.0097197275608778,0,
00:00:01.288,0.00546624138951302,0.00420898338779807,0.00540085416287184,0,
00:00:01.292,-0.0038431028369814205,-0.00340220611542463,0.0017713006818667102,0,
00:00:01.296,-0.00527470000088215,0.00192377658095211,-0.007692136336117979,0,
00:00:01.3,-0.000930134789086878,-0.00348575715906918,-0.00569404661655426,0,
00:00:01.304,-0.00214455230161548,0.0006308035226538781,-0.00512476125732064,0,
00:00:01.308,-0.00214929576031864,0.00136227766051888,0.0165713764727116,0,
00:00:01.312,0.00158978102263063,-0.00135204254183918,0.00257705454714596,0,
00:00:01.316,0.00773531896993518,0.00190137210302055,-0.011895882897078998,0,
00:00:01.32,-0.000937025528401136,0.00114042998757213,-0.00301822880282998,0,
00:00:01.324,-0.00010880994523176899,-0.00240314705297351,-0.00104483729228377,0,
00:00:01.328,0.0031944348011165896,0.00502162566408515,-1.13231124032609e-06,0,
00:00:01.332,-0.005386789795011279,-0.0033277207985520398,0.0052784821018576605,0,
00:00:01.336,-0.00857636798173189,-0.00771683733910322,-0.00413603754714131,0,
00:00:01.34,0.00317042600363493,0.00287050730548799,0.0130793265998363,0,
00:00:01.344,0.00519995111972094,0.0064488006755709605,0.01155442930758,0,
00:00:01.348,0.0050384919159114396,-0.00182849424891174,-0.0168072395026684,0,
00:00:01.352,-0.00187370413914323,0.00216983095742762,-0.0117177432402968,0,
00:00:01.356,-0.00323940254747868,-0.00205028499476612,-0.00441090017557144,0,
00:00:01.36,-0.0040785903111100206,-0.00217290711589158,0.00410149386152625,0,
00:00:01.364,0.0017095283837989,-0.000812026555649936,0.0095701701939106,0,
00:00:01.368,0.00664999103173614,0.00044872830039821603,0.00598959298804402,0,
00:00:01.372,-0.00267036142759025,0.000984565238468349,0.000508632336277515,0,
00:00:01.376,-0.00338845932856202,-0.0012346951989457,-0.000965889717917889,0,
00:00:01.38,-0.00949924252927303,-0.00180869037285447,-0.0036405851133167705,0,
00:00:01.384,0.0108026824891567,0.00758352596312761,-0.008144914172589779,0,
00:00:01.388,0.00618739891797304,-0.0009124655043706301,-0.00249843252822757,0,
00:00:01.392,0.0044736382551491295,0.00366887333802879,0.00923783984035254,0,
00:00:01.396,-0.00705922674387693,-0.00331432744860649,-0.00105120870284736,0,
00:00:01.4,-0.0068261246196925605,-0.00903154537081718,-0.00551929930225015,0,
00:00:01.404,-0.00659854430705309,-0.00317772338166833,0.0147936884313822,0,
00:00:01.408,0.0116253402084112,0.00497277593240142,-0.0010100887157023,0,
00:00:01.412,-0.00373333459720016,0.00525712594389915,-0.008586602285504341,0,
00:00:01.416,-0.000110347384179477,0.000312784715788439,-0.0075779873877763705,0,
00:00:01.42,0.00416032085195184,0.00149489124305546,-0.00037062712362967404,0,
00:00:01.424,0.00219749333336949,0.0038688329514116,0.0066123460419476,0,
00:00:01.428,-0.000680037250276655,-0.00565479835495353,0.00320134195499122,0,
00:00:01.432,-9.47846565395594e-05,-0.00512566743418574,0.0116932094097137,0,
00:00:01.436,-0.00399744091555476,-0.00555730331689119,-0.007858004420995709,0,
00:00:01.44,-0.00260788085870445,0.00557751720771194,-0.0131649654358625,0,
00:00:01.444,-3.9936232496984296e-05,0.00593974161893129,0.000384951796149835,0,
00:00:01.448,0.00160607614088804,0.00237260013818741,0.0028169313445687303,0,
00:00:01.452,0.00184930791147053,-0.000983846490271389,0.00824982114136219,0,
00:00:01.456,-0.000933555245865136,-0.00247208727523685,0.0033665825612843,0,
00:00:01.46,9.51583351707086e-05,-0.00217750878073275,-0.00406914297491312,0,
00:00:01.464,0.0073013743385672595,0.0010862103663384901,-0.00637590140104294,0,
00:00:01.468,-0.0048751519061625,-0.0017965540755540102,-0.0019422884797677398,0,
00:00:01.472,-0.00247861724346876,-0.000831523153465241,-1.4264240235206698e-05,0,
00:00:01.476,0.00129903538618237,-0.00556090986356139,0.0157013684511185,0,
00:00:01.48,-0.00585306482389569,0.007273838389664891,0.000372035225154832,0,
00:00:01.484,0.00300267990678549,0.0101971942931414,-0.0154572008177638,0,
00:00:01.488,0.00581888994202018,-0.0009021127480082211,-0.00552994478493929,0,
00:00:01.492,-0.00251319794915617,-0.0121295442804694,0.00291018839925528,0,
00:00:01.496,0.0017854415345937,-0.00163327041082084,0.0123059870675206,0,
00:00:01.5,-0.0020868603605777,0.0024153557606041397,0.0009499037405475971,0,
00:00:01.504,-0.00406843796372414,0.00273544644005597,-0.00318351830355823,0,
00:00:01.508,0.00346506270579994,0.00147399818524718,-0.00317670102231205,0,
00:00:01.512,0.00026837666518986203,0.00216194544918835,-0.00359677826054394,0,
00:00:01.516,-0.00251333136111498,-0.000615563185419887,1.87434434337774e-05,0,
00:00:01.52,0.00175591104198247,-0.0106769874691963,0.00874807965010405,0,
00:00:01.524,0.00382796418853104,0.0035941223613917797,-0.0031929723918438,0,
00:00:01.528,-0.00154626020230353,0.005502779036760329,-0.00140646507497877,0,
00:00:01.532,-0.00228544953279197,0.00260655675083399,0.00153903488535434,0,
00:00:01.536,-0.00114547042176127,0.0014982365537434801,-0.0020588641054928303,0,
00:00:01.54,-0.00192677264567465,-0.00620254082605243,-0.0035804016515612602,0,
00:00:01.544,0.00903298519551754,-0.0016951400320977,0.00199887668713927,0,
00:00:01.548,-0.0138317476958036,-0.00159841810818762,0.00679944315925241,0,
00:00:01.552,0.005568044260144229,0.00517638772726059,-0.0026627939660102103,0,
00:00:01.556,0.0068381200544536105,-0.00149281951598823,-0.00556320091709495,0,
00:00:01.56,0.00627050269395113,0.00298710935749114,-0.0014343939255923,0,
00:00:01.564,-0.00602653017267585,-0.00347731215879321,0.00432918686419725,0,
00:00:01.568,-0.00682174228131771,5.62631175853312e-05,0.005431718658655879,0,
00:00:01.572,-0.00509554194286466,0.000750402803532779,-0.00138845003675669,0,
00:00:01.576,0.004888521973043679,0.00247092382051051,0.0011069548781961198,0,
00:00:01.58,0.00447559496387839,-0.0020460756495595,-0.010177387855946999,0,
00:00:01.584,-0.0029244888573885,-0.00401078723371029,0.00022164350957609702,0,
00:00:01.588,0.000641265069134533,0.00153885234612972,0.00571708008646965,0,
00:00:01.592,0.00125488673802465,0.0023855441249907,0.00319365784525871,0,
00:00:01.596,0.000587624148465693,0.0033350884914398198,-0.00454995548352599,0,
00:00:01.6,-0.000220695801544935,-0.00205721938982606,-0.000379153323592618,0,
00:00:01.604,-0.000636918644886464,-0.00454104878008366,-0.00102949608117342,0,
00:00:01.608,0.00147212983574718,0.0009340326068922881,0.00498779397457838,0,
00:00:01.612,-0.0022888290695846102,0.00407652882859111,-3.91192807001062e-05,0,
00:00:01.616,-0.00371750327758491,-0.00287948851473629,-0.0100221717730165,0,
00:00:01.62,-8.78792270668782e-05,-0.0016987302806228401,0.0126418163999915,0,
00:00:01.624,0.00468211062252522,0.000738816044759005,0.00837846472859383,0,
00:00:01.628,0.0029937783256173103,0.00600381707772613,-0.0160334911197424,0,
00:00:01.632,0.00208131922408938,-0.00039143321919255,-0.00592637062072754,0,
00:00:01.636,-0.0038028312847018203,-0.0027546654455363802,-0.000551909150090069,0,
00:00:01.64,-0.00366979697719216,-0.0023971479386091198,0.00651494925841689,0,
00:00:01.644,-0.00135468842927366,-0.0009336622315458949,0.00145705963950604,0,
00:00:01.648,-0.00134129461366683,-0.0016770727233961199,0.00794028677046299,0,
00:00:01.652,0.00568002834916115,0.0029987501911819,0.00422102492302656,0,
00:00:01.656,0.003149698022753,0.000513437204062939,-0.00777159165591002,0,
00:00:01.66,0.00134667451493442,0.004718303214758629,-0.00936946179717779,0,
00:00:01.664,-0.0171036645770073,0.0009075883426703509,-0.0046974169090390205,0,
00:00:01.668,0.0077925333753228205,-0.00682414835318923,0.0113766444846988,0,
00:00:01.672,0.00658680964261293,-0.00372283533215523,0.0048900246620178205,0,
00:00:01.676,0.0021865284070372603,0.00295582576654851,-0.00299940980039537,0,
00:00:01.68,0.000696794362738729,0.0074523654766380796,-0.00770603260025382,0,
00:00:01.684,-0.00262370915152133,-0.0046475762501359,0.00452201813459396,0,
00:00:01.688,-0.007890047505497929,-0.0038365111686289297,0.00593450060114264,0,
00:00:01.692,0.00138233217876405,0.00614295387640595,-0.00180693133734167,0,
00:00:01.696,-0.00138755002990365,-0.0036505747120827397,-0.008002663962543009,0,
00:00:01.7,0.00539003219455481,-0.000423868390498683,-0.00278936885297298,0,
00:00:01.704,-0.0008891952456906439,-0.0012876654509455,0.00475440872833133,0,
00:00:01.708,0.0015140506438911,0.00485666282474995,0.00262532057240605,0,
00:00:01.712,-0.0012397279497236,1.4346768693940198e-05,0.00171971379313618,0,
00:00:01.716,0.00364538514986634,-0.00156413053628057,0.0110778417438269,0,
00:00:01.72,0.000673346046824008,0.000739227514714003,-0.0101841567084193,0,
00:00:01.724,-0.00857990421354771,-0.00661218026652932,-0.0070518385618925095,0,
00:00:01.728,0.000806591240689158,0.00255043641664088,-0.0017770825652405602,0,
00:00:01.732,0.00297092902474105,0.0036564280744642,-7.942139200167729e-05,0,
00:00:01.736,0.00194970064330846,0.00167303485795856,0.009312635287642479,0,
00:00:01.74,0.000282859546132386,0.00163471954874694,-0.0019974363967776303,0,
00:00:01.744,0.00128261861391366,-0.0055108480155468,-0.00238953321240842,0,
00:00:01.748,-0.00298668723553419,0.0010588314617052698,0.00400539953261614,0,
00:00:01.752,-0.00436408165842295,-0.0032287698704749302,0.00151336030103266,0,
00:00:01.756,-0.00039642010233365,-0.000636426382698119,-0.00588377099484205,0,
00:00:01.76,0.0047198785468936,0.00204563443548977,-0.00308781280182302,0,
00:00:01.764,0.00530117424204946,0.00477246195077896,0.005168265663087371,0,
00:00:01.768,0.00243038381449878,0.00801124889403582,-0.000983919249847531,0,
00:00:01.772,-0.00726735778152943,-0.00730149913579226,-0.000720862823072821,0,
00:00:01.776,-0.0033816525246948,-0.00756454421207309,0.00686180032789707,0,
00:00:01.78,-0.0110204964876175,-0.00886217691004276,-0.0026733058039099,0,
00:00:01.784,0.00878434162586927,0.00976891815662384,-0.00816952157765627,0,
00:00:01.788,0.0116928676143289,0.00646613957360387,-0.000119540411105845,0,
00:00:01.792,-0.000404843944124877,0.0017696158029139,0.0138821555301547,0,
00:00:01.796,-0.00158594909589738,-0.00154958048369735,-0.00436897203326225,0,
00:00:01.8,0.0013376650167629099,-0.00266041792929173,-0.00654996233060956,0,
00:00:01.804,-0.00865012686699629,1.33409666887019e-05,-0.00279562408104539,0,
00:00:01.808,-0.00476392917335033,-0.006897130981087679,0.00316639407537878,0,
00:00:01.812,0.00535297300666571,0.00265183206647635,-0.00121779704932123,0,
00:00:01.816,0.00449167005717754,0.008116901852190491,0.00280342646874487,0,
00:00:01.82,-0.0053225290030241,-0.008186293765902521,0.00252796965651214,0,
00:00:01.824,0.00224660197272897,0.00240146135911345,-0.00135483662597835,0,
00:00:01.828,0.00475978618487716,0.005240534897893671,0.00114999432116747,0,
00:00:01.832,-0.00329542346298695,-0.00116241537034512,0.00023244916519615802,0,
00:00:01.836,-0.00267922994680703,-0.00492449197918177,-0.0009590788395144051,0,
00:00:01.84,0.00400975625962019,0.0020651335362345,-0.00131448649335653,0,
00:00:01.844,-0.000436011090641841,0.00132157083135098,-0.00297150434926152,0,
00:00:01.848,-0.0037132881116122,-0.00272070663049817,0.00178049667738378,0,
00:00:01.852,0.0029142948333174,-0.00366704864427447,0.0061420407146215395,0,
00:00:01.856,-0.000515131687279791,0.00448884628713131,-0.00530457915738225,0,
00:00:01.86,-0.0009675911860540509,0.00326713337562978,-0.00586331589147449,0,
00:00:01.864,-0.000339797319611534,-0.00823765434324741,0.0106339538469911,0,
00:00:01.868,0.0044508003629744105,0.00601316196843982,0.00063706620130688,0,
00:00:01.872,-0.00547687755897641,0.000393647962482646,-0.0014118839753791699,0,
00:00:01.876,-0.00710000842809677,-0.00261383899487555,-0.0095033785328269,0,
00:00:01.88,0.00737396301701665,0.00801360886543989,-0.0136165469884872,0,
00:00:01.884,0.0108553906902671,-1.24426951515488e-05,0.0216349959373474,0,
00:00:01.888,-0.00240660295821726,-0.008578727021813391,0.0102513767778873,0,
00:00:01.892,-0.0057636802084744,-0.0026322249323129697,-0.00334151973947883,0,
00:00:01.896,-0.0019269424956291899,0.00311602815054357,-0.00908024795353413,0,
00:00:01.9,-0.00702304393053055,-0.00585875054821372,-0.00727339554578066,0,
00:00:01.904,0.0036522354930639297,0.0103909224271774,0.00408797664567828,0,
00:00:01.908,0.00513695273548365,0.00164751696866006,0.0109535316005349,0,
00:00:01.912,0.0027060629799962,-0.004151290282607079,0.00210956064984202,0,
00:00:01.916,-0.00013562529056798702,-0.000560316839255393,-0.0137722631916404,0,
00:00:01.92,-0.00172337389085442,0.00019149608851876102,-0.007457980420440441,0,
00:00:01.924,0.000236316642258316,0.0021107213106006397,-8.199611329473559e-05,0,
00:00:01.928,-0.0030316396150738,-0.00214821309782565,0.00874162372201681,0,
00:00:01.932,-0.00382425799034536,-0.0018369287718087398,0.0140354363247752,0,
00:00:01.936,0.00231343833729625,-0.0023314708378166,-0.000962623860687017,0,
00:00:01.94,0.00315176509320736,0.000800226698629558,-0.000213707258808427,0,
00:00:01.944,0.00167793803848326,0.00685462169349194,-0.0116676054894924,0,
00:00:01.948,-5.40882683708332e-05,0.000605879467912018,-0.00950141530483961,0,
00:00:01.952,0.00103601568844169,-0.0042231855913996705,-8.96554556675255e-05,0,
00:00:01.956,-0.00310769258067012,-0.000357136217644438,0.0061390800401568395,0,
00:00:01.96,-0.00438561383634806,0.000390749919461086,0.00684249866753817,0,
00:00:01.964,0.0017095365328714301,-0.0019259937107563,0.00804183352738619,0,
00:00:01.968,0.000708041130565107,0.00391492107883096,0.000382583268219605,0,
00:00:01.972,0.00565839139744639,-0.00468690134584904,-0.00117908592801541,0,
00:00:01.976,-0.00025300891138613197,0.00446408009156585,-0.0164106637239456,0,
00:00:01.98,-0.00023201981093734503,0.0024112551473081103,-0.00314258364960551,0,
00:00:01.984,-0.00605406379327178,-0.00331385526806116,0.00205693021416664,0,
00:00:01.988,-0.0025379485450685,-0.00504327053204179,0.00977095402777195,0,
00:00:01.992,0.00580334197729826,0.00329897040501237,0.00554953422397375,0,
00:00:01.996,0.00147660507354885,-0.0013946503167972,-0.0046051237732172,0,
00:00:02,-0.00054931128397584,0.00416376255452633,-0.00397671805694699,0,
00:00:02.004,-0.00104561063926667,-0.000187434459803626,-0.000760266557335854,0,
00:00:02.008,-0.00281472341157496,-0.00335099943913519,0.00558449700474739,0,
00:00:02.012,0.00176322204060853,0.0031499268952757103,0.00410702638328075,0,
00:00:02.016,0.0038985388819128297,-0.000525505980476737,-0.00817118026316166,0,
00:00:02.02,0.0005978248082101349,-0.00324786896817386,-0.0053019621409475795,0,
00:00:02.024,-5.38715248694643e-05,0.00137240148615092,-0.0037117179017514,0,
00:00:02.028,-0.008772125467658041,0.00173979799728841,0.0139097589999437,0,
00:00:02.032,-0.009612038731575009,-0.00143593992106616,0.0114985909312963,0,
00:00:02.036,0.0129524897783995,-0.0004926437395624821,-0.0104985106736422,0,
00:00:02.04,0.0103934248909354,0.00489191384986043,-0.0105529250577092,0,
00:00:02.044,-0.000628476671408862,0.0054237213917076605,-0.00756991980597377,0,
00:00:02.048,-0.00280222296714783,-0.0105509916320443,0.004580342210829261,0,
00:00:02.052,-0.0106105823069811,-0.009027412161231041,0.008146821521222591,0,
00:00:02.056,-0.00182768807280809,0.0024647472891956602,0.00994584802538157,0,
00:00:02.06,0.00746143842115998,0.0127056166529655,0.007873201742768291,0,
00:00:02.064,0.00448969844728708,-0.0007937002810649571,-0.0151014570146799,0,
00:00:02.068,-0.00457854336127639,-0.00322756310924888,-0.0117401108145714,0,
00:00:02.072,-0.00119002815335989,0.00239154556766152,0.00031277610105462405,0,
00:00:02.076,0.00022232047922443599,-0.0018296975176781399,0.00318338396027684,0,
00:00:02.08,0.0005493147182278339,-0.00434617791324854,0.009126299060881141,0,
00:00:02.084,0.000387526990380138,0.0050665908493101606,0.00216714991256595,0,
00:00:02.088,0.00011274451389908799,-0.0041212416253984,-0.00369254848919809,0,
00:00:02.092,0.00199351436458528,-0.0022511731367558198,0.00139370793476701,0,
00:00:02.096,-0.00627216417342424,0.00336420349776745,-0.00230502476915717,0,
00:00:02.1,0.00219970964826643,0.0029940397944301397,-0.00215996289625764,0,
00:00:02.104,0.0030723565723747,0.0028696742374450003,-0.00690548541024327,0,
00:00:02.108,0.00122346600983292,-0.00293476972728968,0.00652797892689705,0,
00:00:02.112,0.00147036323323846,-0.00316989724524319,0.0122491111978889,0,
00:00:02.116,-0.00127876189071685,-0.0013126736739650401,-0.00035394390579312996,0,
00:00:02.12,-0.0068505653180182,-0.0036763253156095704,-0.0151924034580588,0,
00:00:02.124,-0.0044607543386519,0.0073237558826804204,-0.007213110104203221,0,
00:00:02.128,0.00851305387914181,0.006632814183831211,0.007164382841438059,0,
00:00:02.132,0.00178006244823337,-0.0129847154021263,0.0161199532449245,0,
00:00:02.136,0.0019851045217365,0.00476449076086283,-0.00457630725577474,0,
00:00:02.14,0.00180879433173686,0.00676330644637346,-0.0117502566426992,0,
00:00:02.144,-0.00175500474870205,-0.00180286332033575,-0.0122742252424359,0,
00:00:02.148,-0.0056075295433402105,-0.0107117732986808,0.0343869999051094,0,
00:00:02.152,-0.007100219838321209,-0.0035780651960521897,-0.000653582625091076,0,
00:00:02.156,0.00455134315416217,0.0100982720032334,-0.0229101292788982,0,
00:00:02.16,0.00578889809548855,0.00252512074075639,-0.00890007149428129,0,
00:00:02.164,0.00488559762015939,0.0017907444853335602,0.0106220748275518,0,
00:00:02.168,-0.00446128053590655,-0.00298902508802712,0.00993159227073193,0,
00:00:02.172,0.000323912361636758,0.00575559679418802,-0.0010909328702837198,0,
00:00:02.176,-0.00258983531966805,-0.00654584029689431,-0.00274030189029872,0,
00:00:02.18,-0.00173248699866235,-0.00790156237781048,0.000692417263053358,0,
00:00:02.184,-1.37690813062363e-05,0.000767519988585263,0.00430400436744094,0,
00:00:02.188,-0.000982158817350864,0.004018201027065521,-0.00483835022896528,0,
00:00:02.192,0.00322631490416825,0.00357249798253179,-0.00655638705939054,0,
00:00:02.196,0.00240771495737135,-0.000517537060659379,0.000833361293189228,0,
00:00:02.2,0.00237466371618211,-0.000445402081822976,0.00320270005613565,0,
00:00:02.204,-0.0010680764680728301,0.0043827588669955704,0.000532659702003002,0,
00:00:02.208,-0.00302663538604975,-0.00145631365012378,0.0008593748789280651,0,
00:00:02.212,-0.0130704948678613,-0.0030324398539960397,0.007327037863433359,0,
00:00:02.216,0.00878917425870895,-4.15198410337325e-05,-0.00941265653818846,0,
00:00:02.22,0.0066367564722895605,-0.00659544765949249,0.00519063603132963,0,
00:00:02.224,0.00210905424319208,0.000991694047115743,0.00245167454704642,0,
00:00:02.228,-0.00138095347210765,0.00624249037355185,-0.0107919313013554,0,
00:00:02.232,-0.0006018847343511879,0.00580552313476801,-0.0026387507095933,0,
00:00:02.236,-0.00414054188877344,0.00203910982236266,0.007402883376926179,0,
00:00:02.24,-0.0066553778015077105,-0.0100649604573846,0.007105605676770209,0,
00:00:02.244,0.00408295402303338,-0.00612170062959194,-0.0059503531083464605,0,
00:00:02.248,0.00708191422745585,0.00475306622684002,-0.00045387184945866504,0,
00:00:02.252,0.000248646771069616,0.00248837796971202,0.00215978035703301,0,
00:00:02.256,-0.000159870527568273,0.00325744925066829,-0.008634568192064759,0,
00:00:02.26,-0.008236585184931759,-0.00584009708836675,0.00159713986795396,0,
00:00:02.264,0.00136668677441776,-0.00211077043786645,0.00431802310049534,0,
00:00:02.268,0.0053570289164781605,0.00865360349416733,0.00301455450244248,0,
00:00:02.272,-4.31953121733386e-05,0.00416043726727366,0.000608797126915306,0,
00:00:02.276,-0.0036494708620011798,-0.00414682878181338,-0.0011368247214704802,0,
00:00:02.28,0.0028429264202714,-0.00703232362866402,-0.00165983219631016,0,
00:00:02.284,-0.00064891524380073,0.00157571316231042,-0.00330259604379535,0,
00:00:02.288,-0.0011119805276393901,-0.00214323750697076,0.00154970993753523,0,
00:00:02.292,-0.00045340813812799806,0.00228182226419449,0.00188073131721467,0,
00:00:02.296,-0.00183860491961241,0.00455304048955441,0.000708511390257627,0,
00:00:02.3,0.00458740303292871,-0.00091220805188641,-0.0024409296456724397,0,
00:00:02.304,-0.00195566820912063,-0.00403511570766568,-0.000885861809365451,0,
00:00:02.308,0.0006965720676817,0.000828150252345949,0.00713934656232595,0,
00:00:02.312,0.000557133636903018,0.00158756179735065,-0.0023536488879472,0,
00:00:02.316,-0.00020019253133796202,-0.00131043768487871,-0.0038115999195724704,0,
00:00:02.32,0.00144213554449379,0.0059499824419617705,-0.00399732403457165,0,
00:00:02.324,-0.004636146593838929,-0.000871659605763853,0.00227768835611641,0,
00:00:02.328,7.19133240636438e-05,-0.00982692651450634,0.0114311827346683,0,
00:00:02.332,0.00153772172052413,0.000834506296087056,-0.00623876927420497,0,
00:00:02.336,0.00127578433603048,0.0058882930316031,-0.0107669280841947,0,
00:00:02.34,0.00044791548862122,0.000874588382430375,0.000155621048179455,0,
00:00:02.344,-0.000238508218899369,-0.00295494426973164,0.00961085967719555,0,
00:00:02.348,-0.0025935668963939,0.000985210412181914,0.0034941469784826,0,
00:00:02.352,0.00361222214996815,-0.00093370710965246,-0.0027768509462475803,0,
00:00:02.356,0.00570311304181814,0.0021487392950803,-0.00047256835387088396,0,
00:00:02.36,-0.013574855402112,0.00312957284040749,0.0035389738623052796,0,
00:00:02.364,-0.0019302290165796898,-0.00255877920426428,-0.00489214528352022,0,
00:00:02.368,0.008428548462688921,-0.0029738424345850897,-0.00616427650675178,0,
00:00:02.372,0.00322022475302219,-0.0012889055069536,0.00129045266658068,0,
00:00:02.376,-0.00034691029577516003,0.000422797398641706,0.00347546907141805,0,
00:00:02.38,-0.00186834542546421,0.00125003221910447,0.000563420297112316,0,
00:00:02.384,-0.0017784194787964199,-0.0009108160156756641,0.00280179642140865,0,
00:00:02.388,-0.000897291756700724,0.00255987513810396,0.00102356472052634,0,
00:00:02.392,2.12727809412172e-05,0.0016162246465683,-0.00100467319134623,0,
00:00:02.396,0.0005507126334123309,-0.00020555911760311598,-0.0039008886087685797,0,
00:00:02.4,0.000621003680862486,-0.00127492006868124,0.00259488727897406,0,
00:00:02.404,0.000392566900700331,-0.00130543147679418,0.00742751592770219,0,
00:00:02.408,8.847474964568391e-05,-0.00277535314671695,-0.0111666759476066,0,
00:00:02.412,-0.000128412939375266,-9.961482282960791e-05,-0.0070245014503598205,0,
00:00:02.416,0.00187517399899662,0.0061297961510717895,-0.00288289994932711,0,
00:00:02.42,-0.0042079812847077794,0.00243694568052888,0.018074793741106997,0,
00:00:02.424,0.00234505743719637,-0.0039346455596387395,0.00301992800086737,0,
00:00:02.428,-0.000492535065859556,-0.00358716561459005,-0.00352523871697485,0,
00:00:02.432,-0.00471585756167769,-0.0031531297136098103,-0.0065641966648399795,0,
00:00:02.436,0.00401508202776313,0.0029757518786937,-0.00281896232627332,0,
00:00:02.44,0.00791277550160885,0.005462720058858389,0.00523532088845968,0,
00:00:02.444,-0.00726612936705351,-0.00458878325298429,0.000865146110299975,0,
00:00:02.448,0.00129014789126813,0.00404055276885629,-0.00298413005657494,0,
00:00:02.452,-0.0011456302599981401,-0.00222297385334969,0.00298877712339163,0,
00:00:02.456,-0.00314703001640737,0.00030109574436210096,-0.000848821306135505,0,
00:00:02.46,0.00385725731030107,0.000173629508935846,-0.001389114651829,0,
00:00:02.464,-0.00189939269330353,-0.000394518836401403,0.00144938286393881,0,
00:00:02.468,0.0012240067590028,-0.000599606602918357,-0.0017576958052814,0,
00:00:02.472,0.00321065983735025,-0.000405405909987167,-0.0010176938958466099,0,
00:00:02.476,-0.00182330596726388,-5.76355269004125e-05,0.000393854948924854,0,
00:00:02.48,-0.0042888130992651,0.000211404796573333,0.00111499731428921,0,
00:00:02.484,0.00107548583764583,-0.00177483644802123,-0.0010820514289662199,0,
00:00:02.488,0.0041011255234479896,0.0022106992546469,0.0023994636721909,0,
00:00:02.492,-0.000847293995320797,0.0038186952006071797,0.00357695226557553,0,
00:00:02.496,-0.00373117090202868,-0.0038933192845434,-0.0043130912818014604,0,
00:00:02.5,0.0032122265547514,0.00148563703987747,-0.0009482924942858519,0,
00:00:02.504,-0.000205749398446642,-0.00369561486877501,0.0022567601408809397,0,
00:00:02.508,-0.000842414738144726,0.00275079812854528,-0.00162802322302014,0,
00:00:02.512,-0.000417733768699691,0.00166166934650391,-0.00351377460174263,0,
00:00:02.516,0.000111888803075999,-0.00474985269829631,-0.00230847741477191,0,
00:00:02.52,-0.00170925725251436,-0.00184791791252792,0.008475064300000671,0,
00:00:02.524,0.0043798889964819,0.00590087473392487,0.008698162622749809,0,
00:00:02.528,-0.000192297709872946,0.0032523872796446102,-0.0115902097895741,0,
00:00:02.532,-0.00358550390228629,-0.00502639450132847,-0.00168956769630313,0,
00:00:02.536,0.000813279650174081,-0.00312270666472614,-0.0013337909476831599,0,
00:00:02.54,0.00131509965285659,0.0025529921986162697,0.000544566428288817,0,
00:00:02.544,0.0046431771479547,0.00454398430883884,-0.000375294097466394,0,
00:00:02.548,-0.00425726687535644,-0.00132720172405243,-0.000517073320224881,0,
00:00:02.552,-0.0101230684667826,-0.0045273550786078,0.0106126666069031,0,
00:00:02.556,0.00509522436186671,0.0005413845647126441,-0.000507662247400731,0,
00:00:02.56,0.00645706336945295,0.0015832370845601,0.0018922692397609399,0,
00:00:02.564,0.00893689040094614,0.0009541434701532131,-0.007574816234409809,0,
00:00:02.568,-0.0111001040786505,5.82454704272095e-05,-0.0124929500743747,0,
00:00:02.572,-0.00990655552595854,-0.000470519851660356,0.00236280891112983,0,
00:00:02.576,0.00836956687271595,-0.000533007958438247,0.00714282831177115,0,
00:00:02.58,0.0047701490111649,-0.00030528282513842003,0.0035777990706265,0,
00:00:02.584,0.00259704468771815,-0.00209525669924915,0.0038943635299801796,0,
00:00:02.588,0.00023580774723086498,0.00421838369220495,0.0025137944612652102,0,
00:00:02.592,-0.00997304823249578,-0.000123428297229111,-0.0022402787581086198,0,
00:00:02.596,-0.0028529141563922197,-0.00339406193234026,-0.00871864799410105,0,
00:00:02.6,-8.78327482496388e-05,-0.00107273412868381,-0.00397592131048441,0,
00:00:02.604,0.00554329715669155,0.0034016969148069603,0.00582972262054682,0,
00:00:02.608,0.00437031500041485,0.0042285886593163,0.00235865195281804,0,
00:00:02.612,0.0032010765280574604,-0.0021473541855812103,0.00043462880421429905,0,
00:00:02.616,-0.00337059167213738,-0.0031565623357892,-0.00252043968066573,0,
00:00:02.62,-0.00595887610688806,-0.0017260208260268,-0.000733947497792542,0,
00:00:02.624,0.00215827976353467,-0.00203464063815773,0.00731973769143224,0,
00:00:02.628,-0.00011750325211323799,0.0051272772252559705,-0.0043658567592501606,0,
00:00:02.632,-0.00220706360414624,0.00293631223030388,0.00016681535635143502,0,
00:00:02.636,0.00232043117284775,-0.00479331985116005,-0.00239966087974608,0,
00:00:02.64,0.00429039541631937,-0.0026438406202942103,0.000776318949647248,0,
00:00:02.644,-0.00342407473362982,0.000883403001353145,-0.0036636088043451296,0,
00:00:02.648,-0.00243072095327079,0.00461758533492684,0.00577235175296664,0,
00:00:02.652,0.00437875650823116,0.00224258098751307,-0.0012627488467842301,0,
00:00:02.656,-0.000176704706973396,0.0012800015974789901,-0.0037321443669498,0,
00:00:02.66,-0.00157458183821291,-0.004239088390022521,-0.00032024722895585,0,
00:00:02.664,-0.00122949958313257,-0.00366683816537261,0.00446968479081988,0,
00:00:02.668,-0.00448487745597959,-0.00107320072129369,0.00699160806834698,0,
00:00:02.672,0.0063993870280683,0.00314558739773929,-0.00404864968731999,0,
00:00:02.676,0.00400774879381061,-0.0021939836442470603,-0.00725194765254855,0,
00:00:02.68,-0.0048483139835298105,-0.000265606795437634,-0.000440385309047997,0,
00:00:02.684,0.000739711802452803,0.004023553803563121,0.00213862536475062,0,
00:00:02.688,0.000283245026366785,0.004524365067481989,5.07596632814966e-05,0,
00:00:02.692,-0.0030276714824140102,-0.00221331347711384,-0.00114876753650606,0,
00:00:02.696,0.000721005839295685,-0.00138036662247032,0.0117393983528018,0,
00:00:02.7,-0.00942879728972912,-0.00611976673826575,-0.00106432929169387,0,
00:00:02.704,0.0101643716916442,0.000133762470795773,-0.0101766902953386,0,
00:00:02.708,0.00593682285398245,0.00245357467792928,-0.00124584976583719,0,
00:00:02.712,0.00257419212721288,0.00224872515536845,-0.0027935749385505897,0,
00:00:02.716,-0.0047699105925858,0.00307361525483429,0.0012044245377183,0,
00:00:02.72,-0.00497767608612776,-9.50905960053205e-05,0.00590179488062859,0,
00:00:02.724,-0.0043302676640451,-0.00857087969779968,0.00784916523844004,0,
00:00:02.728,0.000378133816411719,-0.00281792599707842,-0.0038603004068136202,0,
00:00:02.732,0.00755914486944675,0.00953436084091663,-0.00545002054423094,0,
00:00:02.736,0.00375184253789485,0.00557179609313607,-0.0007653794600628321,0,
00:00:02.74,-0.0012194298906251801,-0.000995909911580384,-0.00596296694129705,0,
00:00:02.744,-0.011846300214529001,-0.012774059548974,0.00412118528038263,0,
00:00:02.748,0.00482958508655429,0.00575717771425843,0.000861103064380586,0,
00:00:02.752,0.00327792856842279,-0.00148114247713238,0.004139119759202,0,
00:00:02.756,-0.000910112459678203,-0.000667666958179325,0.0192054938524961,0,
00:00:02.76,-0.00048694221186451603,0.00339548522606492,-0.0179705712944269,0,
00:00:02.764,0.0046833818778395705,0.002116420539096,-0.0109361745417118,0,
00:00:02.768,0.00104339118115604,-0.00017008272698149099,-0.0018066968768835102,0,
00:00:02.772,-0.004673887975513939,-0.00150170724373311,0.00400293385609984,0,
00:00:02.776,-0.00361552531830966,-0.0015539814485237,0.00326083460822701,0,
00:00:02.78,-0.000673824106343091,0.00124666374176741,0.00556072266772389,0,
00:00:02.784,0.00148433353751898,-0.00196417840197682,0.00045164080802351204,0,
00:00:02.788,-7.70989117881982e-06,-0.005261872895061971,0.00101089756935835,0,
00:00:02.792,0.00342659070156515,0.0043981708586216,0.0030846551526337897,0,
00:00:02.796,0.00413178326562047,0.00662052072584629,-0.008376802317798141,0,
00:00:02.8,-0.00427635200321674,-0.00670062238350511,-0.0034267606679350103,0,
00:00:02.804,-0.00123272137716413,0.00520022958517075,-0.00176532205659896,0,
00:00:02.808,-0.00017043889965862,0.00476066209375858,0.00611364701762795,0,
00:00:02.812,0.006334337405860421,0.00028671792824752596,-0.00240990263409913,0,
00:00:02.816,-0.00579430069774389,-0.0136084984987974,0.00570709956809878,0,
00:00:02.82,-0.0131276417523623,-0.0108330305665731,0.0024629198014736197,0,
00:00:02.824,0.0115935262292624,0.0128499642014503,-0.00815687607973814,0,
00:00:02.828,0.0072703640908002905,0.00860319565981627,-0.0040071937255561395,0,
00:00:02.832,-0.00974147021770477,-0.008576798252761359,0.0183693747967482,0,
00:00:02.836,0.00651598442345858,0.0050520533695817,-0.005289836786687371,0,
00:00:02.84,0.00431429222226143,0.00419947924092412,-0.0135169345885515,0,
00:00:02.844,-0.0013642557896673699,0.0039083668962121,-0.00512045156210661,0,
00:00:02.848,-0.00851096678525209,-0.0112525746226311,0.00577293802052736,0,
00:00:02.852,-0.0041003888472914704,-0.000642368977423757,0.00930063147097826,0,
00:00:02.856,0.00564060313627124,-0.000919502053875476,-3.50152549799532e-05,0,
00:00:02.86,0.0022476464509964,-0.0017163989832624802,0.000444427540060133,0,
00:00:02.864,0.000430827116360888,0.00538413459435105,-0.00288704433478415,0,
00:00:02.868,-0.000379583303583786,0.0011005263077095199,0.00031866124481894103,0,
00:00:02.872,-0.000555137754417956,-0.00058088859077543,9.50700850808062e-05,0,
00:00:02.876,-0.00039690555422566804,-0.0008538236725144089,-0.00063384638633579,0,
00:00:02.88,-0.000144307443406433,-0.0026027667336165896,-0.000843965215608478,0,
00:00:02.884,5.10381760250311e-05,0.0018689772114157698,-0.00468049990013242,0,
00:00:02.888,0.0022086559329181897,0.00387900858186185,0.005988884717226029,0,
00:00:02.892,-0.00393356895074248,-0.0036479306872934103,0.00162917305715382,0,
00:00:02.896,0.000388242944609374,-0.000356929172994569,0.00328633096069098,0,
00:00:02.9,0.00145836616866291,0.000473438441986218,-0.0013455088483169699,0,
00:00:02.904,0.000979410484433174,-0.00173790182452649,-0.0103985220193863,0,
00:00:02.908,0.000141973563586362,0.00407232483848929,-0.00608641607686877,0,
00:00:02.912,0.00165269372519106,0.0015811109915375699,0.0051989392377436204,0,
00:00:02.916,0.00162239617202431,-0.00153219688218087,0.013900313526391999,0,
00:00:02.92,-0.012193163856863998,-0.0109385345131159,0.0030503505840897603,0,
00:00:02.924,0.000295056292088702,0.00394999701529741,-0.0061806351877749,0,
00:00:02.928,0.0075071472674608205,0.00607273727655411,-0.00393535243347287,0,
00:00:02.932,0.0071558952331543,0.0071862302720546705,-0.00650033773854375,0,
00:00:02.936,0.000592231517657638,-0.00231231283396482,-0.00715327262878418,0,
00:00:02.94,-0.0102830221876502,-0.0116648329421878,0.0178877748548985,0,
00:00:02.944,0.0011380766518414,-0.00235758838243783,0.00995985139161348,0,
00:00:02.948,3.3647360396571505e-05,0.00352041609585285,-0.0110574383288622,0,
00:00:02.952,-0.00184788461774588,0.0089581711217761,-0.00737383402884007,0,
00:00:02.956,0.00254894350655377,0.00117848208174109,-0.00590782100334764,0,
00:00:02.96,0.004349555354565379,-0.00271695083938539,0.00604662764817476,0,
00:00:02.964,0.00276471045799553,-0.0032660197466611897,0.00649861199781299,0,
00:00:02.968,-0.0125646842643619,-0.0019435838330537102,-0.0014763928484171599,0,
00:00:02.972,0.0012990981340408301,-0.00232273363508284,0.00712202349677682,0,
00:00:02.976,0.004559410735964779,0.00492721470072865,-0.0012371129123494,0,
00:00:02.98,0.0029789828695356802,-0.00125026656314731,-0.0031318082474172102,0,
00:00:02.984,0.000375668721972033,-0.00281848083250225,-0.0108243953436613,0,
00:00:02.988,-0.0013207307783886801,0.0110693704336882,-0.00377985741943121,0,
00:00:02.992,0.00248476956039667,0.00340482429601252,0.00367868738248944,0,
00:00:02.996,-0.0071065039373934295,-0.0133778611198068,0.012667391449213002,0,
00:00:03,-0.00360996159724891,-0.0121871624141932,0.00103407993447036,0,
00:00:03.004,0.0036605682689696602,0.00918459892272949,-0.007457430474460129,0,
00:00:03.008,0.008259456604719159,0.00958630535751581,0.00262564513832331,0,
00:00:03.012,-0.00416682194918394,-0.000902080500964075,0.0016481623752042699,0,
00:00:03.016,-0.00587744917720556,-0.00240940623916686,-0.00327938911505044,0,
00:00:03.02,0.00991867855191231,0.00301729864440858,-0.00256507680751383,0,
00:00:03.024,-0.00641800463199615,-0.0038046061526984,-0.00242207711562514,0,
00:00:03.028,-0.000176491972524673,-0.000586523266974837,0.00113155448343605,0,
00:00:03.032,0.00131176260765642,0.00225662579759955,0.0052036317065358205,0,
00:00:03.036,0.00291160587221384,-0.0038988252636045205,0.00701765343546867,0,
00:00:03.04,-0.004047953523695471,0.00035419838968664397,-0.00438363384455442,0,
00:00:03.044,-0.0022258465178310897,0.00144612742587924,-0.007603002246469259,0,
00:00:03.048,0.00500147417187691,0.00103791151195765,-0.000618782709352672,0,
00:00:03.052,0.000414943555369973,0.00232891505584121,7.844973151804879e-05,0,
00:00:03.056,-0.0033428894821554396,-0.00435932585969567,8.026755676837641e-05,0,
00:00:03.06,-0.00132956088054925,-0.000142627424793318,0.0067642806097865105,0,
00:00:03.064,0.007251051720231771,0.0011192302918061599,0.0117751676589251,0,
00:00:03.068,0.000101073703262955,0.000913510797545314,-0.0111192660406232,0,
00:00:03.072,-0.00544483261182904,0.00027229016995988797,-0.0059694326482713205,0,
00:00:03.076,-0.0075665134936571095,-0.00645756162703037,0.00204372825101018,0,
00:00:03.08,0.00403216667473316,0.00967182964086533,-0.0075246230699122,0,
00:00:03.084,0.00546712288632989,0.000661231460981071,-0.00162624137010425,0,
00:00:03.088,0.00272063631564379,-0.00494124507531524,0.006685373838990929,0,
00:00:03.092,0.00173074181657284,-0.0008457251824438571,0.004305448383092879,0,
00:00:03.096,0.00435693096369505,0.0024605558719486,0.00452776439487934,0,
00:00:03.1,-0.0219150390475988,-0.00150702416431159,0.000562645902391523,0,
00:00:03.104,-0.0021005270536989,-0.00140252057462931,-0.0026224507018923803,0,
00:00:03.108,0.014331872574985001,-0.00013647726154886202,-0.00343232857994735,0,
00:00:03.112,0.00927778892219067,0.0028761993162334,-0.00443253526464105,0,
00:00:03.116,-0.0019978513009846197,-0.0030591080430895103,-0.000732409360352904,0,
00:00:03.12,-0.00553809711709619,0.0009689749567769471,0.00847481191158295,0,
00:00:03.124,-0.00644407514482737,0.00158437015488744,-0.00298953847959638,0,
00:00:03.128,0.00044241250725463,-0.00131153699476272,-0.000964130449574441,0,
00:00:03.132,0.00247735087759793,-0.000292065931716934,0.004031306132674221,0,
00:00:03.136,0.00409848242998123,0.00500516314059496,-0.00172479485627264,0,
00:00:03.14,0.0008757229661569,0.00125252467114478,-0.00924279354512692,0,
00:00:03.144,-0.00387457851320505,-0.00255703344009817,-2.0297182345529998e-05,0,
00:00:03.148,-0.00044162405538372695,-0.0056657767854630895,0.00264659523963928,0,
00:00:03.152,-0.00815342739224434,-0.008651080541312691,0.0129843065515161,0,
00:00:03.156,0.0058743548579514,0.00923067890107632,9.01637176866643e-05,0,
00:00:03.16,0.00438094977289438,0.00583573523908854,-0.00089834479149431,0,
00:00:03.164,0.00843943748623133,-0.000691020744852722,-0.0108773112297058,0,
00:00:03.168,-0.0037935089785605704,0.00242531625553966,0.000567872251849622,0,
00:00:03.172,-0.00820526946336031,-0.000787571247201413,-0.00857878942042589,0,
00:00:03.176,0.00243300409056246,-0.00531352637335658,0.00620128121227026,0,
00:00:03.18,-0.00266542169265449,-0.00536922505125403,0.00962182506918907,0,
00:00:03.184,-0.00340682920068502,0.00200404855422676,0.00150070048402995,0,
00:00:03.188,0.00091475952649489,0.0016371174715459301,-0.000362400664016604,0,
00:00:03.192,0.00574252614751458,0.0044641476124525105,-0.0050975163467228395,0,
00:00:03.196,0.00568773597478867,0.00425262935459614,-0.00571550382301211,0,
00:00:03.2,0.00431436626240611,-0.0026454464532434897,-0.00487602688372135,0,
00:00:03.204,-0.0159473586827517,-0.00374666089192033,0.015279944986105,0,
00:00:03.208,-0.00785757787525654,-0.006290050689131021,0.0053424662910401795,0,
00:00:03.212,0.0117514040321112,0.0059166057035327,-0.00780680123716593,0,
00:00:03.216,0.008891281671822071,0.00243926816619933,-0.00908181164413691,0,
00:00:03.22,-0.00125149544328451,-0.00202563963830471,-0.0020565974991768603,0,
00:00:03.224,-0.0045583727769553705,0.00304308766499162,0.0057021742686629295,0,
00:00:03.228,-0.00162289955187589,0.000714818830601871,0.00523858889937401,0,
00:00:03.232,-0.00538194412365556,-0.0018950707744807,-0.00226052827201784,0,
00:00:03.236,0.00101750961039215,-0.00877796579152346,0.00913563091307878,0,
00:00:03.24,0.0009481782326474789,0.000198620022274554,-0.0049118953756988,0,
00:00:03.244,0.00644976506009698,0.00669395737349987,-0.0106639061123133,0,
00:00:03.248,0.000515483785420656,0.00465158605948091,-0.0011999219423159998,0,
00:00:03.252,-0.00398792466148734,0.0005865277489647269,0.0142122469842434,0,
00:00:03.256,-4.49979816039559e-05,-0.0042300987988710395,-0.00543569074943662,0,
00:00:03.26,0.0026551948394626396,0.0013160704402253,-0.00363251240924001,0,
00:00:03.264,-0.0018179869512096,0.00203004665672779,-0.0027574445120990302,0,
00:00:03.268,-0.0018969908123835897,-0.00580417551100254,0.0011447329306975,0,
00:00:03.272,-0.000529768120031804,-0.00573826720938087,0.0032212596852332397,0,
00:00:03.276,0.000636572600342333,-0.0017248815856874,0.0111139770597219,0,
00:00:03.28,0.0010347837815061199,0.00845402292907238,-0.0005902878474444151,0,
00:00:03.284,-0.00336905918084085,0.00638958904892206,-0.0130816642194986,0,
00:00:03.288,0.0042155059054493895,0.00315124611370265,-0.00498270988464355,0,
00:00:03.292,0.00933859962970018,-0.0005471369950100781,-0.000492976163513958,0,
00:00:03.296,-0.0038619462866336103,-0.00926577486097813,0.00631250534206629,0,
00:00:03.3,-0.0151411313563585,-0.0101206423714757,0.0054350527934730105,0,
00:00:03.304,-0.0026198865380138198,0.00171877723187208,0.0018530348315835,0,
00:00:03.308,0.0120413629338145,0.0108313653618097,-0.00328616262413561,0,
00:00:03.312,0.00984913390129805,0.0060952827334404,0.00158023531548679,0,
00:00:03.316,-0.00621036300435662,-0.00478597357869148,-0.00658268947154284,0,
00:00:03.32,-0.00656417803838849,-0.00655386550351977,0.00362394261173904,0,
00:00:03.324,0.00203708978369832,0.0028843039181083397,0.00876165367662907,0,
00:00:03.328,-0.000272503209998831,0.00512852147221565,-0.0106920842081308,0,
00:00:03.332,-0.000325248256558552,-0.00138059805613011,-0.00735123176127672,0,
00:00:03.336,-0.0018576281145215,-0.00500227604061365,0.0006336685037240389,0,
00:00:03.34,0.00461553875356913,0.00215642200782895,0.00324196112342179,0,
00:00:03.344,0.000202515759156086,0.00149586261250079,0.00943289883434772,0,
00:00:03.348,-0.0011935349320992801,-0.00463973311707377,0.0106635689735413,0,
00:00:03.352,-0.0010376055724918801,0.004617369268089529,-0.0096832187846303,0,
00:00:03.356,-0.00245229154825211,-0.00809508562088013,-0.005536152981221679,0,
00:00:03.36,0.00215458846651018,0.0022232725750654897,-0.00508636143058538,0,
00:00:03.364,0.0041237855330109605,0.00915687251836061,-0.0009000742575153711,0,
00:00:03.368,-0.00145484716631472,-0.000582957931328565,0.00031610537553206097,0,
00:00:03.372,-0.000263355294009671,0.0055042193271219704,0.00735760480165482,0,
00:00:03.376,-0.0052959416061639794,-0.011916259303688998,0.00199992395937443,0,
00:00:03.38,-0.00374137097969651,-0.0071477931924164295,-0.00286130094900727,0,
00:00:03.384,0.00830304063856602,0.009613399393856529,-0.00175346701871604,0,
00:00:03.388,0.00733495270833373,0.00620194524526596,0.00227407668717206,0,
00:00:03.392,-0.00664912629872561,-0.00902536697685719,0.00746135041117668,0,
00:00:03.396,-0.0056096911430358895,-0.000689235865138471,-0.0085817938670516,0,
00:00:03.4,0.0012496531708166,0.0042672562412917605,-0.00647730706259608,0,
00:00:03.404,0.002571658231318,-0.0020195939578115897,0.00600057002156973,0,
00:00:03.408,0.0015282731037586901,0.00110756291542202,-8.214545232476669e-05,0,
00:00:03.412,0.00011053044727305,0.00111489719711244,-0.000627618748694658,0,
00:00:03.416,-0.000740728457458317,-0.0018982703331857898,0.000262146029854193,0,
00:00:03.42,0.00121204648166895,0.00349385384470224,-0.0033130755182355603,0,
00:00:03.424,-0.0024950876832008397,-0.00107518408913165,-0.00152222125325352,0,
00:00:03.428,-0.00171004550065845,-0.0040420857258141,0.0198778640478849,0,
00:00:03.432,-0.0020130984485149397,0.0008357275510206821,-0.0026968582533299897,0,
00:00:03.436,0.00314139667898417,0.0016278757248073801,-0.0138288578018546,0,
00:00:03.44,0.0049815047532320005,0.000849972653668374,-0.00968202482908964,0,
00:00:03.444,-0.00108319893479347,-7.094700413290409e-05,0.005061081144958729,0,
00:00:03.448,-0.00451908353716135,-0.000547129136975855,0.0115068405866623,0,
00:00:03.452,-0.00170199992135167,-0.00261515472084284,0.00434295879676938,0,
00:00:03.456,0.00125752878375351,-0.000365052052075043,-0.00913789216428995,0,
00:00:03.46,0.00854470022022724,0.007801590953022241,-0.00800094660371542,0,
00:00:03.464,-8.02745125838555e-05,0.000148472128785215,0.00439959624782205,0,
00:00:03.468,-0.008466538973152641,-0.0077786552719771905,0.007723284419626,0,
00:00:03.472,-0.00237172585912049,-0.00382752576842904,-0.00149131321813911,0,
00:00:03.476,0.0012442183215171099,0.005575183779001239,-0.000328763417201117,0,
00:00:03.48,0.00030287235858850203,-9.09014197532088e-05,-0.000766212644521147,0,
00:00:03.484,0.00173952535260469,0.00210545351728797,-0.00314786517992616,0,
00:00:03.488,0.00844280607998371,0.00104335986543447,0.00528116757050157,0,
00:00:03.492,0.00170882954262197,0.00160571001470089,-0.0026226327754557102,0,
00:00:03.496,-0.012804071418941002,-0.00527627626433969,-0.000854847836308181,0,
00:00:03.5,-0.00639192573726177,0.00130430737044662,-0.00690448842942715,0,
00:00:03.504,0.0107144685462117,-0.0010219715768471401,0.0033658661413937803,0,
00:00:03.508,0.00271878484636545,-0.00260812719352543,0.00890879519283772,0,
00:00:03.512,-0.0029494003392756,0.000330883864080533,-0.00154337391722947,0,
00:00:03.516,0.0023277266882360003,0.00451000919565558,-0.00357207516208291,0,
00:00:03.52,-0.0036137953866273204,0.0025711739435792,-0.004174418747425079,0,
00:00:03.524,0.00225084507837892,0.00171420618426055,0.00187476491555572,0,
00:00:03.528,-0.0010543173411861099,-0.0039662793278694205,0.0027096017729491,0,
00:00:03.532,-0.00321198813617229,-0.0036364593543112295,0.00137734063901007,0,
00:00:03.536,0.0038267648778855796,0.000858821091242135,-0.0022283666767179996,0,
00:00:03.54,-0.00397305283695459,-0.00525121996179223,0.00099922891240567,0,
00:00:03.544,0.0052727619186043705,0.00609643338248134,0.000644533894956112,0,
00:00:03.548,0.0007775833364576099,-0.0015990057727322,0.005858082324266429,0,
00:00:03.552,-0.00342796742916107,0.00410800473764539,-0.004718397278338671,0,
00:00:03.556,0.004497941583395,0.00644252169877291,-0.011778624728322,0,
00:00:03.56,-0.00531656621024013,-0.00472626462578774,-0.0005593740497715769,0,
00:00:03.564,-0.00120144430547953,-0.00566749600693583,0.00570572493597865,0,
00:00:03.568,-0.0011529698967933698,-0.00255612214095891,0.01035042013973,0,
00:00:03.572,0.00340199866332114,0.0006559911998920139,0.00142746802885085,0,
00:00:03.576,0.00470063230022788,0.000163660239195451,-0.00329807214438915,0,
00:00:03.58,-0.00153248396236449,0.00410067336633801,-0.00203759525902569,0,
00:00:03.584,-0.00690722651779652,0.0006451176013797519,-0.004572840407490729,0,
00:00:03.588,0.0043584443628788,0.0021136871073395,-0.0042311237193644,0,
00:00:03.592,0.0011493677739054,0.00217691785655916,0.00274673593230546,0,
00:00:03.596,0.00157902634236962,0.00053101556841284,-0.00026933790650218704,0,
00:00:03.6,-0.00286576943472028,-0.0117317037656903,0.004135624505579471,0,
00:00:03.604,-0.00430150842294097,-0.00282640429213643,0.0158253293484449,0,
00:00:03.608,0.00170264928601682,0.00556762190535665,-0.0131368795409799,0,
00:00:03.612,0.00273259496316314,0.00528526119887829,-0.009193663485348221,0,
00:00:03.616,0.00362477311864495,0.00405684299767017,0.00474617490544915,0,
00:00:03.62,-0.0040123607032001,-0.00499890791252255,0.0018374074716121,0,
00:00:03.624,-0.000526389689184725,-0.0018546427600085698,-0.004213978070765729,0,
00:00:03.628,0.000484872609376907,0.0016588062280789,0.00328712281771004,0,
00:00:03.632,0.000421743141487241,-0.0038591488264501103,-0.00129898742306978,0,
00:00:03.636,8.73472527018748e-05,0.000701565761119127,0.000200528083951212,0,
00:00:03.64,-0.000149139727000147,0.0038596065714955295,0.00593009358271956,0,
00:00:03.644,0.0018755483906716102,-0.000775680295191705,-0.0021260655485093602,0,
00:00:03.648,-2.22038725041784e-05,0.000662760459817946,-0.000418571726186201,0,
00:00:03.652,-0.00985537562519312,-0.00674091977998614,0.00144455442205071,0,
00:00:03.656,0.004173914436250929,0.00046235119225457305,-0.0028660204261541397,0,
00:00:03.66,0.00983073096722364,0.00775578105822206,-0.00235150731168687,0,
00:00:03.664,-0.00148589327000082,-0.0007051870925351981,-0.0025043855421245102,0,
00:00:03.668,-0.0103588560596108,5.08824778080452e-05,0.0009198528714478019,0,
00:00:03.672,0.0031904613133519897,0.00118324207141995,0.00295846979133785,0,
00:00:03.676,0.00655073905363679,-0.00339458091184497,0.011019179597497,0,
00:00:03.68,0.0037843948230147396,-0.00277270935475826,-0.00258552492596209,0,
00:00:03.684,-0.00875583663582802,-0.0005841773818247019,-0.0109427673742175,0,
00:00:03.688,-0.00566955795511603,0.0010982441017404199,-0.007345072925090791,0,
00:00:03.692,0.002459776122123,-0.000472690531751141,0.00993771012872458,0,
00:00:03.696,0.00397989619523287,0.00522016128525138,0.0069807921536266795,0,
00:00:03.7,0.00449046399444342,4.5102464355295504e-05,-0.00830984208732843,0,
00:00:03.704,-0.00168801273684949,-0.00380916078574955,-0.00452985567972064,0,
00:00:03.708,-0.0047865048982203,0.000412532215705141,0.0122552420943975,0,
00:00:03.712,0.00044530854211188896,0.000981242745183408,0.00111605180427432,0,
00:00:03.716,0.00158846797421575,0.000339577585691586,-0.00820505060255528,0,
00:00:03.72,0.000986552680842578,-0.00028727515018545097,-0.00452566612511873,0,
00:00:03.724,0.00214972952380776,-0.000500441063195467,0.0030252777505666,0,
00:00:03.728,-0.00453240098431706,-0.00243529351428151,0.00381378899328411,0,
00:00:03.732,-0.000226061383727938,0.00396689074113965,0.00185539724770933,0,
00:00:03.736,0.0032094332855194803,0.00395419215783477,-0.000260554195847362,0,
00:00:03.74,-0.00514198606833816,-0.009349108673632141,-0.00136527162976563,0,
00:00:03.744,0.004733842797577379,-0.000175327251781709,-0.0034429761581122897,0,
00:00:03.748,0.0009503741748631,0.0028252312913537,0.0012411146890372,0,
00:00:03.752,-0.00083899887977168,0.00242585712112486,0.00162224425002933,0,
00:00:03.756,-0.00531527819111943,-0.00329200294800103,0.006826107390224929,0,
00:00:03.76,0.003232401330024,0.00347710959613323,-0.00833859015256166,0,
00:00:03.764,0.007326107006520029,0.00433281809091568,-0.0057134972885251,0,
00:00:03.768,-0.0032981561962515103,-0.00042400154052302203,-0.0036728805862367205,0,
00:00:03.772,-0.008716846816241741,-0.00569452252238989,0.010106673464179,0,
00:00:03.776,0.0039044457953423296,-0.00379984942264855,0.0220189020037651,0,
00:00:03.78,0.0018250757129862898,-0.00027358692022971803,-0.0192237477749586,0,
00:00:03.784,0.0005401166854426259,0.00203830492682755,-0.0134185794740915,0,
00:00:03.788,-0.000127970823086798,-0.00169571349397302,0.0051350723952055,0,
00:00:03.792,-0.00241882191039622,0.00551336957141757,0.0110645703971386,0,
00:00:03.796,0.0037663937546312796,0.00566867785528302,-0.00513983005657792,0,
00:00:03.8,-0.000455918168881908,-0.0042895139195025,-0.0022885357029736,0,
00:00:03.804,-0.00144340307451785,-0.00223525520414114,-0.001770646777004,0,
00:00:03.808,-0.00300302659161389,-0.00127204379532486,0.00341252936050296,0,
00:00:03.812,0.00188170443288982,0.00156002992298454,0.00291019468568265,0,
00:00:03.816,0.00416450528427958,-0.0018730573356151602,0.000667791638989002,0,
00:00:03.82,0.000829455209895968,-0.00118362030480057,-0.0031645747367292604,0,
00:00:03.824,-0.0041033127345144705,-0.0017381783109158301,0.00241858069784939,0,
00:00:03.828,-0.0006948529626242821,0.00317585840821266,-0.00153271248564124,0,
00:00:03.832,-0.00829575676470995,0.00279995845630765,-0.00600657379254699,0,
00:00:03.836,0.00587632413953543,0.0007577898213639861,0.007358660455793141,0,
00:00:03.84,0.00447910604998469,-0.0008908673189580439,-0.00236661056987941,0,
00:00:03.844,0.00855885539203882,0.00062784570036456,0.00201057526282966,0,
00:00:03.848,-0.0037093942519277295,-0.00515203271061182,0.000495442829560488,0,
00:00:03.852,-0.00610058987513185,-5.19123714184389e-05,-0.00758469104766846,0,
00:00:03.856,-0.00370908877812326,0.00376382539980114,-3.3691751013975604e-05,0,
00:00:03.86,-0.00454267486929893,-0.00461153918877244,0.005720142740756271,0,
00:00:03.864,0.00569594418630004,0.0008656304562464361,0.009930918924510479,0,
00:00:03.868,0.0075564687140286,0.0090668648481369,-0.00167511659674346,0,
00:00:03.872,0.0019219684181734898,-0.0016561212250962901,-0.0130902603268623,0,
00:00:03.876,-0.0070013082586228795,-0.00427659880369902,-0.00218124315142632,0,
00:00:03.88,-0.00233996147289872,-0.00288121146149933,-0.00373478070832789,0,
00:00:03.884,0.000307408277876675,-0.0025908078532666,0.00917889270931482,0,
00:00:03.888,0.00128399115055799,0.00309881358407438,0.0049399072304368,0,
00:00:03.892,0.00115499855019152,0.0052765179425478,-0.00111856684088707,0,
00:00:03.896,0.0026254930999129998,-0.00069826963590458,-0.00164000561926514,0,
00:00:03.9,-0.00823972653597593,-0.0063069723546505,0.0055088396184146396,0,
00:00:03.904,0.00808174908161163,0.00454207696020603,-0.00382712343707681,0,
00:00:03.908,0.004571706987917421,0.000996870687231421,-0.0045910156331956395,0,
00:00:03.912,-0.0081614488735795,0.00128825264982879,9.50416288105771e-05,0,
00:00:03.916,-0.005274798255413771,-0.00519166234880686,-0.00337267271243036,0,
00:00:03.92,0.002588085597381,-0.00037069313111715,0.0022828315850347302,0,
00:00:03.924,0.00387706002220511,0.00137619557790458,0.00533945392817259,0,
00:00:03.928,0.00219832337461412,0.00134570710361004,-7.01647295500152e-05,0,
00:00:03.932,0.00215771188959479,0.000615478842519224,-0.00152022077236325,0,
00:00:03.936,-0.00316356820985675,-0.00216793664731085,-0.0011833665193989901,0,
00:00:03.94,-0.000941638427320868,0.00567624578252435,-0.0045336438342928895,0,
00:00:03.944,-0.00508232926949859,-0.0006817991961725059,1.56912410602672e-05,0,
00:00:03.948,-0.0010568534489721099,-0.00740101095288992,0.0055806334130466,0,
00:00:03.952,0.00272395368665457,-0.005026108119636771,0.0142383044585586,0,
00:00:03.956,0.0036736084148287795,0.00205470202490687,0.000814592174720019,0,
00:00:03.96,0.0065019428730011,0.013992128893732999,-0.0181150753051043,0,
00:00:03.964,0.000519925670232624,0.00323700904846191,-0.0157466977834702,0,
00:00:03.968,-0.00631870655342937,-0.00649140868335962,0.004022649489343171,0,
00:00:03.972,-0.00514560239389539,-0.00650562858209014,0.0105061130598187,0,
00:00:03.976,-0.00142767187207937,-0.00483160186558962,0.00625215051695704,0,
00:00:03.98,0.00361596769653261,0.0069584553129971,0.00282944296486676,0,
00:00:03.984,-0.0014607977354899,-0.00184083008207381,0.00404717400670052,0,
00:00:03.988,0.000287280243355781,-0.00290426472201943,-0.0017156561370939,0,
00:00:03.992,0.00837199483066797,0.00974947679787874,-0.00750200729817152,0,
00:00:03.996,-0.00368111534044147,0.000129599764477462,-0.00733733549714088,0,
00:00:04,-0.00178486143704504,-0.00311474734917283,0.00106355512980372,0,
00:00:04.004,-0.0007424203795380889,-0.00275967130437493,-0.00033047079341486096,0,
00:00:04.008,-0.00221612048335373,-0.00109861372038722,0.00921730883419514,0,
00:00:04.012,0.00421919440850616,0.000378159544197842,0.0109088011085987,0,
00:00:04.016,-7.635205111000691e-05,0.00104890600778162,-0.00955985859036446,0,
00:00:04.02,0.000815430015791208,0.0030316612683236603,-0.0158122926950455,0,
00:00:04.024,-0.00497486628592014,-0.0035843870136886796,0.00291802943684161,0,
00:00:04.028,0.00014701364852953702,0.00237545859999955,0.00542583875358105,0,
00:00:04.032,0.0018087392672896398,-0.000828936579637229,0.0174601338803768,0,
00:00:04.036,-0.000565666181501001,-0.00512529537081718,-0.00722666317597032,0,
00:00:04.04,0.00665900530293584,0.0016618630615994302,-0.0119630433619022,0,
00:00:04.044,-0.00260403915308416,0.00565511267632246,-0.00447538215667009,0,
00:00:04.048,-0.00790043827146292,0.008773588575422759,0.00491241784766316,0,
00:00:04.052,0.00220074295066297,-0.0070747607387602295,0.00782073568552732,0,
00:00:04.056,0.00368985929526389,-0.007763003930449491,0.000894359138328582,0,
00:00:04.06,0.00181783467996866,-0.0009029274224303661,-0.00398756517097354,0,
00:00:04.064,-0.00031000204035081,-0.00046999045298434805,-0.000191380429896526,0,
00:00:04.068,-0.00138577038887888,-0.00236642337404191,-0.00168095948174596,0,
00:00:04.072,-0.00133118440862745,0.00671290373429656,0.0019745319150388197,0,
00:00:04.076,-0.000656431308016181,0.00540560204535723,0.0033643706701695897,0,
00:00:04.08,6.366494926624e-05,0.00107094272971153,-0.0021867135073989604,0,
00:00:04.084,0.000480324000818655,-0.00219819019548595,-0.000606280635111034,0,
00:00:04.088,-0.00154747080523521,-0.0052053895778954,-0.0010693735675886302,0,
00:00:04.092,0.00438488787040114,0.00389093649573624,-0.00530363572761416,0,
00:00:04.096,-0.00025514594744890896,-0.0029856073670089197,-0.00285347457975149,0,
00:00:04.1,-0.00156959681771696,-0.00253496109507978,0.0135451331734657,0,
00:00:04.104,-0.00118632602971047,-0.000115438422653824,-6.860927533125501e-05,0,
00:00:04.108,-0.00031624484108761,0.0015839715488255,-0.00378847820684314,0,
00:00:04.112,0.000342646322678775,-0.000208875833777711,-0.0049630543217063,0,
00:00:04.116,0.000562786939553916,0.007277185562998059,0.0012012937804684,0,
00:00:04.12,-0.00164527760352939,-0.00213620066642761,0.0024190447293222,0,
00:00:04.124,0.00420615216717124,-0.0077719115652144,0.00558555033057928,0,
00:00:04.128,-0.000413342524552718,0.00411484576761723,-0.00595092959702015,0,
00:00:04.132,-0.00165183946955949,0.00143129169009626,-0.00206065154634416,0,
00:00:04.136,-0.0011903981212526599,-6.767211016267541e-05,0.00248800567351282,0,
00:00:04.14,-0.000273356097750366,-0.000607500842306763,-0.00480317790061235,0,
00:00:04.144,0.000394480943214148,-0.000541710061952472,0.00758368754759431,0,
00:00:04.148,-0.00147816364187747,-0.00023217269335873398,-0.000386264233384281,0,
00:00:04.152,0.00449157552793622,0.00213149073533714,-0.00431411061435938,0,
00:00:04.156,-0.00018704509420786102,-0.00177745230030268,0.0005164598696865139,0,
00:00:04.16,-0.00363684189505875,-0.00560122216120362,0.00355116766877472,0,
00:00:04.164,0.00490696216002107,0.00595318665727973,-0.00322902388870716,0,
00:00:04.168,-0.0047459243796765796,0.00423306412994862,0.000272057543043047,0,
00:00:04.172,-0.00497384229674935,-0.0043662921525538,-0.00116388045717031,0,
00:00:04.176,0.00494666770100594,-0.000965803337749094,0.00657538371160626,0,
00:00:04.18,0.00455502886325121,0.00028850679518654905,0.00172021077014506,0,
00:00:04.184,0.00110456894617528,0.000471784063847736,-0.007457488682121041,0,
00:00:04.188,-0.0016013632994145198,-0.0018214744050055699,-0.0048429183661937705,0,
00:00:04.192,-0.000326167850289494,0.00198023254051805,0.000143437020597048,0,
00:00:04.196,-0.00575742311775684,0.00151487637776881,-0.0009996828157454731,0,
00:00:04.2,0.00193929322995245,4.43616809207015e-05,0.00525968847796321,0,
00:00:04.204,-0.00207419972866774,0.0011658389121294,0.0133650721982121,0,
00:00:04.208,0.00432380847632885,-0.000920624588616192,0.000282408233033493,0,
00:00:04.212,0.00042216185829602204,-0.00419779820367694,-0.0156385265290737,0,
00:00:04.216,-0.00274973921477795,-0.0018452382646501101,-0.00410722754895687,0,
00:00:04.22,0.00139772903639823,0.0010020359186455599,0.0022443963680416302,0,
00:00:04.224,0.00146114628296345,0.00228780205361545,0.00404020631685853,0,
00:00:04.228,0.000287370523437858,0.00194976781494915,0.0050636543892324,0,
00:00:04.232,-0.0006467432249337429,0.000807268661446869,-0.000999221578240395,0,
00:00:04.236,0.00118092494085431,0.0017964500002563,-0.004355731885880229,0,
00:00:04.24,-0.00258473143912852,-0.00280999974347651,0.000499641639180481,0,
00:00:04.244,-0.0038618808612227397,-0.00246243318542838,-0.000705948448739946,0,
00:00:04.248,0.0020105903968215,-0.0006450857617892321,0.0047360849566757705,0,
00:00:04.252,0.000750218401663005,-0.00129711022600532,0.00573874497786164,0,
00:00:04.256,0.00345545588061213,0.00112599192652851,-0.0100404731929302,0,
00:00:04.26,0.0036265389062464203,0.00866654980927706,-0.0045041525736451106,0,
00:00:04.264,-0.0006891599623486401,0.00021825623116456002,-0.0013977695489302301,0,
00:00:04.268,-0.00548608228564262,-0.0103114675730467,0.0071996487677097295,0,
00:00:04.272,-0.00135850592050701,-0.0024364767596125603,0.00058956490829587,0,
00:00:04.276,-0.00615002075210214,0.00680286297574639,-0.00217421026900411,0,
00:00:04.28,0.00023308333766181,0.00202245358377695,0.014808320440352,0,
00:00:04.284,0.00938814971596003,-0.000632087991107255,-0.00558885699138045,0,
00:00:04.288,0.00794087629765272,-0.0014518026728183,-0.013515624217689001,0,
00:00:04.292,-0.00210847589187324,0.0009527281508781019,-0.00344315590336919,0,
00:00:04.296,-0.00332629261538386,-0.000286975875496864,0.00321390479803085,0,
00:00:04.3,-0.00833207927644253,-0.0054710563272237795,0.00516146142035723,0,
00:00:04.304,0.0008939720573835071,0.000637190765701234,0.00373907177709043,0,
00:00:04.308,0.000321674160659313,0.00480439467355609,0.00112087512388825,0,
00:00:04.312,0.0012341865804046401,0.000273185054538772,-0.00512680923566222,0,
00:00:04.316,-0.000419259566115215,-0.0008427387801930309,5.86919777560979e-05,0,
00:00:04.32,0.00322939548641443,0.00144583499059081,0.0037200229708105295,0,
00:00:04.324,7.46289651942789e-06,-0.0042082299478352105,0.0178834199905396,0,
00:00:04.328,0.00603154860436916,-0.0036752813030034295,-0.0193168707191944,0,
00:00:04.332,-0.00583453429862857,0.007691821549087759,-0.0156327672302723,0,
00:00:04.336,-0.0027218614704906897,0.00451143411919475,0.00252784579060972,0,
00:00:04.34,-0.000490042672026902,-0.00309547292999923,0.0019705786835402302,0,
00:00:04.344,0.00280143273994327,-0.0019201536197215301,0.0125263100489974,0,
00:00:04.348,0.0011280367616564,-0.00194231304340065,0.0053080692887306205,0,
00:00:04.352,-0.00702554639428854,-0.00760976411402225,-0.0026856451295316198,0,
00:00:04.356,0.00031824535108171403,0.0035009707789868103,0.000491350772790611,0,
00:00:04.36,0.00787783041596413,0.00746534997597337,-0.00814960431307554,0,
00:00:04.364,0.00160204013809562,-0.00100603117607534,0.00451046181842685,0,
00:00:04.368,-0.0038261888548731795,-0.0016900658374652301,0.00215355306863785,0,
00:00:04.372,-0.000514577375724912,0.0037711502518504897,-0.006185695528984071,0,
00:00:04.376,0.00205754465423524,0.00284000323154032,-0.0037317001260817103,0,
00:00:04.38,-0.00219387584365904,-0.00854544341564178,0.0006882555317133669,0,
00:00:04.384,0.000120848395454232,-0.00087985274149105,0.0031592941377311897,0,
00:00:04.388,-0.00441304035484791,-0.00509566627442837,0.00309856818057597,0,
00:00:04.392,0.0012049380457028699,0.00695587228983641,0.00363404070958495,0,
00:00:04.396,0.000600611616391689,0.0012367580784484699,-0.00210895948112011,0,
00:00:04.4,0.005921099334955221,0.00660874880850315,-0.0090046813711524,0,
00:00:04.404,0.00424333708360791,-0.00338476081378758,0.0044807447120547295,0,
00:00:04.408,-0.0102052111178637,-0.006598812527954579,0.0153312422335148,0,
00:00:04.412,-0.00340800476260483,-0.000199097572476603,-0.00852540601044893,0,
00:00:04.416,0.00605221418663859,0.00199981103651226,-0.0140234660357237,0,
00:00:04.42,-0.00024849074543453796,0.0018214107258245301,0.00253368308767676,0,
00:00:04.424,0.00362762063741684,0.00283667980693281,0.00779829639941454,0,
00:00:04.428,-0.0014577298425138,-0.00425617815926671,-0.008921300061047079,0,
00:00:04.432,-0.00027979549486190097,-0.000326402659993619,0.0106317568570375,0,
00:00:04.436,-0.005396088585257529,0.0029227144550532103,0.0149163054302335,0,
00:00:04.44,-0.00177737209014595,-0.00126726308371872,-0.0177920013666153,0,
00:00:04.444,0.0062707113102078394,-0.00144646316766739,-0.0108328312635422,0,
00:00:04.448,0.0015542600303888301,-0.00245063123293221,9.245484397979449e-05,0,
00:00:04.452,-0.0007425743388012049,0.00457091210409999,0.008407333865761759,0,
00:00:04.456,-0.00339475856162608,0.000456994777778164,0.0109180826693773,0,
00:00:04.46,0.00103158003184944,-0.000906415749341249,-0.00407582754269242,0,
00:00:04.464,0.00342825544066727,-0.00087499845540151,-0.0011338128242641698,0,
00:00:04.468,-0.00158750033006072,-0.000367248809197918,-0.0039862743578851206,0,
00:00:04.472,-0.0020844261161983,0.00216567586176097,-0.000325116037856787,0,
00:00:04.476,-0.000875107652973384,-0.00168006331659853,-0.00197765533812344,0,
00:00:04.48,0.00242872140370309,-0.00137493398506194,-0.00019460501789581,0,
00:00:04.484,-0.0010624936548993,-5.5000225984258604e-05,0.0014385413378477099,0,
00:00:04.488,-0.000832491903565824,0.007047285325825209,-0.0065025840885937205,0,
00:00:04.492,-0.00396016286686063,-0.015378569252789,0.0152755072340369,0,
00:00:04.496,0.00887638051062822,0.00755154341459274,0.00705379853025079,0,
00:00:04.5,-0.00202049966901541,0.00364673510193825,-0.0106594366952777,0,
00:00:04.504,-0.00271833967417479,0.00551018863916397,-0.00748742977157235,0,
00:00:04.508,0.00561980670318007,4.9549802497495e-05,-0.0046518100425601,0,
00:00:04.512,-0.00283782416954637,-0.00611235108226538,0.00121961685363203,0,
00:00:04.516,-0.00349388248287141,-0.00462902197614312,0.00453529227524996,0,
00:00:04.52,0.0007491476717405019,0.005240319762378929,0.000238424603594467,0,
00:00:04.524,-0.00329403439536691,-0.0125143015757203,0.00823264196515083,0,
00:00:04.528,-0.00218420010060072,0.00548854656517506,0.00320633105002344,0,
00:00:04.532,0.00679060118272901,0.00994024332612753,-0.0007024681544862691,0,
00:00:04.536,0.00695350999012589,0.00184685934800655,-0.00508571416139603,0,
00:00:04.54,-0.00161432195454836,-0.00235501118004322,-0.0118506345897913,0,
00:00:04.544,-0.0042854496277868704,-0.00117060332559049,-0.00134937663096935,0,
00:00:04.548,-0.00333432503975928,-0.0041516534984111795,0.0006450486835092309,0,
00:00:04.552,-0.00111588812433183,-0.00220673717558384,0.00973431672900915,0,
00:00:04.556,0.000714800145942718,-0.00163119053468108,0.0130290389060974,0,
00:00:04.56,-0.000600958417635411,0.0038560805842280397,-0.007163748610764741,0,
00:00:04.564,0.0053215618245303605,0.00142001279164106,-0.00207838672213256,0,
00:00:04.568,0.000259046908468008,0.0031240691896528,-0.00706000672653317,0,
00:00:04.572,0.0005440142122097309,0.0070159169845283,-0.00342415692284703,0,
00:00:04.576,-0.0034229352604597803,-0.0073854336515069,-0.0009212319273501631,0,
00:00:04.58,-0.00435997964814305,-0.00918645318597555,0.00747228832915425,0,
00:00:04.584,-0.000159320421516895,-0.00221272394992411,0.00695025967434049,0,
00:00:04.588,0.0111812595278025,0.00568442605435848,-0.00394695065915585,0,
00:00:04.592,-0.00674875685945153,0.00535242399200797,-0.0045389765873551395,0,
00:00:04.596,-0.0049072192050516605,0.0020485185086727103,-0.00380131532438099,0,
00:00:04.6,0.006995926145464179,0.00115303287748247,0.00487288041040301,0,
00:00:04.604,0.00623671337962151,-4.74236439913511e-05,-0.000579407729674131,0,
00:00:04.608,-0.00928800832480192,-0.0117016499862075,0.0040679769590497,0,
00:00:04.612,-0.0057101021520793395,-0.0045678103342652295,0.0012585853692144199,0,
00:00:04.616,0.007292823400348421,0.00993053521960974,-0.00185771810356528,0,
00:00:04.62,0.00698790373280644,0.0113018723204732,-0.00701570045202971,0,
00:00:04.624,-0.00443837279453874,-0.0054754950106144,-0.00219719391316175,0,
00:00:04.628,-0.005124754272401329,-0.00705382460728288,0.0005740714841522281,0,
00:00:04.632,-0.00404303893446922,-0.00720785232260823,0.0186599679291248,0,
00:00:04.636,0.00299136666581035,0.00283351936377585,-0.00306949275545776,0,
00:00:04.64,0.0059969867579639,0.008053969591856001,-0.0150073319673538,0,
00:00:04.644,-0.00194120244123042,0.006568115204572679,-0.00018398389511276,0,
00:00:04.648,0.0003061207535211,-0.000289176445221528,0.0016467662062495901,0,
00:00:04.652,0.000197592788026668,-0.008836560882627959,0.000677062140312046,0,
00:00:04.656,-0.000391842797398567,-0.0031106628011912103,0.0147165805101395,0,
00:00:04.66,-0.000671432411763817,0.000508908880874515,-0.0113045098260045,0,
00:00:04.664,-0.000539374072104692,-0.00010437967284815401,-0.0063565983437001705,0,
00:00:04.668,-0.00020082914852537198,0.0038059256039559798,0.0026191077195107898,0,
00:00:04.672,0.000108276530227158,0.00464452942833304,0.00836524832993746,0,
00:00:04.676,0.0023338443133979997,0.00235544727183878,-0.00570403318852186,0,
00:00:04.68,0.00034354135277681096,-0.004889248404651879,-0.00344697292894125,0,
00:00:04.684,-0.00555934803560376,-0.0112204430624843,0.0117210447788239,0,
00:00:04.688,-0.0019055148586630802,-0.000292870419798419,0.00611129030585289,0,
00:00:04.692,0.0042215790599584605,0.00762690743431449,-0.0151668153703213,0,
00:00:04.696,0.0036103574093431204,0.00387525954283774,-0.009864823892712591,0,
00:00:04.7,0.0009370819316245619,0.00344241550192237,0.00473791267722845,0,
00:00:04.704,-0.00117593875620514,0.0017686324426904301,0.00482324557378888,0,
00:00:04.708,-0.00186570361256599,-0.00276527227833867,0.0016595758497715,0,
00:00:04.712,-0.00139807490631938,-0.00466284528374672,0.00574956182390451,0,
00:00:04.716,-0.00254686060361564,-0.00975510105490685,-0.000583879998885095,0,
00:00:04.72,0.0022803649771958603,0.00489112595096231,-0.00489474833011627,0,
00:00:04.724,0.0064378478564322,0.00601948192343116,0.0015564973000437,0,
00:00:04.728,-0.0032002548687159998,0.00045465491712093397,-0.00146523839794099,0,
00:00:04.732,-0.00591400125995278,-0.0008921514381654561,0.0007578168297186491,0,
00:00:04.736,0.00059270259225741,-0.0006748187006451191,-0.0042655267752707,0,
00:00:04.74,0.00460310466587543,0.0018997271545231301,-0.0011057424126192901,0,
00:00:04.744,-0.00209593377076089,-0.00600256118923426,0.00430129934102297,0,
00:00:04.748,-0.00322559964843094,-0.00167457351926714,0.0136373331770301,0,
00:00:04.752,0.0070039052516222,0.0112763075158,-0.00935183744877577,0,
00:00:04.756,0.00351108610630035,0.00255371653474867,-0.0117012690752745,0,
00:00:04.76,-0.00587966665625572,-0.00567845441401005,-0.000792303122580051,0,
00:00:04.764,-0.000150982814375311,-0.00314001319929957,0.00458791479468346,0,
00:00:04.768,-0.00218571117147803,-0.00376335298642516,0.00293302978388965,0,
00:00:04.772,-0.0030346109997481103,-0.00462914770469069,0.0088578499853611,0,
00:00:04.776,0.00261719338595867,0.00819451734423637,-0.00224555796012282,0,
00:00:04.78,0.00718406308442354,0.0103257093578577,-0.0109201511368155,0,
00:00:04.784,-0.00464577600359917,-0.00952256377786398,0.006993585731834171,0,
00:00:04.788,-0.007845812477171421,-0.00866885017603636,0.0024538638535887,0,
00:00:04.792,0.0102163450792432,0.010933043435215999,-0.0057239718735218,0,
00:00:04.796,0.0017354532610625,0.00256568379700184,-0.00103129236958921,0,
00:00:04.8,-0.0021065243054181303,-0.00172768719494343,0.005277357064187529,0,
00:00:04.804,0.00359127297997475,0.00143154570832849,-0.00662271957844496,0,
00:00:04.808,-0.0136606553569436,-0.00577245652675629,0.00157046434469521,0,
00:00:04.812,0.000890510389581323,-0.00577163463458419,0.00514911999925971,0,
00:00:04.816,0.00516210310161114,0.00223242188803852,-0.00029761489713564504,0,
00:00:04.82,0.00192391104064882,0.0021947687491774602,0.000310790259391069,0,
00:00:04.824,0.00523217814043164,0.00700717372819781,0.000855281949043274,0,
00:00:04.828,0.0007170092430897059,0.000363235216354951,-0.0101102599874139,0,
00:00:04.832,-0.0052664577960968,-0.0024352353066206,-0.00124488736037165,0,
00:00:04.836,-0.0061920597217977,-0.00461520068347454,0.0104718534275889,0,
00:00:04.84,0.00103950232733041,0.000620267237536609,-0.0008862275280989711,0,
00:00:04.844,0.00309131504036486,0.00159016693942249,-0.0020629586651921303,0,
00:00:04.848,0.00441782921552658,0.00297600636258721,0.00576401269063354,0,
00:00:04.852,-0.00331847718916833,0.000108784588519484,-0.00307209836319089,0,
00:00:04.856,-0.00019768136553466298,-0.00409579928964376,-0.00387592986226082,0,
00:00:04.86,0.000453494896646589,-0.0043952409178018605,-0.00165120256133378,0,
00:00:04.864,0.000190550912520848,0.00238519022241235,0.000593575299717486,0,
00:00:04.868,-0.000162611264386214,0.0035345214419066897,0.00370467151515186,0,
00:00:04.872,-0.000303182692732662,0.0020231923554092602,-0.0005135296378284691,0,
00:00:04.876,-0.000232164675253443,7.950275175971909e-05,-0.00304169440641999,0,
00:00:04.88,0.00200628722086549,0.00303959380835295,-0.000388479034882039,0,
00:00:04.884,-0.00190588319674134,-0.0073329997248947594,0.0018409709446132198,0,
00:00:04.888,-0.0015135445864871099,-0.004217130597680811,0.0104773296043277,0,
00:00:04.892,-0.00214129779487848,0.00308373617008328,-0.00674175284802914,0,
00:00:04.896,0.000797532498836517,0.00171853264328092,-0.000478465663036332,0,
00:00:04.9,0.0067199636250734295,0.00588551489636302,-0.00551712000742555,0,
00:00:04.904,0.000441223994130269,-0.000595835503190756,-0.00462001003324986,0,
00:00:04.908,-0.00226382375694811,-0.00281866430304945,0.0053626955486834,0,
00:00:04.912,-0.00237267604097724,-0.00237335148267448,0.00278549687936902,0,
00:00:04.916,-0.0012303580297157199,-0.000911400013137609,0.00124359910842031,0,
00:00:04.92,2.02946193894604e-05,0.000377321761334315,-0.0019301123684272198,0,
00:00:04.924,0.000749252445530146,0.00304144620895386,-0.000619194819591939,0,
00:00:04.928,0.00292292097583413,-0.00109279388561845,0.000816963380202651,0,
00:00:04.932,0.0006336682708933951,-0.00119758036453277,0.00113993277773261,0,
00:00:04.936,-0.00557759869843721,0.0018896377878263601,0.008903156965970991,0,
00:00:04.94,-0.00832807924598455,-0.007633814588189129,0.000252192141488194,0,
00:00:04.944,0.018233822658658003,0.0070746294222772095,-0.0150967687368393,0,
00:00:04.948,0.00257386988960207,0.0052783535793423705,-0.0100420909002423,0,
00:00:04.952,-0.0133344531059265,-0.00428806990385056,0.0124871358275414,0,
00:00:04.956,0.00199079629965127,-0.00158565794117749,0.0010917419567704199,0,
00:00:04.96,0.00126485922373831,0.00162071536760777,0.0003534487914294,0,
00:00:04.964,0.0006066517089493571,-0.00196146755479276,0.00357869314029813,0,
00:00:04.968,0.00015085177437868002,0.000624222797341645,0.00173794815782458,0,
00:00:04.972,-8.079144026851279e-05,-0.0019349488429725198,-0.004974170587956911,0,
00:00:04.976,-0.000135218375362456,-0.00478559220209718,0.00804559607058764,0,
00:00:04.98,-9.00319937500171e-05,0.0048865820281207605,-0.00253040879033506,0,
00:00:04.984,-1.84565342351561e-05,0.0047728270292282104,-0.00959192588925362,0,
00:00:04.988,3.28517671732698e-05,0.00559007469564676,-0.00596160441637039,0,
00:00:04.992,0.00212442758493125,-0.00534089654684067,0.00656676944345236,0,
00:00:04.996,-0.00401454512029886,-0.00984188355505466,0.0110320951789618,0,
00:00:05,0.000346700515365228,0.00172525097150356,0.0029504201374948,0,
00:00:05.004,0.00145890272688121,0.00636669993400574,-0.0125035578384995,0,
00:00:05.008,0.0010047542164102199,-0.00128497648984194,-0.00252123246900737,0,
00:00:05.012,0.000171057647094131,0.00281811458989978,3.81883910449687e-05,0,
00:00:05.016,-0.000404298072680831,-0.0037125977687537705,0.007004676852375271,0,
00:00:05.02,-0.000549163203686476,0.0019672212656587397,0.0014970946358516801,0,
00:00:05.024,-0.000378737109713256,-0.00336457183584571,-0.00324525497853756,0,
00:00:05.028,-0.000103226295323111,0.000739311100915074,0.00022237910889089102,0,
00:00:05.032,-0.00404190458357334,0.00143621198367327,0.000454250897746533,0,
00:00:05.036,0.00414135819301009,0.0028402160387486198,-0.000139665469760075,0,
00:00:05.04,0.00966922473162413,-0.00203313445672393,-0.000521387089975178,0,
00:00:05.044,-0.007576297968626021,-0.00421777553856373,-0.00048463186249136903,0,
00:00:05.048,-0.0067217070609331105,0.00128966511692852,-0.0022773102391511198,0,
00:00:05.052,0.0009781188564375039,0.00429361499845982,0.0020655342377722302,0,
00:00:05.056,0.00718226842582226,0.00338730146177113,-0.0022640910465270303,0,
00:00:05.06,-0.00588150275871158,-0.009783802554011341,0.00852195359766483,0,
00:00:05.064,0.0012839575065299901,-0.00233230460435152,-0.0013670271728187802,0,
00:00:05.068,0.0023471754975616897,0.00702404230833054,0.000218468994717114,0,
00:00:05.072,0.0010470385896042,0.000203436822630465,-0.00459912326186895,0,
00:00:05.076,-0.00039914555964060095,-0.000601932290010154,-0.00993920862674713,0,
00:00:05.08,0.000997203169390559,0.00627110945060849,-0.0011589757632464199,0,
00:00:05.084,-0.00501514645293355,-0.00341765349730849,0.00815298594534397,0,
00:00:05.088,0.00197064224630594,-0.00244226981885731,0.0158154629170895,0,
00:00:05.092,0.00165161059703678,-0.0020252375397831197,-0.007127124350517991,0,
00:00:05.096,-0.00637749396264553,-0.007301802281290291,-0.00398354418575764,0,
00:00:05.1,0.0027030073106288897,0.00184264732524753,-0.00241419463418424,0,
00:00:05.104,0.0037851356901228398,0.00973245874047279,0.00303559168241918,0,
00:00:05.108,0.00171916058752686,0.00279250019229949,-0.0039685396477580105,0,
00:00:05.112,-0.000495154759846628,-0.00357435224577785,-0.0047055538743734394,0,
00:00:05.116,-0.0015748902224004301,0.00113489164505154,-0.0017123414436355198,0,
00:00:05.12,0.000608462432865053,-0.00264339544810355,0.0078815370798111,0,
00:00:05.124,-0.0047699473798275,-0.00444204034283757,0.00991169456392527,0,
00:00:05.128,0.000396230694605038,0.00335551239550114,-0.007387891411781309,0,
00:00:05.132,0.00820454675704241,-0.0016934998566284802,-0.00208686501719058,0,
00:00:05.136,-0.0105695202946663,0.0017538218526169699,-0.00263237045146525,0,
00:00:05.14,-0.000535173516254872,0.00161888264119625,0.0038203427102416797,0,
00:00:05.144,0.00813169591128826,0.000394808535929769,0.0016349294455722,0,
00:00:05.148,0.00206486321985722,-0.000577649334445596,-0.00339636369608343,0,
00:00:05.152,0.000604775443207473,0.00120110739953816,-0.00455668289214373,0,
00:00:05.156,-0.004434300586581229,-0.000531572906766087,-0.0023023439571261397,0,
00:00:05.16,-0.00550066214054823,-0.00172923842910677,0.00287936464883387,0,
00:00:05.164,-0.0008234193082898861,-0.0077746007591486,0.0132477451115847,0,
00:00:05.168,0.004895141348242761,-0.000859973311889917,0.00817734375596046,0,
00:00:05.172,0.00574793899431825,0.0112745566293597,-0.0175476521253586,0,
00:00:05.176,0.000762523151934147,0.00221694097854197,-0.009882332757115359,0,
00:00:05.18,-0.00923750083893538,0.000732980319298804,0.00219944608397782,0,
00:00:05.184,0.00220838678069413,0.00012586984666995701,0.00582390837371349,0,
00:00:05.188,0.000619082245975733,-0.0049937400035560105,0.00453289179131389,0,
00:00:05.192,0.000251449237111956,-0.00395205290988088,-0.000494771637022495,0,
00:00:05.196,0.000243401504121721,-0.00097178021678701,0.0011324716033414,0,
00:00:05.2,0.00022905963123776,0.00136436813045293,-0.000216507687582634,0,
00:00:05.204,0.00221191393211484,0.00422569084912539,-0.00558906700462103,0,
00:00:05.208,-0.00196100887842476,-0.00032428035046905295,-0.00179549376480281,0,
00:00:05.212,-0.0037920589093118897,-0.0031000105664134,0.008373235352337359,0,
00:00:05.216,-0.00245534884743392,-0.00262610265053809,0.00988666899502277,0,
00:00:05.22,0.00843211729079485,0.00782320834696293,-0.012445037253201001,0,
00:00:05.224,0.00455524260178208,0.003948408178985121,-0.0120041314512491,0,
00:00:05.228,-0.00346947973594069,-0.00381576968356967,0.0049650208093226,0,
00:00:05.232,-0.00442413752898574,-0.004469767678529021,0.00878530368208885,0,
00:00:05.236,-0.00437004677951336,-0.00422035250812769,-0.0051298141479492205,0,
00:00:05.24,0.0041853548027575,0.00438498519361019,-0.00046519000898115304,0,
00:00:05.244,0.0011625105980783699,-0.000770155165810138,0.004336402751505371,0,
00:00:05.248,0.000139148120069876,0.00423886440694332,0.00249303877353668,0,
00:00:05.252,-8.160502329701559e-05,-0.00251818355172873,-0.00256848218850791,0,
00:00:05.256,-6.49759676889516e-05,0.00246090721338987,-0.00639867782592773,0,
00:00:05.26,-2.70026412181323e-05,-0.00350930355489254,0.00338210654444993,0,
00:00:05.264,-0.0020935945212841,-0.00179472821764648,0.0163749158382416,0,
00:00:05.268,0.0040242504328489295,0.00504418136551976,-0.00641610054299235,0,
00:00:05.272,-0.00036804427509196097,0.00018920787260867701,-0.0169793386012316,0,
00:00:05.276,-0.00149714411236346,-0.00361754931509495,-0.000217379158129916,0,
00:00:05.28,-0.00311602302826941,0.000576010555960238,0.0008169720531441269,0,
00:00:05.284,0.0017840237123891698,0.00109913037158549,0.0041638687252998395,0,
00:00:05.288,0.00411891145631671,0.000410914624808356,0.00701454654335976,0,
00:00:05.292,-0.00124114833306521,-0.000255591963650659,0.00321590434759855,0,
00:00:05.296,-0.00209496263414621,0.00157956418115646,-0.00318145123310387,0,
00:00:05.3,0.0009824980515986679,-0.00234424113295972,-0.00334815448150039,0,
00:00:05.304,-0.0060213892720639706,-0.00796524621546268,0.000593780016060919,0,
00:00:05.308,0.00306253810413182,0.0100289909169078,-0.00383300799876451,0,
00:00:05.312,0.0059533286839723604,0.00411046529188752,-0.000767024874221534,0,
00:00:05.316,-0.000362301740096882,-0.00352035160176456,0.0105454549193382,0,
00:00:05.32,-0.00229040044359863,-0.005885714665055279,0.0012546444777399302,0,
00:00:05.324,-0.00184529670514166,-0.00160118658095598,-0.00034163877717219304,0,
00:00:05.328,-0.0006288879085332161,0.00426462944597006,-0.011264649219810999,0,
00:00:05.332,0.000366037507774308,0.0033914721570909,-0.0103974957019091,0,
00:00:05.336,0.0007658337126486,0.0027663034852594102,0.00316792796365917,0,
00:00:05.34,0.0027212703134864603,-0.0032595603261143,0.0085670817643404,0,
00:00:05.344,-0.00169439031742513,-0.00345241161994636,0.00921360403299332,0,
00:00:05.348,-0.00378019874915481,-0.00350217591039836,0.00279067433439195,0,
00:00:05.352,-0.000518471235409379,0.000421643257141113,-0.00289122760295868,0,
00:00:05.356,0.00629196502268314,0.00711764628067613,-0.00705700740218163,0,
00:00:05.36,0.0007297825068235401,0.00113864778541029,-0.00400867639109492,0,
00:00:05.364,-0.00169834226835519,-0.00375835923478007,0.00215645343996584,0,
00:00:05.368,-0.0019074006704613601,-0.000130580752738751,0.00250786473043263,0,
00:00:05.372,-0.00103664700873196,0.00245671882294118,-0.00104190455749631,0,
00:00:05.376,-3.53884461219423e-05,-0.0019693565554916898,-0.00038646097527816897,0,
00:00:05.38,0.0026437845081090897,-0.00193869811482728,0.000729850900825113,0,
00:00:05.384,0.0007691867067478599,-0.0025562169030308697,-0.00101444404572248,0,
00:00:05.388,-0.0011090892367065,0.000621678889729083,0.00886728521436453,0,
00:00:05.392,-0.00991838797926903,0.0047238590195775,0.00404780637472868,0,
00:00:05.396,0.00273743574507535,0.0047107529826462295,-0.0068542025983333605,0,
00:00:05.4,0.00837535224854946,-0.00445516221225262,-0.0185751654207706,0,
00:00:05.404,0.0065755425021052395,0.000342603016179055,0.00148357090074569,0,
00:00:05.408,0.00149164337199181,-0.000483598181745037,0.00436925468966365,0,
00:00:05.412,-0.00908986199647188,-0.00365203456021845,0.0112681724131107,0,
00:00:05.416,-0.00902170035988092,-0.0036596201825887,0.0061865542083978705,0,
00:00:05.42,0.000638600729871541,0.000882196763996035,-0.00278195040300488,0,
00:00:05.424,0.00438811397179961,0.007829286158084871,-0.0026241778396070004,0,
00:00:05.428,0.00402622437104583,0.00165122328326106,-0.0031221294775605197,0,
00:00:05.432,0.00185298349242657,-0.00363800348713994,-0.00455354060977697,0,
00:00:05.436,-0.000270456046564505,-0.000331928546074778,0.00303903082385659,0,
00:00:05.44,-0.00139435008168221,5.41793488082476e-05,-0.0020160034764558103,0,
00:00:05.444,0.000637394841760397,0.00180992810055614,-0.000423883873736486,0,
00:00:05.448,-0.00488500762730837,-0.00447611836716533,0.00374645809642971,0,
00:00:05.452,0.00021892844233661898,3.84220220439602e-05,0.00440156599506736,0,
00:00:05.456,0.00182480167131871,-0.000647119479253888,-0.0041775624267756896,0,
00:00:05.46,0.00358009734191,0.00731773162260652,-0.00329794338904321,0,
00:00:05.464,-0.00144022051244974,-0.0018810776527971,0.0038893092423677397,0,
00:00:05.468,-0.0019176036585122301,-0.0053875963203609,-0.0043378062546253204,0,
00:00:05.472,-0.0007902918150648469,0.00239107641391456,-0.00147291459143162,0,
00:00:05.476,-0.0017611107323318698,-0.00214522774331272,0.0105254063382745,0,
00:00:05.48,0.00484045688062906,0.0017645664047449801,-0.00246681668795645,0,
00:00:05.484,0.000338232610374689,0.00184277538210154,0.00196531880646944,0,
00:00:05.488,-0.0011930285254493401,0.000607187976129353,-0.007910808548331259,0,
00:00:05.492,-0.00112325383815914,0.0015886960318312,-0.0044582667760551,0,
00:00:05.496,0.00159946735948324,-0.00288187130354345,0.00314873922616243,0,
00:00:05.5,-0.00393599830567837,-0.00652103871107101,0.00198516622185707,0,
00:00:05.504,0.000724544457625598,0.00349213089793921,0.00204781605862081,0,
00:00:05.508,0.00390547723509371,0.0063206278719008,0.007740812841802841,0,
00:00:05.512,-0.000776357133872807,-0.000283229339402169,-0.007534550037235021,0,
00:00:05.516,-0.005622351076453921,-0.00447876984253526,-0.0117435296997428,0,
00:00:05.52,0.0032523807603865897,-1.54161771206418e-05,0.0163665041327477,0,
00:00:05.524,0.00551669811829925,0.0009361015399917961,0.0108754420652986,0,
00:00:05.528,-0.00106251274701208,0.0026303860358893897,-0.011911285109818,0,
00:00:05.532,-0.0028245341964066,-0.00198566354811192,-0.0155465891584754,0,
00:00:05.536,5.9369111113483107e-05,-0.0019502176437526898,-0.00147751078475267,0,
00:00:05.54,-0.0024613372515887,-0.00047857637400738895,0.00447610719129443,0,
00:00:05.544,0.00108186760917306,0.00071153580211103,0.0137489875778556,0,
00:00:05.548,0.000940397556405514,0.00107448676135391,0.004204209893941879,0,
00:00:05.552,-0.00822726916521788,0.0028486056253314,-0.00263506197370589,0,
00:00:05.556,0.00541947828605771,-0.0059030512347817395,-0.00504833972081542,0,
00:00:05.56,0.00816542468965054,0.00209074327722192,-0.00608448917046189,0,
00:00:05.564,0.000183319483767264,0.0006359583348967139,-0.00162930879741907,0,
00:00:05.568,-0.00311232218518853,0.00491278246045113,0.004265821538865571,0,
00:00:05.572,-0.00311336619779468,0.0009263198007829491,0.00349138583987951,0,
00:00:05.576,0.000498814333695918,-0.00485275546088815,-0.0011786179384216699,0,
00:00:05.58,-0.0019307627808302602,-0.0037346687167882898,0.000934977957513183,0,
00:00:05.584,-0.000672523921821266,-0.000710249878466129,-0.0020470800809562198,0,
00:00:05.588,0.0029787195380777103,0.0035803986247628897,-0.00522142415866256,0,
00:00:05.592,-0.004615051206201311,-0.00401984108611941,0.000188848862308078,0,
00:00:05.596,0.0013946632388979199,-0.000362034450517967,0.0269607678055763,0,
00:00:05.6,0.00754864513874054,0.00955707114189863,-0.009135028347373009,0,
00:00:05.604,0.000587575719691813,0.0020962322596460603,-0.0218656212091446,0,
00:00:05.608,-0.0026973264757543802,-0.0006074198754504321,-0.00689434818923473,0,
00:00:05.612,-0.0008846668060868981,-0.00588265899568796,0.00507271569222212,0,
00:00:05.616,-0.0036058577243238705,-0.00432223780080676,0.009258987382054329,0,
00:00:05.62,-0.0017173832748085302,-0.00292191631160676,0.00918385572731495,0,
00:00:05.624,0.000710545224137604,0.00367989460937679,0.00040870095835998703,0,
00:00:05.628,0.00606521544978023,0.00408482272177935,-0.00327354902401567,0,
00:00:05.632,-0.00428410246968269,0.0040242443792522,-0.0056432350538671,0,
00:00:05.636,-0.00255801645107567,-0.0022434093989431897,-0.000192611405509524,0,
00:00:05.64,0.00107533310074359,-0.00514406710863113,0.0053081321530044105,0,
00:00:05.644,0.00691486010327935,-0.00171858421526849,0.009319250471889971,0,
00:00:05.648,0.000367571541573852,0.00574446143582463,-0.0170796774327755,0,
00:00:05.652,-0.00250141462311149,0.000823779904749244,-0.00645573157817125,0,
00:00:05.656,-0.000532010046299547,-0.00125683541409671,-0.00215914589352906,0,
00:00:05.66,-0.00333298812620342,-0.0014465004205703698,0.007406761869788171,0,
00:00:05.664,-0.00162569712847471,-0.000760059047024697,0.0101191597059369,0,
00:00:05.668,0.00272170244716108,0.00209114840254188,0.00417128158733249,0,
00:00:05.672,0.003955719526857139,0.0026412850711494697,-0.00401322683319449,0,
00:00:05.676,-0.0101977167651057,-0.0133757367730141,-0.00273363292217255,0,
00:00:05.68,0.0073815812356769995,0.008912629447877409,-0.0045798965729773,0,
00:00:05.684,-0.00280069792643189,0.0010917306644842,-0.00180871784687042,0,
00:00:05.688,0.00122869876213372,-8.30165736260824e-05,0.00727134011685848,0,
00:00:05.692,0.00649051368236542,0.00447836006060243,-0.00367969973012805,0,
00:00:05.696,-0.000434373680036515,-0.00137195806019008,-0.0009840590646490448,0,
00:00:05.7,-0.00113482377491891,-0.00296408752910793,0.000310138158965856,0,
00:00:05.704,-0.0049110222607851,-0.00210556946694851,0.0006868516793474559,0,
00:00:05.708,-0.0029368184041231897,-0.0025927925016731,-0.00152546633034945,0,
00:00:05.712,0.000122773737530224,0.006807284429669379,0.00220979494042695,0,
00:00:05.716,0.00404311344027519,0.0008559671696275469,-0.0025462037883698897,0,
00:00:05.72,0.00017723297060001598,-0.00423252256587148,-0.00226651155389845,0,
00:00:05.724,-0.00037338005495257703,-0.00250289356335998,-9.90222615655512e-05,0,
00:00:05.728,0.00205607200041413,0.00036605971399694703,0.0245219338685274,0,
00:00:05.732,-0.005873292218893771,-0.00221634074114263,0.005383482202887539,0,
00:00:05.736,0.00254886737093329,0.0037637322675436705,-0.0297641139477491,0,
00:00:05.74,0.00316589372232556,0.0103318588808179,-0.0184714235365391,0,
00:00:05.744,0.00107584905344993,-0.00415685772895813,0.00343507621437311,0,
00:00:05.748,0.00329216150566936,-0.0014736322918906801,0.0129077024757862,0,
00:00:05.752,-0.00555103132501245,-0.00230455095879734,0.013731537386775001,0,
00:00:05.756,-0.0066303606145083896,-0.00661951443180442,0.00324712228029966,0,
00:00:05.76,0.00322802248410881,0.00045835759374313094,-0.000688870553858578,0,
00:00:05.764,0.0036682062782347202,0.00529416091740131,-0.00457451306283474,0,
00:00:05.768,-0.0028882867190986898,0.000972868292592466,-0.00736915832385421,0,
00:00:05.772,0.00110532250255346,-0.00030025205342099103,-0.00140891782939434,0,
00:00:05.776,0.00172570592258126,-0.00040062295738607596,0.000970479391980916,0,
00:00:05.78,0.00290777697227895,-0.00227934191934764,-0.000580699706915766,0,
00:00:05.784,-0.00220426428131759,0.00193317164666951,0.00104262470267713,0,
00:00:05.788,-0.00243865489028394,0.00165669294074178,0.00622588116675615,0,
00:00:05.792,-0.00303918682038784,0.000178159374627285,-0.00220406311564147,0,
00:00:05.796,0.0023857618216425198,0.00120218365918845,-0.00263459328562021,0,
00:00:05.8,0.000563551380764693,-0.00512700295075774,-0.000754750508349389,0,
00:00:05.804,0.00508235627785325,-0.00034036778379231697,0.00698929373174906,0,
00:00:05.808,0.00126075057778507,0.0013596899807453199,-0.0047462754882872105,0,
00:00:05.812,-0.00249975011684,0.0054695298895239795,-0.00415663095191121,0,
00:00:05.816,-0.007691638078540559,-0.0054221497848629995,-0.004583610221743579,0,
00:00:05.82,-0.00045539569691754905,-0.00554125150665641,0.020617688074708002,0,
00:00:05.824,0.0028084779623895897,0.00688786059617996,-0.0059224022552371,0,
00:00:05.828,0.00297831697389483,0.00274587934836745,-0.0137040177360177,0,
00:00:05.832,0.00158467562869191,-0.00237990310415626,-0.00457932753488421,0,
00:00:05.836,1.8052325685857802e-05,0.000338271114742383,0.004359156824648379,0,
00:00:05.84,-0.0009211224969476461,0.00216611218638718,0.0115722687914968,0,
00:00:05.844,-0.00314812455326319,-0.00256124045699835,0.00974589213728905,0,
00:00:05.848,0.0054322611540556,-0.00243054260499775,-0.009791095741093159,0,
00:00:05.852,-0.00247953226789832,-0.000686926359776407,-0.004615928046405321,0,
00:00:05.856,-0.00289558782242239,0.00078019016655162,-0.0019266507588326898,0,
00:00:05.86,-0.000851134536787868,0.0012988208327442401,-0.00231350352987647,0,
00:00:05.864,0.0009341833065263929,0.0010061319917440401,0.00271446048282087,0,
00:00:05.868,0.00361784663982689,0.0024454931262880603,0.0006184850353747611,0,
00:00:05.872,-0.0008217949070967731,-0.00423335004597902,-0.00113746803253889,0,
00:00:05.876,-0.00127629889175296,0.00197102036327124,0.007262565661221741,0,
00:00:05.88,-0.00254461984150112,-0.00299092405475676,0.00256760185584426,0,
00:00:05.884,0.00017043645493686202,-0.0030122583266347603,-0.004936510697007179,0,
00:00:05.888,0.00622113328427076,0.00974112190306187,-0.00693281181156635,0,
00:00:05.892,0.00022758253908250497,6.825731543358421e-05,-0.00198070774786174,0,
00:00:05.896,-0.000144482066389173,-0.00315806735306978,0.00451085530221462,0,
00:00:05.9,-0.00417301384732127,-0.00272774416953325,0.00396202597767115,0,
00:00:05.904,-0.00269566988572478,-0.0010003249626606698,-0.000829101481940597,0,
00:00:05.908,-5.479596438817679e-05,0.00257065333425999,-0.0052052363753318795,0,
00:00:05.912,0.00160649500321597,-0.0029134622309356898,0.00997694302350283,0,
00:00:05.916,-0.00024381598632317,0.00132866273634136,-0.00020771384879481,0,
00:00:05.92,0.00515696220099926,0.00400336552411318,-0.004082460887730121,0,
00:00:05.924,-0.000177925394382328,-0.0010163135593757,-0.0057154786773026,0,
00:00:05.928,-0.00196167733520269,-0.0018045671749860003,0.00263828504830599,0,
00:00:05.932,-0.00169924972578883,-0.0009429805795662109,-0.00176645163446665,0,
00:00:05.936,0.0013897460885345901,6.9659021391999e-05,0.0021184752695262397,0,
00:00:05.94,-0.0017624025931581898,0.000601320643909276,0.0021066979970783,0,
00:00:05.944,-0.00101361738052219,-0.00147253391332924,-0.00131598161533475,0,
00:00:05.948,0.00040505058132112005,0.0022821812890469998,-0.000533989164978266,0,
00:00:05.952,0.0011345925740897699,0.00162088579963893,-0.0014522220008075198,0,
00:00:05.956,0.00101705710403621,-3.8646558095933897e-05,0.00292902113869786,0,
00:00:05.96,0.000444059842266142,-0.00108491349965334,0.00635416945442557,0,
00:00:05.964,0.0019466022495180399,0.00296813412569463,0.00240369909442961,0,
00:00:05.968,-0.000335630524205044,-0.00669604865834117,-0.008447840809822079,0,
00:00:05.972,-0.01028654538095,-0.0013445911463350099,-0.00884243287146091,0,
00:00:05.976,0.0038454569876194,0.00166478264145553,-0.00358543428592384,0,
00:00:05.98,0.00762166688218713,0.00440803868696094,0.00616659130901098,0,
00:00:05.984,0.000525268085766584,-0.00251020980067551,0.00927740149199963,0,
00:00:05.988,-0.0023708022199571102,-0.00140201521571726,0.0018536734860390399,0,
00:00:05.992,-0.000366645574104041,0.0029054144397378,0.00653765071183443,0,
00:00:05.996,-0.0073560611344873905,0.00391332572326064,-0.0126363094896078,0,
00:00:06,0.0044407849200069896,-0.00225312053225935,-0.00448389165103436,0,
00:00:06.004,0.00398806156590581,-0.00313751772046089,-0.0017979805124923602,0,
00:00:06.008,-0.00156568561214954,-0.0037493146955966897,0.0104335965588689,0,
00:00:06.012,-0.00195743865333498,0.0041234367527067705,-0.0062217153608799,0,
00:00:06.016,-0.000666076492052525,0.000738954520784318,0.00043512857519090203,0,
00:00:06.02,0.000490588776301593,-0.000298159517114982,-6.99408928994671e-06,0,
00:00:06.024,0.000906282104551792,-0.002403249964118,0.00332113681361079,0,
00:00:06.028,-0.00138632382731885,0.00188889098353684,0.00174828397575766,0,
00:00:06.032,0.000114209520688746,0.00381330889649689,-0.00259841699153185,0,
00:00:06.036,0.00965910870581865,0.00249109347350895,-0.0017914774361997802,0,
00:00:06.04,-0.00446231476962566,-0.00635348912328482,0.0020466714631766103,0,
00:00:06.044,-0.007976658642292021,-0.00864022132009268,0.00107702892273664,0,
00:00:06.048,-0.000578085135202855,0.00582907116040587,-0.000547132338397205,0,
00:00:06.052,0.00459217699244618,0.00387240457348526,-0.00126709882169962,0,
00:00:06.056,0.00481764553114772,0.0016513902228325599,-0.00309039512649179,0,
00:00:06.06,-0.0125217707827687,-0.00012657052138820301,-0.000414987734984607,0,
00:00:06.064,0.0044348826631903605,-0.0010384252527728698,0.0018466248875483899,0,
00:00:06.068,0.00832648854702711,-0.00111179647501558,0.0064472993835806795,0,
00:00:06.072,0.000531687692273408,0.0013944483362138302,-0.00464268866926432,0,
00:00:06.076,-0.00290025561116636,-0.00419488688930869,0.0008727140375413,0,
00:00:06.08,0.00108664552681148,0.000560446176677942,-0.00146627821959555,0,
00:00:06.084,-0.0138706956058741,-0.00234310794621706,0.00958953984081745,0,
00:00:06.088,0.00461071776226163,0.007308538537472491,-0.0137261040508747,0,
00:00:06.092,0.0113142048940063,-0.000480621965834871,-0.005524957552552221,0,
00:00:06.096,-0.00046363132423721297,0.00232961284928024,0.0154322292655706,0,
00:00:06.1,-0.0059750284999609,0.00130530563183129,-0.00342800095677376,0,
00:00:06.104,0.0010117951314896302,-0.00710687786340714,-0.00682354578748345,0,
00:00:06.108,-0.00123002729378641,-0.004696815740317111,0.0009870905196294188,0,
