Elapsed Time,EMG1,EMG2,EMG3,BioRadio Event,Unnamed: 5
00:00:00,1.0607236623764,0.32797324657440197,2.93722891807556,0,
00:00:00.004,-1.0073139667511,-0.31210094690322904,-2.7971570491790803,0,
00:00:00.008,-0.841059267520905,-0.257367014884949,-2.3235912322998,0,
00:00:00.012,-0.0921086892485619,-0.0403262972831726,-0.248967811465263,0,
00:00:00.016,0.428384810686111,0.143462494015694,1.19626450538635,0,
00:00:00.02,0.532090067863464,0.17672698199749,1.45715284347534,0,
00:00:00.024,0.318861573934555,0.0918137431144714,0.888579785823822,0,
00:00:00.028,0.0412307530641556,0.0050479369238019,0.11141604185104399,0,
00:00:00.032,-0.15120241045951802,-0.0601318515837193,-0.4278155267238621,0,
00:00:00.036,-0.210387960076332,-0.0569186508655548,-0.580233991146088,0,
00:00:00.04,-0.158050984144211,-0.0347400829195976,-0.42420899868011497,0,
00:00:00.044,-0.0537700951099396,-0.0244226455688477,-0.15591961145401,0,
00:00:00.048,0.0217176787555218,0.00224870000965893,0.0663296356797218,0,
00:00:00.052,0.0620884485542774,0.0236732214689255,0.16752733290195498,0,
00:00:00.056,0.0596954151988029,0.0215127095580101,0.152783811092377,0,
00:00:00.06,0.0278478786349297,0.0116683300584555,0.0851458162069321,0,
00:00:00.064,-0.000954679504502565,-0.00372102577239275,0.007059884257614609,0,
00:00:00.068,-0.0147131523117423,-0.0050186961889267,-0.0511022135615349,0,
00:00:00.072,-0.0206788145005703,-0.00958465971052647,-0.0545712560415268,0,
00:00:00.076,-0.0155223533511162,-0.0106862215325236,-0.0358069725334644,0,
00:00:00.08,-0.0009448542259633539,-0.001446214155294,-0.0033734287135303,0,
00:00:00.084,0.00825936067849398,0.00780497584491968,0.0126901939511299,0,
00:00:00.088,0.000933222763705999,-0.0009026018669828769,0.0113768363371491,0,
00:00:00.092,0.0129136983305216,0.0110367545858026,0.0123861189931631,0,
00:00:00.096,-0.00604360597208142,0.0118853775784373,0.00856416113674641,0,
00:00:00.1,-0.0033088868949562302,-0.00601850496605039,-0.004266492556780579,0,
00:00:00.104,0.00810708850622177,-0.0109336823225021,-0.00178906752262264,0,
00:00:00.108,-0.00448626466095448,-0.0117685552686453,-0.00526728155091405,0,
00:00:00.112,-0.0072323214262723905,0.00221133464947343,-0.0036572841927409202,0,
00:00:00.116,0.00230289413593709,0.00598773546516895,-0.00277994223870337,0,
00:00:00.12,-0.00107061676681042,-0.00165177171584219,0.0033831079490482803,0,
00:00:00.124,-0.00112368736881763,-0.000752778258174658,0.0036546532064676298,0,
00:00:00.128,0.00657588522881269,0.0100456364452839,0.0016374492552131401,0,
00:00:00.132,0.0102471020072699,0.0115798879414797,0.00171197869349271,0,
00:00:00.136,-0.00846573710441589,-0.007607903331518171,-0.0033223049249499997,0,
00:00:00.14,-0.00393579667434096,-0.0081946300342679,-0.00293119275011122,0,
00:00:00.144,-0.006075967103242871,-0.00541485939174891,-0.000837146479170769,0,
00:00:00.148,0.00136009615380317,-0.00347659504041076,0.00293466355651617,0,
00:00:00.152,0.0057845534756779705,-0.000482641829876229,-0.0026059248484671103,0,
00:00:00.156,0.0009566731168888509,0.00640833424404264,-0.00270890025421977,0,
00:00:00.16,-0.00475420244038105,-0.00044615205843001604,0.00580865191295743,0,
00:00:00.164,-0.000926163571421057,-0.00225761206820607,0.00615908904001117,0,
00:00:00.168,0.00892167910933495,0.0261842887848616,-0.0019342263694852601,0,
00:00:00.172,0.00990772433578968,0.00263058301061392,-0.00210103089921176,0,
00:00:00.176,-0.0128417583182454,-0.023787273094058,-0.0049902000464499,0,
00:00:00.18,-0.008389344438910479,-0.0120279835537076,-0.0024493618402630104,0,
00:00:00.184,-0.00148599548265338,-0.00505027361214161,0.000708608189597726,0,
00:00:00.188,0.00105490651912987,0.00322840176522732,0.00025906221708282796,0,
00:00:00.192,0.0021003833971917603,0.007559932302683591,4.19714160670992e-05,0,
00:00:00.196,0.00645307591184974,0.0133993616327643,0.00878893490880728,0,
00:00:00.2,0.00829529110342264,0.0104871252551675,0.0055806185118854,0,
00:00:00.204,0.00453558284789324,0.00229309755377471,-0.00683307694271207,0,
00:00:00.208,-0.0115938186645508,-0.0134322885423899,-0.00494917714968324,0,
00:00:00.212,-0.009855230338871479,-0.0128422388806939,-0.00472253980115056,0,
00:00:00.216,-0.000529143144376576,-0.00115332123823464,-0.000412296387366951,0,
00:00:00.22,-0.0009045084589160981,-0.00820374302566051,0.000729150779079646,0,
00:00:00.224,0.00539201311767101,0.00402529537677765,0.007512677460908891,0,
00:00:00.228,0.0052914847619831605,0.00961314328014851,0.00189058214891702,0,
00:00:00.232,0.0023458530195057396,0.0101622762158513,-0.00311193522065878,0,
00:00:00.236,-0.0047540748491883295,-0.00511384662240744,7.72448765928857e-05,0,
00:00:00.24,0.0039019240066409102,0.00686066038906574,0.00015239848289638798,0,
00:00:00.244,0.00335691217333078,0.00524810049682856,-0.0025139523204416,0,
00:00:00.248,-0.0105662485584617,-0.013452478684485,0.0033430885523557698,0,
00:00:00.252,0.000761837465688586,-0.0062710577622056,0.0012082988396287,0,
00:00:00.256,0.000300504703773186,-0.00354813202284276,-0.00359348463825881,0,
00:00:00.26,0.000881814165040851,0.00136825675144792,-0.00456371856853366,0,
00:00:00.264,0.00116452178917825,0.00412655435502529,0.0019268915057182301,0,
00:00:00.268,0.0008960955892689529,0.00398235488682985,0.00315429107286036,0,
00:00:00.272,0.000341154140187427,0.00209500640630722,0.00189044943545014,0,
00:00:00.276,-0.00015654700109735101,5.36462675881921e-06,0.000171489489730448,0,
00:00:00.28,-0.0024769869633019,-0.0012749977177009,-0.005067775491625071,0,
00:00:00.284,-0.00671236822381616,-0.0243403427302837,-0.0034055090509355103,0,
00:00:00.288,0.00932710617780685,0.0144913606345654,0.0188494138419628,0,
00:00:00.292,0.0191719625145197,0.0569091737270355,0.00353141222149134,0,
00:00:00.296,-0.00566621124744415,-0.0120256757363677,-0.021177014335990004,0,
00:00:00.3,-0.0242050383239985,-0.0526306703686714,-0.0056250998750329,0,
00:00:00.304,-0.0066908011212945,-0.024357883259654,-0.00129880884196609,0,
00:00:00.308,0.0031592424493283,0.0114546241238713,0.00727123208343983,0,
00:00:00.312,0.0109804384410381,0.018349900841713,0.0073706642724573595,0,
00:00:00.316,0.00839847419410944,0.0188932046294212,0.00143045792356133,0,
00:00:00.32,0.00240852450951934,0.0129226204007864,0.0014426296111196301,0,
00:00:00.324,-0.00235905614681542,-0.0037803780287504205,0.000978540629148483,0,
00:00:00.328,-0.00414287485182285,-0.0129505945369601,-0.0046554640866816,0,
00:00:00.332,-0.00543853919953108,-0.0119419824331999,-0.00417074421420693,0,
00:00:00.336,-0.0015214055310934802,-0.00526925642043352,-0.00354484166018665,0,
00:00:00.34,0.0018934956751763801,0.0119446935132146,0.0028762447182089103,0,
00:00:00.344,0.013349836692213998,0.0182306319475174,0.00354286190122366,0,
00:00:00.348,-0.0036010725889354897,-0.00796417985111475,-0.000264665315626189,0,
00:00:00.352,-0.0136758321896195,-0.0190930385142565,0.0039530647918582,0,
00:00:00.356,0.00126968801487237,-0.007598723284900191,-0.0035522338002920203,0,
00:00:00.36,0.00037965571391396203,0.00474064517766237,0.00137555203400552,0,
00:00:00.364,0.00481910491362214,0.00981550477445126,0.0041848956607282205,0,
00:00:00.368,0.00366336386650801,0.0100191980600357,-0.00971578527241945,0,
00:00:00.372,0.00290968269109726,0.00300353532657027,-0.00323182088322937,0,
00:00:00.376,-0.00536940479651093,-0.007320777047425509,0.0019129662541672603,0,
00:00:00.38,-0.00167121505364776,-0.00360190309584141,0.0037935224827379,0,
00:00:00.384,-0.00211865711025894,-0.00947030633687973,0.00299803400412202,0,
00:00:00.388,-0.0037704335991293205,-0.0022823321633040896,0.00107665255200118,0,
00:00:00.392,0.0184117779135704,0.0482769310474396,-0.00267580361105502,0,
00:00:00.396,-0.00452167121693492,-0.00763085158541799,-0.00354203814640641,0,
00:00:00.4,-0.0105556109920144,-0.0448878780007362,0.00642351666465402,0,
00:00:00.404,-0.00254306569695473,-0.0107584483921528,0.00291568506509066,0,
00:00:00.408,0.00826955866068602,0.0109444381669164,-0.00205000769346952,0,
00:00:00.412,-0.000571071519516408,0.0101918317377567,-0.00407685805112123,0,
00:00:00.416,-0.00662146136164665,0.006515733897686,-0.00936718564480543,0,
00:00:00.42,-0.00155471079051495,0.00247989408671856,0.0050150747410953,0,
00:00:00.424,0.0053991009481251205,0.00583988288417459,0.00384745327755809,0,
00:00:00.428,0.0046656783670187,0.000772157509345561,0.0043066730722785,0,
00:00:00.432,-0.000731383741367608,-0.00809175800532103,-0.00141006358899176,0,
00:00:00.436,-0.0015105848433449901,-0.00545134162530303,-0.00224298378452659,0,
00:00:00.44,0.00119243399240077,0.0035719503648579103,-0.00328596355393529,0,
00:00:00.444,-0.0021892343647778,0.000545075221452862,0.00195708801038563,0,
00:00:00.448,0.00261264247819781,0.0037926223594695295,0.000188488222192973,0,
00:00:00.452,0.000136847535031848,0.00197443086653948,0.0048847496509552,0,
00:00:00.456,-0.00225001526996493,-0.000908871763385832,0.0033196245785802603,0,
00:00:00.46,-0.00460422784090042,-0.0088298236951232,-0.0064585502259433296,0,
00:00:00.464,-0.0034484115894883897,-0.00914022140204906,-0.00724337622523308,0,
00:00:00.468,0.0058651100844144795,0.000720286334399134,0.00108792970422655,0,
00:00:00.472,0.0026043695397675,0.007369074504822491,0.00592713849619031,0,
00:00:00.476,0.00281951390206814,0.009854985401034359,-0.000906993809621781,0,
00:00:00.48,-0.00435692630708218,0.0042302575893700105,0.0014853319153189698,0,
00:00:00.484,-0.00247330544516444,-0.00796608068048954,0.0009042861638590689,0,
00:00:00.488,-0.00140596658457071,-0.00491365930065513,-0.000297705992124975,0,
00:00:00.492,0.008273914456367491,0.00869469065219164,-0.000993704074062407,0,
00:00:00.496,0.0077973455190658595,0.0159184858202934,-0.0009752277983352539,0,
00:00:00.5,-0.012495812959968999,-0.015262994915247,-0.0025952558498829603,0,
00:00:00.504,-0.0042375004850328,-0.0240720566362143,0.00612063985317945,0,
00:00:00.508,0.00689129624515772,0.00464288285002112,-0.00199683220125735,0,
00:00:00.512,-0.007565339561551809,0.00451923441141844,-0.00273496191948652,0,
00:00:00.516,0.0012774714268744,0.00463868165388703,-0.0030211065895855396,0,
00:00:00.52,0.0038185047451406704,0.0038294342812150704,0.0027077626436948802,0,
00:00:00.524,0.000717881950549781,0.0105285085737705,0.00300645921379328,0,
00:00:00.528,0.00266073225066066,0.007169042713940141,0.00124338443856686,0,
00:00:00.532,0.00279601896181703,-0.008548088371753691,-0.00254960777238011,0,
00:00:00.536,-0.00326583115383983,-0.000146458696690388,0.000710502150468528,0,
00:00:00.54,-0.00154892832506448,-0.0176973529160023,0.00465242192149162,0,
00:00:00.544,-0.0056994054466486,-0.0145528977736831,-0.00224036001600325,0,
00:00:00.548,0.000709340849425644,0.0224776938557625,-0.008114687167108059,0,
00:00:00.552,0.00494085811078548,0.0029726242646575,-0.0027218009345233397,0,
00:00:00.556,-0.0016684441361576301,-0.0049265380948782,0.00908039137721062,0,
00:00:00.56,-0.000833216239698231,0.0018615708686411398,0.000952718197368085,0,
00:00:00.564,0.00513867940753698,0.0122528821229935,-0.0033790105953812604,0,
00:00:00.568,-0.00442588189616799,0.000817731197457761,0.000862799410242587,0,
00:00:00.572,0.0017952590715140102,-0.0125595107674599,-0.000762619951274246,0,
00:00:00.576,0.007656233385205271,0.000791107537224889,0.00445833383128047,0,
00:00:00.58,-0.00629360461607575,-0.00320635340176523,0.00127815071027726,0,
00:00:00.584,-0.00632342416793108,0.00279812677763402,-0.004227676428854471,0,
00:00:00.588,-0.00391037715598941,-0.00477209500968456,-0.00327367056161165,0,
00:00:00.592,0.00393118895590305,-0.0050869598053395705,-0.000582076085265726,0,
00:00:00.596,0.0028326311148703103,0.009283775463700291,-0.000714913476258516,0,
00:00:00.6,0.00048653682461008397,0.007677352987229821,0.00590600678697228,0,
00:00:00.604,0.00767348147928715,-0.00472432281821966,-0.0011402674717828599,0,
00:00:00.608,0.00614202721044421,0.00695011392235756,0.00291019352152944,0,
00:00:00.612,-0.0077712680213153406,0.0069645447656512295,0.000321911153150722,0,
00:00:00.616,-0.0129878334701061,-0.0136208422482014,-0.00844623055309057,0,
00:00:00.62,-0.00226854509674013,-0.0139101147651672,0.005290896166116,0,
00:00:00.624,0.00408147275447845,-0.00509993499144912,0.00135329144541174,0,
00:00:00.628,0.00547554763033986,0.005673961248248821,-0.005320559721440079,0,
00:00:00.632,0.0057099130935967,0.0119252735748887,-0.00191172712948173,0,
00:00:00.636,-0.00112373661249876,0.005591410212218761,0.00416973978281021,0,
00:00:00.64,-0.0069956770166754705,-0.00332350376993418,0.00564526487141848,0,
00:00:00.644,-0.00436202716082335,-0.000219248293433338,-0.00106279167812318,0,
00:00:00.648,0.0126971416175365,0.000173569933394901,-0.0007569566369056701,0,
00:00:00.652,0.0038075987249612795,0.0119530856609344,-0.0019524445524439198,0,
00:00:00.656,-0.00147153786383569,0.0036732549779117103,-0.00833172909915447,0,
00:00:00.66,-0.009896825067698959,-0.0205534063279629,0.00475900713354349,0,
00:00:00.664,-0.00795198138803244,-0.0208551101386547,0.0029077937360853,0,
00:00:00.668,0.00236203521490097,0.000587139918934554,0.00130815850570798,0,
00:00:00.672,0.00570698780938983,0.0126689337193966,6.90785964252427e-05,0,
00:00:00.676,0.0024210752453655,0.0133339883759618,-0.0026951227337122,0,
00:00:00.68,0.00149510311894119,0.00926121324300766,0.00122009112965316,0,
00:00:00.684,0.000682021433021873,-0.00197970145381987,0.00111751817166805,0,
00:00:00.688,0.00601357594132423,-0.014423368498683002,0.0020756637677550303,0,
00:00:00.692,-0.00261739850975573,0.00865286402404308,-0.00272424565628171,0,
00:00:00.696,-0.0057215201668441296,0.0103840194642544,-0.00246219104155898,0,
00:00:00.7,-0.0105869136750698,-0.0119182225316763,-0.000624916225206107,0,
00:00:00.704,0.00261804438196123,-0.0203382801264524,0.00292564951814711,0,
00:00:00.708,0.0124264098703861,0.0038816772866994104,-0.000651278649456799,0,
00:00:00.712,-0.00350413122214377,0.0160352736711502,-0.00481145223602653,0,
00:00:00.716,-0.00171271548606455,-0.00110140652395785,0.00409409590065479,0,
00:00:00.72,-0.000130963628180325,-0.0115438578650355,0.00805003196001053,0,
00:00:00.724,0.000583878660108894,0.00287235365249217,-0.000957053794991225,0,
00:00:00.728,0.000558550353161991,0.0158685874193907,-0.0067225587554276,0,
00:00:00.732,-0.00395974749699235,-0.0065818275325000295,-0.00417243456467986,0,
00:00:00.736,0.00171313842292875,-0.00988025311380625,-4.99317247886211e-05,0,
00:00:00.74,0.00701077748090029,0.0246794391423464,0.000372696347767487,0,
00:00:00.744,0.00595801323652267,0.0137681411579251,0.00470328470692039,0,
00:00:00.748,-0.00922503601759672,-0.0324187763035297,0.00115499866660684,0,
00:00:00.752,-0.0121552953496575,-0.0254860483109951,0.000228978518862277,0,
00:00:00.756,0.00413341587409377,-0.00158035405911505,0.00820008013397455,0,
00:00:00.76,0.0020939267706126,0.0165239032357931,-0.00824970100075006,0,
00:00:00.764,0.00706231128424406,0.0210857782512903,-0.0029134461656212802,0,
00:00:00.768,-0.0011616324773058302,0.00449910340830684,-0.00306980847381055,0,
00:00:00.772,-0.00183798582293093,-0.00610357988625765,-0.000153805332956836,0,
00:00:00.776,0.00570044293999672,-0.00439066858962178,-5.95527353652869e-06,0,
00:00:00.78,-0.0054589631035924,-0.00531176943331957,0.00448012165725231,0,
00:00:00.784,-0.000132676475914195,0.00429261894896626,0.00532035809010267,0,
00:00:00.788,-4.57114037999418e-05,0.0076412889175117,0.0005865851999260491,0,
00:00:00.792,-0.00279544317163527,0.00209253979846835,-0.009242751635611059,0,
00:00:00.796,0.00120038737077266,-0.0202595554292202,0.00016598516958765702,0,
00:00:00.8,-0.0027897204272449,-0.0171064082533121,0.00674265064299107,0,
00:00:00.804,0.0002723463694565,0.0049799354746937795,-3.05775574815925e-05,0,
00:00:00.808,0.00285171787254512,0.0131251001730561,-0.00905840843915939,0,
00:00:00.812,0.000923204002901912,0.0152995893731713,0.00128544215112925,0,
00:00:00.816,0.00967396050691605,0.0153908468782902,0.00802603829652071,0,
00:00:00.82,-0.00044661512947641297,-0.00364442891441286,-0.00338954641483724,0,
00:00:00.824,-0.00385491200722754,-0.0048113837838172895,-0.000844754686113447,0,
00:00:00.828,-0.0120807671919465,-0.0242523029446602,0.0023199333809316197,0,
00:00:00.832,-0.00266334577463567,-0.0124825062230229,-0.00155255431309342,0,
00:00:00.836,0.00345827406272292,0.0033590451348573,-0.00351613690145314,0,
00:00:00.84,0.00512014515697956,0.0115283466875553,0.00173504161648452,0,
00:00:00.844,-0.000525984214618802,0.0025515945162624103,0.0022824106272309997,0,
00:00:00.848,0.00500364927574992,0.0173268057405949,0.00308453873731196,0,
00:00:00.852,0.0043901200406253294,0.0144612127915025,-0.0043679042719304605,0,
00:00:00.856,-0.00338450563140213,-0.0204935986548662,0.0014595852699130802,0,
00:00:00.86,-0.004806807730346921,-0.0138766532763839,-0.00138299178797752,0,
00:00:00.864,0.00123919488396496,-0.00240442133508623,0.00103394547477365,0,
00:00:00.868,-0.0042894762009382205,0.004769121296703821,-0.0019208098528906699,0,
00:00:00.872,-0.0019295585807412897,-0.0022646842990070603,-0.0029616309329867398,0,
00:00:00.876,0.00139879784546793,0.00105376401916146,0.0005380236543715,0,
00:00:00.88,-0.0033276523463428,-0.0062284842133522,0.000766145589295775,0,
00:00:00.884,0.00419290503486991,0.00781017541885376,0.0151203200221062,0,
00:00:00.888,0.00983877014368773,0.0285925809293985,-0.0007644264842383559,0,
00:00:00.892,0.0179464928805828,0.012186917476356002,-0.0143551621586084,0,
00:00:00.896,-0.0170803349465132,-0.0290697440505028,-0.0058883763849735295,0,
00:00:00.9,-0.0193791482597589,-0.0315875597298145,0.0014093401841819302,0,
00:00:00.904,-0.0058702528476715105,-0.007468900643289091,0.00467639975249767,0,
00:00:00.908,0.00794009584933519,0.0164523664861918,0.004266407340765,0,
00:00:00.912,0.0100107714533806,0.0161907114088535,0.00200447184033692,0,
00:00:00.916,0.00384079711511731,0.00948186684399843,-0.00235421909019351,0,
00:00:00.92,-0.0015087976353243,-0.00276805344037712,0.00251135812141001,0,
00:00:00.924,0.00492585217580199,-0.000177151901880279,-0.0040436633862555,0,
00:00:00.928,0.0041770413517952,0.0183253940194845,-0.00463549001142383,0,
00:00:00.932,-0.012581336311995999,-0.0257481150329113,0.0106061398983002,0,
00:00:00.936,-0.00657831924036145,-0.0177671331912279,-0.00021661761275026898,0,
00:00:00.94,-0.000137905735755339,0.00048089536721818095,-0.00646623689681292,0,
00:00:00.944,0.00351497228257358,0.00907307770103216,-0.00393737107515335,0,
00:00:00.948,0.00396362319588661,0.0092641357332468,0.000202237191842869,0,
00:00:00.952,0.0024035754613578302,0.00290602445602417,0.00263513741083443,0,
00:00:00.956,-0.0016840383177623198,7.750804070383309e-05,0.000720266543794423,0,
00:00:00.96,-0.00108644319698215,-0.0053669661283493,0.0035260864533484,0,
00:00:00.964,-0.0039924462325871,-0.0017794177401810897,0.00170410762075335,0,
00:00:00.968,0.0108707454055548,0.0162967294454575,-0.000711261469405144,0,
00:00:00.972,0.0123862512409687,0.0116921113803983,-0.00193143961951137,0,
00:00:00.976,-0.0163124557584524,-0.0254326034337282,-0.0038530956953764,0,
00:00:00.98,-0.0202106013894081,-0.0232808161526918,0.00318683823570609,0,
00:00:00.984,0.00313212652690709,-0.0042233900167048,0.00390378455631435,0,
00:00:00.988,0.0126386396586895,0.0210911128669977,-0.00478502409532666,0,
00:00:00.992,0.0043788938783109205,0.0132810696959496,-0.00361176580190659,0,
00:00:00.996,0.00325876497663558,0.00265111215412617,-0.000102061996585689,0,
00:00:01,-0.000216328742681071,0.00425565056502819,0.00218498799949884,0,
00:00:01.004,-0.00675889709964395,-0.00930897891521454,0.00246780016459525,0,
00:00:01.008,0.0009813926881179211,-0.0078989677131176,0.00142649246845394,0,
00:00:01.012,0.007632999680936341,0.00809718947857618,-0.0019758576527237896,0,
00:00:01.016,-0.00596252223476768,0.00253254524432123,0.00327167473733425,0,
00:00:01.02,-0.0038562538102269203,-0.00430139247328043,-0.00339848804287612,0,
00:00:01.024,-0.00560476863756776,-0.0144027695059776,-0.000190542079508305,0,
00:00:01.028,0.000330077833496034,-0.00405875779688358,0.00246171350590885,0,
00:00:01.032,0.00669099483639002,0.0020591279026120897,0.000227789772907272,0,
00:00:01.036,0.00506870727986097,0.0155208362266421,-0.0037689181044697796,0,
00:00:01.04,0.0011314214207232,0.012190705165267,-0.00203697918914258,0,
00:00:01.044,-0.0039018171373754705,-0.00562063185498118,0.0005472932825796309,0,
00:00:01.048,-0.000764074095059186,-0.00548672489821911,0.00189380417577922,0,
00:00:01.052,-0.000388335931347683,0.00038038141792640095,0.0017737417947500899,0,
00:00:01.056,0.00363721116445959,-0.00134588545188308,0.000841797504108399,0,
00:00:01.06,-0.00437305169180036,-0.00285883084870875,-0.00220857840031385,0,
00:00:01.064,-0.00548103684559464,-0.0023570607881993103,-0.000784422503784299,0,
00:00:01.068,0.00179971172474325,-0.00896912161260843,0.00288600963540375,0,
00:00:01.072,-0.000498085399158299,0.00881861988455057,0.00966905802488327,0,
00:00:01.076,0.00855854526162148,0.00197871262207627,-0.00866587832570076,0,
00:00:01.08,0.0039723217487335205,0.00186155561823398,-0.0103644728660583,0,
00:00:01.084,5.02879847772419e-05,0.0144772790372372,-0.00016019660688471,0,
00:00:01.088,-0.00875413883477449,-0.000371557864127681,0.00447989348322153,0,
00:00:01.092,-0.00774032715708017,-0.0179260279983282,0.0025031897239387,0,
00:00:01.096,-0.000215729538467713,-0.008346543647348879,0.00641909474506974,0,
00:00:01.1,0.00695791374891996,-0.00496023707091808,-0.000389834342058748,0,
00:00:01.104,0.00767051335424185,0.00576536543667316,-0.00294933188706636,0,
00:00:01.108,-0.000403848476707935,0.0250784028321505,-0.0006304703420028089,0,
00:00:01.112,-0.00533056585118175,0.0047574187628924795,-0.00531282788142562,0,
00:00:01.116,0.00113753147888929,-0.0105219520628452,0.00047675889800302695,0,
00:00:01.12,-0.00163285154849291,-0.0156036615371704,0.004429406486451629,0,
00:00:01.124,-0.0012543636839836801,-0.00593588827177882,-3.0421882911468897e-05,0,
00:00:01.128,-0.0021216468885541,0.00356873986311257,-0.0009203618974424901,0,
00:00:01.132,0.00484001915901899,0.007419432513415809,-0.00050204893341288,0,
00:00:01.136,-0.00147501938045025,0.008111079223454,5.9644204156938906e-05,0,
00:00:01.14,0.0010998734505847099,0.0044478764757514,0.000330719427438453,0,
00:00:01.144,0.0028087098617106698,-0.00671987514942884,0.00029596290551126003,0,
00:00:01.148,-0.00221539521589875,-0.00205709761939943,0.000109912805783097,0,
00:00:01.152,-0.00450466992333531,-0.0122586339712143,0.00200673867948353,0,
00:00:01.156,-0.0010184654965996699,0.00812286790460348,-0.0042069382034242205,0,
00:00:01.16,0.0103344907984138,0.0135825844481587,0.000188252990483306,0,
00:00:01.164,-0.00509735429659486,-0.00891353189945221,0.00138645514380187,0,
00:00:01.168,-0.00476966379210353,-0.00416806153953075,-0.0010626398725435099,0,
00:00:01.172,0.00368675077334046,-0.00332088768482208,0.0021983499173075,0,
00:00:01.176,0.00268427398987114,-0.005812902469187971,0.007520272862166171,0,
00:00:01.18,-0.00435250485315919,0.0128795253112912,-0.004188880790025,0,
00:00:01.184,3.21275510941632e-05,0.00390223483555019,-0.0101923095062375,0,
00:00:01.188,0.0013938806951046,0.00299462117254734,-0.00134083162993193,0,
00:00:01.192,0.00111278519034386,-0.00681624934077263,0.0013787738280370801,0,
00:00:01.196,-0.0017653072718530898,-0.0118932034820318,0.0061736423522234,0,
00:00:01.2,0.00579973915591836,0.0045518153347075,0.00417232234030962,0,
00:00:01.204,-0.00286340480670333,0.0109705487266183,0.000507187622133642,0,
00:00:01.208,-0.0035445808898657604,-0.000546941882930696,-0.00199665618129075,0,
00:00:01.212,-0.00551963876932859,-0.005819225218147039,-0.00257242913357913,0,
00:00:01.216,0.00674826186150312,-0.000852531578857452,0.000331271497998387,0,
00:00:01.22,0.0029107113368809197,0.00294732558541,-0.0024399526882916698,0,
00:00:01.224,0.00213608052581549,0.00105051463469863,-0.00113062851596624,0,
00:00:01.228,-0.00120576936751604,-0.0052530285902321295,0.0007000555633567269,0,
00:00:01.232,-0.007091033738106491,-0.008200953714549541,0.0015636271564289901,0,
00:00:01.236,-0.0006374993827193981,0.016143599525094,0.00135021947789937,0,
00:00:01.24,0.0022264719009399397,0.00448453752323985,-0.00149322999641299,0,
00:00:01.244,-0.0017304812790826,-0.00966574065387249,0.0018130609532818198,0,
00:00:01.248,0.0073200142942369,-0.0039686057716608,-0.000988479005172849,0,
00:00:01.252,0.0034012438263744103,0.00690447213128209,0.0036686740349978204,0,
00:00:01.256,-0.0019346481421962398,-0.00330722169019282,0.00472336169332266,0,
00:00:01.26,-0.0104992836713791,-0.000565659487619996,-0.00847267173230648,0,
00:00:01.264,0.0045116925612092,0.00670586433261633,-0.006447879131883379,0,
00:00:01.268,-0.00244338531047106,-0.007400826085358859,-0.0006176427123136821,0,
00:00:01.272,0.0015586863737553401,-0.00260831811465323,0.00335910194553435,0,
00:00:01.276,0.0022267799358815,-0.0029969469178468,0.00201316177845001,0,
00:00:01.28,0.0012604333460331,0.00444597657769918,0.00453013787046075,0,
00:00:01.284,-0.0062054009176790706,0.00525742396712303,0.00205398676916957,0,
00:00:01.288,-0.00104080827441067,-0.00357228121720254,-0.0009275376214645801,0,
00:00:01.292,0.0203689225018024,0.0159337781369686,-0.000327720190398395,0,
00:00:01.296,-0.000820601475425065,0.0033064007293433,-0.00417972542345524,0,
00:00:01.3,-0.0142839886248112,-0.0136065101251006,-0.00272701121866703,0,
00:00:01.304,-0.009597582742571829,-0.0127204423770308,-9.79005635599606e-05,0,
00:00:01.308,-0.00290320115163922,-0.0150377871468663,0.00159480154979974,0,
00:00:01.312,0.0068888217210769705,0.0064526945352554295,0.0018637616885826,0,
00:00:01.316,0.0076021556742489295,0.0161465406417847,0.00116293109022081,0,
00:00:01.32,0.0018767195288091898,0.00694732367992401,0.000210220750886947,0,
00:00:01.324,0.0018424470908939802,-0.000175452616531402,-0.00046297759399749295,0,
00:00:01.328,0.00120709033217281,0.00485646724700928,-0.000671040208544582,0,
00:00:01.332,-0.00460499152541161,0.00527766672894359,-0.00466206064447761,0,
00:00:01.336,-0.0104615679010749,-0.0157921761274338,0.00790247693657875,0,
00:00:01.34,0.0105874259024858,0.00326965074054897,-0.000599532737396657,0,
00:00:01.344,0.0019048571120947602,-0.0105454232543707,-0.000660148856695741,0,
00:00:01.348,-0.00657079182565212,-0.00746210757642984,-0.0017540369881317,0,
00:00:01.352,-0.00315474369563162,0.00047177646774798605,-0.005962590221315621,0,
00:00:01.356,0.00573610654100776,0.0122556174173951,0.000958139717113227,0,
00:00:01.36,-0.00028658914379775497,0.00317917158827186,0.00128006294835359,0,
00:00:01.364,-0.00860331952571869,-0.00225358991883695,0.00472610956057906,0,
00:00:01.368,0.0189451184123755,0.0198133680969477,0.0005550633068196481,0,
00:00:01.372,0.008005824871361259,0.0103216571733356,0.0016110313590616,0,
00:00:01.376,-0.0168844815343618,-0.0216826424002647,0.0037312791682779798,0,
00:00:01.38,-0.0105412118136883,-0.0268675722181797,-0.00381519482471049,0,
00:00:01.384,-0.00333183794282377,-0.0137851415202022,-0.0072724586352706,0,
00:00:01.388,0.00662754708901048,0.0195286069065332,-0.00516273686662316,0,
00:00:01.392,0.007460520137101409,0.0181635785847902,0.00349404779262841,0,
00:00:01.396,0.0039324616082012705,0.00852103065699339,0.00732641015201807,0,
00:00:01.4,-6.104739441070711e-05,-0.00305534270592034,0.00133864535018802,0,
00:00:01.404,-0.00655467202886939,-0.0103120915591717,-0.00111054780427366,0,
00:00:01.408,0.00123506807722151,-0.00499320775270462,-0.00361952045932412,0,
00:00:01.412,0.00365771353244781,0.00940348394215107,0.0009411863284185529,0,
00:00:01.416,-0.0019786679185926897,0.01248908508569,0.0013217517407611,0,
00:00:01.42,0.00141857261769474,-0.0067402846179902606,0.000363966100849211,0,
00:00:01.424,-0.0052810739725828205,-0.0204906947910786,-0.00255157449282706,0,
00:00:01.428,-0.005081371869891879,-0.00857049413025379,0.00539217563346028,0,
00:00:01.432,0.00276423012837768,0.00496215187013149,-0.000750748091377318,0,
00:00:01.436,0.00447477120906115,0.0108042862266302,-0.00728610297665,0,
00:00:01.44,0.00494608702138066,0.0110603384673595,-0.0006839324487373231,0,
00:00:01.444,-0.00358118768781424,0.00154057610780001,0.0024178959429264103,0,
00:00:01.448,-0.000853394740261137,-0.0011116579407826099,0.000610383227467537,0,
00:00:01.452,-0.0022504336666315803,-0.00618631020188332,-0.0007028572144918139,0,
00:00:01.456,-0.00233981618657708,-0.0129513768479228,0.013948455452919,0,
00:00:01.46,0.00745891267433763,0.010776792652905001,-0.00526260258629918,0,
00:00:01.464,0.00548510579392314,0.0100980568677187,-0.00803935527801514,0,
00:00:01.468,-0.00403648288920522,0.00604766933247447,-0.00407192623242736,0,
00:00:01.472,-0.00392332021147013,-0.00852748192846775,0.0005114429513923821,0,
00:00:01.476,-0.00974728260189295,-0.0241999141871929,0.00294992281123996,0,
00:00:01.48,-1.4717937119712601e-05,-0.007629392202943559,0.00297322869300842,0,
00:00:01.484,0.00500512169674039,0.0152471056208014,0.00159358873497695,0,
00:00:01.488,0.00109375559259206,0.000486582895973697,2.9039767468930202e-05,0,
00:00:01.492,0.00674877455458045,0.0178748723119497,-0.00301341898739338,0,
00:00:01.496,0.00119737919885665,0.009213389828801159,0.00293233338743448,0,
00:00:01.5,-0.00147725129500031,-0.0032213716767728303,0.000990626402199268,0,
00:00:01.504,0.0102840755134821,0.0007331109372898941,-0.0036573994439095298,0,
00:00:01.508,-0.0114534366875887,-0.0126194339245558,-0.0024735764600336604,0,
00:00:01.512,-0.0125790601596236,-0.0205546747893095,-1.75215063791256e-05,0,
00:00:01.516,-0.000582469045184553,-0.009560875594615941,0.0015277648344636,0,
00:00:01.52,0.00335584464482963,0.0124539332464337,0.00170792045537382,0,
00:00:01.524,0.007915834896266459,0.0141681330278516,0.00307247322052717,0,
00:00:01.528,0.000855783408042043,0.00961342081427574,-0.003957413136959079,0,
00:00:01.532,0.00648239720612764,0.0108281960710883,-0.000175334804225713,0,
00:00:01.536,0.00499942759051919,0.00354143511503935,0.00080555840395391,0,
00:00:01.54,-0.0124500477686524,-0.0257147252559662,0.0005477868835441769,0,
00:00:01.544,-0.00691751483827829,-0.0104743679985404,0.00209812400862575,0,
00:00:01.548,-0.000636015902273357,-0.0018104531336575699,-0.00228507001884282,0,
00:00:01.552,0.00311380391940475,0.005375348962843421,-0.00199514697305858,0,
00:00:01.556,0.00377659616060555,0.005384313408285379,-0.0024602769408375,0,
00:00:01.56,0.00241426005959511,0.003167440649122,0.004873922094702721,0,
00:00:01.564,-0.0015659865457564599,0.0010157085489481698,0.000800157198682427,0,
00:00:01.568,0.0011179632274434,0.0122065786272287,-0.000696858915034682,0,
00:00:01.572,0.00241439114324749,0.006220479961484671,-0.0049909777007997,0,
00:00:01.576,-0.0069597442634403706,-0.0218169428408146,0.00349892419762909,0,
00:00:01.58,0.00728721264749765,0.0010135977063328,0.00948153622448444,0,
00:00:01.584,-0.00372512941248715,-0.00637633493170142,-0.005366176366806029,0,
00:00:01.588,-0.00605773320421577,-0.00790829118341208,-0.008453852497041229,0,
00:00:01.592,0.00314631103537977,0.00958938989788294,0.0016002894844859802,0,
00:00:01.596,0.0012729789596051,0.008327865041792391,-0.0011294959113001802,0,
00:00:01.6,-0.00120921269990504,0.00027637247694656296,0.00336140464060009,0,
00:00:01.604,-0.0015620134072378302,0.006227149628102779,0.007179554551839829,0,
00:00:01.608,0.00791233219206333,0.00712106097489595,-0.0029578136745840302,0,
00:00:01.612,0.00136447220575064,-0.0102173835039139,-0.006124241743236779,0,
00:00:01.616,-0.00246189394965768,-0.0105267092585564,0.000153511326061562,0,
00:00:01.62,0.000916395569220185,-6.859909626655279e-05,0.0021069326903671,0,
00:00:01.624,-0.0060175424441695205,-6.36717304587364e-05,0.00170651043299586,0,
00:00:01.628,-0.0036653878632932897,-0.0006678267964161929,-0.00153413345105946,0,
00:00:01.632,-0.00161126989405602,-0.00406977348029613,0.0015701364027336199,0,
00:00:01.636,0.00484864413738251,0.0115347234532237,0.0029480445664376,0,
00:00:01.64,0.00667244102805853,0.00985137280076742,-0.00242973724380136,0,
00:00:01.644,-0.00226777023635805,-0.0124645214527845,-0.00274883466772735,0,
00:00:01.648,-0.00047386935329995995,-0.0009027614141814411,0.0009442674927413461,0,
00:00:01.652,-0.000514732557348907,0.00861495453864336,-0.0015196668682619901,0,
00:00:01.656,-0.0028346360195428103,-0.0021193532738834602,-0.00045552558731287696,0,
00:00:01.66,0.00129676016513258,-0.0026669534854590897,-0.00118495419155806,0,
00:00:01.664,0.005460941698402171,-0.0071546975523233405,0.0033256760798394697,0,
00:00:01.668,-0.00373124144971371,-8.17009131424129e-05,0.00261107995174825,0,
00:00:01.672,-0.00800991710275412,0.00497507164254785,0.000431948399636894,0,
00:00:01.676,0.00494567397981882,0.00301867187954485,0.000909709138795733,0,
00:00:01.68,0.00878999289125204,-2.55938430200331e-05,-0.0035543667618185295,0,
00:00:01.684,-0.009334122762084009,-0.00793605949729681,-0.000658971723169088,0,
00:00:01.688,-0.00339966919273138,-0.00412333849817514,-0.0024516589473933,0,
00:00:01.692,0.0019235216313973102,0.00575276929885149,-0.0025575913023203603,0,
00:00:01.696,0.00796807091683149,0.0152479102835059,0.00338046881370246,0,
00:00:01.7,0.000969228276517242,-0.000224884031922556,0.00357622862793505,0,
00:00:01.704,-0.0024342855904251302,-0.00481785414740443,0.0014968841569498199,0,
00:00:01.708,-0.000790242222137749,-0.0065847537480294704,-0.00261441734619439,0,
00:00:01.712,-0.0036535141989588703,-0.000571195443626493,0.00461964262649417,0,
00:00:01.716,-0.00183335470501333,-0.00523707782849669,-0.00577944843098521,0,
00:00:01.72,0.000600006897002459,-0.0100417817011476,-0.0018319215159863199,0,
00:00:01.724,0.00392688158899546,0.00610243855044246,0.00462352903559804,0,
00:00:01.728,-0.00231779203750193,0.0103662917390466,-0.0026644691824913,0,
00:00:01.732,-0.000890441646333784,0.009054746478796009,-0.0042668622918427,0,
00:00:01.736,0.00336266029626131,0.00140075071249157,2.60246688412735e-05,0,
00:00:01.74,-2.9908193027949895e-05,-0.008575963787734509,0.009369898587465291,0,
00:00:01.744,0.00580860767513514,0.0063307108357548705,-0.0046001831069588705,0,
00:00:01.748,-0.0019044982036575699,-0.0107732666656375,0.000887028116267174,0,
00:00:01.752,-0.0109140146523714,-0.0115614300593734,0.00516281323507428,0,
00:00:01.756,-0.0018450308125466102,0.0063939243555069,-0.00419455766677856,0,
00:00:01.76,0.0140668889507651,0.0126732131466269,-0.0043464251793921,0,
00:00:01.764,-0.00513700069859624,0.000328673078911379,-0.00140649196691811,0,
00:00:01.768,-0.00737634301185608,-0.00161235115956515,0.0011622998863458599,0,
00:00:01.772,0.00560104288160801,-0.0114402445033193,0.00212283153086901,0,
00:00:01.776,0.004656598903238771,0.00926051381975412,0.00167953490745276,0,
00:00:01.78,0.000354870862793177,-0.0007049964624457059,0.000625187996774912,0,
00:00:01.784,-0.0066472995094955,-0.000253845035331324,-0.000304775487165898,0,
00:00:01.788,-0.00306081166490912,-0.00707550579681993,0.0034103966318070897,0,
00:00:01.792,0.00148607126902789,-0.00126649148296565,-0.0067152795381844,0,
00:00:01.796,0.00758513761684299,0.0082557275891304,-0.00167553965002298,0,
00:00:01.8,0.00297763291746378,0.0116650843992829,0.0012656036997214,0,
00:00:01.804,-0.00215345853939652,0.000327054411172867,-2.49460608756635e-05,0,
00:00:01.808,-0.0103834075853229,-0.0204156059771776,0.00549431331455708,0,
00:00:01.812,-0.00144164811354131,-0.00739634223282337,0.00213246513158083,0,
00:00:01.816,0.007866558618843559,0.008715696632862091,-0.0059373918920755395,0,
00:00:01.82,0.0005493010394275191,0.00923127308487892,-0.0014085122384131,0,
00:00:01.824,0.00140642165206373,-0.000242005218751729,0.0027679055929184,0,
00:00:01.828,-0.00216474011540413,0.000674616429023445,-0.00288985623046756,0,
00:00:01.832,0.00689981132745743,0.005827051587402821,0.0011169875506311698,0,
00:00:01.836,-0.00783650577068329,-0.00316601013764739,0.0037343818694353104,0,
00:00:01.84,-0.00572985131293535,-0.00835458654910326,-0.00118494138587266,0,
00:00:01.844,0.00630412856116891,-0.0047361166216433,-0.0018233055016025899,0,
00:00:01.848,-0.0022556832991540397,0.00036561698652803903,-0.00292915757745504,0,
00:00:01.852,0.00107506616041064,0.00542755983769894,0.00216651475057006,0,
00:00:01.856,0.0037406396586448,-0.00046431104419753,0.00233482546173036,0,
00:00:01.86,0.0010114171309396599,0.0127958143129945,0.00289215287193656,0,
00:00:01.864,-0.00783103052526712,-0.0102509604766965,-0.0045982152223587,0,
00:00:01.868,-0.0026639171410352,-0.0228095874190331,0.00340212555602193,0,
00:00:01.872,0.0134166898205876,0.0237457267940044,-0.00336449081078172,0,
00:00:01.876,-0.000856590864714235,0.00829297956079245,-0.00260600144974887,0,
00:00:01.88,-0.00676066474989057,-0.0058804857544601,0.0020502265542745603,0,
00:00:01.884,-0.00142231315840036,0.000491081678774208,-0.0023842565715313,0,
00:00:01.888,0.000873946584761143,-0.0014078107196837698,0.0021987012587487698,0,
00:00:01.892,-0.000767234596423805,-0.005329812876880171,0.0025393180549144697,0,
00:00:01.896,0.0028234925121069,-0.0050903083756566,0.00109225697815418,0,
00:00:01.9,0.00184047210495919,0.0044505577534437206,-0.000405193626647815,0,
00:00:01.904,0.00200590840540826,0.0041279802098870295,-0.0011443623807281301,0,
00:00:01.908,-0.00112217850983143,-0.00509804720059037,-0.00107757991645485,0,
00:00:01.912,-0.00700063910335302,0.000637380173429847,-0.000560508051421493,0,
00:00:01.916,-0.000567214039620012,0.00711162202060223,-5.50931872567162e-06,0,
00:00:01.92,0.00228650262579322,0.00263366173021495,0.00032859924249351003,0,
00:00:01.924,0.000398535921704024,-0.00860905833542347,0.000386580592021346,0,
00:00:01.928,0.0033104894682765,0.0037528942339122295,0.00025615777121856803,0,
00:00:01.932,0.00791091471910477,-0.000241689995164052,7.05483471392654e-05,0,
00:00:01.936,-0.00856381095945835,-0.0144899785518646,-6.807087629567829e-05,0,
00:00:01.94,-0.0025893591810017802,0.0163496024906635,-0.00011984809680143401,0,
00:00:01.944,-0.00245945574715734,0.00344853010028601,-9.86554659903049e-05,0,
00:00:01.948,-0.00385971623472869,-0.0135964276269078,-4.3902087782044e-05,0,
00:00:01.952,0.00610413728281856,0.00125612574629486,0.00208274321630597,0,
00:00:01.956,0.00972592830657959,0.0157054103910923,-0.0019416112918406699,0,
00:00:01.96,-0.00439500482752919,-0.00614448450505733,-0.0016071735881269,0,
00:00:01.964,-0.00294939009472728,-0.00967818312346935,0.00191930856090039,0,
00:00:01.968,-0.00151960016228259,-0.00053634331561625,-0.00112922012340277,0,
00:00:01.972,-0.000324361666571349,0.0015475864056497801,-0.00269832834601402,0,
00:00:01.976,0.00248115346767008,0.009849090129137041,0.000341696693794802,0,
00:00:01.98,-0.0054997312836349,0.00572459865361452,0.00453338958323002,0,
00:00:01.984,0.00486873323097825,0.00109518505632877,0.00461847754195333,0,
00:00:01.988,0.0034044620115309993,-0.0132522573694587,-0.000342171144438908,0,
00:00:01.992,-0.0024718507193028896,-0.0135260550305247,-0.0077808173373341595,0,
00:00:01.996,-0.00472413608804345,-0.005271568428725001,-0.0019123599631711802,0,
00:00:02,0.0031257318332791302,0.0139794303104281,0.0033100973814725898,0,
00:00:02.004,0.00026652315864339503,0.0149757750332355,0.000108018321043346,0,
00:00:02.008,-0.00235450197942555,-0.00156593846622854,-0.00011960937990807,0,
00:00:02.012,0.00398128665983677,0.00367598119191825,-0.0017537402454763699,0,
00:00:02.016,-0.00224178400821984,-0.010845891200006001,0.00250392383895814,0,
00:00:02.02,0.000728370971046388,0.00102816754952073,-5.18917840963695e-05,0,
00:00:02.024,0.00489447824656963,-0.00597236072644591,0.00430446723476052,0,
00:00:02.028,-0.00604867888614535,-0.00233993399888277,0.00279980758205056,0,
00:00:02.032,-0.0018575377762317699,0.00221203383989632,-0.00879045575857162,0,
00:00:02.036,0.000690222776029259,0.00818393286317587,-0.00318191130645573,0,
00:00:02.04,-0.000542201451025903,-0.000809258955996484,0.0009172916179522869,0,
00:00:02.044,0.0011127571342513,-0.000161364485393278,0.00256846891716123,0,
00:00:02.048,0.00821420550346375,-0.0031068020034581397,0.000163883072673343,0,
00:00:02.052,-0.000269111973466352,0.00260127824731171,0.0029691900126636,0,
00:00:02.056,-0.0085106510668993,0.00480347499251366,0.00559333991259336,0,
00:00:02.06,-0.00650537433102727,-0.00566434022039175,-0.00667591113597155,0,
00:00:02.064,0.00936012342572212,-0.00555064901709557,-0.000917204306460917,0,
00:00:02.068,0.0037732985801994796,-0.0037488674279302398,-0.00220397068187594,0,
00:00:02.072,-0.0031006126664578897,-0.00044480711221694903,-0.000482223986182362,0,
00:00:02.076,-0.0030447395984083397,0.0065478645265102395,-0.000918672245461494,0,
00:00:02.08,-0.00295789306983352,0.00165060197468847,0.00570577289909124,0,
00:00:02.084,0.000777470413595438,0.005997400265187029,0.000837903760839254,0,
00:00:02.088,0.00714211678132415,0.0040479740127921104,-0.00114464003127068,0,
00:00:02.092,0.00298138218931854,-0.0064763673581183,-0.00137829734012485,0,
00:00:02.096,-0.00397359905764461,0.000359834579285234,-0.000810846628155559,0,
00:00:02.1,-0.00191732763778418,-0.0036393008194863796,-0.00220413389615715,0,
00:00:02.104,-0.00974711310118437,-0.00956631358712912,0.004353880882263179,0,
00:00:02.108,0.007048815954476591,0.00277204462327063,-0.0020053931511938602,0,
00:00:02.112,0.0044287657365202895,0.00172040483448654,0.00493743689730763,0,
00:00:02.116,0.0011700764298439,-0.000284165085759014,-0.00325358123518527,0,
00:00:02.12,-0.00103705620858818,0.0162841994315386,-0.0012945029884576802,0,
00:00:02.124,0.00033349989098496697,0.00995157286524773,-0.00291083403863013,0,
00:00:02.128,-0.0053776139393448795,-0.0142076993361115,-0.00262267817743123,0,
00:00:02.132,-0.000140543561428785,-0.00559189869090915,0.00355597422458231,0,
00:00:02.136,0.00793824810534716,-0.0107813840731978,0.00170423975214362,0,
00:00:02.14,-0.00848985742777586,-0.0200609993189573,0.00150016555562615,0,
00:00:02.144,-0.00235205283388495,0.0115479631349444,0.007213340606540441,0,
00:00:02.148,0.0066693755798041795,0.0362971723079681,-0.00165246054530144,0,
00:00:02.152,0.0020022543612867602,0.00559276668354869,-0.0074178259819746,0,
00:00:02.156,0.0014743574429303401,-0.00842992588877678,-0.006704695988446471,0,
00:00:02.16,-0.00344267068430781,-0.0193707980215549,0.0018369307508692102,0,
00:00:02.164,-0.00492742471396923,-0.0100261038169265,0.00637340685352683,0,
00:00:02.168,0.00128884811419994,0.00157972879242152,-0.000824555987492204,0,
00:00:02.172,0.0046759424731135394,0.0118069732561707,0.00134738080669194,0,
00:00:02.176,-0.000349245412508026,0.00560285989195108,0.00279620429500937,0,
00:00:02.18,-0.00351862423121929,-0.0014854179462418,-0.00446561584249139,0,
00:00:02.184,0.0010761914309114198,-0.00640754122287035,-0.000679852557368577,0,
00:00:02.188,0.00779602210968733,0.0111218178644776,0.00261519988998771,0,
00:00:02.192,-0.0074019245803356205,0.0015464557800442,-0.00140473782084882,0,
00:00:02.196,-0.00745747843757272,-0.0117552699521184,-0.00141066440846771,0,
00:00:02.2,0.00639088405296206,-0.00492709176614881,-0.0043939515016973,0,
00:00:02.204,0.00340174487791955,-0.00322692166082561,0.00668455893173814,0,
00:00:02.208,0.0027918191626668,0.009669445455074309,0.0063360915519297106,0,
00:00:02.212,-0.00286716734990478,0.00891247019171715,-0.00466073350980878,0,
00:00:02.216,-0.00296757859177887,-0.00142885616514832,-0.00502898171544075,0,
00:00:02.22,-0.00736469915136695,-0.0134268188849092,-0.0017914439085871,0,
00:00:02.224,0.0106023959815502,0.00158621254377067,0.00111163628753275,0,
00:00:02.228,0.00427677249535918,0.00700489897280931,0.000179597991518676,0,
00:00:02.232,-0.00368380616419017,0.00110980856698006,0.00588413467630744,0,
00:00:02.236,-0.00408148067072034,-0.0076190279796719594,0.000373258284525946,0,
00:00:02.24,0.00037448428338393596,0.0104548120871186,-0.00177547114435583,0,
00:00:02.244,-0.00138856144621968,0.000105890670965891,-0.0018197752069681898,0,
00:00:02.248,-0.00209091021679342,-0.00438839104026556,-0.00301613588817418,0,
00:00:02.252,0.0053322268649935705,-0.00415220391005278,0.0061139478348195605,0,
00:00:02.256,-0.00296850316226482,-0.0120956217870116,0.000282546796370298,0,
00:00:02.26,0.00755470851436257,0.0105599611997604,-0.0065747909247875205,0,
00:00:02.264,-0.0015952849062159699,0.00802505295723677,0.00157170451711863,0,
00:00:02.268,-0.00360051612369716,0.006753978319466111,0.000214355357456952,0,
00:00:02.272,-0.00228666490875185,-0.0056207752786576705,0.000665875500999391,0,
00:00:02.276,-0.00237141805700958,-0.0128370309248567,-0.00108684285078198,0,
00:00:02.28,0.0071257259696722,0.00489103281870484,0.004811193794012071,0,
00:00:02.284,-0.0031089135445654397,0.0076167397201061205,-0.00010494171147001899,0,
00:00:02.288,-0.00028892696718685296,-0.0068617626093328,-0.00171110255178064,0,
00:00:02.292,-0.0014328402467072,-0.00596043420955539,-0.00147992698475718,0,
00:00:02.296,0.0025293794460594697,0.0140472808852792,-0.000595642777625471,0,
00:00:02.3,0.0017761293565854398,0.00431940844282508,0.000180580304004252,0,
00:00:02.304,0.0020481338724494,-0.0104054491966963,-0.0015414687804877801,0,
00:00:02.308,-0.00105965719558299,-0.00503918528556824,0.00454181572422385,0,
00:00:02.312,-0.00488617643713951,0.00414494797587395,0.0019833166152238802,0,
00:00:02.316,-0.0025369378272444,-0.0013177323853597,-0.0034565420355647802,0,
00:00:02.32,-0.00144773907959461,-0.00667866645380855,-0.0007491875439882281,0,
00:00:02.324,0.004250690806657079,0.00510785030201077,-0.00251778517849743,0,
00:00:02.328,0.00380459311418235,0.0128835923969746,-0.000515937572345138,0,
00:00:02.332,0.00124152423813939,0.0036278648767620295,-0.000702217337675393,0,
00:00:02.336,-0.000947563035879284,-0.00934569910168648,0.00179202540311962,0,
00:00:02.34,0.000265306967776269,-0.00811428017914295,0.00489196367561817,0,
00:00:02.344,-0.00554403197020292,-0.00449374970048666,-0.00206447672098875,0,
00:00:02.348,-0.00237100222148001,0.00210118177346885,0.0152409486472607,0,
00:00:02.352,0.00776231288909912,0.00953806564211845,-0.0112052196636796,0,
00:00:02.356,0.0013638925738632699,0.00284130359068513,-0.0138429654762149,0,
00:00:02.36,-0.00432473141700029,-0.0012080518063157801,-0.00174860807601362,0,
00:00:02.364,-0.00498499674722552,-0.0025971406139433397,0.00491224555298686,0,
00:00:02.368,-0.000125216887681745,-0.00835516676306725,0.00600278144702315,0,
00:00:02.372,0.00328558147884905,0.00503134075552225,0.0037034347187727703,0,
00:00:02.376,0.0077813738025724905,0.00929111242294312,0.0006040553562343121,0,
00:00:02.38,-0.00200823578052223,-0.00473332824185491,-0.00153362040873617,0,
00:00:02.384,0.0028239949606359,0.00106255291029811,-0.00214673602022231,0,
00:00:02.388,-0.00146703131031245,0.00504683284088969,-0.00158779695630074,0,
00:00:02.392,-0.00872645527124405,-0.0152281140908599,-0.000578116218093783,0,
00:00:02.396,-0.00854765716940165,-0.0120485667139292,-0.0018133526900783199,0,
00:00:02.4,0.00534667214378715,0.00717562576755881,0.000542191439308226,0,
00:00:02.404,0.00968140177428722,0.0118550583720207,0.0125102903693914,0,
00:00:02.408,0.00029342810739763103,0.00987318623811007,-0.00370043586008251,0,
00:00:02.412,0.000533679965883493,0.00559076806530356,-0.0112761948257685,0,
00:00:02.416,-0.000879300874657929,-0.0108558908104897,-0.000338194571668282,0,
00:00:02.42,-0.00175356375984848,-0.0056122564710676705,0.00100238551385701,0,
00:00:02.424,0.00048220620374195305,-0.000882240186911076,0.000567832903470844,0,
00:00:02.428,-0.0048439581878483295,-0.00485244300216436,0.00261298730038106,0,
00:00:02.432,0.00038794797728769503,-0.0029734461568296,0.00513544399291277,0,
00:00:02.436,-5.4488155001308796e-05,-0.00333224586211145,0.003943376243114471,0,
00:00:02.44,0.00569916563108563,0.0136521430686116,-0.00148684252053499,0,
00:00:02.444,-0.0018145598005503399,0.0137326763942838,-0.00455861771479249,0,
00:00:02.448,0.00437472341582179,0.00076988572254777,-0.00626596854999661,0,
00:00:02.452,-0.0102155171334744,-0.0188221819698811,-0.0019702531863004,0,
00:00:02.456,0.006211067084223029,0.0021865235175937397,0.0020578778348863103,0,
00:00:02.46,0.00198693526908755,-0.00357624865137041,0.0035416686441749295,0,
00:00:02.464,-0.00348384375683963,-0.0012719263322651401,0.0027480684220790898,0,
00:00:02.468,-0.00459082331508398,-0.00013250194024294599,0.0009757454972714189,0,
00:00:02.472,0.0019010144751519,0.0010608563898131301,-0.000562480476219207,0,
00:00:02.476,0.00105868151877075,0.00189280998893082,-0.0012654670281335698,0,
00:00:02.48,0.00591294793412089,0.0206691864877939,0.000921166909392923,0,
00:00:02.484,0.00187524128705263,0.00233597378246486,-0.0046540815383195894,0,
00:00:02.488,-0.00231956038624048,-0.0174114406108856,-0.00384295382536948,0,
00:00:02.492,-0.007869609631598001,-0.026120500639081,0.00781466905027628,0,
00:00:02.496,-0.000780393311288208,0.00880576577037573,0.0110194673761725,0,
00:00:02.5,0.00253061112016439,0.0148510029539466,-0.00874521117657423,0,
00:00:02.504,0.0028447320219129302,0.00436053145676851,-0.00875501427799463,0,
00:00:02.508,-0.000483823532704264,0.00228817528113723,-0.00253700977191329,0,
00:00:02.512,0.00415548542514443,-0.00118672766257077,0.00263440702110529,0,
00:00:02.516,-0.0011589048663154199,-0.00103739171754569,0.00437023676931858,0,
00:00:02.52,-0.00247744866646826,-0.00702624814584851,0.00326776644214988,0,
00:00:02.524,-0.00377677055075765,-0.00333283049985766,0.0010399778839200698,0,
00:00:02.528,0.00159998086746782,0.0013069025008007901,-0.00289147277362645,0,
00:00:02.532,-0.00193135486915708,0.00137861887924373,0.000370400695828721,0,
00:00:02.536,0.00499859638512135,0.0111890835687518,0.0023160590790212198,0,
00:00:02.54,0.0113938990980387,0.00938730500638485,-0.006640464533120389,0,
00:00:02.544,-0.00834679324179888,-0.0108512928709388,0.00563616864383221,0,
00:00:02.548,-0.0131594277918339,-0.0226407703012228,0.00270523596554995,0,
00:00:02.552,0.000825683237053454,-0.0059894090518355396,-0.0061884094029665,0,
00:00:02.556,0.0054422696121037,0.0155526008456945,-0.00199548713862896,0,
00:00:02.56,0.0108087360858917,0.024527158588171002,-0.0037699914537370205,0,
00:00:02.564,-0.00626184418797493,-0.00501760793849826,0.0052850013598799706,0,
00:00:02.568,-0.0036752230953425204,-0.0134332291781902,0.00249237241223454,0,
00:00:02.572,-0.000709467218257487,-0.00528370635583997,0.000987617764621973,0,
00:00:02.576,0.0010686645982787,-0.00154083943925798,-1.15326574814389e-05,0,
00:00:02.58,-0.0006311237812042241,0.00087679288117215,-0.000588404480367899,0,
00:00:02.584,0.00289513845928013,0.0105717480182648,-0.000739489798434079,0,
00:00:02.588,0.0017950312467292,0.00499994028359652,-0.000570126168895513,0,
00:00:02.592,0.0039375093765556795,-0.00834010634571314,-0.0023405144456774,0,
00:00:02.596,-0.015725689008832,-0.0119090089574456,0.00198196712881327,0,
00:00:02.6,0.00307439710013568,0.012168413028121,0.00387030490674078,0,
00:00:02.604,0.0152718452736735,0.0147661715745926,0.00044553715270012595,0,
00:00:02.608,0.000342808751156554,0.00169126817490906,-0.00228088558651507,0,
00:00:02.612,-0.00841849949210882,-0.0271729584783316,-0.0027254440356046,0,
00:00:02.616,-0.00217976723797619,-0.00108167028520256,-0.0056944820098578895,0,
00:00:02.62,-0.0052331928163766896,0.0015428176848217802,0.0018907104386016698,0,
00:00:02.624,-0.00295819458551705,0.000274825608357787,0.00422566989436746,0,
00:00:02.628,0.00505766598507762,0.0025290041230619,0.0031526354141533396,0,
00:00:02.632,0.0036977119743824,0.00602382747456431,0.000904285174328834,0,
00:00:02.636,0.00493685901165009,0.0139205101877451,-0.00297256256453693,0,
00:00:02.64,-0.0006540185422636571,-0.00554665038362145,0.0024589472450316,0,
00:00:02.644,0.0042495965026319,0.0005924138822592791,0.000425226462539285,0,
00:00:02.648,-0.00747250718995929,-0.0054571577347815,-0.00610275147482753,0,
00:00:02.652,-0.00353751215152442,-0.00598781835287809,0.0035618462134152703,0,
00:00:02.656,0.0016245907172560698,-0.009323707781732079,-0.000137072871439159,0,
00:00:02.66,-0.000714795489329845,3.64136867574416e-05,-0.0033688484691083397,0,
00:00:02.664,-0.00208867806941271,0.011204575188458,-0.000981947872787714,0,
00:00:02.668,0.00292658945545554,0.003922889009118079,0.003617002395913,0,
00:00:02.672,-0.00546196289360523,0.00526168243959546,0.000372375157894567,0,
00:00:02.676,0.0192454904317856,0.00816343724727631,-0.00207211496308446,0,
00:00:02.68,0.000152554028318264,-0.0017538474639877699,0.0021806056611239897,0,
00:00:02.684,-0.0148832555860281,-0.0274821743369102,0.0018708659335970898,0,
00:00:02.688,-0.008762740530073641,-0.00585400080308318,0.00229728338308632,0,
00:00:02.692,0.00289575872011483,0.00919258408248425,-0.000912499206606299,0,
00:00:02.696,0.00417806440964341,0.00211231294088066,-0.00699934642761946,0,
00:00:02.7,0.0066315978765487706,0.0071923481300473205,0.0013490112032741302,0,
00:00:02.704,0.0010055546881631,0.0167300682514906,0.00218344060704112,0,
00:00:02.708,0.00518824020400643,0.00278327730484307,-0.00129267107695341,0,
00:00:02.712,-0.00319203361868858,-0.017686739563942,-0.0005405717529356481,0,
00:00:02.716,-0.0120290806517005,-0.0167577713727951,-0.00134726869873703,0,
00:00:02.72,0.00177204818464816,0.00652649300172925,0.00108848430681974,0,
00:00:02.724,-0.00022950230049900697,-0.00110895885154605,0.0106856217607856,0,
00:00:02.728,0.0038806903176009703,0.018516443669796,-0.00393293518573046,0,
00:00:02.732,0.00303928041830659,0.00161756214220077,-0.005949947517365221,0,
00:00:02.736,0.00281689059920609,-0.00345610408112407,-0.00502981338649988,0,
00:00:02.74,-0.0029883102979511,-0.0016519733471795901,0.00862578768283129,0,
00:00:02.744,-0.00529074622318149,-0.0147973438724875,-0.00211408571340144,0,
00:00:02.748,0.00269746221601963,-0.0032002821099013103,-0.00261157052591443,0,
00:00:02.752,-0.00404545431956649,0.00533016864210367,-0.0023474637418985397,0,
00:00:02.756,0.00790833495557308,0.0158309228718281,0.00343876518309116,0,
00:00:02.76,-0.00260337395593524,0.00129765237215906,0.00337512185797095,0,
00:00:02.764,-0.00266092643141747,-0.011528211645781999,0.0053145983256399605,0,
00:00:02.768,0.00814051553606987,0.00021099808509461598,-0.0047847917303443,0,
00:00:02.772,-0.00848765205591917,-0.00638972781598568,-0.00494680320844054,0,
00:00:02.776,0.00324568944051862,0.0126199489459395,-0.00175809045322239,0,
00:00:02.78,-0.0021359513048082603,0.00193824828602374,0.00314182555302978,0,
00:00:02.784,-0.00145992473699152,-0.00561828864738345,0.000205873642698862,0,
00:00:02.788,-0.00162666034884751,-0.0043625547550618605,0.00013827900693286202,0,
00:00:02.792,0.00348551711067557,0.00126620731316507,0.000518091779667884,0,
00:00:02.796,0.00304729607887566,-0.0023257397115230604,0.0005539422854781151,0,
00:00:02.8,0.0008177499985322361,0.000609166105277836,-0.00181421602610499,0,
00:00:02.804,-0.000995983369648457,0.000869182811584324,0.0039538131095469,0,
00:00:02.808,-0.00162093667313457,0.000747769372537732,0.0014266724465414901,0,
00:00:02.812,-0.00124736037105322,0.015244229696691002,-0.00170058675576001,0,
00:00:02.816,0.0016191320028156,0.00969104282557964,-0.006930139847099779,0,
00:00:02.82,-0.0017504813149571401,-0.0264369118958712,0.0019867771770805103,0,
00:00:02.824,-0.0052545308135449895,-0.0165814571082592,0.000784605159424245,0,
00:00:02.828,0.0063464646227657795,0.0140737053006887,0.0010525987017899802,0,
00:00:02.832,0.0044886912219226395,0.00834565609693527,0.00110238324850798,0,
00:00:02.836,-0.00637506600469351,-0.00171207403764129,0.00482330145314336,0,
00:00:02.84,-0.00321353320032358,-0.00360684562474489,-0.00180894881486893,0,
00:00:02.844,0.0140626858919859,0.006669109221547839,-0.00563764804974198,0,
00:00:02.848,-0.00406708521768451,0.00541076995432377,-0.00251187290996313,0,
00:00:02.852,-0.004769675899297,-0.00172058888711035,0.0011117224348709,0,
00:00:02.856,-0.0074593522585928405,-0.011948355473578002,0.00273066037334502,0,
00:00:02.86,0.0009256660705432301,-0.00964746624231339,0.00232289638370276,0,
00:00:02.864,0.004135109949857001,0.008488857187330721,0.00300531927496195,0,
00:00:02.868,0.0015570387477055198,0.0115043362602592,-0.002359350444749,0,
00:00:02.872,0.00350731448270381,-0.000120207150757778,-0.0026827445253729803,0,
00:00:02.876,0.00327865779399872,-0.00106766761746258,0.0008956993115134539,0,
00:00:02.88,-0.00322152068838477,0.00176646595355123,-0.0016933464212343099,0,
00:00:02.884,-0.00387096079066396,-0.00432723900303245,-0.000679394521284848,0,
00:00:02.888,0.00010760148143163001,-0.00670956447720528,0.000705429702065885,0,
00:00:02.892,-0.0039056120440363897,-0.00632702605798841,0.00332918972708285,0,
00:00:02.896,0.00165168184321374,0.00615781638771296,-0.00101569935213774,0,
00:00:02.9,0.0007916204049251969,0.00505618937313557,-0.0013434479478746698,0,
00:00:02.904,0.00381255079992116,0.0032518166117370103,0.00163078831974417,0,
00:00:02.908,0.0019309110939502699,0.0050756367854774,-0.0037213920149952204,0,
00:00:02.912,0.00148682773578912,-0.000750060367863625,0.00298659689724445,0,
00:00:02.916,-0.00801076274365187,-0.00900610722601414,-0.0021816024091094698,0,
00:00:02.92,0.000543177593499422,-0.00314453477039933,0.005586055107414721,0,
00:00:02.924,0.00639694137498736,0.00473927007988095,-0.00247043953277171,0,
00:00:02.928,-0.0026638018898665896,-0.00182741426397115,0.00123301707208157,0,
00:00:02.932,0.0008477923111058769,0.00285977451130748,-0.00694826571270823,0,
00:00:02.936,-0.00502977659925818,-0.0011845373082906,-0.000490273116156459,0,
00:00:02.94,-0.00441214116290212,-0.007671625353395941,0.0027041153516620398,0,
00:00:02.944,0.00331586156971753,-0.0006757178343832491,0.00707044871523976,0,
00:00:02.948,0.0025681562256068,0.0114419469609857,-0.00242066592909396,0,
00:00:02.952,0.00466670095920563,0.0043050888925790795,-0.00334568414837122,0,
00:00:02.956,0.00177737011108547,-0.0034704760182648897,-0.00137037259992212,0,
00:00:02.96,-0.00130573369096965,-0.0059963408857584,0.000529901590198278,0,
00:00:02.964,-0.00263495650142431,0.00219812896102667,0.0013103380333632198,0,
00:00:02.968,-0.00221637892536819,0.0060369353741407394,0.0031522326171398198,0,
00:00:02.972,-0.000942698214203119,-0.00214457721449435,-0.00158861640375108,0,
00:00:02.976,0.00233710138127208,-0.0046990560367703394,-0.00395280821248889,0,
00:00:02.98,-0.0010909957345575099,-0.00124158279504627,0.00335020525380969,0,
00:00:02.984,-0.000757640867959708,-0.00881622917950153,0.00210578460246325,0,
00:00:02.988,0.000334429554641247,0.0036668598186224703,-0.00266474718227983,0,
00:00:02.992,0.000919066078495234,0.00678985333070159,-0.00204345560632646,0,
00:00:02.996,0.000817517400719225,0.00042005383875221003,-0.000147198225022294,0,
00:00:03,-0.00173246650956571,-0.00138765398878604,-0.0009759888052940369,0,
00:00:03.004,-0.00645517185330391,-0.0029378740582615102,0.00325125129893422,0,
00:00:03.008,0.0112445252016187,0.0333364494144917,0.0044597596861422105,0,
00:00:03.012,0.00854971259832382,-0.00839933473616838,0.00240297126583755,0,
00:00:03.016,0.00235942844301462,-0.0267494600266218,-0.00477081863209605,0,
00:00:03.02,-0.0157959684729576,-0.0149288307875395,-0.006985352840274571,0,
00:00:03.024,-0.0128109753131866,0.0014975480735302,-0.00422901986166835,0,
00:00:03.028,-0.000580429856199771,0.00658789929002523,0.00430507585406303,0,
00:00:03.032,0.00973603315651417,0.0150326108559966,0.0055427099578082605,0,
00:00:03.036,0.00891691353172064,0.009342127479612829,0.00103551323991269,0,
00:00:03.04,0.00364226172678173,-0.0035930429585278,0.00621690088883042,0,
00:00:03.044,-0.00334374024532735,-0.009519991464912891,-0.0020088218152523,0,
00:00:03.048,-0.0037111041601747296,0.00697752274572849,-0.00718158157542348,0,
00:00:03.052,0.000232311998843215,0.00910296849906445,-0.00213134149089456,0,
00:00:03.056,0.006290813907980921,-0.0053318738937377895,-0.00390822347253561,0,
00:00:03.06,-0.00661144778132439,-0.0188986305147409,0.00301993498578668,0,
00:00:03.064,-0.00785249751061201,-0.00400595040991902,0.00435903901234269,0,
00:00:03.068,0.000983446952886879,0.00254888366907835,0.00266544660553336,0,
00:00:03.072,0.00424832617864013,0.006817401852458721,0.00030902773141861,0,
00:00:03.076,-0.00045833736658096297,-0.0017544962465763099,-0.0012631514109671099,0,
00:00:03.08,0.0054948288016021295,0.00505378004163504,-0.00164504512213171,0,
00:00:03.084,0.009066958911716941,0.024809455499052998,0.000923339859582484,0,
00:00:03.088,-0.006996087729930879,-0.0085018640384078,-0.000259407825069502,0,
00:00:03.092,-0.0079883998259902,-0.0174079649150372,-0.00542856054380536,0,
00:00:03.096,-0.0033346542622894,-0.0074806907214224295,0.000675915624015033,0,
00:00:03.1,-0.0008615117403678599,0.000591866206377745,0.00483089126646519,0,
00:00:03.104,0.0052751484327018296,0.0024890478234738103,0.00028575726901181,0,
00:00:03.108,0.00460771936923265,0.00459912372753024,-0.00291686272248626,0,
00:00:03.112,0.00156354438513517,0.00836047250777483,0.00134124711621553,0,
00:00:03.116,-0.00104274321347475,0.00014564281445927902,0.00355553301051259,0,
00:00:03.12,-0.00210503488779068,-0.00145018578041345,-0.0016586126293987,0,
00:00:03.124,-0.005926361773163079,-0.0139090837910771,-0.000209364050533623,0,
00:00:03.128,0.0073219607584178404,0.00640515657141805,-0.000996015965938568,0,
00:00:03.132,-0.000505757518112659,0.0105988429859281,-0.0034205906558781897,0,
00:00:03.136,0.00187649531289935,-0.0028541525825858103,-0.0030419006943702698,0,
00:00:03.14,-0.00947311613708735,-0.0143724605441093,0.00346878729760647,0,
00:00:03.144,-0.00138709356542677,-0.000127976745716296,0.00601116567850113,0,
00:00:03.148,0.009913640096783641,0.0122010810300708,-0.000156760710524395,0,
00:00:03.152,-0.00140370451845229,0.00190390751231462,-0.0020503692794591197,0,
00:00:03.156,-0.00021423281577881399,0.0019026390509679898,-0.0017404220998287199,0,
00:00:03.16,0.00385863217525184,-0.00665200687944889,-0.0007029417320154611,0,
00:00:03.164,-0.00655985623598099,-0.00894402526319027,0.000181933719431981,0,
00:00:03.168,0.00023106594744604103,0.00969912763684988,0.00057555828243494,0,
00:00:03.172,-0.00100371742155403,0.0018243666272610398,0.000523058057297021,0,
00:00:03.176,-0.0039708255790174,-0.0098700150847435,-0.00182948948349804,0,
00:00:03.18,0.005138314794749021,-0.00443214131519198,0.00401862477883697,0,
00:00:03.184,0.00871981400996447,0.0175530668348074,0.00363161065615714,0,
00:00:03.188,-0.00287993508391082,0.00917060300707817,-0.00769015541300178,0,
00:00:03.192,-0.0049612889997661105,-0.007409047801047559,-0.00244964379817247,0,
00:00:03.196,-0.00493968185037375,-0.0115217510610819,0.0010792228858918,0,
00:00:03.2,0.0018449435010552398,-0.0030153936240822103,0.00230287527665496,0,
00:00:03.204,0.0031469899695366604,-0.00026396696921438,-0.00025033333804458396,0,
00:00:03.208,0.0019123688107356399,0.005276669282466171,0.00679171364754438,0,
00:00:03.212,0.00229100440628827,0.0042253616265952604,-0.00264909770339727,0,
00:00:03.216,-0.00491302460432053,0.00120302650611848,-0.0039039356634020797,0,
00:00:03.22,-0.000746758072637022,0.0029970593750476802,0.000153561006300151,0,
00:00:03.224,0.000756714551243931,-0.0100715393200517,-0.0037654512561857705,0,
00:00:03.228,0.00293115060776472,0.0012196054449304901,0.0017529611941427,0,
00:00:03.232,-0.001554234768264,0.00247665517963469,0.0049327970482409,0,
00:00:03.236,-0.00374026084318757,0.000779225490987301,-0.0023180628195405,0,
00:00:03.24,-0.000529379525687546,-0.00691215135157108,0.000488640391267836,0,
00:00:03.244,0.00835386943072081,0.0027894931845367,0.00267175072804093,0,
00:00:03.248,-0.00331685831770301,0.00419779540970922,3.37507153744809e-05,0,
00:00:03.252,-0.0013441622722894,-0.00204985868185759,-0.00623986218124628,0,
00:00:03.256,0.00165855884552002,0.00984446797519922,-0.000438823830336332,0,
00:00:03.26,-0.0019738038536161197,-0.000127178063848987,0.00196507456712425,0,
00:00:03.264,-0.00148546032141894,-0.0122454538941383,0.00409826636314392,0,
00:00:03.268,0.00206723739393055,-0.00442197825759649,-0.0030491822399199,0,
00:00:03.272,-0.00309548480436206,0.00172080751508474,-0.0018198203761130602,0,
00:00:03.276,-0.00274743628688157,-0.00412269635125995,0.004836114589124921,0,
00:00:03.28,0.00811382103711367,0.0010687474859878401,0.0041051879525184605,0,
00:00:03.284,0.0044557936489582105,0.0283172987401485,-0.00567198265343905,0,
00:00:03.288,-0.00548300333321095,0.0006897525745444,-0.004776833113282921,0,
00:00:03.292,-0.000272931123618037,-0.00992258358746767,-0.00091458362294361,0,
00:00:03.296,-0.00672461604699492,-0.0161861311644316,0.0019459138857200698,0,
00:00:03.3,0.00260894745588303,-0.0159936919808388,0.00267977267503738,0,
00:00:03.304,0.00578323053196073,0.0161804743111134,-0.0002570933138486,0,
00:00:03.308,0.0038913295138627295,0.0138788530603051,0.00448391819372773,0,
00:00:03.312,-0.0101325446739793,-0.0138300778344274,-0.000955811177846044,0,
00:00:03.316,-0.0029831666033715,0.00239057466387749,-0.00246721017174423,0,
00:00:03.32,0.0127586852759123,0.0162640176713467,0.00024882992147468,0,
00:00:03.324,-0.00587225984781981,-0.00449437834322453,-0.000436096073826775,0,
00:00:03.328,-0.00331488228403032,-0.0105601027607918,-0.00523195089772344,0,
00:00:03.332,-0.00012947146024089298,-0.0050943135283887395,0.000984571874141693,0,
00:00:03.336,0.00164111028425395,0.0054318206384778,0.0029758196324109996,0,
00:00:03.34,-0.00029611264471896004,0.00245942501351237,0.00232180138118565,0,
00:00:03.344,0.00293341325595975,-0.00133446988184005,0.00073445972520858,0,
00:00:03.348,0.00162794487550855,0.00388498208485544,-0.0026488257572054898,0,
00:00:03.352,-0.000440057774540037,-0.000829807831905782,0.00294937333092093,0,
00:00:03.356,-0.0015655254246667,-0.00607152050361037,-0.0012656942708417801,0,
00:00:03.36,-0.0035846072714775796,0.000610064889770001,-0.00396667746827006,0,
00:00:03.364,0.0032851032447069896,0.007119682617485521,0.00308966217562556,0,
00:00:03.368,0.0017853849567472898,0.004667422268539671,-0.00019876632723026002,0,
00:00:03.372,-0.00291609345003963,-0.00435114372521639,-0.000731547886971384,0,
00:00:03.376,-0.0041434080339968204,-0.00994308292865753,-0.00026838365010917203,0,
00:00:03.38,0.00407519470900297,-0.0034116937313228802,0.000235227096709423,0,
00:00:03.384,-0.00521991029381752,0.00107807328458875,-0.0037216355558484797,0,
00:00:03.388,0.00385331059806049,0.00128502410370857,0.00636017881333828,0,
00:00:03.392,0.0108623616397381,0.0221201051026583,0.00557154696434736,0,
00:00:03.396,0.00222942442633212,0.0068727154284715705,-0.00739585002884269,0,
00:00:03.4,-0.0075854957103729205,-0.0112685048952699,-0.00126267177984118,0,
00:00:03.404,-0.0116524742916226,-0.0227535367012024,-0.00412501115351915,0,
00:00:03.408,-0.00335664488375187,-0.0109346834942698,0.00188590423204005,0,
00:00:03.412,0.0062810783274471794,0.009786654263734821,0.00729482946917415,0,
00:00:03.416,0.008854071609675879,0.0114121660590172,-0.0040467232465744,0,
00:00:03.42,-0.000751071202103049,0.00809529051184654,-0.00102398998569697,0,
00:00:03.424,-3.45412518072408e-05,0.004660946317017079,0.00043619124335236804,0,
00:00:03.428,-0.00296565820463002,-0.00394904939457774,0.000728335347957909,0,
00:00:03.432,0.00468987924978137,-0.0035392404533922703,-0.0016555677866563199,0,
00:00:03.436,-0.0056170923635363605,-0.0036228823009878397,0.00404655886813998,0,
00:00:03.44,-0.00170187838375568,0.0036968975327909,-0.000604086846578866,0,
00:00:03.444,0.00261631072498858,-0.0066859703510999706,-0.00177847349550575,0,
00:00:03.448,-0.0006704313564114269,-0.0041910209693014604,-0.0012220015050843401,0,
00:00:03.452,-0.00263238721527159,-0.0032799770124256602,-0.00023309032258112003,0,
00:00:03.456,0.0022653928026557,0.00566099304705858,-0.00161457841750234,0,
00:00:03.46,0.00446806289255619,0.0110865961760283,0.00262739579193294,0,
00:00:03.464,-0.00321875256486237,0.00196576351299882,0.00418262695893645,0,
00:00:03.468,-0.00440020300447941,-0.0115311779081821,-0.00165560492314398,0,
00:00:03.472,0.00426414143294096,0.007673371117562059,-0.00675066793337464,0,
00:00:03.476,0.00750469928607345,0.007973336614668371,0.00252681295387447,0,
00:00:03.48,0.0024241267237812302,-0.00915725249797106,0.00953567214310169,0,
00:00:03.484,-0.0153195234015584,-0.0134657816961408,-0.00471546594053507,0,
00:00:03.488,-0.00147376523818821,-0.00133776036091149,-0.00567377032712102,0,
00:00:03.492,-0.00088020390830934,0.00346698751673102,-0.0041120061650872205,0,
00:00:03.496,0.0031359950080514,0.00231107440777123,0.00538474367931485,0,
00:00:03.5,0.00683327671140432,0.00945391226559877,0.00233038701117039,0,
00:00:03.504,-0.000576341117266566,0.00554302986711264,-0.0013869232498109302,0,
00:00:03.508,0.00956142786890268,0.0119002172723413,-0.000302549218758941,0,
00:00:03.512,-0.00555594125762582,-0.00987663306295872,0.00512477662414312,0,
00:00:03.516,-0.00958382897078991,-0.0203746855258942,0.00135962676722556,0,
00:00:03.52,0.000234303588513285,-0.00666034827008843,-0.00670778378844261,0,
00:00:03.524,7.037925388431179e-05,0.00420898059383035,-0.00181576213799417,0,
00:00:03.528,0.00124858599156141,0.008322960697114471,0.000720775045920163,0,
00:00:03.532,-0.000278252147836611,0.0026167412288487,0.0035447615664452297,0,
00:00:03.536,0.0033819561358541302,0.00250444351695478,-0.00290700071491301,0,
00:00:03.54,0.000104619190096855,0.0021170296240598,0.000774366897530854,0,
00:00:03.544,-0.0001693275407888,0.0110542345792055,0.00131581327877939,0,
00:00:03.548,0.00421906262636185,0.0016773076495155699,-0.00354802329093218,0,
00:00:03.552,0.00236335233785212,-0.019748643040657,0.00582795264199376,0,
00:00:03.556,-0.0113789159804583,-0.0185655187815428,0.00486976373940706,0,
00:00:03.56,-0.0015042630257085,0.00857891421765089,-0.00785958301275969,0,
00:00:03.564,0.00671513332054019,0.0215632561594248,-0.00135934294667095,0,
00:00:03.568,-0.00306765199638903,-0.004314143676310779,0.00020360633789096,0,
00:00:03.572,0.000351808179402724,-0.00203072396107018,-0.0038702222518622897,0,
00:00:03.576,-0.0006318084197118879,-0.007456857711076741,0.00204750779084861,0,
00:00:03.58,0.00307646417059004,0.00508412439376116,-0.000794145802501589,0,
00:00:03.584,0.0019173494074493601,0.00652115931734443,0.00815341714769602,0,
00:00:03.588,0.0039479625411331706,0.00465424591675401,0.0036695117596536896,0,
00:00:03.592,-0.00540869403630495,-0.00789579749107361,-0.00423966674134135,0,
00:00:03.596,-0.00480066379532218,-0.0120097817853093,-0.008958833292126659,0,
00:00:03.6,-0.00326277408748865,-0.005199672654271129,0.00578531343489885,0,
00:00:03.604,0.0036338346544653203,0.00675337901338935,0.00171679013874382,0,
00:00:03.608,0.0021057287231087698,0.0109015014022589,-0.00528699159622192,0,
00:00:03.612,0.0019271891796961399,0.007405328564345841,1.7679685697657998e-05,0,
00:00:03.616,0.0054180258885026,0.0010596195934340401,0.00205207196995616,0,
00:00:03.62,-0.00166101136710495,-0.0142069282010198,0.00188384973444045,0,
00:00:03.624,-0.00592328468337655,-0.0121638253331184,0.000789419747889042,0,
00:00:03.628,0.0052904072217643296,0.0197857674211264,-0.00232508894987404,0,
00:00:03.632,-0.00310040614567697,0.00600946974009275,0.00121447839774191,0,
00:00:03.636,-0.00805586576461792,-0.0151718249544501,-0.00116346566937864,0,
00:00:03.64,-0.00587190268561244,-0.0146842282265425,-0.000315900542773306,0,
00:00:03.644,0.0121413562446833,0.0124154761433601,0.0069037517532706295,0,
00:00:03.648,0.011108092032373,0.0190568286925554,0.00119848630856723,0,
00:00:03.652,-0.00314162485301495,0.000450235325843096,-0.0124300057068467,0,
00:00:03.656,-0.00831779651343822,-0.00799788162112236,0.000608032511081547,0,
00:00:03.66,-0.0020835183095186897,-0.0143150109797716,-0.000741808675229549,0,
00:00:03.664,0.000903535401448607,-0.00014330747944768502,0.0040833051316440105,0,
00:00:03.668,0.0016694861697033,0.009375583380460741,0.00353989587165415,0,
00:00:03.672,0.00329649378545582,-0.0010575319174677099,0.00114582502283156,0,
00:00:03.676,-0.00156833278015256,0.0010208428138867,-0.000880004197824746,0,
00:00:03.68,-0.00186936592217535,0.00101463927421719,-0.0016808966174721698,0,
00:00:03.684,-0.0027327572461217603,0.000211949605727568,0.000683822319842875,0,
00:00:03.688,-0.00174022605642676,-0.0004965868429280821,-0.0025701839476823802,0,
00:00:03.692,0.00643967557698488,-0.0048996629193425205,-0.00357196782715619,0,
00:00:03.696,0.00827672425657511,0.00751663092523813,0.00440065888687968,0,
00:00:03.7,-0.00213561323471367,-0.00505622010678053,0.00103734631557018,0,
00:00:03.704,-0.0143507188186049,-0.005135882180184129,-0.00220924313180149,0,
00:00:03.708,0.000923260871786624,0.0136217838153243,0.0016291989013552698,0,
00:00:03.712,0.0089550381526351,0.0054308641701936704,0.0014110349584370901,0,
00:00:03.716,-0.00260747107677162,-0.0131650054827332,0.000100302859209478,0,
00:00:03.72,0.0036112964153289795,-0.00695307459682226,-0.00290347915142775,0,
00:00:03.724,-0.00582438986748457,-0.00414616474881768,0.000984647544100881,0,
00:00:03.728,-0.00104348210152239,0.00990336295217276,0.0010298687266185901,0,
00:00:03.732,0.00137989199720323,0.0096851009875536,8.684171916684141e-05,0,
00:00:03.736,0.00179144029971212,-0.00488106068223715,-0.0026419316418469,0,
00:00:03.74,0.0010786094935610901,-0.00293522328138351,0.007559168152511121,0,
00:00:03.744,0.000127058534417301,-0.00112759973853827,-0.00670277047902346,0,
00:00:03.748,-0.000506312120705843,-0.00199819589033723,-0.0027457396499812603,0,
00:00:03.752,-0.00481465272605419,-0.00574597204104066,-0.0036230441182851796,0,
00:00:03.756,0.00348227098584175,0.0100964810699224,0.00592618528753519,0,
00:00:03.76,0.0072846161201596295,0.0132432067766786,0.00509160943329334,0,
00:00:03.764,-0.00141967122908682,0.00222322926856577,0.0032689494546502803,0,
00:00:03.768,-0.0129660852253437,-0.0257110334932804,0.000356636359356344,0,
00:00:03.772,0.00620565330609679,-0.00206140289083123,-0.0103897778317332,0,
00:00:03.776,-0.000765930279158056,0.00368749769404531,-0.00344568747095764,0,
00:00:03.78,0.00195270695257932,0.00339469499886036,-0.00052847497863695,0,
00:00:03.784,-0.0025569300632923802,-0.00014096115774009398,0.00539047224447131,0,
00:00:03.788,0.00427992967888713,0.0111461076885462,0.00445990357547998,0,
00:00:03.792,0.00680191908031702,0.00450402637943625,0.001323560369201,0,
00:00:03.796,-0.000359034427674487,0.00682199280709028,-0.0032914811745286,0,
00:00:03.8,-0.0116534158587456,-0.0250214133411646,-0.00017284254136029598,0,
00:00:03.804,-0.0018447851762175601,-0.00986748468130827,-7.086302503012121e-05,0,
00:00:03.808,-0.00217437790706754,0.00570692261680961,0.0015750692691654,0,
00:00:03.812,0.00232757278718054,0.0073119644075632095,-0.00257227569818497,0,
00:00:03.816,0.0067878430709242795,0.00626832479611039,-0.00405110325664282,0,
00:00:03.82,0.00400733621791005,0.009289176203310491,0.00390838971361518,0,
00:00:03.824,-0.000109855027403682,-0.00622934615239501,-0.00128332758322358,0,
00:00:03.828,-0.00467687798663974,-0.00724507123231888,0.0018722554668784103,0,
00:00:03.832,0.00116702867671847,0.000999379204586148,0.00148714613169432,0,
00:00:03.836,-0.0020639812573790602,0.00306635745801032,0.000154962879605591,0,
00:00:03.84,0.000356723525328562,0.00166769966017455,-0.00701500242576003,0,
00:00:03.844,-0.00224201357923448,-0.0108743757009506,0.00494417827576399,0,
00:00:03.848,-0.00494237476959825,-0.0147758014500141,0.0146700628101826,0,
00:00:03.852,0.00701095396652818,0.0238751675933599,-0.0115503976121545,0,
00:00:03.856,0.00505654467269778,0.0051180850714445105,-0.00852258689701557,0,
00:00:03.86,-0.004050976596772671,-0.008330057375133041,-0.0019631152972579,0,
00:00:03.864,-0.00317148584872484,0.00451581086963415,0.0007062856457196179,0,
00:00:03.868,0.0019220309332013102,0.00677102245390415,0.0061422809958457895,0,
00:00:03.872,-0.000284559529973194,-0.00371493143029511,0.00463989190757275,0,
00:00:03.876,0.00638375850394368,-0.005071260966360571,-0.0009973039850592609,0,
00:00:03.88,-0.00523574557155371,-0.0133730247616768,0.0024275237228721398,0,
00:00:03.884,-0.00220033642835915,-0.00316936522722244,-0.00489949528127909,0,
00:00:03.888,0.0018652232829481398,0.0167351420968771,-0.0034437151625752397,0,
00:00:03.892,-0.00329135288484395,0.00126075034495443,0.0019246687879785898,0,
00:00:03.896,0.00124516279902309,0.00217780005186796,0.0019802884198725198,0,
00:00:03.9,0.00621015951037407,0.00319587276317179,0.00261381384916604,0,
00:00:03.904,-0.0048480429686605896,-0.0111365457996726,-0.00463685533031821,0,
00:00:03.908,-0.0012787985615432301,-0.0105539364740252,0.0035900592338293795,0,
00:00:03.912,-0.0014499938115477599,-0.00304525578394532,-0.00307946000248194,0,
00:00:03.916,-0.00107438885606825,0.0144445896148682,-0.0044376407749950894,0,
00:00:03.92,0.0104865161702037,0.0284055806696415,0.00207703467458487,0,
00:00:03.924,-0.000340398109983653,-0.00469922833144665,0.0053939772769808795,0,
00:00:03.928,-0.00405465485528111,-0.0170273650437593,-0.00207047956064343,0,
00:00:03.932,-0.00348360813222826,-0.0204306673258543,-0.00158730347175151,0,
00:00:03.936,-0.00131521304138005,-0.0075277513824403295,0.00243313354440033,0,
00:00:03.94,-0.0014814966125413801,0.00950500834733248,-0.000650157046038657,0,
00:00:03.944,0.0034231957979500302,0.0175151415169239,-0.000555076985619962,0,
00:00:03.948,0.000867185124661773,-0.0014341899659484599,9.745149145601321e-05,0,
00:00:03.952,0.00278867059387267,-0.00185920658987015,0.00454440666362643,0,
00:00:03.956,0.0028371000662446,0.0237406846135855,0.00462899403646588,0,
00:00:03.96,-0.00324844080023468,-0.0074200737290084405,-0.007041592150926591,0,
00:00:03.964,0.000567255599889904,-0.0165989808738232,-0.0111035648733377,0,
00:00:03.968,-0.007608698215335609,-0.0201966185122728,-0.00052454398246482,0,
00:00:03.972,0.00121211563237011,-0.00312460237182677,0.00287784216925502,0,
00:00:03.976,-0.00131393608171493,0.0146352387964725,0.00532776257023215,0,
00:00:03.98,0.00150271574966609,0.011737821623683002,0.00666469568386674,0,
00:00:03.984,0.00537269096821547,0.0056065320968627895,0.00200858362950385,0,
00:00:03.988,0.00289846491068602,-0.000347293011145666,-0.00229509035125375,0,
00:00:03.992,-0.0026093397755175803,-0.00170468096621335,-0.00388747127726674,0,
00:00:03.996,0.00162574008572847,0.00206468999385834,-0.00511780800297856,0,
00:00:04,-0.000682501879055053,-0.0060957302339375,0.000843674642965198,0,
00:00:04.004,-0.00473984237760305,-0.013425700366497,0.00218725041486323,0,
00:00:04.008,-0.00476062390953302,-0.0019794583786279,0.0035855723544955297,0,
00:00:04.012,0.00445738062262535,0.00317644700407982,-0.0015770768513903,0,
00:00:04.016,-0.00025070464471355097,0.00875336118042469,-0.0020066958386451,0,
00:00:04.02,0.0027066208422184,0.00814754609018564,-0.0007641713600605731,0,
00:00:04.024,0.00181736855302006,-0.00498950807377696,0.00042446015868336,0,
00:00:04.028,3.03405759041198e-05,-0.0021895740646868896,0.0009144534124061471,0,
00:00:04.032,-0.0032100526150316,-0.00252787000499666,-0.00131805799901485,0,
00:00:04.036,-0.005565764848142861,0.000105124112451449,0.0022759505081921803,0,
00:00:04.04,0.0150535721331835,0.0141938431188464,-0.000553881924133748,0,
00:00:04.044,0.00328268017619848,0.00850937981158495,0.00182502053212374,0,
00:00:04.048,-0.018706064671278,-0.031129902228712997,0.0046370727941393896,0,
00:00:04.052,-0.0027910633943975,-0.00814918521791697,-0.004974718205630779,0,
00:00:04.056,0.006488020066171879,0.00391528615728021,-0.0068508787080645605,0,
00:00:04.06,0.00128614832647145,0.00793020147830248,0.0026685313787311303,0,
00:00:04.064,0.00341906514950097,0.0150591470301151,0.00112634501419961,0,
00:00:04.068,-0.000300097424769774,0.00169589661527425,0.0009901291923597462,0,
00:00:04.072,-0.0005325767560862,-0.0144209563732147,-0.0012077762512490199,0,
00:00:04.076,-0.00010813980770763,0.0029846909455955,0.0024596347939223103,0,
00:00:04.08,0.0042259064503014105,0.0237149577587843,0.0016618277877569199,0,
00:00:04.084,0.00640252372249961,0.00458845077082515,-0.00220143422484398,0,
00:00:04.088,-0.0112890396267176,-0.027968829497695,0.000740760180633515,0,
00:00:04.092,-0.0129137113690376,-0.03720075264573101,0.0023967737797647697,0,
00:00:04.096,0.000868509756401181,0.00483906455338001,-0.004623442888259889,0,
00:00:04.1,0.0117356963455677,0.0248032864183187,0.00151496508624405,0,
00:00:04.104,0.00344317662529647,0.0206215679645538,-0.00113403331488371,0,
00:00:04.108,0.0023488514125347103,0.00939523614943028,-0.000743245414923877,0,
00:00:04.112,-0.000765225267969072,-0.0041170404292643105,-0.0017911862814799,0,
00:00:04.116,-0.00474485009908676,-0.0107925310730934,0.00284037715755403,0,
00:00:04.12,0.00137760874349624,-0.0140404757112265,0.0024576410651207,0,
00:00:04.124,-0.008029176853597159,-0.000886738940607756,-0.00150077091529965,0,
00:00:04.128,0.008540717884898191,0.0119892228394747,0.00108500919304788,0,
00:00:04.132,0.00492457021027803,0.00417250581085682,0.000308220216538757,0,
00:00:04.136,-0.00172756181564182,-0.0144553808495402,-0.0007891051354818049,0,
00:00:04.14,-0.0152477454394102,-0.0153428986668587,-0.0011374973691999901,0,
00:00:04.144,0.00581362564116716,0.0176391843706369,-0.000778392364736646,0,
00:00:04.148,0.00270323874428868,0.0130906235426664,0.0019183373078703898,0,
00:00:04.152,-0.0023426532279699997,-0.00124377477914095,-0.00165030895732343,0,
00:00:04.156,0.00300652207806706,-0.0066843377426266705,-0.0032213502563536198,0,
00:00:04.16,0.0076712304726243,0.00067005044547841,0.000120181044621859,0,
00:00:04.164,-0.000315729004796594,0.0047593442723155,0.00255955941975117,0,
00:00:04.168,-0.00381147558800876,-0.0007029443513602019,0.00687000155448914,0,
00:00:04.172,-0.0036953054368495898,-0.010876907967031,-0.000502358365338296,0,
00:00:04.176,-0.0018067160854116102,-0.00489518325775862,-0.00131632352713495,0,
00:00:04.18,0.000164416822372004,0.0026015997864306,-0.0050359144806861895,0,
00:00:04.184,-0.0008008626173250379,0.00385123887099326,-0.0050373082049191,0,
00:00:04.188,0.0033569899387657603,0.0069267004728317295,0.0021444447338581103,0,
00:00:04.192,0.00249067484401166,0.00977566000074148,0.00160022592172027,0,
00:00:04.196,0.00242231250740588,-0.00251698191277683,0.00435314839705825,0,
00:00:04.2,-0.00312067498452961,-0.0099447313696146,0.0020835697650909398,0,
00:00:04.204,-0.0051954435184598,-0.00484668137505651,-0.000704113394021988,0,
00:00:04.208,0.00497575523331761,0.00097993272356689,-0.00416021328419447,0,
00:00:04.212,-0.0058330874890089,-0.0110463406890631,0.00213522906415164,0,
00:00:04.216,0.0022182073444128,0.00422189617529511,-0.0012439587153494401,0,
00:00:04.22,0.00325819244608283,0.0117160379886627,-0.00134003255516291,0,
00:00:04.224,0.0015209100674837802,0.00952688790857792,-0.00031108214170672,0,
00:00:04.228,-0.00245752837508917,0.00892170984297991,0.000576342223212123,0,
00:00:04.232,0.00480096600949764,-0.00726638548076153,0.000868833449203521,0,
00:00:04.236,-0.0056363046169281,-0.0274806451052427,0.0006512685213238,0,
00:00:04.24,0.000322707433952019,0.00433370471000671,-0.00392579333856702,0,
00:00:04.244,-0.0014842648524791,-0.00341578875668347,0.0058933044783771,0,
00:00:04.248,-0.00037386390613392,0.0101434048265219,0.00309121632017195,0,
00:00:04.252,-0.0011889913585037,0.0133205875754356,-0.00352806993760169,0,
00:00:04.256,0.00327655067667365,-0.00501836882904172,-0.0036405704449862203,0,
00:00:04.26,0.00465290062129498,0.0005582693265751,-0.00346828065812588,0,
00:00:04.264,-0.0015363694401457901,-0.0012846126919612301,0.0026605250313878103,0,
00:00:04.268,-0.00484490627422929,-0.0114160245284438,0.00530212698504329,0,
00:00:04.272,0.00026609865017235295,0.00291266781277955,-0.0025009349919855603,0,
00:00:04.276,0.0014262004988268,0.00515572028234601,0.00010480167111381899,0,
00:00:04.28,0.000918566714972258,0.0026605858001858,-0.0017597812693566101,0,
00:00:04.284,0.000101018689747434,0.0018122366163879603,-0.000225429233978502,0,
00:00:04.288,-0.000404000573325902,-0.0037648924626409994,0.00526647828519344,0,
00:00:04.292,-0.00048268726095557197,-0.0034195589832961603,0.0015091764507815198,0,
00:00:04.296,-0.000286568159935996,-0.00523020373657346,-0.00447721080854535,0,
00:00:04.3,0.00204837345518172,0.0090063726529479,-0.0057245078496635,0,
00:00:04.304,-0.0039039198309183103,0.0051438878290355206,0.0032346958760172103,0,
00:00:04.308,-0.0015511970268562401,-0.00969312619417906,-0.0010630863253027199,0,
00:00:04.312,0.0077289650216698595,0.00123995332978666,0.0025057003367692197,0,
00:00:04.316,-0.0033173884730786102,0.000397813942981884,-3.4953884551214304e-06,0,
00:00:04.32,-0.0009722676477395,-0.005578929558396339,0.00657480861991644,0,
00:00:04.324,0.0020669254008680604,0.00876806769520044,-0.0031072287820279603,0,
00:00:04.328,-0.00589194521307945,0.00555006740614772,-0.0042764483951032205,0,
00:00:04.332,0.000406469946028665,-0.00919773429632187,-0.00411949213594198,0,
00:00:04.336,0.0134295867756009,0.00344185577705503,0.00236829882487655,0,
00:00:04.34,-0.00925850030034781,0.00226918701082468,0.0032741911709308603,0,
00:00:04.344,-0.00316577451303601,-0.00339114270173013,0.00176058791112155,0,
00:00:04.348,-0.00181183964014053,-0.007221546489745379,-2.8469348762882897e-05,0,
00:00:04.352,0.00556135596707463,0.007305915467441079,-0.00312672345899045,0,
00:00:04.356,0.00101633125450462,-0.00167137151584029,0.000821416499093175,0,
00:00:04.36,-0.000858642451930791,0.0007501403451897201,0.000959889148361981,0,
00:00:04.364,-0.00319225154817104,0.00297915167175233,8.64141402416863e-05,0,
00:00:04.368,0.00340845808386803,-0.0017004745313897699,0.0015393185894936301,0,
00:00:04.372,-0.00247481511905789,-0.006087395828217271,-0.00466625299304724,0,
00:00:04.376,0.00287451245822012,0.00327364704571664,2.47044022216869e-06,0,
00:00:04.38,-0.00307275168597698,0.00789146590977907,0.0035650043282657896,0,
00:00:04.384,0.0005567919579334559,-0.00478252023458481,-0.0027831147890538,0,
00:00:04.388,0.00314755947329104,-0.000210054990020581,0.000804175855591893,0,
00:00:04.392,0.0005634117987938231,-0.000408834806876257,-0.0008166522602550691,0,
00:00:04.396,-0.00587854208424687,-0.00523176835849881,0.0025021112523973,0,
00:00:04.4,-0.0044624623842537394,-0.0053467727266252,-0.000678007199894637,0,
00:00:04.404,0.0100156124681234,0.0108459461480379,0.0036368446890264797,0,
00:00:04.408,-0.000848326541017741,0.00519110262393951,-0.00376673205755651,0,
00:00:04.412,-0.00421981932595372,-0.00245818658731878,-0.0007435637526214121,0,
00:00:04.416,0.00757015589624643,0.000821473717223853,4.61744857602753e-05,0,
00:00:04.42,0.00261402525939047,-0.00153521960601211,0.00426526460796595,0,
00:00:04.424,-0.00347497640177608,0.00103845342528075,-0.0059643448330462,0,
00:00:04.428,-0.0116810770705342,-0.0106850825250149,0.000818803382571787,0,
00:00:04.432,-0.008175704628229141,-0.00850302819162607,-0.000612727832049131,0,
00:00:04.436,0.0100069120526314,0.00950409844517708,-0.00176422472577542,0,
00:00:04.44,0.0102676097303629,0.00794970337301493,0.00101651786826551,0,
00:00:04.444,0.00397004745900631,0.00598820997402072,0.00682009104639292,0,
00:00:04.448,-0.0018721207743510602,0.0020290813408792,0.000419417163357139,0,
00:00:04.452,-0.00235496810637414,-0.0019039799226447899,-0.00444699637591839,0,
00:00:04.456,-0.005848921369761229,-0.0123017635196447,-0.0005276650190353389,0,
00:00:04.46,-0.0034038163721561397,-0.0042868060991168,0.00031230249442160097,0,
00:00:04.464,0.000128220533952117,-0.000335480377543718,0.00015260752115864299,0,
00:00:04.468,0.000189640180906281,0.0061366269364953,-8.987641194835309e-05,0,
00:00:04.472,0.00656233122572303,0.007302295882254841,-0.000151331478264183,0,
00:00:04.476,0.0011868323199451,-0.00434548920020461,-6.61715239402838e-05,0,
00:00:04.48,-0.0053722490556538105,-0.00297436467371881,5.27563570358325e-05,0,
00:00:04.484,-0.00185338070150465,0.000588980445172638,-0.00195241323672235,0,
00:00:04.488,0.0165414698421955,0.0127018513157964,2.32326055993326e-05,0,
00:00:04.492,-0.00442679133266211,0.00657234806567431,0.00369350891560316,0,
00:00:04.496,-0.0153670394793153,-0.0194577146321535,0.0018368224846199198,0,
00:00:04.5,-0.0018346826545894103,-0.017191706225276,0.0013867194065824199,0,
00:00:04.504,0.00437228800728917,0.008242977783083921,-0.0038829343393445,0,
00:00:04.508,0.00504596112295985,0.0137763470411301,-0.0012538641458377199,0,
00:00:04.512,0.0028713180217891897,7.25484569557011e-05,-0.00702840555459261,0,
00:00:04.516,0.00025065967929549504,-0.00405634054914117,0.00544943101704121,0,
00:00:04.52,-0.00140248646494001,0.0012511188397184,0.00080405839253217,0,
00:00:04.524,-0.00382810947485268,0.0020490412134677198,0.00288238865323365,0,
00:00:04.528,0.00286274845711887,0.0111642368137836,-0.0028419541195035,0,
00:00:04.532,-0.00274623185396194,-0.0146803203970194,0.0033118154387921104,0,
00:00:04.536,-0.0033296225592494,-0.0139064649119973,0.0037886947393417397,0,
00:00:04.54,0.00513316551223397,0.0153207182884216,0.00113365508150309,0,
00:00:04.544,0.00996991246938705,0.021205447614193,-0.007917603477835659,0,
00:00:04.548,-0.00580593710765243,-0.0144860064610839,-0.005399104673415421,0,
00:00:04.552,-0.0071184337139129595,-0.0133945997804403,-0.00231619155965745,0,
00:00:04.556,-0.00299049261957407,-0.009016343392431741,0.00508252857252955,0,
00:00:04.56,-0.000946503190789372,0.00245307059958577,0.00319195492193103,0,
00:00:04.564,0.00499115651473403,0.00683074630796909,0.00645503308624029,0,
00:00:04.568,0.00433725584298372,0.0104104392230511,-0.00290512782521546,0,
00:00:04.572,-0.0006550195394083861,0.00354746007360518,-0.0035567150916904202,0,
00:00:04.576,-0.00322433793917298,-0.00273401150479913,-0.0014561368152499199,0,
00:00:04.58,0.00771699193865061,0.0117183104157448,0.00667221192270517,0,
00:00:04.584,0.00613188138231635,0.00553465401753783,-0.00265738880261779,0,
00:00:04.588,-0.0144680282101035,-0.0253064725548029,-0.00594847649335861,0,
00:00:04.592,-0.00955782365053892,-0.0234414897859097,0.0022734219674021,0,
00:00:04.596,-0.00160421896725893,0.00345490989275277,-0.0018756230128929,0,
00:00:04.6,0.0146442539989948,0.0172669384628534,0.00219688704237342,0,
00:00:04.604,0.00454500177875161,0.0139971198514104,0.00013780458539258702,0,
00:00:04.608,-0.00520356418564916,-0.0035676576662808704,0.00277227442711592,0,
00:00:04.612,0.000942741229664534,0.00487709138542414,0.00116348289884627,0,
00:00:04.616,-0.00138767727185041,-0.00174588453955948,0.0012474328977987198,0,
00:00:04.62,0.007357435300946241,0.0014885722193867,-0.00366399833001196,0,
00:00:04.624,-0.00793555472046137,-0.00605568755418062,-0.000954399816691875,0,
00:00:04.628,-0.0019549650605768,-0.000548100157175213,-0.00268697482533753,0,
00:00:04.632,-5.5707329011056606e-05,-0.00933262892067432,-0.00262574781663716,0,
00:00:04.636,-0.00161563174333423,-0.0064354175701737395,0.00138176023028791,0,
00:00:04.64,-0.0016157547943294,-0.00185235228855163,0.00776551570743322,0,
00:00:04.644,0.00195556692779064,0.00497982278466225,0.0012823696015402699,0,
00:00:04.648,0.00157328869681805,0.0098058795556426,-0.00194559141527861,0,
00:00:04.652,0.008948397822678091,0.0186157338321209,-0.00668043084442616,0,
00:00:04.656,0.00264461105689406,-0.000696978531777859,0.00441046990454197,0,
00:00:04.66,-0.00593877024948597,-0.00793931633234024,0.0009651152649894359,0,
00:00:04.664,-0.00401400122791529,-0.00793205946683884,-0.000738143280614167,0,
00:00:04.668,-0.00469652004539967,-0.008773709647357459,-0.00103471241891384,0,
00:00:04.672,-0.00307081406936049,-0.00740734999999404,-0.000585626985412091,0,
00:00:04.676,0.00622838968411088,0.00412832852452993,1.48323817938945e-06,0,
00:00:04.68,0.000737345428206027,0.00382411666214466,-0.0017065436113625802,0,
00:00:04.684,0.00278518837876618,0.00804400630295277,0.004482746589928871,0,
00:00:04.688,-0.000754057546146214,0.00533655378967524,-5.08800731040537e-05,0,
00:00:04.692,0.00553712202236056,0.0110192354768515,-0.0055443849414587,0,
00:00:04.696,-0.00594462547451258,-0.0146791310980916,0.00284771900624037,0,
00:00:04.7,-0.00257409480400383,-0.0036560583394020796,0.0008842609822750089,0,
00:00:04.704,-0.00027117517311126,-0.00367076648399234,0.00468965852633119,0,
00:00:04.708,0.000880791805684567,-0.00541894556954503,0.00263279234059155,0,
00:00:04.712,-0.0010034062433987901,-0.00319128367118537,-0.00500323623418808,0,
00:00:04.716,0.00475229835137725,0.0114317052066326,-0.0115447072312236,0,
00:00:04.72,0.0019286191090941399,0.0130829978734255,0.00153969193343073,0,
00:00:04.724,-0.0036274502053856897,-0.00226636021398008,0.00770067563280463,0,
00:00:04.728,-0.00505625689402223,-0.00484316656365991,0.00041247063199989503,0,
00:00:04.732,-0.000717202143277973,-0.0115457018837333,-0.00231003970839083,0,
00:00:04.736,0.0026754240971058603,-0.00369569333270192,0.00863413326442242,0,
00:00:04.74,0.00955004617571831,0.0143549786880612,-0.00365994311869144,0,
00:00:04.744,0.000208892510272563,-0.0012456456897780301,-0.000351654918631539,0,
00:00:04.748,-0.00874610338360071,-0.00130076217465103,-0.0035258578136563297,0,
00:00:04.752,-0.0028770542703568896,0.000969399698078632,-0.00227219169028103,0,
00:00:04.756,0.0008178747375495731,0.00151652202475816,-2.9456539778038897e-05,0,
00:00:04.76,0.00425499910488725,-0.007835851982235909,0.00141208549030125,0,
00:00:04.764,-0.000117200084787328,-0.0033837859518826,0.00163319532293826,0,
00:00:04.768,-0.000830738630611449,0.00233222590759397,0.00102082605008036,0,
00:00:04.772,-0.00241580000147223,0.00467874808236957,0.000191810366231948,0,
00:00:04.776,0.00215686671435833,0.00574846472591162,-0.00247108656913042,0,
00:00:04.78,0.0020055908244103198,0.00542828207835555,0.00139597977977246,0,
00:00:04.784,-0.0016450705006718599,-0.008569124154746529,0.00119904731400311,0,
00:00:04.788,0.00116945034824312,-0.00913849659264088,2.07193465939781e-06,0,
00:00:04.792,0.00255904067307711,0.00885670445859432,-0.00286225927993655,0,
00:00:04.796,-0.00261477753520012,-0.00150736467912793,0.00111484539229423,0,
00:00:04.8,-0.000634533178526908,-0.00258818757720292,0.00117170182056725,0,
00:00:04.804,-0.00293873273767531,-0.0026953041087836,0.0022585429251194,0,
00:00:04.808,-0.00308233476243913,-0.00517562031745911,-0.00043399169226177004,0,
00:00:04.812,0.00309806875884533,0.0195209868252277,-0.0042787557467818295,0,
00:00:04.816,0.0035799024626612702,0.0041595990769565105,-0.00427659880369902,0,
00:00:04.82,0.0016780880978331,-0.0228245500475168,0.00263496860861778,0,
00:00:04.824,-0.000326089153531939,0.009283688850700859,0.0037559743504971296,0,
00:00:04.828,-0.0034413149114698198,0.00984419137239456,-0.00201786146499217,0,
00:00:04.832,0.00477191340178251,-0.0111887929961085,0.0061042332090437395,0,
00:00:04.836,-0.0030452087521553,-0.010022678412496999,0.000130180371343158,0,
00:00:04.84,-0.00314585561864078,0.0044811824336648,-0.00267057446762919,0,
00:00:04.844,-0.000800002133473754,0.0072091086767613905,-0.00274402578361332,0,
00:00:04.848,0.0011442095274105698,0.00429648766294122,-0.00140417437069118,0,
00:00:04.852,0.00175677752122283,-0.00172645971179008,7.0897163823247e-05,0,
00:00:04.856,0.00127948028966784,0.00190404907334596,0.0009360411786474289,0,
00:00:04.86,0.000385893625207245,-0.00503800297155976,0.0010494578164070801,0,
00:00:04.864,-0.00241794344037771,-0.0032886071130633398,0.000666092266328633,0,
00:00:04.868,0.00133348640520126,0.00633548200130463,0.000154604043927975,0,
00:00:04.872,0.00316673656925559,-0.0038402024656534204,-0.00228800997138023,0,
00:00:04.876,-0.0062150997109711205,-0.00691412296146154,0.0016388283111155,0,
00:00:04.88,0.0014803601661697,0.0107548367232084,-0.000698871328495443,0,
00:00:04.884,0.00640253163874149,0.00186457857489586,-3.3184136555064503e-05,0,
00:00:04.888,-0.00111887289676815,0.0019406621577218199,0.006954329088330271,0,
00:00:04.892,-0.00795572437345982,-0.0108912400901318,-0.00513831619173288,0,
00:00:04.896,-0.00111795938573778,0.00321979005821049,-0.000434042041888461,0,
00:00:04.9,0.00026527623413130603,-0.00736060412600636,0.00156562321353704,0,
00:00:04.904,0.00482800882309675,0.00550338113680482,-0.00508130807429552,0,
00:00:04.908,0.00334662687964737,0.01010119356215,-0.00465194415301085,0,
00:00:04.912,0.000393612455809489,0.00022041070042177997,0.00111182301770896,0,
00:00:04.916,0.00253675994463265,-0.00872587133198977,0.00666335597634315,0,
00:00:04.92,-0.00392478425055742,-0.0007221919950097799,0.00240334868431091,0,
00:00:04.924,-0.0128443855792284,-0.00317206257022917,0.004511939361691471,0,
00:00:04.928,0.0036090677604079203,0.00250645005144179,-0.00464740768074989,0,
00:00:04.932,0.0068866522051394,0.0011815169127658,-0.00229625240899622,0,
00:00:04.936,0.00622943136841059,0.00787169951945543,0.000842405133880675,0,
00:00:04.94,0.000440275762230158,0.0017966356826946102,-0.00242723012343049,0,
00:00:04.944,-0.007734051905572409,-0.0122991297394037,0.000594958197325468,0,
00:00:04.948,-0.00438285013660789,-0.00381692475639284,-0.0037282491102814705,0,
00:00:04.952,0.00271507212892175,0.0006725412677042191,0.00171187671367079,0,
00:00:04.956,0.0012970631942153,0.011002354323863999,0.00285525480285287,0,
00:00:04.96,0.00770010473206639,0.00747685413807631,-0.00237547676078975,0,
00:00:04.964,-0.0025965578388422697,-0.00807114969938993,0.0041603771969676,0,
00:00:04.968,-0.0063886884599924105,-0.0114046446979046,0.00452696019783616,0,
00:00:04.972,0.00170137779787183,0.0125117432326078,-0.002699950709939,0,
00:00:04.976,-0.00024859665427357,-0.00010566300625214399,-0.00199708668515086,0,
00:00:04.98,-0.00207230704836547,-0.0145147871226072,-0.00442697806283832,0,
00:00:04.984,0.0046127918176353,0.00873919203877449,-0.00187131715938449,0,
00:00:04.988,0.000392334681237116,0.00346439587883651,-0.0010382808977738,0,
00:00:04.992,-0.0051292786374688105,-0.00166028563398868,0.00434622867032886,0,
00:00:04.996,0.00303163076750934,0.00104339583776891,0.00370649877004325,0,
00:00:05,0.00497767282649875,0.00052773643983528,-0.000978424795903265,0,
00:00:05.004,0.000547609641216695,0.00155559298582375,0.000933947914745659,0,
00:00:05.008,-0.00499858940020204,-0.000902046100236475,-0.00018439811537973602,0,
00:00:05.012,-0.00567636266350746,-0.00236150901764631,0.000800074660219252,0,
00:00:05.016,-0.000572313962038606,-0.0103313820436597,-0.00338925141841173,0,
00:00:05.02,0.0073748929426074,0.0030338026117533398,-0.00245601544156671,0,
00:00:05.024,0.00407445803284645,0.0131347626447678,-0.000214102648897097,0,
00:00:05.028,-0.00286142691038549,0.0031659458763897397,-0.000748133170418441,0,
00:00:05.032,-0.00336827733553946,-0.0077447583898901905,0.0036138133145868796,0,
00:00:05.036,0.00058746081776917,-0.00351452804170549,0.0027089656796306398,0,
00:00:05.04,-0.007823105901479721,-0.00464206794276834,0.00248754606582224,0,
00:00:05.044,0.007619671523571009,0.00916953571140766,-0.005270870868116621,0,
00:00:05.048,0.00185885280370712,0.000693093868903816,-0.00335571868345141,0,
00:00:05.052,0.00225741346366704,-0.00618325499817729,0.00234783440828323,0,
00:00:05.056,0.0040409946814179394,0.0062982840463519105,0.004462325014173979,0,
00:00:05.06,-0.00788372196257114,-0.0012849017512053301,0.000809040036983788,0,
00:00:05.064,-0.0033880874980241104,-0.0025551300495863,-0.00428249035030603,0,
00:00:05.068,0.00214144331403077,0.0007990633021108809,-0.0050041931681335,0,
00:00:05.072,-0.0002255676954519,-0.00379504170268774,0.0018338484223932,0,
00:00:05.076,-0.00394319323822856,-0.00899970810860395,0.00328843109309673,0,
00:00:05.08,0.00276304711587727,0.0123499576002359,0.0020826701074838604,0,
00:00:05.084,0.0103880697861314,0.0180407129228115,0.000303377804812044,0,
00:00:05.088,0.000679639750160277,-0.00271236756816506,-0.0029586567543447,0,
00:00:05.092,-0.00883192662149668,-0.0217075999826193,-0.00127115345094353,0,
00:00:05.096,-0.00119992415420711,0.00208030571229756,0.00488429516553879,0,
00:00:05.1,-0.00155799277126789,-0.0017714430578053,0.00168811809271574,0,
00:00:05.104,0.000321789644658566,-0.0033300220966339103,-0.0040671164169907605,0,
00:00:05.108,-0.000398793054046109,0.00507916463539004,-0.00537537829950452,0,
00:00:05.112,0.00583253754302859,0.0128015596419573,0.00130910240113735,0,
00:00:05.116,-0.0013916884781792801,0.00204096012748778,0.000874166842550039,0,
00:00:05.12,-0.00149273802526295,-0.010832835920155002,0.00401232251897454,0,
00:00:05.124,0.00412159971892834,4.92570779897505e-06,0.00626514153555036,0,
00:00:05.128,0.00103190238587558,-0.000884736189618707,-0.00442365417256951,0,
00:00:05.132,-0.00438629928976297,-0.000187261553946882,-0.0071972492150962405,0,
00:00:05.136,-0.001236607786268,0.00267623853869736,-0.000145853729918599,0,
00:00:05.14,-0.00664445105940104,-0.00524491211399436,0.00244344235397875,0,
00:00:05.144,0.00170544802676886,-0.00117226876318455,0.000224860283196904,0,
00:00:05.148,0.0070379865355789705,0.00522583024576306,0.00509704276919365,0,
00:00:05.152,0.00623945938423276,0.00840739533305168,-0.000497014028951526,0,
00:00:05.156,-4.80081798741594e-05,0.00321866990998387,-0.00224843644537032,0,
00:00:05.16,-0.00838364008814096,-0.00464824866503477,-0.0038833322469145103,0,
00:00:05.164,-0.00275044958107173,-0.0157867483794689,0.0013538139173761,0,
00:00:05.168,0.0006445611361414191,-0.007834635674953459,0.00408003246411681,0,
00:00:05.172,0.00190846098121256,0.0172696877270937,-0.00102987629361451,0,
00:00:05.176,0.00374982017092407,0.0069280639290809605,-0.0018261608202010397,0,
00:00:05.18,-0.00119469151832163,-0.00298495590686798,-0.000905557710211724,0,
00:00:05.184,-0.0017178455600515,-0.00433021271601319,-0.0019104010425508,0,
00:00:05.188,-0.0027873187791556103,-0.00230140681378543,0.0006129007088020441,0,
00:00:05.192,0.00432894052937627,-0.00206248788163066,0.0063817179761827,0,
00:00:05.196,0.00035955070052295896,0.0032461776863783602,0.0022647981531918,0,
00:00:05.2,-0.0008880617679096759,0.00714182807132602,-0.00638343533501029,0,
00:00:05.204,-0.00287870410829782,-0.007190661504864691,-0.00195556576363742,0,
00:00:05.208,0.0016775249969214199,-0.00223792297765613,0.000379748758859932,0,
00:00:05.212,0.0038444295059889603,0.00551698124036193,0.00116250303108245,0,
00:00:05.216,-0.0015017641708254801,-0.0015228713164106,0.000992311746813357,0,
00:00:05.22,-0.00431362958624959,0.00252153165638447,0.000446206016931683,0,
00:00:05.224,0.0008686085348017509,-0.0019491660641506301,-5.40361397725064e-05,0,
00:00:05.228,0.0038911974988877795,-0.00432747881859541,-0.00238493806682527,0,
00:00:05.232,0.0011177355190739,0.00312638026662171,0.00166002882178873,0,
00:00:05.236,-0.00985687226057053,-0.00408903229981661,0.0014645631890744,0,
00:00:05.24,0.0035144314169883698,-0.000657160999253392,0.00431097112596035,0,
00:00:05.244,0.00703333737328649,0.0112768271937966,-0.0047085965052247,0,
00:00:05.248,0.0021504075266420802,0.00616817967966199,-0.0062787123024463706,0,
00:00:05.252,-0.00450122496113181,-0.00603459263220429,0.00106694491114467,0,
00:00:05.256,-0.00191315449774265,-0.0127359395846725,0.00119458127301186,0,
00:00:05.26,-0.00525109469890594,-0.0157840792089701,0.00449232570827007,0,
00:00:05.264,0.0014168790075928,0.0167276058346033,0.00243616104125977,0,
00:00:05.268,0.00336639489978552,0.0126495687291026,0.0016620707465335699,0,
00:00:05.272,0.00250515784136951,-0.00103991199284792,-0.00395197700709105,0,
00:00:05.276,-0.0013443143106997,-0.00610957806929946,-0.00361445103771985,0,
00:00:05.28,0.00338289560750127,0.0053984122350812,-0.0032970136962831,0,
00:00:05.284,-0.00153238757047802,0.00114922190550715,0.00281975045800209,0,
00:00:05.288,-0.00244811060838401,-0.0122321015223861,0.00123754353262484,0,
00:00:05.292,-0.00144421495497227,-0.00553810875862837,0.00354095990769565,0,
00:00:05.296,-9.38907905947417e-05,0.00722144590690732,0.0034628733992576603,0,
00:00:05.3,0.00282967509701848,0.00904282834380865,-0.00298291957005858,0,
00:00:05.304,-0.0031415435951203103,0.0066519817337393795,-0.00365310092456639,0,
00:00:05.308,0.0009246137924492359,-0.0111799146980047,-0.00389744015410542,0,
00:00:05.312,0.00160331930965185,-0.00827006250619888,0.0042579029686749,0,
00:00:05.316,0.00290216784924269,0.0055888844653964,-0.0010958827333524802,0,
00:00:05.32,-0.00417416915297508,-0.00577720487490296,0.0018750440794974602,0,
00:00:05.324,-0.0023838714696466897,-0.00014103439752943798,0.0034766437020152803,0,
00:00:05.328,0.00486446125432849,0.0199650153517723,-0.0039773760363459604,0,
00:00:05.332,-0.00174795789644122,-0.00769165251404047,-0.00256015406921506,0,
00:00:05.336,0.0027508572675287698,1.8072778402711302e-05,0.00663040578365326,0,
00:00:05.34,-0.00155619438737631,-0.0033690850250423,-0.0018791591282934,0,
00:00:05.344,0.00219226139597595,0.0010244724107906198,-0.0050857914611697206,0,
00:00:05.348,-0.00686689279973507,-0.0031240398529917,0.000644096988253295,0,
00:00:05.352,-0.0072289691306650595,-0.01300039421767,0.00419131759554148,0,
00:00:05.356,0.0122144753113389,0.011505801230668999,-0.00256003276444972,0,
00:00:05.36,0.0036117525305599,0.0034174905158579397,-0.0014108995674178,0,
00:00:05.364,0.000907651847228408,0.0051094158552587,-0.0012077480787411302,0,
00:00:05.368,-0.00466273445636034,0.00450741872191429,0.0100243221968412,0,
00:00:05.372,-0.00377791351638734,-0.00939748715609312,0.00123354746028781,0,
00:00:05.376,-0.0030678764451295103,-0.015700550749898002,-0.006316163577139379,0,
00:00:05.38,0.0031333940569311398,0.00045587937347590896,-0.00513168005272746,0,
00:00:05.384,0.00557524152100086,0.0260559227317572,-0.00338508118875325,0,
00:00:05.388,-0.00248103472404182,0.00204610009677708,0.00364035810343921,0,
00:00:05.392,-4.01863799197599e-05,-0.0164646897464991,0.00428063096478581,0,
00:00:05.396,0.000133781577460468,-0.00263704033568501,0.00216656364500523,0,
00:00:05.4,0.0018241995712742199,0.000259040214587003,-0.00015191498096101002,0,
00:00:05.404,-0.004517574794590471,0.00676587503403425,-0.00143155572004616,0,
00:00:05.408,0.0020268652588129,0.00518372422084212,-0.00152106722816825,0,
00:00:05.412,0.00142725603654981,-0.00336882611736655,-0.0008832867024466401,0,
00:00:05.416,-0.006660190876573321,-0.0132639957591891,-0.000107942360045854,0,
00:00:05.42,0.00251561612822115,-0.00326976948417723,0.000404080550651997,0,
00:00:05.424,0.00789056438952684,0.0185647197067738,0.00261147972196341,0,
00:00:05.428,-0.00217249616980553,0.00920606125146151,-0.00159037427511066,0,
00:00:05.432,-0.00575862126424909,-0.0119948117062449,-0.00358555838465691,0,
00:00:05.436,0.0001237560500158,-0.00996312033385038,-0.00034961471101269104,0,
00:00:05.44,0.003969205543398861,0.000214703235542402,0.00637520756572485,0,
00:00:05.444,-0.0025444719940424,0.0019649078603833896,0.0028036762960255103,0,
00:00:05.448,-0.0012884786119684599,0.0057165315374732,-0.005800134036689999,0,
00:00:05.452,0.00513642793521285,0.0074949385598301905,-0.0037073614075779898,0,
00:00:05.456,2.07102698368544e-06,-0.0061215604655444605,0.0044426801614463295,0,
00:00:05.46,-0.00182593741919845,-0.00344732333905995,0.000642182480078191,0,
00:00:05.464,-0.0016312206862494302,-0.0010541933588683599,-0.0007009241962805389,0,
00:00:05.468,-0.0006531469407491389,0.000488913326989859,-0.0007299932185560459,0,
00:00:05.472,0.000237496817135252,0.0031276335939765,-0.000286908325506374,0,
00:00:05.476,0.000653552357107401,-0.0031678616069257303,-0.0019519847119227102,0,
00:00:05.48,-0.00147071294486523,-0.00342498091049492,0.00227845017798245,0,
00:00:05.484,0.0022828695364296397,0.00327739398926497,0.00190660124644637,0,
00:00:05.488,0.0037134885787963898,0.0101309679448605,0.0023710848763585104,0,
00:00:05.492,-0.00198622979223728,-0.00622874870896339,-0.00491796340793371,0,
00:00:05.496,-0.0027008207980543397,0.000658277305774391,-0.0007945089018903669,0,
00:00:05.5,0.000730834144633263,0.00993683934211731,0.0007314160466194151,0,
00:00:05.504,-0.00179907015990466,-0.022353770211339,0.000877086538821459,0,
00:00:05.508,-0.000655588752124459,-0.0025579931680113103,0.0025512333959341,0,
00:00:05.512,-0.00125348300207406,0.00625533470883965,-0.0019399009179323899,0,
00:00:05.516,0.0012874843087047302,0.00495303655043244,-0.00393099477514625,0,
00:00:05.52,0.0067456476390361795,0.00786999333649874,0.0015529036754742302,0,
00:00:05.524,0.000173134510987438,-0.00230077398009598,0.0023398660123348197,0,
00:00:05.528,-0.000518051499966532,0.00252603180706501,0.00118831382133067,0,
00:00:05.532,-0.00457464251667261,-0.0037645976990461297,-0.00221848557703197,0,
00:00:05.536,-0.00501778023317456,-0.0110487770289183,0.00319648324511945,0,
00:00:05.54,0.0039463131688535205,0.00111121812369674,0.000876404752489179,0,
00:00:05.544,0.00135943829081953,0.0027412525378167603,-0.00598432449623942,0,
00:00:05.548,-0.00157997710630298,0.0037223813124001,-0.000700322038028389,0,
00:00:05.552,0.00215984717942774,0.00905204098671675,-0.000526773685123771,0,
00:00:05.556,0.0016508854459971198,-0.00499715423211455,0.00371614191681147,0,
00:00:05.56,0.0021400006953626897,-0.007750255521386859,0.00259505119174719,0,
00:00:05.564,-0.00506212748587132,0.00822373572736979,0.00022718268155586002,0,
00:00:05.568,-0.0008486706647090611,-0.00511888228356838,0.0007386360084638,0,
00:00:05.572,0.0028146340046078,0.00217454507946968,-0.00566739588975906,0,
00:00:05.576,-0.00106561626307666,-0.0014962281566113199,-0.0006787565653212371,0,
00:00:05.58,-0.0011368654668331099,-0.008006478659808641,0.0012926706112921199,0,
00:00:05.584,-0.00012785660510417098,-0.000890291121322662,0.00351792247965932,0,
00:00:05.588,-0.00144823221489787,0.0135412774980068,-0.0032626469619572197,0,
00:00:05.592,0.0068986248224973705,0.00877958536148071,0.000393046939279884,0,
00:00:05.596,-0.0018339139642193898,-0.0128257134929299,0.00316921598277986,0,
00:00:05.6,-0.00512400874868035,-0.00889619160443544,-0.00139973021578044,0,
00:00:05.604,-0.0015298525104299199,0.00840989593416452,-0.00173971394542605,0,
00:00:05.608,0.00603602034971118,0.00373819493688643,-0.000633433577604592,0,
00:00:05.612,-0.00104060338344425,-0.00895220506936312,0.00246990867890418,0,
00:00:05.616,0.000759551592636853,0.00121110945474356,-0.00325402664020658,0,
00:00:05.62,0.0021693666931241803,0.0104074673727155,0.000973567890468985,0,
00:00:05.624,-0.00479158852249384,-0.000863491150084883,0.0017003184184432,0,
00:00:05.628,0.0014512158231809698,-0.00635596364736557,-0.0011814999161288099,0,
00:00:05.632,-0.00321111595258117,-0.00344541925005615,0.00186579034198076,0,
00:00:05.636,0.0012452027294784802,0.00675421161577106,0.00304858270101249,0,
00:00:05.64,0.00400396389886737,0.000791101716458797,-0.00249159662052989,0,
00:00:05.644,-0.000946859363466501,-0.004375077784061429,-0.00287582050077617,0,
00:00:05.648,0.00038627244066447003,-0.00260468712076545,-0.0033137446735054302,0,
00:00:05.652,-0.00487485667690635,-0.00585100194439292,0.00238516228273511,0,
00:00:05.656,-0.0015862692380324,0.00589094357565045,0.00283956085331738,0,
00:00:05.66,0.0061560543254017795,0.0151540338993073,0.00128524773754179,0,
00:00:05.664,0.0033633313141763197,0.005577621050179,-0.00237034470774233,0,
00:00:05.668,-0.00504793785512447,-0.0214844383299351,-0.0011632873211056,0,
00:00:05.672,-0.00528174266219139,-0.0120633020997047,0.00469028949737549,0,
00:00:05.676,0.00860221683979034,0.0110006453469396,0.0014230767264962199,0,
00:00:05.68,0.000122401950648054,0.0126764765009284,-0.00216999906115234,0,
00:00:05.684,-0.00245440402068198,-0.0009041263838298619,-0.0053187450394034394,0,
00:00:05.688,-0.00405414449051023,-0.010851951315999002,-0.00432658614590764,0,
00:00:05.692,0.0034821429289877397,0.00451237289234996,0.00319970515556633,0,
00:00:05.696,0.000208448080229573,0.008171400986611841,0.000268153002252802,0,
00:00:05.7,-0.0005321847274899481,-0.00824763253331184,0.00857743434607983,0,
00:00:05.704,-0.00444296048954129,-0.0103784874081612,0.0035431582946330296,0,
00:00:05.708,0.00819003861397505,0.008033690974116329,-0.004599973559379579,0,
00:00:05.712,0.0016819859156385099,0.0052082482725381895,-0.00512072443962097,0,
00:00:05.716,-0.004666297696530821,0.00751974247395992,-0.00245005451142788,0,
00:00:05.72,-0.00151145225390792,-0.00937012583017349,0.000346828659530729,0,
00:00:05.724,-0.00464304769411683,-0.0071926349774003,0.00182198546826839,0,
00:00:05.728,0.0018550722161307898,-0.000580791034735739,0.00185064191464335,0,
00:00:05.732,0.00140436016954482,0.00581161631271243,-0.0010466438252478801,0,
00:00:05.736,0.00640506204217672,0.00442867772653699,0.0020548379980027697,0,
00:00:05.74,0.00221754913218319,0.000936406955588609,0.0011175698600709401,0,
00:00:05.744,-0.0063997847028076605,-0.0016148241702467199,-0.000482196861412376,0,
00:00:05.748,-0.0019879883620888,0.00181899848394096,-0.00337622361257672,0,
00:00:05.752,0.00030340347439050696,-0.00352920149452984,0.00287923263385892,0,
00:00:05.756,-0.00101651786826551,-0.00781465508043766,-0.0008630461525172,0,
00:00:05.76,0.0028735522646457,-0.00164422846864909,-0.00134586577769369,0,
00:00:05.764,0.00410599308088422,0.008023974485695359,-0.0026214683894068,0,
00:00:05.768,-0.00602020835503936,-0.00279142404906452,0.00228191260248423,0,
00:00:05.772,0.00324591342359781,0.0103828469291329,0.000259908585576341,0,
00:00:05.776,0.00604068953543901,0.0017674709670245602,0.00275880424305797,0,
00:00:05.78,-0.0113103715702891,-0.00836432632058859,0.0031515217851847397,0,
00:00:05.784,-0.003976146690547471,-0.00359409605152905,0.00127731438260525,0,
00:00:05.788,0.00453093508258462,-0.0023200111463666,-0.00521516986191273,0,
00:00:05.792,0.00695922551676631,0.00339304911904037,-0.0109326718375087,0,
00:00:05.796,0.000136932983878069,0.00328518473543227,0.0023256812710315,0,
00:00:05.8,-0.00224080309271812,0.0012138698948547199,0.00612033857032657,0,
00:00:05.804,-0.00206949096173048,0.0014720170293003301,0.0024618215393275,0,
00:00:05.808,-0.0009213097509928051,-0.0053998748771846294,0.0032570986077189398,0,
00:00:05.812,-0.00192275305744261,0.0012754276394844099,0.00039288785774260803,0,
00:00:05.816,0.0047372356057167105,-0.0009805454174056651,7.77688546804711e-05,0,
00:00:05.82,0.00241777137853205,-0.000473403837531805,-0.00456734420731664,0,
00:00:05.824,-0.00515554239973426,-0.00160631840117276,-0.00339310453273356,0,
00:00:05.828,-0.0027506924234330698,0.0049494868144393,-0.00060501549160108,0,
00:00:05.832,0.00305307889357209,0.000401027267798781,0.00142614718060941,0,
00:00:05.836,0.00281626102514565,-0.00118582171853632,0.00198215199634433,0,
00:00:05.84,0.00282389158383012,0.00299234036356211,-0.0006687891436740759,0,
00:00:05.844,-0.00287877977825701,-0.008630687370896341,0.00240223994478583,0,
00:00:05.848,-0.000993237481452525,0.00696575036272407,0.00128828175365925,0,
00:00:05.852,-0.0031968888361007,-0.00470207678154111,-0.000494019826874137,0,
00:00:05.856,-0.0011161451693624301,-0.0026230204384774,-0.0034927916713058896,0,
00:00:05.86,-0.0009479511063545939,0.00157089345157146,0.0006742763216607269,0,
00:00:05.864,0.00397067843005061,0.00345250405371189,0.00518219545483589,0,
00:00:05.868,0.00112397281918675,0.0048214397393167,-0.0036734361201524704,0,
00:00:05.872,0.00684914132580161,0.005091971717774871,-0.00777850858867168,0,
00:00:05.876,-0.00556652480736375,-0.0167129691690207,0.0031013120897114303,0,
00:00:05.88,-0.0008269340614788231,0.0136750563979149,0.00674352049827576,0,
00:00:05.884,-0.00283674406819046,0.0019452780252322602,0.00457472540438175,0,
00:00:05.888,-0.00124198908451945,-0.0141914375126362,-0.00582574494183064,0,
00:00:05.892,-0.00138499203603715,-0.0135244289413095,-0.007187953684479001,0,
00:00:05.896,0.00564289651811123,0.008534437045454979,-0.00130253820680082,0,
00:00:05.9,-0.0010189580498263199,0.016500435769557998,0.0054098591208457895,0,
00:00:05.904,0.00113009801134467,0.007291708607226609,0.0065477406606078105,0,
00:00:05.908,0.000486074510263279,-0.00284381466917694,-0.0028514259029179803,0,
00:00:05.912,0.0015255000907927801,-0.00539246061816812,-0.0010412919800728599,0,
00:00:05.916,-0.000903567182831466,-0.0126545568928123,-0.0007735414546914401,0,
00:00:05.92,-0.0065047750249505,-0.00672038597986102,0.00139159732498229,0,
00:00:05.924,0.00192411371972412,0.0119235152378678,-0.0023913721088320004,0,
00:00:05.928,-0.00159235869068652,0.000625091954134405,-0.00170229084324092,0,
00:00:05.932,0.00275426055304706,0.000637296412605792,-0.0020434269681572897,0,
00:00:05.936,0.0026335348375141603,0.0124443108215928,0.00312249734997749,0,
00:00:05.94,0.000898247584700584,-0.00582481827586889,0.0049910601228475605,0,
00:00:05.944,-0.0006457141134887929,-0.00537403067573905,-0.00105356844142079,0,
00:00:05.948,-0.00127915712073445,-0.00308174244128168,-0.00448678154498339,0,
00:00:05.952,-0.00107491295784712,0.0015405003214255,0.000395339564420283,0,
00:00:05.956,-0.000469427468487993,-0.007061058189719921,0.0013645811704918699,0,
00:00:05.96,-0.00404920941218734,0.00175306876190007,0.0007709476049058139,0,
00:00:05.964,0.0105796102434397,0.0182070899754763,-3.3908730983966995e-05,0,
00:00:05.968,-0.0022334563545882698,0.00342946732416749,0.0016020456096157401,0,
00:00:05.972,-0.004333245567977429,-0.0200556199997664,-0.00453551393002272,0,
00:00:05.976,-0.0021788771264255,-0.00224636541679502,-0.00199029967188835,0,
00:00:05.98,0.0024528126232326,0.005637401714921,0.00553449476137757,0,
00:00:05.984,-0.00236216769553721,-0.00253474549390376,0.000863911467604339,0,
00:00:05.988,-0.00011154406820423898,-0.0022370747756213,0.0030709074344486,0,
00:00:05.992,0.0021766556892544,0.0027169974055141198,-0.007314453832805159,0,
00:00:05.996,0.0066444086842238894,0.0069600734859705,-0.00408543180674315,0,
00:00:06,0.0035978755913674797,0.0182151533663273,0.00116477883420885,0,
00:00:06.004,-0.00522569566965103,-0.006299146451056,0.00793447718024254,0,
00:00:06.008,-0.014494358561933,-0.0289088077843189,0.0035711170639842705,0,
00:00:06.012,0.00263242213986814,-0.0052183028310537295,-0.00377342593856156,0,
00:00:06.016,0.0067673791199922605,0.00824225693941116,-0.00617604609578848,0,
00:00:06.02,0.0045884046703577,0.0150833614170551,0.00019978737691417299,0,
00:00:06.024,0.000903143256437033,0.00506103411316872,0.0021341305691748897,0,
00:00:06.028,-0.0016524350503459599,-0.0102771008387208,0.00174385833088309,0,
00:00:06.032,-0.00442499807104468,0.00317715643905103,-0.00146469264291227,0,
00:00:06.036,0.00238485867157578,0.00250069820322096,0.00581033853814006,0,
00:00:06.04,-0.00083150714635849,0.005093580577522521,-0.00299906032159925,0,
00:00:06.044,-0.00103723572101444,-0.00901487562805414,-0.00368986604735255,0,
00:00:06.048,0.00185548549052328,-0.00555123388767242,-0.00352290365844965,0,
00:00:06.052,-0.00148085132241249,-0.00149042345583439,0.00269529037177563,0,
00:00:06.056,-0.000925516535062343,-0.00885623879730701,0.00328993238508701,0,
00:00:06.06,0.000344197498634458,0.0125842429697514,0.0036559172440320297,0,
00:00:06.064,0.00100664654746652,0.0146684795618057,-0.00430090632289648,0,
00:00:06.068,-0.00117686984594911,-0.0102427555248141,0.00120634562335908,0,
00:00:06.072,0.006505365017801521,0.0024550259113311802,-0.00378650426864624,0,
00:00:06.076,-0.0024466037284582897,0.00465300818905234,-0.00137002195697278,0,
00:00:06.08,-0.00559180602431297,-0.0194667913019657,0.00567782297730446,0,
00:00:06.084,0.00037270114989951296,0.000491319922730327,0.0027290268335491397,0,
00:00:06.088,-1.17235495054047e-05,0.0048892376944422705,-0.00336477952077985,0,
00:00:06.092,0.00561536708846688,0.0057205557823181204,-0.00521993869915605,0,
00:00:06.096,9.73522473941557e-05,0.00566085847094655,0.00104390631895512,0,
00:00:06.1,-0.00189801829401404,0.000668915163259953,0.00253290310502052,0,
00:00:06.104,-0.0038235213141888397,-0.0010721526341512801,0.0017003018874675,0,
00:00:06.108,0.0053792977705597895,-0.00597953516989946,-0.00382957584224641,0,
00:00:06.112,-0.004194670822471379,-0.00426847487688065,0.00332298665307462,0,
00:00:06.116,-0.00048380109365098205,-0.000733258202672005,0.008629557676613329,0,
00:00:06.12,0.00106823141686618,0.0018221674254164102,-0.00411847652867436,0,
00:00:06.124,0.0032403497025370602,0.0066821472719311705,-0.0129226250573993,0,
