,Elapsed Time,EMG
0,00:00:00,4.498215377330776
1,00:00:00.004,-4.295054078102118
2,00:00:00.008,-3.565237581729888
3,00:00:00.012,-0.36692525818943916
4,00:00:00.016,1.8639212250709543
5,00:00:00.02,2.232471793889999
6,00:00:00.024,1.332795545458794
7,00:00:00.028,0.1624446921050549
8,00:00:00.032,-0.620640031993388
9,00:00:00.036,-0.9212826639413829
10,00:00:00.04,-0.672069825232029
11,00:00:00.044,-0.2408339940011498
12,00:00:00.048,0.09498443361371751
13,00:00:00.052,0.3000160232186318
14,00:00:00.056,0.2670185454189775
15,00:00:00.06,0.1045786030590534
16,00:00:00.064,-0.005517000332474698
17,00:00:00.068,-0.07393251638859509
18,00:00:00.072,-0.08008611248806122
19,00:00:00.076,-0.05011941026896245
20,00:00:00.08,-0.026814631244633437
21,00:00:00.084,0.005212957970797967
22,00:00:00.088,0.039698491804301766
23,00:00:00.092,0.017896136501803973
24,00:00:00.096,0.023046538932248912
25,00:00:00.1,0.007258772966451979
26,00:00:00.104,-0.01880282489582895
27,00:00:00.108,-0.02790564065799113
28,00:00:00.112,-0.007431549485772911
29,00:00:00.116,0.057869579643011
30,00:00:00.12,-0.01790557987987991
31,00:00:00.124,-0.014627037104219202
32,00:00:00.128,-0.025453720241785
33,00:00:00.132,-0.0011625941842794627
34,00:00:00.136,0.010502522811293595
35,00:00:00.14,0.02019511931575834
36,00:00:00.144,0.007860045006964318
37,00:00:00.148,-0.03970905789174145
38,00:00:00.152,0.02861847239546473
39,00:00:00.156,0.06052014697343115
40,00:00:00.16,-0.03142142480646722
41,00:00:00.164,-0.079706740565598
42,00:00:00.168,-0.0036926278844475885
43,00:00:00.172,0.03818331146612767
44,00:00:00.176,0.0496209793491289
45,00:00:00.18,-0.004666921682655797
46,00:00:00.184,-0.037376025691628484
47,00:00:00.188,-0.00718282500747594
48,00:00:00.192,-0.007954840140882881
49,00:00:00.196,0.013971772161312351
50,00:00:00.2,0.01766303274780511
51,00:00:00.204,0.0072452919557690985
52,00:00:00.208,0.004668171517550907
53,00:00:00.212,-0.02293826546519994
54,00:00:00.216,-0.0231803562492132
55,00:00:00.22,-0.004612436925526711
56,00:00:00.224,0.02713731070980424
57,00:00:00.228,-0.007079717877786605
58,00:00:00.232,-0.01937256194651126
59,00:00:00.236,0.09898635698482411
60,00:00:00.24,-0.017687465995550197
61,00:00:00.244,-0.0750089101493359
62,00:00:00.248,-0.03276635194197298
63,00:00:00.252,0.021324353292584503
64,00:00:00.256,0.04974420554935929
65,00:00:00.26,0.0011932509951292905
66,00:00:00.264,-0.0557195155415684
67,00:00:00.268,0.04432736244052651
68,00:00:00.272,0.04457783699035641
69,00:00:00.276,-0.034082797355949906
70,00:00:00.28,-0.03516908688470718
71,00:00:00.284,-0.009285468142479639
72,00:00:00.288,0.025670508621260534
73,00:00:00.292,0.009291494177887188
74,00:00:00.296,-0.01842648303136233
75,00:00:00.3,0.01419363636523485
76,00:00:00.304,-0.0036749864229932397
77,00:00:00.308,-0.00571921048685908
78,00:00:00.312,0.00858541764318943
79,00:00:00.316,-0.009837076766416458
80,00:00:00.32,-0.03995373612269763
81,00:00:00.324,0.09320359118282769
82,00:00:00.328,0.03356810063269222
83,00:00:00.332,-0.09342657215893244
84,00:00:00.336,-0.023480462608858926
85,00:00:00.34,0.003040671348571798
86,00:00:00.344,0.00101443496532733
87,00:00:00.348,0.038151061162352604
88,00:00:00.352,0.01740195939783004
89,00:00:00.356,0.0135162882506848
90,00:00:00.36,-0.02654115087352687
91,00:00:00.364,-0.025001477450132398
92,00:00:00.368,0.0018028337508440109
93,00:00:00.372,0.002284227404743421
94,00:00:00.376,0.020579626783728596
95,00:00:00.38,0.013590049464255538
96,00:00:00.384,-0.03757652081549164
97,00:00:00.388,-0.00316878408193588
98,00:00:00.392,0.016670159617206068
99,00:00:00.396,-0.009889648761600268
100,00:00:00.4,0.013781348243355728
101,00:00:00.404,0.01838933071121577
102,00:00:00.408,-0.01010155421681704
103,00:00:00.412,0.009418676141649488
104,00:00:00.416,-0.0512413466349244
105,00:00:00.42,-0.003936720779165629
106,00:00:00.424,0.02858639089390643
107,00:00:00.428,0.04938264051452273
108,00:00:00.432,-0.03708614688366651
109,00:00:00.436,-0.004956531338393695
110,00:00:00.44,-0.014914080966264
111,00:00:00.444,-0.007122769951820342
112,00:00:00.448,0.0408687815070152
113,00:00:00.452,0.0069376886822283025
114,00:00:00.456,-0.033532955683767796
115,00:00:00.46,-0.013262915890663838
116,00:00:00.464,-0.011027636006474443
117,00:00:00.468,0.014127229340374551
118,00:00:00.472,0.06612047553062436
119,00:00:00.476,-0.02823460477520713
120,00:00:00.48,-0.03218384552747008
121,00:00:00.484,-0.01179104717448357
122,00:00:00.488,0.00847590685589239
123,00:00:00.492,0.013463051058352007
124,00:00:00.496,0.025661070423666436
125,00:00:00.5,-0.001411546370945876
126,00:00:00.504,-0.03865990135818715
127,00:00:00.508,0.00813939841464158
128,00:00:00.512,-0.0266238972544671
129,00:00:00.516,0.06024459376931197
130,00:00:00.52,-0.007072167471051299
131,00:00:00.524,-0.029028171673417105
132,00:00:00.528,-0.022777249570935947
133,00:00:00.532,0.024476969614624942
134,00:00:00.536,0.03709530550986526
135,00:00:00.54,0.00029887910932299006
136,00:00:00.544,-0.0393309546634555
137,00:00:00.548,0.004883524030446996
138,00:00:00.552,-0.00731528503820305
139,00:00:00.556,0.00332937273196876
140,00:00:00.56,0.0023081097751855894
141,00:00:00.564,-0.0056951276492327105
142,00:00:00.568,-0.004045478999614702
143,00:00:00.572,0.06999497301876541
144,00:00:00.576,-0.028297292068600613
145,00:00:00.58,-0.0170054407790304
146,00:00:00.584,-0.03950884821824728
147,00:00:00.588,-0.0062392009422183
148,00:00:00.592,-0.013942221179604503
149,00:00:00.596,0.09333534212782976
150,00:00:00.6,-0.006997253745794296
151,00:00:00.604,-0.009504009969532504
152,00:00:00.608,-0.054186320863664095
153,00:00:00.612,0.0693368315696718
154,00:00:00.616,-0.03453750233165915
155,00:00:00.62,-0.05485167540609835
156,00:00:00.624,0.006412652786821212
157,00:00:00.628,0.05102169001474981
158,00:00:00.632,0.02319492236711086
159,00:00:00.636,-0.01968777715228499
160,00:00:00.64,-0.03981987014412881
161,00:00:00.644,0.02424574684118853
162,00:00:00.648,0.01943872869014745
163,00:00:00.652,0.024720404064282768
164,00:00:00.656,-0.041905889287591
165,00:00:00.66,-0.03839714266359809
166,00:00:00.664,0.029842143121641115
167,00:00:00.668,-0.0038336784346029167
168,00:00:00.672,-0.03129493072628971
169,00:00:00.676,0.09383331332355696
170,00:00:00.68,0.029111648909747573
171,00:00:00.684,-0.07697267085313761
172,00:00:00.688,-0.044489433756098234
173,00:00:00.692,0.007087032776325981
174,00:00:00.696,0.024093985557556125
175,00:00:00.7,0.007475149817764759
176,00:00:00.704,0.01555215334519747
177,00:00:00.708,0.01940196705982093
178,00:00:00.712,0.00962374580558387
179,00:00:00.716,-0.0505039067938924
180,00:00:00.72,-0.018785327672958395
181,00:00:00.724,0.024224480963312037
182,00:00:00.728,-0.0167613048106432
183,00:00:00.732,0.012639357708394576
184,00:00:00.736,0.04497652361169461
185,00:00:00.74,-0.032560894731432234
186,00:00:00.744,-0.01704278029501439
187,00:00:00.748,0.01914710504934192
188,00:00:00.752,-0.016835566610097902
189,00:00:00.756,0.008384688757359995
190,00:00:00.76,-0.00931974536797507
191,00:00:00.764,0.04733421141281717
192,00:00:00.768,-0.0016452251002193052
193,00:00:00.772,-0.049127071164548404
194,00:00:00.776,-0.030277168843895162
195,00:00:00.78,0.010562750045210088
196,00:00:00.784,0.0744666596874595
197,00:00:00.788,-0.0024576277937740296
198,00:00:00.792,-0.03029675001744183
199,00:00:00.796,-0.0006585000082850604
200,00:00:00.8,-0.0299298167228698
201,00:00:00.804,-0.01082474086433649
202,00:00:00.808,0.0177432047203183
203,00:00:00.812,0.06408707378432149
204,00:00:00.816,-0.034630429465323735
205,00:00:00.82,-0.028358459472656312
206,00:00:00.824,0.01613632251974191
207,00:00:00.828,-7.021683268248168e-05
208,00:00:00.832,-0.0039007379673421903
209,00:00:00.836,0.01472638221457603
210,00:00:00.84,-0.004269831813871871
211,00:00:00.844,0.008830946870148147
212,00:00:00.848,-0.018056509550660852
213,00:00:00.852,-0.0502285305410624
214,00:00:00.856,0.054083974333479994
215,00:00:00.86,0.0074116761097684815
216,00:00:00.864,-0.0030327159911394015
217,00:00:00.868,0.022841341327875818
218,00:00:00.872,-0.02367700403556227
219,00:00:00.876,0.0036440531257539883
220,00:00:00.88,0.017449261620640748
221,00:00:00.884,-0.04647246841341255
222,00:00:00.888,-0.03417995851486929
223,00:00:00.892,0.032902984879911
224,00:00:00.896,0.04187210137024521
225,00:00:00.9,-0.030742148403078297
226,00:00:00.904,0.058292133733630194
227,00:00:00.908,-0.025956088211387375
228,00:00:00.912,-0.03441408765502276
229,00:00:00.916,0.018667042255401597
230,00:00:00.92,-0.01354694343172013
231,00:00:00.924,-0.023365831264527553
232,00:00:00.928,0.02113499236293139
233,00:00:00.932,0.02967852610163399
234,00:00:00.936,-0.011237511876970509
235,00:00:00.94,-0.008247937792475565
236,00:00:00.944,-0.00689604843501002
237,00:00:00.948,-0.017863006331026603
238,00:00:00.952,0.07700157910585399
239,00:00:00.956,-0.019182384479790985
240,00:00:00.96,-0.03849867312237619
241,00:00:00.964,-0.051505836658179774
242,00:00:00.968,0.02328452374786138
243,00:00:00.972,0.08382496330887079
244,00:00:00.976,-0.0558653224434238
245,00:00:00.98,-0.023788124322891197
246,00:00:00.984,0.06686764955520627
247,00:00:00.988,-0.04833093006163836
248,00:00:00.992,-0.005077317822724609
249,00:00:00.996,0.02405089139938355
250,00:00:01,0.03067784756422042
251,00:00:01.004,-0.04341387050226331
252,00:00:01.008,-0.02838215418159966
253,00:00:01.012,0.011521025531692385
254,00:00:01.016,0.06485016737133259
255,00:00:01.02,-0.03772098483750594
256,00:00:01.024,-0.03242376237176362
257,00:00:01.028,0.035675334744155386
258,00:00:01.032,-0.011123905424028708
259,00:00:01.036,-0.011333339847624203
260,00:00:01.04,0.0170014081522823
261,00:00:01.044,0.01116094272583727
262,00:00:01.048,0.02151025389321147
263,00:00:01.052,-0.034351905109360856
264,00:00:01.056,-0.024609899730421592
265,00:00:01.06,-0.017448305618017867
266,00:00:01.064,0.03176884958520533
267,00:00:01.068,0.01812972780317066
268,00:00:01.072,-0.00272525555919856
269,00:00:01.076,0.013090712949633702
270,00:00:01.08,0.01069966959767047
271,00:00:01.084,-0.039925308898091295
272,00:00:01.088,-0.02238699459121559
273,00:00:01.092,0.040551845915615496
274,00:00:01.096,-0.012138847028836629
275,00:00:01.1,-0.0017957184463738979
276,00:00:01.104,-0.00891726394183934
277,00:00:01.108,0.0262495004571975
278,00:00:01.112,-0.002265859395265621
279,00:00:01.116,-0.011985150631517217
280,00:00:01.12,0.032472496794071035
281,00:00:01.124,-0.01835209224373102
282,00:00:01.128,-0.025523589225485897
283,00:00:01.132,-0.012253577355295472
284,00:00:01.136,0.0011976236710324606
285,00:00:01.14,0.01369494758546353
286,00:00:01.144,0.01339283236302432
287,00:00:01.148,0.00476128049194812
288,00:00:01.152,0.03715962800379205
289,00:00:01.156,-0.0485227331519127
290,00:00:01.16,0.01887245767284181
291,00:00:01.164,-0.01166323618963358
292,00:00:01.168,-0.006023399531841202
293,00:00:01.172,-0.03612600592896339
294,00:00:01.176,-0.003940919734304752
295,00:00:01.18,0.02622575539862739
296,00:00:01.184,0.04180888924747708
297,00:00:01.188,0.045239809551276315
298,00:00:01.192,-0.048401976004242925
299,00:00:01.196,-0.039040980394929634
300,00:00:01.2,-0.00244886719156056
301,00:00:01.204,0.03136314178846072
302,00:00:01.208,-0.01146528869867327
303,00:00:01.212,-0.028206057439092595
304,00:00:01.216,0.015186843462288368
305,00:00:01.22,0.00560817075893282
306,00:00:01.224,-0.010057816980406682
307,00:00:01.228,0.022029598010703894
308,00:00:01.232,0.0141434078104794
309,00:00:01.236,0.029608080396428677
310,00:00:01.24,-0.025718462187796796
311,00:00:01.244,-0.047153317136690076
312,00:00:01.248,-0.027916587889194502
313,00:00:01.252,0.02017059270292513
314,00:00:01.256,0.04469524510204789
315,00:00:01.26,0.026315052993595628
316,00:00:01.264,-0.021411767229437863
317,00:00:01.268,0.020944245683494976
318,00:00:01.272,-0.044110613875091104
319,00:00:01.276,-0.04536038683727382
320,00:00:01.28,0.009609220549464233
321,00:00:01.284,0.04104637354612348
322,00:00:01.288,0.015939994482323513
323,00:00:01.292,0.04319681134074925
324,00:00:01.296,-0.01796350604854525
325,00:00:01.3,-0.06362139387056233
326,00:00:01.304,-0.03024863591417669
327,00:00:01.308,0.006411349400877929
328,00:00:01.312,0.03803624305874114
329,00:00:01.316,0.030057086609304003
330,00:00:01.32,0.010892738355323658
331,00:00:01.324,-0.02073549758642911
332,00:00:01.328,-0.01704221114050597
333,00:00:01.332,0.06596798170357977
334,00:00:01.336,-0.05664427625015372
335,00:00:01.34,-0.07376727601513267
336,00:00:01.344,0.005006440915167307
337,00:00:01.348,0.0744292084127664
338,00:00:01.352,0.04108562599867589
339,00:00:01.356,0.00014771043788642385
340,00:00:01.36,-0.05307945865206422
341,00:00:01.364,-0.03268332919105887
342,00:00:01.368,0.0047602112754248135
343,00:00:01.372,0.0491533428430557
344,00:00:01.376,0.0027584461495280994
345,00:00:01.38,-0.02703247452154753
346,00:00:01.384,0.00851576309651135
347,00:00:01.388,-0.01388641586527229
348,00:00:01.392,-0.02205222193151712
349,00:00:01.396,0.007233110256493097
350,00:00:01.4,0.06005132943391792
351,00:00:01.404,-0.003300625598058139
352,00:00:01.408,0.00329278176650407
353,00:00:01.412,-0.051158275222405826
354,00:00:01.416,-0.009254978969693194
355,00:00:01.42,0.0035476814955472946
356,00:00:01.424,0.02744224411435422
357,00:00:01.428,-0.011024041799828358
358,00:00:01.432,0.0014467427881755084
359,00:00:01.436,0.025590157136320995
360,00:00:01.44,0.00015085178893065043
361,00:00:01.444,-0.029708478832617423
362,00:00:01.448,-0.010163582162931551
363,00:00:01.452,0.0555552858859301
364,00:00:01.456,-0.029823916498571662
365,00:00:01.46,-0.044981439597904696
366,00:00:01.464,0.007596537470817569
367,00:00:01.468,0.03869497674168084
368,00:00:01.472,-0.00543645877041854
369,00:00:01.476,0.014570128591913076
370,00:00:01.48,0.0027093974640593
371,00:00:01.484,-0.0700740516185761
372,00:00:01.488,0.05248264642432339
373,00:00:01.492,0.062402395065873854
374,00:00:01.496,-0.0468561304733157
375,00:00:01.5,-0.015315182972699494
376,00:00:01.504,-0.05468935548560694
377,00:00:01.508,-0.010377962607890444
378,00:00:01.512,0.03629070520401001
379,00:00:01.516,0.07343506161123511
380,00:00:01.52,0.005861848592758168
381,00:00:01.524,-0.03536055050790308
382,00:00:01.528,-0.036776236724108444
383,00:00:01.532,0.0033928793855011494
384,00:00:01.536,0.02341092471033327
385,00:00:01.54,-0.009398174704983827
386,00:00:01.544,-0.02581071626627821
387,00:00:01.548,0.021749568986706477
388,00:00:01.552,0.01730406424030664
389,00:00:01.556,0.007566434331238259
390,00:00:01.56,-0.02709152788156641
391,00:00:01.564,0.007670456543564755
392,00:00:01.568,-0.04076576187799218
393,00:00:01.572,0.044161050580442104
394,00:00:01.576,0.0547149498015642
395,00:00:01.58,-0.029149333015084197
396,00:00:01.584,-0.0250752326101063
397,00:00:01.588,-0.03956079436466089
398,00:00:01.592,-0.0233498401939869
399,00:00:01.596,0.0320849332492798
400,00:00:01.6,0.03333305614069105
401,00:00:01.604,0.021034596953541068
402,00:00:01.608,0.032707658596336814
403,00:00:01.612,-0.0308422846719622
404,00:00:01.616,-0.05115107516758148
405,00:00:01.62,-0.00854455423541368
406,00:00:01.624,0.01297923107631501
407,00:00:01.628,0.0001351736718788795
408,00:00:01.632,0.001331296458374714
409,00:00:01.636,0.04489538399502635
410,00:00:01.64,-0.007577709620818492
411,00:00:01.644,-0.00585164187941701
412,00:00:01.648,-0.025350717129185782
413,00:00:01.652,-0.03430975228548051
414,00:00:01.656,0.04340646183118224
415,00:00:01.66,0.012644689530134123
416,00:00:01.664,0.011707329191267504
417,00:00:01.668,0.04332487843930722
418,00:00:01.672,-0.08016995340585714
419,00:00:01.676,-0.0476236790418625
420,00:00:01.68,0.009808962000533909
421,00:00:01.684,0.06428137328475719
422,00:00:01.688,-0.004432521993294345
423,00:00:01.692,0.0006418736011255543
424,00:00:01.696,0.01489185728132726
425,00:00:01.7,-0.01997462799772616
426,00:00:01.704,0.013697787187993568
427,00:00:01.708,-0.014919392764568358
428,00:00:01.712,-0.0131815001368523
429,00:00:01.716,-0.019387104548513903
430,00:00:01.72,-0.012305973097681975
431,00:00:01.724,0.05612054279481527
432,00:00:01.728,0.01209638663567605
433,00:00:01.732,-0.0088557526469231
434,00:00:01.736,-0.0031907339580357005
435,00:00:01.74,-0.03174216090701515
436,00:00:01.744,0.004986510612070609
437,00:00:01.748,0.019603230175562217
438,00:00:01.752,0.00863068271428347
439,00:00:01.756,-0.020723329856991803
440,00:00:01.76,-0.02705747121945026
441,00:00:01.764,0.013900309975724692
442,00:00:01.768,0.019440532661974444
443,00:00:01.772,0.049748797668144065
444,00:00:01.776,-0.023250006604939685
445,00:00:01.78,-0.04283997183665629
446,00:00:01.784,-0.0189450513571501
447,00:00:01.788,0.004973510280251498
448,00:00:01.792,0.02707698587619232
449,00:00:01.796,0.01013691595289855
450,00:00:01.8,0.03955397265963253
451,00:00:01.804,-0.0582697018980981
452,00:00:01.808,-0.0030988837825133998
453,00:00:01.812,0.01226688921451573
454,00:00:01.816,-0.0033598914742469024
455,00:00:01.82,-0.02007550210691992
456,00:00:01.824,0.026966306846588795
457,00:00:01.828,0.03814948815852409
458,00:00:01.832,0.0007589282467961034
459,00:00:01.836,-0.055344420252367854
460,00:00:01.84,-0.03657177928835148
461,00:00:01.844,0.02466516208369281
462,00:00:01.848,0.01635590926161977
463,00:00:01.852,0.02902138652279976
464,00:00:01.856,0.016073954757303
465,00:00:01.86,-0.021354675758630044
466,00:00:01.864,-0.02165715722367166
467,00:00:01.868,-0.01080678426660594
468,00:00:01.872,-0.003149886615574339
469,00:00:01.876,0.04290952393785115
470,00:00:01.88,0.0071378219872712985
471,00:00:01.884,-0.04054126492701475
472,00:00:01.888,-0.0020043367985635996
473,00:00:01.892,-0.02083710720762611
474,00:00:01.896,0.02798534929752345
475,00:00:01.9,0.018517347984015893
476,00:00:01.904,0.02016668953001495
477,00:00:01.908,-0.0179736535064876
478,00:00:01.912,-0.013337564072571698
479,00:00:01.916,0.006669188383966764
480,00:00:01.92,-0.03869042266160251
481,00:00:01.924,-0.010347011033445569
482,00:00:01.928,0.05703925248235467
483,00:00:01.932,0.027940892614424298
484,00:00:01.936,-0.015532965306192649
485,00:00:01.94,-0.0414380524307489
486,00:00:01.944,-0.0211642039939761
487,00:00:01.948,0.01713447447400536
488,00:00:01.952,0.014639783650636638
489,00:00:01.956,0.0329940570518374
490,00:00:01.96,-0.003382479771971699
491,00:00:01.964,-0.03774036979302765
492,00:00:01.968,-0.00567369046621022
493,00:00:01.972,-0.01760428980924186
494,00:00:01.976,0.02833621134050191
495,00:00:01.98,0.04740606364794072
496,00:00:01.984,-0.005474110599607191
497,00:00:01.988,-0.05327762570232153
498,00:00:01.992,-0.0304021516349167
499,00:00:01.996,0.05230986629612743
500,00:00:02,0.0038603493012488513
501,00:00:02.004,0.017262746405322067
502,00:00:02.008,0.0005314019508659874
503,00:00:02.012,-0.06363439167034804
504,00:00:02.016,0.0124457706697285
505,00:00:02.02,0.022517932578921374
506,00:00:02.024,0.043919623363763094
507,00:00:02.028,-0.012270611943677059
508,00:00:02.032,-0.03399947844445701
509,00:00:02.036,-0.02602412831038235
510,00:00:02.04,-0.0081481079105288
511,00:00:02.044,0.035314495442435166
512,00:00:02.048,0.02786848414689299
513,00:00:02.052,0.0015500793233513901
514,00:00:02.056,-0.0256755213486031
515,00:00:02.06,-0.02376288094092159
516,00:00:02.064,0.03974752174690363
517,00:00:02.068,-0.00512524601072073
518,00:00:02.072,-0.03041627118363978
519,00:00:02.076,-0.0061810864135622996
520,00:00:02.08,0.02581164776347578
521,00:00:02.084,0.0411326792091131
522,00:00:02.088,-0.022236483171582305
523,00:00:02.092,-0.033871733117848676
524,00:00:02.096,0.00035711470991370287
525,00:00:02.1,0.002936846110969782
526,00:00:02.104,-0.022367950528860082
527,00:00:02.108,0.06352857453748587
528,00:00:02.112,0.00544129428453739
529,00:00:02.116,-0.0095805125311017
530,00:00:02.12,-0.03303970326669511
531,00:00:02.124,-0.018852856941521202
532,00:00:02.128,-0.012963871471583907
533,00:00:02.132,0.006411351700080562
534,00:00:02.136,0.05982160009443762
535,00:00:02.14,0.02626517944736411
536,00:00:02.144,-0.024744158785324575
537,00:00:02.148,-0.053098081378266195
538,00:00:02.152,0.005527227651327861
539,00:00:02.156,0.005342380842193947
540,00:00:02.16,-0.014690823853015879
541,00:00:02.164,-0.00993339298292995
542,00:00:02.168,0.12225422356277701
543,00:00:02.172,-0.02370834676548829
544,00:00:02.176,-0.06783838383853437
545,00:00:02.18,-0.025314607657492202
546,00:00:02.184,0.017682762816548417
547,00:00:02.188,-0.027309788856655342
548,00:00:02.192,0.01893620868213479
549,00:00:02.196,0.03152868291363124
550,00:00:02.2,0.0226162485778332
551,00:00:02.204,0.017049454152584104
552,00:00:02.208,-0.011539636179804798
553,00:00:02.212,-0.05602549959439786
554,00:00:02.216,-0.00841868412680924
555,00:00:02.22,0.010318838176317468
556,00:00:02.224,0.0026285406202077805
557,00:00:02.228,0.00792736338917165
558,00:00:02.232,-0.0022539664059877404
559,00:00:02.236,0.014692845114041123
560,00:00:02.24,0.01934683555737136
561,00:00:02.244,0.00768563337624073
562,00:00:02.248,-0.0371573593001813
563,00:00:02.252,0.0018143765628337999
564,00:00:02.256,0.05070903524756436
565,00:00:02.26,-0.07693539187312119
566,00:00:02.264,-0.028795589460059987
567,00:00:02.268,0.04119621042627841
568,00:00:02.272,-2.9833987355190605e-05
569,00:00:02.276,0.052817421033978504
570,00:00:02.28,-0.0010333214886486895
571,00:00:02.284,-0.009357229806482757
572,00:00:02.288,-0.01329779718071218
573,00:00:02.292,-0.003238213248550923
574,00:00:02.296,-0.02669089217670257
575,00:00:02.3,-0.020517919023404788
576,00:00:02.304,0.012574796564877002
577,00:00:02.308,0.02440812997519966
578,00:00:02.312,0.0018433660734444718
579,00:00:02.316,0.004574713762849568
580,00:00:02.32,0.021341997198760565
581,00:00:02.324,-0.012147718109190412
582,00:00:02.328,-0.01726262806914747
583,00:00:02.332,0.013488141354173443
584,00:00:02.336,-0.015165482065640369
585,00:00:02.34,-0.020071581704541992
586,00:00:02.344,0.04323524329811338
587,00:00:02.348,-0.0064312601462006985
588,00:00:02.352,-0.03593510389328005
589,00:00:02.356,0.0349053610116243
590,00:00:02.36,-0.00381473230663692
591,00:00:02.364,-0.030871727271005497
592,00:00:02.368,0.021498899208381717
593,00:00:02.372,0.020663885399699197
594,00:00:02.376,0.01436674548313015
595,00:00:02.38,-0.03548581176437442
596,00:00:02.384,-0.015235644765198229
597,00:00:02.388,-0.01545311743393541
598,00:00:02.392,0.012416522717103329
599,00:00:02.396,0.023813512932974866
600,00:00:02.4,0.03243225021287803
601,00:00:02.404,-0.009266643610317257
602,00:00:02.408,-0.013974437024444338
603,00:00:02.412,-0.022529962239786948
604,00:00:02.416,-0.04023676132783292
605,00:00:02.42,0.0842863656580449
606,00:00:02.424,0.01716574188321829
607,00:00:02.428,-0.06140853557735686
608,00:00:02.432,-0.0404899716377258
609,00:00:02.436,0.01588794868439433
610,00:00:02.44,0.03812773292884225
611,00:00:02.444,0.029395367106189965
612,00:00:02.448,-0.02961071697063745
613,00:00:02.452,0.004280436318367737
614,00:00:02.456,0.0127833054866642
615,00:00:02.46,0.016171561941519003
616,00:00:02.464,-0.03506452066358179
617,00:00:02.468,-0.04235330317169424
618,00:00:02.472,0.007477019273210322
619,00:00:02.476,0.011861734092235569
620,00:00:02.48,0.03805090859532359
621,00:00:02.484,0.021856795603525853
622,00:00:02.488,-0.03777155652642252
623,00:00:02.492,-0.002233248669654129
624,00:00:02.496,-0.014250721782445998
625,00:00:02.5,0.006839143112301832
626,00:00:02.504,0.05593712721019976
627,00:00:02.508,-0.006432823487557429
628,00:00:02.512,-0.04254844039678582
629,00:00:02.516,-0.07810843642801044
630,00:00:02.52,0.05334942182525995
631,00:00:02.524,0.04425388202071183
632,00:00:02.528,0.007455374347046019
633,00:00:02.532,-0.00797917135059833
634,00:00:02.536,-0.004550558980554349
635,00:00:02.54,0.0012290228623896898
636,00:00:02.544,-0.012932514073327149
637,00:00:02.548,-0.012582310475409031
638,00:00:02.552,-0.01700000697746869
639,00:00:02.556,0.011282915249466882
640,00:00:02.56,0.03590139932930467
641,00:00:02.564,-0.00247648311778903
642,00:00:02.568,-0.0186131256632507
643,00:00:02.572,0.0117210885509849
644,00:00:02.576,0.02256467426195744
645,00:00:02.58,-0.03319530840963133
646,00:00:02.584,0.0017030858434737492
647,00:00:02.588,-0.04795906180515884
648,00:00:02.592,0.0440450254827738
649,00:00:02.596,0.032723738433560384
650,00:00:02.6,-0.014475678093731412
651,00:00:02.604,-0.020083223469555357
652,00:00:02.608,-0.01335481554269791
653,00:00:02.612,0.00022496143355967176
654,00:00:02.616,0.036159129813313456
655,00:00:02.62,0.02018192107789218
656,00:00:02.624,-0.017094890121370547
657,00:00:02.628,-0.016939998255111322
658,00:00:02.632,-0.02332169841974971
659,00:00:02.636,-0.0035445817047730084
660,00:00:02.64,0.008083163178525872
661,00:00:02.644,0.00914449105039239
662,00:00:02.648,-0.0020856685005128106
663,00:00:02.652,0.03964715776965022
664,00:00:02.656,-0.006416643969714643
665,00:00:02.66,-0.01427337620407342
666,00:00:02.664,-0.03386620525270702
667,00:00:02.668,0.0006460100412368983
668,00:00:02.672,0.061677588615566506
669,00:00:02.676,-0.017787957563996294
670,00:00:02.68,-0.0495827933773398
671,00:00:02.684,0.004279760411009189
672,00:00:02.688,0.02822905078937761
673,00:00:02.692,0.01141282939352095
674,00:00:02.696,-5.410343874244147e-05
675,00:00:02.7,-0.0016826172359287513
676,00:00:02.704,-0.016816402319818742
677,00:00:02.708,-0.012134998163674075
678,00:00:02.712,-0.005573383474256836
679,00:00:02.716,0.014603558462113142
680,00:00:02.72,0.010064742062240832
681,00:00:02.724,0.005487508489750329
682,00:00:02.728,0.02562160417437551
683,00:00:02.732,-0.0243238983675837
684,00:00:02.736,-0.04630320612341162
685,00:00:02.74,0.033626100514084094
686,00:00:02.744,0.003055904991924728
687,00:00:02.748,0.0005596727132796964
688,00:00:02.752,0.00301638757809998
689,00:00:02.756,0.009338459931314012
690,00:00:02.76,-0.013376321643590858
691,00:00:02.764,0.013733070343732778
692,00:00:02.768,-0.02127876318991181
693,00:00:02.772,-0.014151591341942561
694,00:00:02.776,0.014406461734324702
695,00:00:02.78,0.02051034709438685
696,00:00:02.784,-0.009397332090884409
697,00:00:02.788,-0.0023738290183246196
698,00:00:02.792,0.009990156162530212
699,00:00:02.796,-0.0059755936381407065
700,00:00:02.8,-0.012578018475323942
701,00:00:02.804,-0.0190843793097883
702,00:00:02.808,0.01752243100781921
703,00:00:02.812,0.0391539465636016
704,00:00:02.816,-0.03799821576103567
705,00:00:02.82,0.01988247595727438
706,00:00:02.824,-0.002113047055900097
707,00:00:02.828,-0.02394026401452714
708,00:00:02.832,-0.020435303449630807
709,00:00:02.836,0.06023519346490498
710,00:00:02.84,-0.0027352455072105486
711,00:00:02.844,-0.027666900306940093
712,00:00:02.848,-0.016344102332368538
713,00:00:02.852,0.024011590750887952
714,00:00:02.856,0.004029763571452367
715,00:00:02.86,0.0047039792989380675
716,00:00:02.864,-0.026665240293368742
717,00:00:02.868,-0.0010200836404692366
718,00:00:02.872,0.03564160782843829
719,00:00:02.876,0.005660551367327571
720,00:00:02.88,-0.02642665687017144
721,00:00:02.884,-0.013702428899705407
722,00:00:02.888,-0.0170240587322041
723,00:00:02.892,7.898057810962027e-05
724,00:00:02.896,0.05956326553132388
725,00:00:02.9,-0.003820225480012651
726,00:00:02.904,-0.013511351309716695
727,00:00:02.908,-0.0155618600547313
728,00:00:02.912,-0.003293795511126521
729,00:00:02.916,0.0429825494065881
730,00:00:02.92,-0.04498369805514817
731,00:00:02.924,-0.003698846558108964
732,00:00:02.928,0.0013980683870613228
733,00:00:02.932,0.0061833023792132805
734,00:00:02.936,-0.003485977969830855
735,00:00:02.94,0.01626447332091625
736,00:00:02.944,0.009102196898311378
737,00:00:02.948,0.00382944976445288
738,00:00:02.952,-0.0081897396594286
739,00:00:02.956,-0.020924422889947933
740,00:00:02.96,-0.0072979882825166004
741,00:00:02.964,-0.01445980276912449
742,00:00:02.968,0.024574325885623652
743,00:00:02.972,0.009665710618719419
744,00:00:02.976,0.02645902812946586
745,00:00:02.98,0.01601278758607809
746,00:00:02.984,-0.06765053141862161
747,00:00:02.988,0.044410214759409455
748,00:00:02.992,-0.04108748416183515
749,00:00:02.996,-0.009269006550312105
750,00:00:03,-0.009671979583799804
751,00:00:03.004,0.0526731265708804
752,00:00:03.008,-0.006907065398991042
753,00:00:03.012,0.004962809849530459
754,00:00:03.016,0.019707149840542136
755,00:00:03.02,-0.0247041834518314
756,00:00:03.024,-0.007379569520708188
757,00:00:03.028,-0.0046690213494002784
758,00:00:03.032,-0.013745450356509502
759,00:00:03.036,-0.005471540906000918
760,00:00:03.04,0.00935103464871645
761,00:00:03.044,0.03154652995726791
762,00:00:03.048,0.0075619686394930025
763,00:00:03.052,-0.01174134539905939
764,00:00:03.056,-0.022829648572951573
765,00:00:03.06,-0.012997474521398588
766,00:00:03.064,-0.011365548300091214
767,00:00:03.068,0.04453832842409608
768,00:00:03.072,0.03442496107891202
769,00:00:03.076,-0.002089246176183203
770,00:00:03.08,-0.04794405051507056
771,00:00:03.084,-0.01724372105672956
772,00:00:03.088,-0.02791517588775605
773,00:00:03.092,0.022446674760431023
774,00:00:03.096,0.04454740660730751
775,00:00:03.1,0.01788275223225357
776,00:00:03.104,-0.00757052958942949
777,00:00:03.108,-0.02899843268096443
778,00:00:03.112,-0.03733080672100181
779,00:00:03.116,0.039238882382051095
780,00:00:03.12,0.038180901668965816
781,00:00:03.124,-0.01322329149115829
782,00:00:03.128,-0.06178974919021128
783,00:00:03.132,0.011750455945730306
784,00:00:03.136,0.03739196446258579
785,00:00:03.14,-0.0020327419042587003
786,00:00:03.144,-0.02871615288313476
787,00:00:03.148,0.00376820669043805
788,00:00:03.152,0.02710834192112088
789,00:00:03.156,-0.017204010859131848
790,00:00:03.16,0.031577727233525324
791,00:00:03.164,0.015371001791208927
792,00:00:03.168,-0.04993162630125885
793,00:00:03.172,-0.022661248687654723
794,00:00:03.176,-0.019239424495026473
795,00:00:03.18,0.0338869553525001
796,00:00:03.184,0.06878337590023871
797,00:00:03.188,-0.020769393348018646
798,00:00:03.192,-0.021860732522327453
799,00:00:03.196,-0.031898115761578125
800,00:00:03.2,-0.0026424629613757194
801,00:00:03.204,0.01613332063425337
802,00:00:03.208,0.026213439821731285
803,00:00:03.212,-0.011249881237745282
804,00:00:03.216,-0.0002305859234184096
805,00:00:03.22,-0.023639860795810798
806,00:00:03.224,-0.0062829670496285
807,00:00:03.228,0.029894756386056456
808,00:00:03.232,0.0024472363293171
809,00:00:03.236,-0.02278904011473056
810,00:00:03.24,0.039454918587580295
811,00:00:03.244,-0.028686113189905906
812,00:00:03.248,0.0372388800606132
813,00:00:03.252,0.009377889044117228
814,00:00:03.256,-0.0687139220535755
815,00:00:03.26,-0.06698888121172794
816,00:00:03.264,0.07687760563567281
817,00:00:03.268,0.0328079247847199
818,00:00:03.272,0.00886760442517696
819,00:00:03.276,-0.006500029878225147
820,00:00:03.28,-0.0120241402182728
821,00:00:03.284,0.006565912943187917
822,00:00:03.288,-0.014249484142055764
823,00:00:03.292,-0.02077289880253379
824,00:00:03.296,-0.0054342654475476575
825,00:00:03.3,0.010962175496388222
826,00:00:03.304,0.02223801286891098
827,00:00:03.308,-0.0010636982042342407
828,00:00:03.312,0.011823462322354303
829,00:00:03.316,0.0026948115555569547
830,00:00:03.32,-0.017941064550541393
831,00:00:03.324,-0.00741307274438441
832,00:00:03.328,0.018410299904644496
833,00:00:03.332,-0.0564379030838609
834,00:00:03.336,0.03801901941187677
835,00:00:03.34,0.018688529729843105
836,00:00:03.344,-0.011899990960955622
837,00:00:03.348,0.00744415260851384
838,00:00:03.352,-0.017567093949765022
839,00:00:03.356,0.013261243700981099
840,00:00:03.36,-0.0015900423750281282
841,00:00:03.364,-0.015421717427671
842,00:00:03.368,0.0006343624554574802
843,00:00:03.372,0.008030543569475392
844,00:00:03.376,0.009651514701545232
845,00:00:03.38,0.00543088663835079
846,00:00:03.384,-0.004603094770573074
847,00:00:03.388,-0.01916456362232563
848,00:00:03.392,0.001260663848370338
849,00:00:03.396,0.03356256731785835
850,00:00:03.4,-0.012310636229813099
851,00:00:03.404,-0.0316276140511036
852,00:00:03.408,0.019270664080977398
853,00:00:03.412,0.02347572264261543
854,00:00:03.416,-0.03128831950016321
855,00:00:03.42,-0.011281345854513297
856,00:00:03.424,0.017136020702309886
857,00:00:03.428,0.01170038967393335
858,00:00:03.432,-0.012300770526053361
859,00:00:03.436,0.0013594776391982998
860,00:00:03.44,0.005353361833840612
861,00:00:03.444,0.0325848627835512
862,00:00:03.448,-0.0151576695498079
863,00:00:03.452,-0.03100750560406592
864,00:00:03.456,-0.019110794994048746
865,00:00:03.46,0.010115080454852439
866,00:00:03.464,0.019121669000014642
867,00:00:03.468,0.011744739953428498
868,00:00:03.472,-0.0028049638494848893
869,00:00:03.476,-0.026202050503343326
870,00:00:03.48,0.010060095228254767
871,00:00:03.484,0.04021497862413523
872,00:00:03.488,-0.0081790490075946
873,00:00:03.492,-0.03383241529809315
874,00:00:03.496,-0.011642323806881898
875,00:00:03.5,0.03507194784469901
876,00:00:03.504,-0.027596822241321158
877,00:00:03.508,0.015374487382359811
878,00:00:03.512,-0.00702423579059548
879,00:00:03.516,0.0120393401011825
880,00:00:03.52,-0.0027840126131195536
881,00:00:03.524,-0.010487851919606318
882,00:00:03.528,0.010595550760626822
883,00:00:03.532,0.00819565844722088
884,00:00:03.536,-0.01056630385573953
885,00:00:03.54,-0.00215782015584409
886,00:00:03.544,-0.0006996188312769006
887,00:00:03.548,-0.01718446234008293
888,00:00:03.552,-0.0342090092599392
889,00:00:03.556,0.11907254881225547
890,00:00:03.56,-0.02195895393379032
891,00:00:03.564,-0.0500756800174713
892,00:00:03.568,-0.03088425280293445
893,00:00:03.572,0.025165329454466718
894,00:00:03.576,0.0036403215490282276
895,00:00:03.58,-0.0107962442561984
896,00:00:03.584,0.055135179078206406
897,00:00:03.588,-0.01917439932003618
898,00:00:03.592,-0.01897656603068758
899,00:00:03.596,0.0015654405578970979
900,00:00:03.6,-0.006939227343536912
901,00:00:03.604,-0.008662812411785098
902,00:00:03.608,0.0008351984433830409
903,00:00:03.612,0.01203019381500781
904,00:00:03.616,0.029694647004362165
905,00:00:03.62,0.003099502733675765
906,00:00:03.624,-0.03073612414300449
907,00:00:03.628,-0.01172994915395974
908,00:00:03.632,-0.03325243107974526
909,00:00:03.636,0.04735207604244352
910,00:00:03.64,-0.010877629742026343
911,00:00:03.644,0.07568628899753096
912,00:00:03.648,-0.026367709506303103
913,00:00:03.652,-0.07323016552254556
914,00:00:03.656,-0.02418204280547802
915,00:00:03.66,0.050590771250426714
916,00:00:03.664,0.01753806881606579
917,00:00:03.668,0.018576509843114725
918,00:00:03.672,-0.0365877561271191
919,00:00:03.676,-0.008689373731613114
920,00:00:03.68,0.02860063919797541
921,00:00:03.684,-0.0021516797132790106
922,00:00:03.688,-0.00717025436460972
923,00:00:03.692,-0.01626299251802264
924,00:00:03.696,0.020110488490900018
925,00:00:03.7,0.020153053104877472
926,00:00:03.704,-0.046978251775726745
927,00:00:03.708,-0.003378729801625009
928,00:00:03.712,0.007616314687766125
929,00:00:03.716,0.01770094409584998
930,00:00:03.72,0.0070913616218604165
931,00:00:03.724,0.004935027245665002
932,00:00:03.728,0.02442558389157051
933,00:00:03.732,-0.047172645805403604
934,00:00:03.736,-0.014140541665255996
935,00:00:03.74,0.02240792289376259
936,00:00:03.744,-0.01384918577969068
937,00:00:03.748,0.020994292572140697
938,00:00:03.752,-0.022109616547822897
939,00:00:03.756,0.0434099771082402
940,00:00:03.76,-0.020245771855115897
941,00:00:03.764,-0.02109197713434698
942,00:00:03.768,-0.010554807260632529
943,00:00:03.772,0.02265426679514347
944,00:00:03.776,0.02294643409550199
945,00:00:03.78,-0.00020204344764352018
946,00:00:03.784,-0.023560809437185453
947,00:00:03.788,-0.014236626564525071
948,00:00:03.792,0.00897625932702795
949,00:00:03.796,-0.00701305572874842
950,00:00:03.8,0.0005051624029875391
951,00:00:03.804,0.035304072313010706
952,00:00:03.808,0.021125612780451705
953,00:00:03.812,-0.0245817545801401
954,00:00:03.816,-0.045098960399627706
955,00:00:03.82,-0.031073942314833437
956,00:00:03.824,0.04306249693036083
957,00:00:03.828,0.03866216936148701
958,00:00:03.832,0.014721159357577604
959,00:00:03.836,-0.011570148286409671
960,00:00:03.84,-0.017930006608366994
961,00:00:03.844,-0.025596874533221133
962,00:00:03.848,-0.022097607143223202
963,00:00:03.852,0.01635888265445829
964,00:00:03.856,0.021253268641885373
965,00:00:03.86,0.014016555855050683
966,00:00:03.864,0.01150448946282268
967,00:00:03.868,-0.006456513889133908
968,00:00:03.872,-0.038700508390320486
969,00:00:03.876,0.037335109896957916
970,00:00:03.88,-0.008267812896519901
971,00:00:03.884,-0.04455313659855166
972,00:00:03.888,0.020547116640955262
973,00:00:03.892,0.0089715612120926
974,00:00:03.896,0.025642107240855687
975,00:00:03.9,0.010202209465205801
976,00:00:03.904,0.0008185177575796808
977,00:00:03.908,-0.039747208822518657
978,00:00:03.912,-0.028500754502601918
979,00:00:03.916,-0.010787313804030408
980,00:00:03.92,0.07599187409505258
981,00:00:03.924,0.0131585081107914
982,00:00:03.928,-0.02428425545804204
983,00:00:03.932,-0.02762979606632144
984,00:00:03.936,-0.0012023603776469853
985,00:00:03.94,0.004857979598455127
986,00:00:03.944,0.01865402073599396
987,00:00:03.948,-0.0012514977715909498
988,00:00:03.952,-0.008051506243646141
989,00:00:03.956,-0.016837964532896828
990,00:00:03.96,-0.02932459162548185
991,00:00:03.964,0.04368819389492277
992,00:00:03.968,0.05043040821328756
993,00:00:03.972,0.004185383673757291
994,00:00:03.976,-0.07324895448982713
995,00:00:03.98,0.0005013043992221407
996,00:00:03.984,0.012174609932117143
997,00:00:03.988,-0.06290985783562067
998,00:00:03.992,0.04764643125236031
999,00:00:03.996,0.12121187057346111
1000,00:00:04,-0.052201918326318236
1001,00:00:04.004,-0.06042772368527957
1002,00:00:04.008,-0.01794782793149352
1003,00:00:04.012,-0.009260602295398677
1004,00:00:04.016,0.031801438424736345
1005,00:00:04.02,0.03874798119068146
1006,00:00:04.024,0.0013867937959730677
1007,00:00:04.028,-0.02581637864932422
1008,00:00:04.032,-0.0064724024850875295
1009,00:00:04.036,-0.017470016086008403
1010,00:00:04.04,-0.0027315015904605493
1011,00:00:04.044,-0.03735731472261253
1012,00:00:04.048,0.09628421440720597
1013,00:00:04.052,0.054465949535369894
1014,00:00:04.056,-0.0593490265309811
1015,00:00:04.06,-0.06690093013457954
1016,00:00:04.064,-0.0434609223157167
1017,00:00:04.068,0.02625001827254884
1018,00:00:04.072,0.06437591859139508
1019,00:00:04.076,0.06455174181610339
1020,00:00:04.08,-0.024426333606243203
1021,00:00:04.084,-0.0618139635771514
1022,00:00:04.088,-0.03752476675435901
1023,00:00:04.092,0.0010670544579625373
1024,00:00:04.096,0.04067954514175652
1025,00:00:04.1,0.022777281090384353
1026,00:00:04.104,0.008646756410598751
1027,00:00:04.108,0.01575301587581638
1028,00:00:04.112,-0.037616886082105346
1029,00:00:04.116,-0.04417984746396543
1030,00:00:04.12,0.00657788547687233
1031,00:00:04.124,0.03842723555862907
1032,00:00:04.128,0.009999300353229042
1033,00:00:04.132,-0.026873106602579383
1034,00:00:04.136,0.04084450425580146
1035,00:00:04.14,-0.017683808458968994
1036,00:00:04.144,-0.007170977070927995
1037,00:00:04.148,-0.01304713322315362
1038,00:00:04.152,-0.03273322246968789
1039,00:00:04.156,0.03465262427926069
1040,00:00:04.16,0.030671211425214964
1041,00:00:04.164,-0.0186623446643353
1042,00:00:04.168,-0.0030960971489548336
1043,00:00:04.172,-0.006504968624540199
1044,00:00:04.176,-0.007581350393593309
1045,00:00:04.18,0.02139547746628519
1046,00:00:04.184,0.009516185615211729
1047,00:00:04.188,-7.899606134741978e-05
1048,00:00:04.192,-0.02278317173477262
1049,00:00:04.196,-0.025288732023909702
1050,00:00:04.2,-0.002851379103958599
1051,00:00:04.204,0.01461649150587622
1052,00:00:04.208,0.02878406643867492
1053,00:00:04.212,0.03729126113466915
1054,00:00:04.216,-0.02293669106438754
1055,00:00:04.22,-0.04317432199604807
1056,00:00:04.224,0.0186340939253569
1057,00:00:04.228,-0.04632232803851369
1058,00:00:04.232,0.03100432083010693
1059,00:00:04.236,0.06322541553527111
1060,00:00:04.24,-0.036867409013211803
1061,00:00:04.244,-0.037061108043417355
1062,00:00:04.248,0.014539925381541249
1063,00:00:04.252,0.006899749161675579
1064,00:00:04.256,0.02340823365375397
1065,00:00:04.26,-0.006623534485697701
1066,00:00:04.264,-0.02621141797862942
1067,00:00:04.268,0.0070514716207981006
1068,00:00:04.272,0.0046363635919987704
1069,00:00:04.276,-0.00652062846347689
1070,00:00:04.28,0.0016033412612159732
1071,00:00:04.284,-0.0027647896204143815
1072,00:00:04.288,0.02926246891729528
1073,00:00:04.292,0.009024565573781698
1074,00:00:04.296,-0.048162635415792514
1075,00:00:04.3,-0.0089860232546926
1076,00:00:04.304,0.02161170938052233
1077,00:00:04.308,0.06761407572776076
1078,00:00:04.312,-0.04522155714221296
1079,00:00:04.316,-0.047537163831293555
1080,00:00:04.32,-0.03460487932898103
1081,00:00:04.324,0.040882925502955886
1082,00:00:04.328,0.02698044292628765
1083,00:00:04.332,0.050486817839555456
1084,00:00:04.336,-0.00521589163690802
1085,00:00:04.34,-0.00906338356435301
1086,00:00:04.344,-0.05188837135210638
1087,00:00:04.348,-0.02559625543653962
1088,00:00:04.352,0.001443037297576671
1089,00:00:04.356,0.021071562543511408
1090,00:00:04.36,0.0314618430566043
1091,00:00:04.364,0.005227241315878928
1092,00:00:04.368,-0.026789744850248112
1093,00:00:04.372,-0.00737289106473331
1094,00:00:04.376,0.011351882561029914
1095,00:00:04.38,0.04009209061041478
1096,00:00:04.384,-0.05934391124174007
1097,00:00:04.388,0.0261817816644907
1098,00:00:04.392,0.03504495578818019
1099,00:00:04.396,-0.0281477235257626
1100,00:00:04.4,-0.03785677975974971
1101,00:00:04.404,-0.01626108400523662
1102,00:00:04.408,0.03260988881811498
1103,00:00:04.412,0.0127113745547831
1104,00:00:04.416,0.01220945501700043
1105,00:00:04.42,0.0001937914639711033
1106,00:00:04.424,0.008470919623505392
1107,00:00:04.428,-0.02909609233029187
1108,00:00:04.432,-0.008157289586961259
1109,00:00:04.436,0.006117845419794365
1110,00:00:04.44,0.024432140198769055
1111,00:00:04.444,0.00716679880861193
1112,00:00:04.448,-0.03898778953589504
1113,00:00:04.452,-0.0145534012117423
1114,00:00:04.456,0.015325471409596537
1115,00:00:04.46,0.01221706811338667
1116,00:00:04.464,0.02790996572002767
1117,00:00:04.468,-0.0116205429658293
1118,00:00:04.472,-0.030302547151222853
1119,00:00:04.476,0.025227249599993257
1120,00:00:04.48,0.011687390506267617
1121,00:00:04.484,-0.0363994035869836
1122,00:00:04.488,0.029356262646615502
1123,00:00:04.492,-0.030990749597549404
1124,00:00:04.496,-0.014718682970851674
1125,00:00:04.5,0.02770611969754106
1126,00:00:04.504,0.0163078624755144
1127,00:00:04.508,0.010228865779936308
1128,00:00:04.512,-0.00207252660766244
1129,00:00:04.516,-0.011897390242666037
1130,00:00:04.52,-0.02092470205388964
1131,00:00:04.524,-0.0031603840179741404
1132,00:00:04.528,0.01265012026124169
1133,00:00:04.532,-0.005906054982915531
1134,00:00:04.536,0.03131078579463066
1135,00:00:04.54,-0.014308772864751467
1136,00:00:04.544,-0.04344597132876511
1137,00:00:04.548,0.04151534941047433
1138,00:00:04.552,-0.016323173884302378
1139,00:00:04.556,0.01990247052162885
1140,00:00:04.56,0.059217464178800555
1141,00:00:04.564,-0.0913532879203558
1142,00:00:04.568,-0.018999064108356885
1143,00:00:04.572,0.033971678465604796
1144,00:00:04.576,-0.003757564816623971
1145,00:00:04.58,0.03483886690810322
1146,00:00:04.584,-0.010952455457299937
1147,00:00:04.588,-0.019286089343950118
1148,00:00:04.592,0.01257222972344606
1149,00:00:04.596,0.002449334133416421
1150,00:00:04.6,-0.00272521469742059
1151,00:00:04.604,-0.01639886200428009
1152,00:00:04.608,0.0007497707847505799
1153,00:00:04.612,0.0022990299257798896
1154,00:00:04.616,0.015765496063977442
1155,00:00:04.62,-0.004482550953980534
1156,00:00:04.624,-0.0033060997666325065
1157,00:00:04.628,0.003137619001790881
1158,00:00:04.632,-0.0013702482683584302
1159,00:00:04.636,-0.0022790728835389105
1160,00:00:04.64,-0.017936406657099745
1161,00:00:04.644,0.01786591275595126
1162,00:00:04.648,0.011982606258243291
1163,00:00:04.652,0.02564881369471555
1164,00:00:04.656,-0.06320594716817145
1165,00:00:04.66,0.008829785045236389
1166,00:00:04.664,0.009760664543136949
1167,00:00:04.668,0.017323764972388703
1168,00:00:04.672,0.007831283204723153
1169,00:00:04.676,-0.023921139538288103
1170,00:00:04.68,0.0028163063107058415
1171,00:00:04.684,0.005929887003730981
1172,00:00:04.688,0.01627255091443659
1173,00:00:04.692,-0.01582680363208052
1174,00:00:04.696,-0.014529793523251983
1175,00:00:04.7,-0.01357109122909605
1176,00:00:04.704,0.00934486508776899
1177,00:00:04.708,0.02654929133132099
1178,00:00:04.712,-0.013048677821643592
1179,00:00:04.716,0.00819997908547512
1180,00:00:04.72,0.02300831349566581
1181,00:00:04.724,0.022473234683275282
1182,00:00:04.728,-0.06916349107632416
1183,00:00:04.732,-0.043671174906194224
1184,00:00:04.736,0.0358764878474176
1185,00:00:04.74,0.0324974097311496
1186,00:00:04.744,0.03147421125322572
1187,00:00:04.748,-0.040439435746520765
1188,00:00:04.752,0.006520915776491103
1189,00:00:04.756,0.00647237687371671
1190,00:00:04.76,-0.02208345057442788
1191,00:00:04.764,0.001013896835502237
1192,00:00:04.768,0.0012882556766271604
1193,00:00:04.772,0.02415581169771025
1194,00:00:04.776,-0.009388387319631882
1195,00:00:04.78,-0.002648863941431037
1196,00:00:04.784,-0.004691946320235729
1197,00:00:04.788,-0.0028043438214808702
1198,00:00:04.792,-0.004166491795331289
1199,00:00:04.796,0.009914255701005457
1200,00:00:04.8,-0.044170814333483625
1201,00:00:04.804,0.07103867782279846
1202,00:00:04.808,0.02552063134498897
1203,00:00:04.812,-0.06876106600975616
1204,00:00:04.816,0.0126238530501724
1205,00:00:04.82,-0.02785603236407045
1206,00:00:04.824,0.02028670348227026
1207,00:00:04.828,0.0038513785693794905
1208,00:00:04.832,0.01971969194710249
1209,00:00:04.836,0.0258563961833716
1210,00:00:04.84,-0.020377266686409733
1211,00:00:04.844,-0.037076274864375695
1212,00:00:04.848,-0.0228576995432376
1213,00:00:04.852,0.03325287811458109
1214,00:00:04.856,0.0008561480790376099
1215,00:00:04.86,0.01676504081115123
1216,00:00:04.864,0.009898389223963
1217,00:00:04.868,-0.006007560645230089
1218,00:00:04.872,-0.019607448950409903
1219,00:00:04.876,0.00549902254715562
1220,00:00:04.88,-0.00637003360316161
1221,00:00:04.884,-0.004514458647463495
1222,00:00:04.888,-0.009312601527199232
1223,00:00:04.892,0.03542499535251409
1224,00:00:04.896,0.0019157417118549382
1225,00:00:04.9,0.0067149349488318105
1226,00:00:04.904,-0.03970895858947193
1227,00:00:04.908,0.00899183703586459
1228,00:00:04.912,-0.00515722343698144
1229,00:00:04.916,-0.005108894314616939
1230,00:00:04.92,0.01752528257202357
1231,00:00:04.924,0.01517956354655328
1232,00:00:04.928,-0.0003508104127831744
1233,00:00:04.932,-0.01013931678608059
1234,00:00:04.936,-0.00847807177342474
1235,00:00:04.94,0.01356512587517501
1236,00:00:04.944,0.010604957002215075
1237,00:00:04.948,-0.023089808179065578
1238,00:00:04.952,-0.03018944938958157
1239,00:00:04.956,-0.02110508363693952
1240,00:00:04.96,0.059333052486181294
1241,00:00:04.964,0.00490192207507785
1242,00:00:04.968,-0.0017594541423022803
1243,00:00:04.972,0.03657134389504792
1244,00:00:04.976,-0.027537680696696064
1245,00:00:04.98,-0.030300908489152782
1246,00:00:04.984,-0.0032609496265649587
1247,00:00:04.988,0.008235282264649806
1248,00:00:04.992,0.01524729910306635
1249,00:00:04.996,-0.021936405217275058
1250,00:00:05,-0.010097606238559848
1251,00:00:05.004,0.043018624652177095
1252,00:00:05.008,-0.014168150257319278
1253,00:00:05.012,-0.007400454487651541
1254,00:00:05.016,0.012712323266896423
1255,00:00:05.02,0.020843679085373882
1256,00:00:05.024,-0.01785450754687186
1257,00:00:05.028,-0.03913218853995207
1258,00:00:05.032,-0.01603280426934369
1259,00:00:05.036,0.03289570147171621
1260,00:00:05.04,0.03128084493800998
1261,00:00:05.044,-0.024660860552103273
1262,00:00:05.048,0.02143554575741294
1263,00:00:05.052,-0.01507465518079699
1264,00:00:05.056,-0.004514720756560517
1265,00:00:05.06,-0.009207197930663779
1266,00:00:05.064,0.026732008205726708
1267,00:00:05.068,-0.0004085764521732896
1268,00:00:05.072,-0.0442264596931636
1269,00:00:05.076,0.02777373493881892
1270,00:00:05.08,-0.008721350692212542
1271,00:00:05.084,-0.016386035829782437
1272,00:00:05.088,0.03911376092582946
1273,00:00:05.092,0.02093916479498146
1274,00:00:05.096,-0.020062346244230842
1275,00:00:05.1,-0.02198980795219541
1276,00:00:05.104,-0.0030874963267706413
1277,00:00:05.108,-0.009188125492073563
1278,00:00:05.112,-0.0007131467573344699
1279,00:00:05.116,0.024244726373581216
1280,00:00:05.12,0.01720850728452208
1281,00:00:05.124,-0.0025245249271392987
1282,00:00:05.128,-0.005346977617591631
1283,00:00:05.132,-0.00848570372909307
1284,00:00:05.136,-0.02630586503073571
1285,00:00:05.14,-0.025500976713374292
1286,00:00:05.144,0.050475856289267595
1287,00:00:05.148,0.0125770102022216
1288,00:00:05.152,0.01802118243358567
1289,00:00:05.156,-0.0015191808342933516
1290,00:00:05.16,-0.049715216737240525
1291,00:00:05.164,-0.020169098395854228
1292,00:00:05.168,0.01970364898443228
1293,00:00:05.172,0.011823747307062201
1294,00:00:05.176,0.007756147067993872
1295,00:00:05.18,0.026714112609624908
1296,00:00:05.184,-0.0006502632750198177
1297,00:00:05.188,-0.029415668221190575
1298,00:00:05.192,-0.005963926669210161
1299,00:00:05.196,-0.01396014401689176
1300,00:00:05.2,0.007200953550636769
1301,00:00:05.204,0.014759695506654673
1302,00:00:05.208,0.015136550879105932
1303,00:00:05.212,-0.0115395450266078
1304,00:00:05.216,-0.02638502046465871
1305,00:00:05.22,0.02692502038553354
1306,00:00:05.224,0.01384680159389971
1307,00:00:05.228,0.01569449843373153
1308,00:00:05.232,-0.04146499512717128
1309,00:00:05.236,-0.017295273602940142
1310,00:00:05.24,-0.0108746633704868
1311,00:00:05.244,0.026962544769048687
1312,00:00:05.248,0.03604967182036489
1313,00:00:05.252,-0.02356218453496692
1314,00:00:05.256,0.0012782271951437309
1315,00:00:05.26,0.00217033026274298
1316,00:00:05.264,-0.014864231459796401
1317,00:00:05.268,0.01532488031079991
1318,00:00:05.272,0.014630815014243102
1319,00:00:05.276,-0.016398958570789546
1320,00:00:05.28,-0.040362901316257145
1321,00:00:05.284,0.01922734640538692
1322,00:00:05.288,0.01593602099455893
1323,00:00:05.292,-0.0031305914744734695
1324,00:00:05.296,0.0032778568565845507
1325,00:00:05.3,-0.00871936418116093
1326,00:00:05.304,0.03590340167284012
1327,00:00:05.308,-0.01743582449853424
1328,00:00:05.312,-0.009458402171730999
1329,00:00:05.316,-0.011991335544735183
1330,00:00:05.32,-0.000603560358285897
1331,00:00:05.324,-0.0008617676794529031
1332,00:00:05.328,0.02027029776945711
1333,00:00:05.332,0.0047757253050804
1334,00:00:05.336,-0.0281457751989364
1335,00:00:05.34,0.01387341553345323
1336,00:00:05.344,0.006596161518245913
1337,00:00:05.348,0.0005966899916529569
1338,00:00:05.352,-0.00881976797245442
1339,00:00:05.356,-0.0013006440130993767
1340,00:00:05.36,0.031860198592767154
1341,00:00:05.364,-0.0036709122359752603
1342,00:00:05.368,-0.04529762431047853
1343,00:00:05.372,-0.00903192709665746
1344,00:00:05.376,-0.0023377009201794893
1345,00:00:05.38,0.02670577447861433
1346,00:00:05.384,0.02261914405971767
1347,00:00:05.388,0.02141620614565908
1348,00:00:05.392,-0.053391130641102805
1349,00:00:05.396,0.05219150241464373
1350,00:00:05.4,0.011444230563938621
1351,00:00:05.404,-0.09652092726901174
1352,00:00:05.408,-0.023543123621493595
1353,00:00:05.412,0.06727788178250195
1354,00:00:05.416,0.01903726998716585
1355,00:00:05.42,0.015238040126860159
1356,00:00:05.424,-0.012457138043828302
1357,00:00:05.428,-0.016409321222454268
1358,00:00:05.432,-0.005404944415204232
1359,00:00:05.436,-0.005057204936747435
1360,00:00:05.44,-0.005376010667532681
1361,00:00:05.444,0.02321898168884217
1362,00:00:05.448,0.0127022741362453
1363,00:00:05.452,-0.02858870453201232
1364,00:00:05.456,-0.009110170882195269
1365,00:00:05.46,0.0035102767869829975
1366,00:00:05.464,0.00823094416409727
1367,00:00:05.468,0.02571348485071215
1368,00:00:05.472,-0.0021334211342036707
1369,00:00:05.476,-0.018765699584037107
1370,00:00:05.48,0.0011313844588585302
1371,00:00:05.484,0.011066877283155863
1372,00:00:05.488,-0.039483699016273
1373,00:00:05.492,-0.0003430487122387197
1374,00:00:05.496,0.034860844723880305
1375,00:00:05.5,0.014780319994315538
1376,00:00:05.504,-0.026923665311187478
1377,00:00:05.508,0.011374166235327821
1378,00:00:05.512,-0.017701034375932068
1379,00:00:05.516,0.0007354915142059933
1380,00:00:05.52,0.04862880450673396
1381,00:00:05.524,-0.0021983534097671995
1382,00:00:05.528,-0.03303873419645237
1383,00:00:05.532,-0.0464330092072487
1384,00:00:05.536,-0.00709817407187073
1385,00:00:05.54,0.0329637650866061
1386,00:00:05.544,0.046539867209503386
1387,00:00:05.548,-0.01256266387645158
1388,00:00:05.552,-0.003767480258829889
1389,00:00:05.556,0.02881239319685849
1390,00:00:05.56,-0.06624356226529923
1391,00:00:05.564,-0.009459946770220991
1392,00:00:05.568,0.050940737128257765
1393,00:00:05.572,-0.00443222327157859
1394,00:00:05.576,-0.03515475383028392
1395,00:00:05.58,0.01877175178378824
1396,00:00:05.584,0.039053345099091544
1397,00:00:05.588,-0.05000045476481317
1398,00:00:05.592,0.0234854724258184
1399,00:00:05.596,-0.02268908126279709
1400,00:00:05.6,0.009232473792508251
1401,00:00:05.604,0.008856394328176951
1402,00:00:05.608,0.021807322278618826
1403,00:00:05.612,-0.01747605320997534
1404,00:00:05.616,-0.022505482425913242
1405,00:00:05.62,-0.004243606803356662
1406,00:00:05.624,-0.00454567186534405
1407,00:00:05.628,0.028863709885627045
1408,00:00:05.632,0.01939666643738748
1409,00:00:05.636,-0.008123530889861291
1410,00:00:05.64,-0.02918200427666308
1411,00:00:05.644,-0.00022605503909290032
1412,00:00:05.648,0.027767369698267427
1413,00:00:05.652,-0.059954454191029086
1414,00:00:05.656,0.07465592690277845
1415,00:00:05.66,0.046389456838369404
1416,00:00:05.664,-0.11172550218179822
1417,00:00:05.668,-0.02795610157772902
1418,00:00:05.672,0.07326231407932932
1419,00:00:05.676,-0.014438820304349068
1420,00:00:05.68,0.01929998700506981
1421,00:00:05.684,0.012963961489731477
1422,00:00:05.688,-0.03408743347972628
1423,00:00:05.692,0.00010488741099831146
1424,00:00:05.696,0.020779968792339756
1425,00:00:05.7,-0.00676387287967373
1426,00:00:05.704,-0.02057147014420477
1427,00:00:05.708,-0.0009809432085603497
1428,00:00:05.712,-0.007438026019372055
1429,00:00:05.716,0.014956781640648838
1430,00:00:05.72,0.01514128595590599
1431,00:00:05.724,0.00608062837272888
1432,00:00:05.728,0.0014023146941326598
1433,00:00:05.732,-0.012979551684111409
1434,00:00:05.736,-0.003572521032765461
1435,00:00:05.74,0.00650524487718936
1436,00:00:05.744,-0.011193049140274478
1437,00:00:05.748,-0.006934260949492399
1438,00:00:05.752,-0.01708943233825269
1439,00:00:05.756,0.011742389760911463
1440,00:00:05.76,0.034970152657479055
1441,00:00:05.764,0.010562234325334392
1442,00:00:05.768,-0.0022729175398126396
1443,00:00:05.772,-0.006596523337066153
1444,00:00:05.776,-0.02434865757822987
1445,00:00:05.78,-0.022213533113244893
1446,00:00:05.784,0.0007081749754434003
1447,00:00:05.788,0.02210468146950011
1448,00:00:05.792,0.01319406530819832
1449,00:00:05.796,-0.01020623361182518
1450,00:00:05.8,-0.007246903085615489
1451,00:00:05.804,0.015517540450673554
1452,00:00:05.808,0.00427342660259456
1453,00:00:05.812,-0.03868308430537583
1454,00:00:05.816,0.06506411358714106
1455,00:00:05.82,-0.020436725812032784
1456,00:00:05.824,-0.01608526194468138
1457,00:00:05.828,-0.00573128229007127
1458,00:00:05.832,-0.02327876025810841
1459,00:00:05.836,0.019402020843699595
1460,00:00:05.84,0.011750490404665404
1461,00:00:05.844,-6.33352319709948e-05
1462,00:00:05.848,-0.011828460672404617
1463,00:00:05.852,0.009511612355709102
1464,00:00:05.856,0.00853546313010156
1465,00:00:05.86,0.0073251655558124185
1466,00:00:05.864,-0.0020947142038494505
1467,00:00:05.868,-0.016507756896317
1468,00:00:05.872,-0.008742604521103238
1469,00:00:05.876,-0.01709326950367538
1470,00:00:05.88,0.02449380047619341
1471,00:00:05.884,0.025093809701502292
1472,00:00:05.888,-0.01423664344474679
1473,00:00:05.892,-0.016599868889898062
1474,00:00:05.896,0.004475241061299992
1475,00:00:05.9,0.00869053043425083
1476,00:00:05.904,-0.02438808418810369
1477,00:00:05.908,0.0186046008020639
1478,00:00:05.912,0.016585418954491598
1479,00:00:05.916,0.0459061721339822
1480,00:00:05.92,-0.0744278896600008
1481,00:00:05.924,-0.04588696983410044
1482,00:00:05.928,0.051911080692661954
1483,00:00:05.932,0.026930604472909226
1484,00:00:05.936,-0.018804716804879686
1485,00:00:05.94,0.01043434510938823
1486,00:00:05.944,-0.0086358233820647
1487,00:00:05.948,-0.003272711794124918
1488,00:00:05.952,-0.00299158191774041
1489,00:00:05.956,7.17965885996901e-05
1490,00:00:05.96,0.008384951273910698
1491,00:00:05.964,-0.0014725618530064804
1492,00:00:05.968,-0.0055548823438584805
1493,00:00:05.972,0.00618793780449778
1494,00:00:05.976,-0.006335223268251863
1495,00:00:05.98,-0.011920111108338455
1496,00:00:05.984,0.00527886860072612
1497,00:00:05.988,0.008313715925396509
1498,00:00:05.992,0.01749670365825295
1499,00:00:05.996,-0.0007570143789053206
1500,00:00:06,-0.0009808468166738402
1501,00:00:06.004,-0.0025499957846477593
1502,00:00:06.008,-0.03952566813677548
1503,00:00:06.012,-0.014662008732557297
1504,00:00:06.016,0.055428631603717776
1505,00:00:06.02,0.008240110240876682
1506,00:00:06.024,-0.02297529764473442
1507,00:00:06.028,-0.0003324791323393618
1508,00:00:06.032,-0.00280834152363241
1509,00:00:06.036,0.004858827334828602
1510,00:00:06.04,0.009587297216057769
1511,00:00:06.044,-0.003918602131307121
1512,00:00:06.048,0.0013205315917730303
1513,00:00:06.052,-0.03303485305514184
1514,00:00:06.056,0.035587240010499996
1515,00:00:06.06,-0.0037881657481193994
1516,00:00:06.064,-0.02252156008034948
1517,00:00:06.068,0.0013419967144727013
1518,00:00:06.072,0.02204820234328506
1519,00:00:06.076,0.019341476203408075
1520,00:00:06.08,-0.009428073884919282
1521,00:00:06.084,-0.025405915454030082
1522,00:00:06.088,-0.01414351654238994
1523,00:00:06.092,0.034882082371041165
1524,00:00:06.096,-0.024924496188759842
1525,00:00:06.1,-0.013005186163354675
1526,00:00:06.104,0.015208911616355177
1527,00:00:06.108,0.043466086499392965
1528,00:00:06.112,-0.0143702831119299
1529,00:00:06.116,-0.0024685447569936497
1530,00:00:06.12,-0.031689662791905035
1531,00:00:06.124,-0.0026058723742608085
1532,00:00:06.128,0.01977603905834261
1533,00:00:06.132,0.002156374976038931
1534,00:00:06.136,-0.002886999398469897
1535,00:00:06.14,-0.0002959302510134902
1536,00:00:06.144,-0.014887853933032593
1537,00:00:06.148,0.0048700148472562
1538,00:00:06.152,0.018862549215555205
1539,00:00:06.156,-0.0006234785541891982
1540,00:00:06.16,0.0008897335792426065
1541,00:00:06.164,-0.0161241134628654
1542,00:00:06.168,0.022558700991794446
1543,00:00:06.172,-0.0021950853988528312
1544,00:00:06.176,-0.03386864741332829
1545,00:00:06.18,0.010486630839295689
1546,00:00:06.184,-0.01008705236017702
1547,00:00:06.188,0.020995229395339234
1548,00:00:06.192,-0.010857260669581538
1549,00:00:06.196,0.01907646749168631
1550,00:00:06.2,0.004176368252956306
1551,00:00:06.204,-0.01708193751983346
1552,00:00:06.208,0.006885833165142626
1553,00:00:06.212,0.027639912441372868
1554,00:00:06.216,-0.030177929787896608
1555,00:00:06.22,-0.017903249099617855
1556,00:00:06.224,0.010567281162366292
1557,00:00:06.228,0.006610050797462439
1558,00:00:06.232,-0.007653921726159751
1559,00:00:06.236,-0.00684787658974529
1560,00:00:06.24,0.0017744097858667382
1561,00:00:06.244,0.009387863334268338
1562,00:00:06.248,0.01576335047138855
1563,00:00:06.252,-0.00969590060412881
1564,00:00:06.256,0.008036755258217461
1565,00:00:06.26,0.01220541773363952
1566,00:00:06.264,0.03582560829818245
1567,00:00:06.268,-0.10136479046195751
1568,00:00:06.272,-0.053396944887936074
1569,00:00:06.276,0.10581414029002201
1570,00:00:06.28,0.02763904631137854
1571,00:00:06.284,-0.035929276687966215
1572,00:00:06.288,-0.005617064307443819
1573,00:00:06.292,0.012541559990495438
1574,00:00:06.296,-0.00817121611908074
1575,00:00:06.3,0.024848613422364052
1576,00:00:06.304,-0.027286919765174403
1577,00:00:06.308,-0.010067741386592347
1578,00:00:06.312,-0.007969347934704305
1579,00:00:06.316,0.014959826134145239
1580,00:00:06.32,0.00782474339939655
1581,00:00:06.324,0.0001718006096780387
1582,00:00:06.328,-0.011683909268413147
1583,00:00:06.332,0.01934261119458826
1584,00:00:06.336,0.006274343933910141
1585,00:00:06.34,-0.02570985513739285
1586,00:00:06.344,0.0001959828659891978
1587,00:00:06.348,0.000297025311738211
1588,00:00:06.352,-0.0061647051479667495
1589,00:00:06.356,0.02980384929105635
1590,00:00:06.36,0.0020342014613561263
1591,00:00:06.364,-0.016148262831848142
1592,00:00:06.368,0.005988935939967625
1593,00:00:06.372,-0.028824349865317338
1594,00:00:06.376,0.014584762975573498
1595,00:00:06.38,0.01712372340261934
1596,00:00:06.384,0.001478433609008803
1597,00:00:06.388,-0.01952984184026716
1598,00:00:06.392,-0.008416455108090318
1599,00:00:06.396,0.01555570168420676
1600,00:00:06.4,0.00698055932298302
1601,00:00:06.404,0.0023928037844598285
1602,00:00:06.408,0.0074001825414598
1603,00:00:06.412,-0.01282019168138504
1604,00:00:06.416,-0.01817954832222314
1605,00:00:06.42,-0.0019243969582021202
1606,00:00:06.424,0.00608073477633298
1607,00:00:06.428,0.011766959680244292
1608,00:00:06.432,-0.0048898784443735886
1609,00:00:06.436,0.033520217053592205
1610,00:00:06.44,-0.02394136157818142
1611,00:00:06.444,-0.008213383494876304
1612,00:00:06.448,0.0022475682199002006
1613,00:00:06.452,-0.0013396656140685706
1614,00:00:06.456,-0.020536471361992867
1615,00:00:06.46,0.01928676618263123
1616,00:00:06.464,0.015788905788213018
1617,00:00:06.468,-0.012844984419643858
1618,00:00:06.472,0.008070770883932713
1619,00:00:06.476,0.00018529500812287936
1620,00:00:06.48,-0.00793257821351288
1621,00:00:06.484,-0.006508219055831509
1622,00:00:06.488,-0.02247265516780312
1623,00:00:06.492,0.02199610183015471
1624,00:00:06.496,0.02427696157246832
1625,00:00:06.5,0.0007933197775855903
1626,00:00:06.504,-0.01669074292294681
1627,00:00:06.508,-0.002945314867247361
1628,00:00:06.512,-0.004853619378991423
1629,00:00:06.516,-0.0135299004614354
1630,00:00:06.52,0.00602742028422658
1631,00:00:06.524,0.01932543236762284
1632,00:00:06.528,-0.00014432362513616334
1633,00:00:06.532,0.0453368639573455
1634,00:00:06.536,-0.03576790145598348
1635,00:00:06.54,-0.0701667610555887
1636,00:00:06.544,0.042746935971081305
1637,00:00:06.548,0.020927682518959004
1638,00:00:06.552,-0.007174236699938788
1639,00:00:06.556,-0.018856581475120086
1640,00:00:06.56,0.024773216922767495
1641,00:00:06.564,0.014832532033324297
1642,00:00:06.568,-0.026977728120982678
1643,00:00:06.572,0.009863735875114837
1644,00:00:06.576,-0.002719987183809308
1645,00:00:06.58,-0.007360288756899541
1646,00:00:06.584,0.015733543667011
1647,00:00:06.588,-0.013688563301911916
1648,00:00:06.592,-0.01259949826635421
1649,00:00:06.596,-0.02883318508975208
1650,00:00:06.6,0.05930209858343004
1651,00:00:06.604,0.008763564750552202
1652,00:00:06.608,-0.014609989477321507
1653,00:00:06.612,-0.002097865333780681
1654,00:00:06.616,-0.02815948566421866
1655,00:00:06.62,0.031158291734755095
1656,00:00:06.624,0.0018027359619736706
1657,00:00:06.628,-0.015253431163728202
1658,00:00:06.632,-0.006477744551375512
1659,00:00:06.636,0.012132157338783187
1660,00:00:06.64,0.008003548253327619
1661,00:00:06.644,-0.04845009185373787
1662,00:00:06.648,0.04581609182059765
1663,00:00:06.652,0.015459131449461
1664,00:00:06.656,-0.0065732430666685295
1665,00:00:06.66,-0.02669386006891724
1666,00:00:06.664,-0.0032978365779854305
1667,00:00:06.668,0.006169341213535519
1668,00:00:06.672,0.0069935002829879505
1669,00:00:06.676,0.01220067450776697
1670,00:00:06.68,-0.028294488321989778
1671,00:00:06.684,0.02386773377656934
1672,00:00:06.688,-0.0045395777560770885
1673,00:00:06.692,0.01017932267859576
1674,00:00:06.696,-0.014811844564974301
1675,00:00:06.7,-0.008040570653974989
1676,00:00:06.704,-0.005536896176636205
1677,00:00:06.708,0.00921947893220926
1678,00:00:06.712,0.018514738898375054
1679,00:00:06.716,-0.0030861031264066176
1680,00:00:06.72,-0.0034180324291810398
1681,00:00:06.724,-0.01503003225661812
1682,00:00:06.728,0.010094934143126
1683,00:00:06.732,0.04401670861989271
1684,00:00:06.736,-0.066361689590849
1685,00:00:06.74,-0.026533601630944738
1686,00:00:06.744,0.0262557696551085
1687,00:00:06.748,0.044931201729923556
1688,00:00:06.752,-0.0015555289573967665
1689,00:00:06.756,-0.0224626380950212
1690,00:00:06.76,-0.0010699105914682102
1691,00:00:06.764,0.01336406730115413
1692,00:00:06.768,0.011974600609391923
1693,00:00:06.772,-0.035328322090208586
1694,00:00:06.776,-0.02985326224006713
1695,00:00:06.78,0.0219044447876513
1696,00:00:06.784,0.04572379332967105
1697,00:00:06.788,-0.011056393908802423
1698,00:00:06.792,-0.02766944188624626
1699,00:00:06.796,0.025638218503445317
1700,00:00:06.8,-0.0004520639777183706
1701,00:00:06.804,-0.02890005696099254
1702,00:00:06.808,0.01930804923176762
1703,00:00:06.812,0.0039414789061993
1704,00:00:06.816,-0.027207043254748015
1705,00:00:06.82,0.007817340316250948
1706,00:00:06.824,0.04383044072892512
1707,00:00:06.828,-0.01907500484958296
1708,00:00:06.832,-0.029144766245735823
1709,00:00:06.836,0.0024700369685888013
1710,00:00:06.84,0.00482887588441376
1711,00:00:06.844,0.01203508488833908
1712,00:00:06.848,0.01530197332613173
1713,00:00:06.852,-0.010202092584222548
1714,00:00:06.856,-0.01954220980405807
1715,00:00:06.86,0.02443625126034024
1716,00:00:06.864,0.017928321263752843
1717,00:00:06.868,-0.06166906794533136
1718,00:00:06.872,0.0035035354085266486
1719,00:00:06.876,0.01532420888543131
1720,00:00:06.88,0.003385029267519658
1721,00:00:06.884,0.0310875009745359
1722,00:00:06.888,0.015003634151071381
1723,00:00:06.892,-0.034195590764284134
1724,00:00:06.896,-0.02190669556148349
1725,00:00:06.9,0.00914696743711831
1726,00:00:06.904,0.00129143218509853
1727,00:00:06.908,0.045813133707269985
1728,00:00:06.912,-0.037570761865936185
1729,00:00:06.916,-0.0183029321487993
1730,00:00:06.92,-0.005270670051686396
1731,00:00:06.924,0.03107547620311384
1732,00:00:06.928,-0.002436270006000999
1733,00:00:06.932,0.0024863092694431704
1734,00:00:06.936,-0.00485104788094759
1735,00:00:06.94,0.01477387431077663
1736,00:00:06.944,-0.01665832125581798
1737,00:00:06.948,-0.01563746912870553
1738,00:00:06.952,-0.001606873236596619
1739,00:00:06.956,0.006378223653882741
1740,00:00:06.96,0.012210177257657082
1741,00:00:06.964,0.03274783585220575
1742,00:00:06.968,-0.03116127522662282
1743,00:00:06.972,-0.00126335490494962
1744,00:00:06.976,-0.018741745395345805
1745,00:00:06.98,-0.019090595713350884
1746,00:00:06.984,0.02551317308098081
1747,00:00:06.988,0.0085747370030731
1748,00:00:06.992,0.08887947222683584
1749,00:00:06.996,-0.06242554774507879
1750,00:00:07,-0.05365637157228779
1751,00:00:07.004,-0.013703981880098581
1752,00:00:07.008,0.016431749798357497
1753,00:00:07.012,0.02306007663719358
1754,00:00:07.016,0.009163792768958956
1755,00:00:07.02,0.00549121480435133
1756,00:00:07.024,0.02478027949109677
1757,00:00:07.028,-0.01749368896707892
1758,00:00:07.032,-0.03271694108843806
1759,00:00:07.036,-0.02028315817005928
1760,00:00:07.04,0.02044084900990131
1761,00:00:07.044,-0.0063406978733837605
1762,00:00:07.048,0.018757335259579105
1763,00:00:07.052,0.050083262380212476
1764,00:00:07.056,0.014723272528499365
1765,00:00:07.06,-0.07770882360637188
1766,00:00:07.064,-0.08730491658207035
1767,00:00:07.068,0.07300212513655427
1768,00:00:07.072,0.0919093862175941
1769,00:00:07.076,-0.01049300166778267
1770,00:00:07.08,-0.0536543084308505
1771,00:00:07.084,-0.03658186690881847
1772,00:00:07.088,0.00564856827259063
1773,00:00:07.092,0.027968006441369674
1774,00:00:07.096,0.019100855897704622
1775,00:00:07.1,0.0010033713188022288
1776,00:00:07.104,-0.0016059993067756326
1777,00:00:07.108,-0.01255731028504673
1778,00:00:07.112,0.0004147985018789794
1779,00:00:07.116,-0.00854787603020668
1780,00:00:07.12,-0.023735702969133847
1781,00:00:07.124,0.0064654131419956615
1782,00:00:07.128,0.029459176585078233
1783,00:00:07.132,0.01438371371477845
1784,00:00:07.136,-0.01868541212752458
1785,00:00:07.14,-0.0010525556281209478
1786,00:00:07.144,0.010572744533419616
1787,00:00:07.148,0.013308809138834525
1788,00:00:07.152,-0.06115060672163959
1789,00:00:07.156,0.055837662890553495
1790,00:00:07.16,-0.006841227412223802
1791,00:00:07.164,-0.02530070999637247
1792,00:00:07.168,-0.01239315420389171
1793,00:00:07.172,-0.008099423721432703
1794,00:00:07.176,0.03923378838226199
1795,00:00:07.18,0.03079657536000017
1796,00:00:07.184,-0.01803361473139376
1797,00:00:07.188,-0.01622887549456213
1798,00:00:07.192,-0.018462993262801312
1799,00:00:07.196,0.007117550354450902
1800,00:00:07.2,0.01127585070207716
1801,00:00:07.204,0.00805813842453063
1802,00:00:07.208,-0.02117053489200773
1803,00:00:07.212,-0.0025786108017200595
1804,00:00:07.216,0.01154463645070796
1805,00:00:07.22,0.0211503468453884
1806,00:00:07.224,-0.06435109867015858
1807,00:00:07.228,0.11883195629343414
1808,00:00:07.232,-0.08801030367612837
1809,00:00:07.236,-0.024668185971677317
1810,00:00:07.24,0.01997108384966849
1811,00:00:07.244,0.041271340101956995
1812,00:00:07.248,-0.030531086027622195
1813,00:00:07.252,0.04223264660686249
1814,00:00:07.256,-0.014416791498661041
1815,00:00:07.26,-0.022470256313681658
1816,00:00:07.264,-0.013547152251703668
1817,00:00:07.268,-0.0094333607703448
1818,00:00:07.272,0.008626506198197596
1819,00:00:07.276,0.02532800892367964
1820,00:00:07.28,0.0137902111746371
1821,00:00:07.284,-0.004181710653938329
1822,00:00:07.288,-0.02358582569286231
1823,00:00:07.292,-0.01239867100957781
1824,00:00:07.296,0.00672747951466586
1825,00:00:07.3,0.00833348673768341
1826,00:00:07.304,0.002235839609056711
1827,00:00:07.308,-0.00179632031358779
1828,00:00:07.312,0.010291744489222768
1829,00:00:07.316,0.0001326864585280505
1830,00:00:07.32,-0.0183075452223419
1831,00:00:07.324,0.0535749513655901
1832,00:00:07.328,-0.030079904245212695
1833,00:00:07.332,-0.027250761515460874
1834,00:00:07.336,-0.02459038700908426
1835,00:00:07.34,0.0045169889926910504
1836,00:00:07.344,0.0517121190205216
1837,00:00:07.348,-0.015606239438056994
1838,00:00:07.352,-0.004194361557892995
1839,00:00:07.356,0.010199759155511788
1840,00:00:07.36,0.040734516456723206
1841,00:00:07.364,-0.029982286156155127
1842,00:00:07.368,-0.03034514444880184
1843,00:00:07.372,-0.017924290150404
1844,00:00:07.376,-0.00134694343432784
1845,00:00:07.38,0.02498892229050398
1846,00:00:07.384,0.004199333023279867
1847,00:00:07.388,0.02615743409842256
1848,00:00:07.392,-0.02368235285393889
1849,00:00:07.396,0.005021181423217049
1850,00:00:07.4,-0.019593261880800177
1851,00:00:07.404,0.03658342640846963
1852,00:00:07.408,-0.002324053552001699
1853,00:00:07.412,-0.06322180270217359
1854,00:00:07.416,-0.010987230576574787
1855,00:00:07.42,0.09352641459554442
1856,00:00:07.424,0.027728226035833296
1857,00:00:07.428,-0.05968295433558524
1858,00:00:07.432,-0.04057626379653811
1859,00:00:07.436,0.0029745699139311884
1860,00:00:07.44,0.018021592870354573
1861,00:00:07.444,0.0116989791858941
1862,00:00:07.448,-0.0036330272560007822
1863,00:00:07.452,0.022084274503868087
1864,00:00:07.456,0.010966291651129719
1865,00:00:07.46,-0.03089748136699201
1866,00:00:07.464,-0.013835289748385523
1867,00:00:07.468,0.011405218392610553
1868,00:00:07.472,0.00039097428089007106
1869,00:00:07.476,-0.006203981465660041
1870,00:00:07.48,0.007696345448493961
1871,00:00:07.484,0.007313607027754191
1872,00:00:07.488,-0.01863005117047581
1873,00:00:07.492,0.0071015749126672675
1874,00:00:07.496,0.06602306989952925
1875,00:00:07.5,-0.034531244309619125
1876,00:00:07.504,-0.07638365181628616
1877,00:00:07.508,0.04089041630504649
1878,00:00:07.512,0.018515498901251762
1879,00:00:07.516,-0.017874786164611592
1880,00:00:07.52,-0.005830069465446284
1881,00:00:07.524,0.009324229496996852
1882,00:00:07.528,0.01548914244631308
1883,00:00:07.532,-0.002183725562645127
1884,00:00:07.536,0.01242658344563097
1885,00:00:07.54,-0.0032233677338808706
1886,00:00:07.544,-0.02493497310206295
1887,00:00:07.548,-0.003992610261775552
1888,00:00:07.552,0.0024513013668183703
1889,00:00:07.556,0.00989534035034012
1890,00:00:07.56,-0.011070870328694589
1891,00:00:07.564,-0.0031706052832305397
1892,00:00:07.568,0.03999726101756097
1893,00:00:07.572,0.027985732071101672
1894,00:00:07.576,-0.07133382675237951
1895,00:00:07.58,-0.0123428851366044
1896,00:00:07.584,0.031394483521580696
1897,00:00:07.588,-0.032655986142344766
1898,00:00:07.592,0.0099471462890506
1899,00:00:07.596,0.05896770150866358
1900,00:00:07.6,-0.00817218655720351
1901,00:00:07.604,-0.02400399232283238
1902,00:00:07.608,0.0003317063674331301
1903,00:00:07.612,-0.0170124210417271
1904,00:00:07.616,-0.0116490572690963
1905,00:00:07.62,0.008815986337140161
1906,00:00:07.624,0.02200725348666311
1907,00:00:07.628,0.007437449414283039
1908,00:00:07.632,-0.012714316137134987
1909,00:00:07.636,-0.011228987947106365
1910,00:00:07.64,0.01371596986427905
1911,00:00:07.644,0.0025612970930524166
1912,00:00:07.648,-0.012596650514751711
1913,00:00:07.652,-0.01208237279206515
1914,00:00:07.656,0.011103473079856457
1915,00:00:07.66,0.04518294427543883
1916,00:00:07.664,-0.04986059389193537
1917,00:00:07.668,0.0013686162419616968
1918,00:00:07.672,0.012283153831958701
1919,00:00:07.676,-0.022322596982121426
1920,00:00:07.68,0.02647086675278841
1921,00:00:07.684,-0.015628400491550516
1922,00:00:07.688,0.01846911385655403
1923,00:00:07.692,0.003084765776293342
1924,00:00:07.696,-0.00812306022271509
1925,00:00:07.7,-0.01619068253785372
1926,00:00:07.704,0.027444803505204632
1927,00:00:07.708,-0.00583142414689068
1928,00:00:07.712,-0.02634815964847797
1929,00:00:07.716,-0.011322169564664359
1930,00:00:07.72,0.027537597401533265
1931,00:00:07.724,0.007594200316816571
1932,00:00:07.728,0.00096379173919558
1933,00:00:07.732,-0.00973303103819491
1934,00:00:07.736,-0.02977525745518505
1935,00:00:07.74,0.06670511141419412
1936,00:00:07.744,0.001066998578608029
1937,00:00:07.748,-0.06173117621801788
1938,00:00:07.752,-0.039088957943022196
1939,00:00:07.756,0.08795046154409647
1940,00:00:07.76,-0.02047491446137433
1941,00:00:07.764,0.047620380064472556
1942,00:00:07.768,-0.05440508062019939
1943,00:00:07.772,-0.03162808623164892
1944,00:00:07.776,0.02762899058870967
1945,00:00:07.78,0.00788600672967733
1946,00:00:07.784,0.009957394679076975
1947,00:00:07.788,0.00674582086503508
1948,00:00:07.792,-0.02689851960167287
1949,00:00:07.796,0.0118817780166864
1950,00:00:07.8,-0.007260089972987769
1951,00:00:07.804,-0.00887127663008869
1952,00:00:07.808,0.0142657870892435
1953,00:00:07.812,-0.0031998276244848997
1954,00:00:07.816,-0.003526003565639254
1955,00:00:07.82,0.0006221491494215939
1956,00:00:07.824,0.015841026790440037
1957,00:00:07.828,0.01443482679314911
1958,00:00:07.832,-0.006959569174796358
1959,00:00:07.836,-0.06381733901798729
1960,00:00:07.84,0.04075950384140016
1961,00:00:07.844,0.027620800770819104
1962,00:00:07.848,-0.011462707072496407
1963,00:00:07.852,-0.01537434523925189
1964,00:00:07.856,0.0037877154536545216
1965,00:00:07.86,-0.03050130118208475
1966,00:00:07.864,0.03004138031974436
1967,00:00:07.868,0.016836865339428138
1968,00:00:07.872,-0.009917188552208259
1969,00:00:07.876,0.007334497757256104
1970,00:00:07.88,-0.001084129908122121
1971,00:00:07.884,-0.021554435137659277
1972,00:00:07.888,-0.008125416003167671
1973,00:00:07.892,0.015013171068858402
1974,00:00:07.896,0.006162306526675819
1975,00:00:07.9,-0.006092873867601149
1976,00:00:07.904,-0.0006344949360937002
1977,00:00:07.908,-0.0017636967822909433
1978,00:00:07.912,-0.01009868993423879
1979,00:00:07.916,0.0015501243178732695
1980,00:00:07.92,0.07029717438854279
1981,00:00:07.924,-0.0242872629314661
1982,00:00:07.928,-0.0687390090897679
1983,00:00:07.932,0.010620993562042704
1984,00:00:07.936,0.04744611401110889
1985,00:00:07.94,-0.010323243681341448
1986,00:00:07.944,-0.041351044084876776
1987,00:00:07.948,-0.005055557005107479
1988,00:00:07.952,0.05770627921447154
1989,00:00:07.956,-0.0010404977947472902
1990,00:00:07.96,-0.015590168070048059
1991,00:00:07.964,-0.0008072643540799306
1992,00:00:07.968,-0.00418635897221975
1993,00:00:07.972,-0.014998307800851766
1994,00:00:07.976,0.011621686629951052
1995,00:00:07.98,0.012971940042916692
1996,00:00:07.984,-0.006017011939547949
1997,00:00:07.988,-0.02099693263880912
1998,00:00:07.992,-0.00047497218474745924
1999,00:00:07.996,0.01052501657977696
2000,00:00:08,-0.011884348466992382
2001,00:00:08.004,0.05415046727284794
2002,00:00:08.008,0.016560916788876015
2003,00:00:08.012,-0.07441921718418601
2004,00:00:08.016,-0.0020057007786817155
2005,00:00:08.02,0.0059332181699574
2006,00:00:08.024,0.0218632789328694
2007,00:00:08.028,0.0026473286561667225
2008,00:00:08.032,0.007425839081406621
2009,00:00:08.036,-0.006551824975758749
2010,00:00:08.04,-0.013374667614698459
2011,00:00:08.044,-0.0015647520776837787
2012,00:00:08.048,-0.00335823022760451
2013,00:00:08.052,-0.00529605010524397
2014,00:00:08.056,0.0124798398464918
2015,00:00:08.06,0.030820484971627638
2016,00:00:08.064,0.0032332323025912497
2017,00:00:08.068,-0.027225001249462408
2018,00:00:08.072,-0.01226551178842783
2019,00:00:08.076,-0.03463248722255229
2020,00:00:08.08,0.01918028306681667
2021,00:00:08.084,0.0596983609721065
2022,00:00:08.088,-0.03400873765349391
2023,00:00:08.092,-0.01059091510251165
2024,00:00:08.096,0.03738421294838188
2025,00:00:08.1,-0.02349406952271242
2026,00:00:08.104,-0.010770971886813613
2027,00:00:08.108,-0.006268474040552978
2028,00:00:08.112,0.008601389708928788
2029,00:00:08.116,0.005148286465555447
2030,00:00:08.12,-0.004631010815501203
2031,00:00:08.124,-0.00518532854039224
2032,00:00:08.128,0.02778845699504021
2033,00:00:08.132,-0.00840593688189984
2034,00:00:08.136,-0.0116488393396139
2035,00:00:08.14,-0.0025601181114325274
2036,00:00:08.144,-0.01685939531307668
2037,00:00:08.148,0.0016126895789057016
2038,00:00:08.152,0.02765826860559169
2039,00:00:08.156,0.03252736502327025
2040,00:00:08.16,-0.0202696407213807
2041,00:00:08.164,-0.050939177512191174
2042,00:00:08.168,0.00046459393342958635
2043,00:00:08.172,0.014430094510316911
2044,00:00:08.176,0.02680338360369207
2045,00:00:08.18,-0.014420723367948033
2046,00:00:08.184,0.002900599036365699
2047,00:00:08.188,0.03704287328582721
2048,00:00:08.192,-0.02108054608106608
2049,00:00:08.196,-0.02420664695091545
2050,00:00:08.2,-0.00706641143187876
2051,00:00:08.204,-0.02447592071257526
2052,00:00:08.208,0.03182109398767352
2053,00:00:08.212,0.0269646575907245
2054,00:00:08.216,-0.0029117753729223997
2055,00:00:08.22,-0.004672905430197712
2056,00:00:08.224,-0.010134664364159109
2057,00:00:08.228,-0.01175498170778156
2058,00:00:08.232,-0.00038268999196588993
2059,00:00:08.236,0.01355182239785789
2060,00:00:08.24,0.00399505079258234
2061,00:00:08.244,-0.015527640382060764
2062,00:00:08.248,-0.003601527365390194
2063,00:00:08.252,0.02256261173170061
2064,00:00:08.256,0.009038164746016278
2065,00:00:08.26,-0.030042395927011897
2066,00:00:08.264,-0.03514755610376597
2067,00:00:08.268,0.06216442561708386
2068,00:00:08.272,0.01791887660510842
2069,00:00:08.276,-0.012074925238266837
2070,00:00:08.28,-0.03560545388609171
2071,00:00:08.284,0.0008071330375968994
2072,00:00:08.288,-0.017228823620826037
2073,00:00:08.292,0.02205987530760469
2074,00:00:08.296,0.01373848610091951
2075,00:00:08.3,0.017516858875751516
2076,00:00:08.304,-0.009332487359643019
2077,00:00:08.308,-0.024852221598848742
2078,00:00:08.312,-0.0031399072613567097
2079,00:00:08.316,0.01520149386487904
2080,00:00:08.32,0.00625055655837059
2081,00:00:08.324,0.00430350308306515
2082,00:00:08.328,-0.01529854966793211
2083,00:00:08.332,-0.023919981904327883
2084,00:00:08.336,0.012859933078289011
2085,00:00:08.34,0.014269440434873082
2086,00:00:08.344,0.049040403915569214
2087,00:00:08.348,-0.039237787015736145
2088,00:00:08.352,-0.03875381266698242
2089,00:00:08.356,0.03145243076141922
2090,00:00:08.36,-0.01967513095587492
2091,00:00:08.364,0.0011600445723160737
2092,00:00:08.368,0.045492799021303654
2093,00:00:08.372,-0.0198199392762035
2094,00:00:08.376,-0.023326896131038652
2095,00:00:08.38,0.01586089842021467
2096,00:00:08.384,0.0041353721171617595
2097,00:00:08.388,0.005132104735821411
2098,00:00:08.392,-0.018986027687787982
2099,00:00:08.396,-0.016059317626059038
2100,00:00:08.4,0.017998066352447443
2101,00:00:08.404,0.01354970503598452
2102,00:00:08.408,-0.005079894559457897
2103,00:00:08.412,0.003669406520202756
2104,00:00:08.416,-0.010183954727835957
2105,00:00:08.42,0.0019102890510112004
2106,00:00:08.424,0.0013003442436456698
2107,00:00:08.428,-0.03629139065742493
2108,00:00:08.432,0.11707342485897235
2109,00:00:08.436,-0.05584202473983163
2110,00:00:08.44,-0.09495370043441653
2111,00:00:08.444,0.037940649315714815
2112,00:00:08.448,0.035733183613046976
2113,00:00:08.452,0.013178728520870198
2114,00:00:08.456,0.009599567390978357
2115,00:00:08.46,-0.004479244351387031
2116,00:00:08.464,-0.02124941628426314
2117,00:00:08.468,-0.006668108515441378
2118,00:00:08.472,-0.016654906794428822
2119,00:00:08.476,0.0036444341531023387
2120,00:00:08.48,0.004584053916914861
2121,00:00:08.484,0.025812542065978092
2122,00:00:08.488,0.02456676124711521
2123,00:00:08.492,-0.02940015541389582
2124,00:00:08.496,-0.01945175044238566
2125,00:00:08.5,0.0031417838763445603
2126,00:00:08.504,0.009795403690077361
2127,00:00:08.508,-0.013676271832082441
2128,00:00:08.512,-0.01405062654521317
2129,00:00:08.516,0.0472495150752366
2130,00:00:08.52,0.0608544712886214
2131,00:00:08.524,-0.07535136048682037
2132,00:00:08.528,-0.07815398648381232
2133,00:00:08.532,0.03046285151503981
2134,00:00:08.536,0.07709817122668029
2135,00:00:08.54,0.007001603691605789
2136,00:00:08.544,-0.02918036468327042
2137,00:00:08.548,-0.02050659712404011
2138,00:00:08.552,-0.0199207793921232
2139,00:00:08.556,0.0022701892303302875
2140,00:00:08.56,0.03744048159569506
2141,00:00:08.564,0.020185384899377795
2142,00:00:08.568,-0.021134456619620358
2143,00:00:08.572,-0.03279085900430802
2144,00:00:08.576,0.01168109325226399
2145,00:00:08.58,0.02153538120910522
2146,00:00:08.584,-0.00857810606248673
2147,00:00:08.588,-0.0043374090455472495
2148,00:00:08.592,-0.01513776392675938
2149,00:00:08.596,0.02140308986417949
2150,00:00:08.6,-0.0011182094458490502
2151,00:00:08.604,0.0009865986648947
2152,00:00:08.608,0.012441533617675289
2153,00:00:08.612,0.00544430618174371
2154,00:00:08.616,-0.071040972135961
2155,00:00:08.62,0.06993874115869395
2156,00:00:08.624,-0.005580124881817026
2157,00:00:08.628,-0.03255807375535364
2158,00:00:08.632,-0.011018823366612222
2159,00:00:08.636,0.0217426182935014
2160,00:00:08.64,0.027637158054858443
2161,00:00:08.644,-0.00437396601773799
2162,00:00:08.648,-0.012337152380496232
2163,00:00:08.652,-0.006757238763384538
2164,00:00:08.656,0.005970812402665561
2165,00:00:08.66,-0.0030831682961434386
2166,00:00:08.664,-0.00229305250104517
2167,00:00:08.668,-0.007987401448190299
2168,00:00:08.672,-0.0028819984581787165
2169,00:00:08.676,-0.000883690256159757
2170,00:00:08.68,0.02453530507773394
2171,00:00:08.684,0.009166761301457858
2172,00:00:08.688,-0.018420438282191698
2173,00:00:08.692,0.012441166676580871
2174,00:00:08.696,-0.023830221936805143
2175,00:00:08.7,-0.0022406661882995726
2176,00:00:08.704,0.00579331768676641
2177,00:00:08.708,-0.03335107304155827
2178,00:00:08.712,0.042793810483999606
2179,00:00:08.716,0.06880516558885565
2180,00:00:08.72,-0.0560692832805216
2181,00:00:08.724,-0.054244970437138884
2182,00:00:08.728,0.02789859869517388
2183,00:00:08.732,0.00033479812555009883
2184,00:00:08.736,0.009728243108838788
2185,00:00:08.74,0.004691273672506258
2186,00:00:08.744,-0.011719502275809644
2187,00:00:08.748,0.030967248138040318
2188,00:00:08.752,-0.00807829177938402
2189,00:00:08.756,-0.0044904869282618096
2190,00:00:08.76,-0.03704730281606317
2191,00:00:08.764,0.0008640760061098289
2192,00:00:08.768,0.019810441939625896
2193,00:00:08.772,-0.003938275272957979
2194,00:00:08.776,0.008743710583075853
2195,00:00:08.78,0.03224761271849277
2196,00:00:08.784,-0.015935925068333752
2197,00:00:08.788,0.008733857423067114
2198,00:00:08.792,-0.06983164744451642
2199,00:00:08.796,0.006824654759839181
2200,00:00:08.8,0.03943457314744586
2201,00:00:08.804,0.05185869801789519
2202,00:00:08.808,-0.04320189077407121
2203,00:00:08.812,-0.006670260569080724
2204,00:00:08.816,-0.000424368539825079
2205,00:00:08.82,-0.01883686473593113
2206,00:00:08.824,-0.0061972683761268915
2207,00:00:08.828,0.01009063725359734
2208,00:00:08.832,0.009097695350646971
2209,00:00:08.836,0.01636436462285928
2210,00:00:08.84,0.00264247646555304
2211,00:00:08.844,0.005972201761323954
2212,00:00:08.848,-0.020467124413698932
2213,00:00:08.852,-0.019799085101112692
2214,00:00:08.856,-0.004762702912557863
2215,00:00:08.86,0.0119848344475031
2216,00:00:08.864,0.016373522579669952
2217,00:00:08.868,0.031104374211281628
2218,00:00:08.872,-0.051923784849350334
2219,00:00:08.876,-0.015413411427289251
2220,00:00:08.88,0.04264958715066313
2221,00:00:08.884,0.04611894907429811
2222,00:00:08.888,-0.03497144475113602
2223,00:00:08.892,-0.04852386610582472
2224,00:00:08.896,-0.01282007340341806
2225,00:00:08.9,0.0006130370311438482
2226,00:00:08.904,0.033021217066561775
2227,00:00:08.908,0.029657656326890082
2228,00:00:08.912,0.0021004082518629834
2229,00:00:08.916,-0.005882162717171079
2230,00:00:08.92,-0.01781821763142943
2231,00:00:08.924,-0.00924494123319167
2232,00:00:08.928,-0.009680996183305979
2233,00:00:08.932,-0.001439963933080421
2234,00:00:08.936,0.0079176293220371
2235,00:00:08.94,0.008361560292541979
2236,00:00:08.944,0.02760267653502525
2237,00:00:08.948,-0.020975071005523153
2238,00:00:08.952,-0.0011208670912310507
2239,00:00:08.956,0.009089050814509449
2240,00:00:08.96,-0.05333439260721209
2241,00:00:08.964,0.019123832695186103
2242,00:00:08.968,0.022191898897290202
2243,00:00:08.972,0.012975121848285188
2244,00:00:08.976,-0.0026870896108448575
2245,00:00:08.98,0.02488379788701419
2246,00:00:08.984,0.019559523207135488
2247,00:00:08.988,-0.08430413529276845
2248,00:00:08.992,-0.04358411300927402
2249,00:00:08.996,0.015746717806905473
2250,00:00:09,0.0543684531003237
2251,00:00:09.004,0.040683244355022935
2252,00:00:09.008,0.0033361420501023505
2253,00:00:09.012,-0.029705346096307053
2254,00:00:09.016,-0.01118312031030655
2255,00:00:09.02,-0.022837932687252798
2256,00:00:09.024,0.0165588064119219
2257,00:00:09.028,0.01094543514773249
2258,00:00:09.032,-0.0161707913503051
2259,00:00:09.036,0.006271653808653407
2260,00:00:09.04,0.011649589985608999
2261,00:00:09.044,0.008596841245889601
2262,00:00:09.048,-0.02587066660635174
2263,00:00:09.052,-0.03355249855667353
2264,00:00:09.056,0.01940020214533429
2265,00:00:09.06,0.05525215109810235
2266,00:00:09.064,0.02761592459864918
2267,00:00:09.068,-0.03805126948282118
2268,00:00:09.072,-0.03831106773577632
2269,00:00:09.076,-0.01274377061054111
2270,00:00:09.08,0.00481983902864158
2271,00:00:09.084,0.01875763479620215
2272,00:00:09.088,0.014240627409890301
2273,00:00:09.092,0.0021480089053511914
2274,00:00:09.096,-0.011937726754695179
2275,00:00:09.1,-0.0031306963646784494
2276,00:00:09.104,0.021606647525913972
2277,00:00:09.108,-0.0031897673034109136
2278,00:00:09.112,-0.011918072181288153
2279,00:00:09.116,-0.028205035068822264
2280,00:00:09.12,0.006577442167326858
2281,00:00:09.124,0.03575788671150802
2282,00:00:09.128,-0.005034492118284061
2283,00:00:09.132,-0.04240112216211854
2284,00:00:09.136,0.02633434953168041
2285,00:00:09.14,0.07357040513306856
2286,00:00:09.144,-0.05693695298396051
2287,00:00:09.148,-0.026666956022381803
2288,00:00:09.152,-0.011905765393748848
2289,00:00:09.156,0.0016262535937130312
2290,00:00:09.16,-0.0026391791179775515
2291,00:00:09.164,0.056371207349002354
2292,00:00:09.168,0.01315516897011545
2293,00:00:09.172,-0.03141290997155012
2294,00:00:09.176,-0.01505951187573378
2295,00:00:09.18,-0.013713230389839756
2296,00:00:09.184,-0.003831139300018542
2297,00:00:09.188,0.02429291419684885
2298,00:00:09.192,0.008631071192212396
2299,00:00:09.196,0.0008065500296652308
2300,00:00:09.2,0.0011162254959345298
2301,00:00:09.204,-0.01225087279453874
2302,00:00:09.208,-0.03803484712261709
2303,00:00:09.212,0.05751238716766231
2304,00:00:09.216,-0.03360199392773209
2305,00:00:09.22,0.021281806752085672
2306,00:00:09.224,-0.023027412069495823
2307,00:00:09.228,0.00846777856349945
2308,00:00:09.232,0.0787576125003397
2309,00:00:09.236,-0.04945462569594384
2310,00:00:09.24,-0.05195505032315844
2311,00:00:09.244,-0.01087763020768762
2312,00:00:09.248,0.020190688752336445
2313,00:00:09.252,0.018950158264488027
2314,00:00:09.256,0.00618821266107261
2315,00:00:09.26,0.01576195051893592
2316,00:00:09.264,0.008148619439452876
2317,00:00:09.268,-0.01206778991036113
2318,00:00:09.272,-0.028209699783474228
2319,00:00:09.276,-0.010500265663722532
2320,00:00:09.28,0.01162907457910478
2321,00:00:09.284,0.014373754034750143
2322,00:00:09.288,-0.011006752698449418
2323,00:00:09.292,0.009205123409628922
2324,00:00:09.296,0.005251705180853678
2325,00:00:09.3,-0.012549607083201379
2326,00:00:09.304,0.004409463028423469
2327,00:00:09.308,0.030891460832208305
2328,00:00:09.312,-0.023854978382587412
2329,00:00:09.316,-0.00517130712978542
2330,00:00:09.32,-0.038552929647266906
2331,00:00:09.324,0.01368469186127182
2332,00:00:09.328,0.042086835950613105
2333,00:00:09.332,0.03152180113829672
2334,00:00:09.336,-0.042828867444768576
2335,00:00:09.34,-0.04615768883377316
2336,00:00:09.344,0.01590899331495165
2337,00:00:09.348,0.036347262794151895
2338,00:00:09.352,0.00844936782959849
2339,00:00:09.356,-0.01657985849305989
2340,00:00:09.36,-0.010724697960540631
2341,00:00:09.364,0.004165679070865735
2342,00:00:09.368,0.00797284886357377
2343,00:00:09.372,-0.01207939069718125
2344,00:00:09.376,-0.022301334276562612
2345,00:00:09.38,0.029998384517966756
2346,00:00:09.384,-0.00138854666147382
2347,00:00:09.388,0.04644151474349194
2348,00:00:09.392,-0.01913224637974049
2349,00:00:09.396,-0.06748899159720172
2350,00:00:09.4,0.01031779102049767
2351,00:00:09.404,0.0226366701535881
2352,00:00:09.408,0.047655463800765525
2353,00:00:09.412,-0.0350551968440413
2354,00:00:09.416,-0.018678059335798042
2355,00:00:09.42,-0.00581411086022853
2356,00:00:09.424,0.01577263046056035
2357,00:00:09.428,0.0018818583339452605
2358,00:00:09.432,0.01630670935264788
2359,00:00:09.436,-0.006775372603442527
2360,00:00:09.44,-0.009228355949744539
2361,00:00:09.444,0.006086686393246006
2362,00:00:09.448,0.00333396950736642
2363,00:00:09.452,-0.012785315979272158
2364,00:00:09.456,0.0006329698953777517
2365,00:00:09.46,-0.021091424860060208
2366,00:00:09.464,-0.000841847155243141
2367,00:00:09.468,0.04345185193233192
2368,00:00:09.472,0.030379558913409696
2369,00:00:09.476,-0.06965131312608719
2370,00:00:09.48,0.018151926167774925
2371,00:00:09.484,0.0174511251971126
2372,00:00:09.488,-0.022971063619479568
2373,00:00:09.492,0.004377105273306358
2374,00:00:09.496,-0.0059627228183671875
2375,00:00:09.5,0.011347342224325967
2376,00:00:09.504,-0.0008400348015129497
2377,00:00:09.508,-0.009179929373203777
2378,00:00:09.512,0.019391973619349297
2379,00:00:09.516,0.008811222622171037
2380,00:00:09.52,-0.02058756339829412
2381,00:00:09.524,-0.0005023726262152156
2382,00:00:09.528,0.00386548996903002
2383,00:00:09.532,-0.004273930098861461
2384,00:00:09.536,-0.003177292412146919
2385,00:00:09.54,-0.0017733611166477195
2386,00:00:09.544,-0.005785315428511244
2387,00:00:09.548,0.01232587289996442
2388,00:00:09.552,0.018328168662264974
2389,00:00:09.556,-0.0185123537667096
2390,00:00:09.56,-0.025982842082157717
2391,00:00:09.564,0.06209102144930513
2392,00:00:09.568,-0.0016915686428547218
2393,00:00:09.572,-0.05476023070514199
2394,00:00:09.576,0.0280558355152607
2395,00:00:09.58,-0.02969077043235304
2396,00:00:09.584,-0.01188629493117334
2397,00:00:09.588,0.03458972205407917
2398,00:00:09.592,0.01807683054357763
2399,00:00:09.596,-0.007159625645726909
2400,00:00:09.6,-0.006875125924125319
2401,00:00:09.604,0.012844316661357796
2402,00:00:09.608,-0.008449421264231191
2403,00:00:09.612,-0.01011256407946346
2404,00:00:09.616,-0.004576172406814295
2405,00:00:09.62,-0.011505827656947071
2406,00:00:09.624,0.0050451395800337195
2407,00:00:09.628,0.00021583773195740005
2408,00:00:09.632,0.009735168423503639
2409,00:00:09.636,0.03123389743268493
2410,00:00:09.64,-0.014643818256445222
2411,00:00:09.644,-0.015584528446197406
2412,00:00:09.648,0.014052659971639521
2413,00:00:09.652,0.008705475367605606
2414,00:00:09.656,-0.02869429253041747
2415,00:00:09.66,-0.05346020252909513
2416,00:00:09.664,0.01887869578786195
2417,00:00:09.668,0.08655022177845241
2418,00:00:09.672,0.000678614014759691
2419,00:00:09.676,-0.04279567347839476
2420,00:00:09.68,-0.01329900720156729
2421,00:00:09.684,-0.0028785563481506056
2422,00:00:09.688,0.018235570634715263
2423,00:00:09.692,0.012975666206330061
2424,00:00:09.696,-0.0033562390599399788
2425,00:00:09.7,-0.0265049103181809
2426,00:00:09.704,-0.023753406479954723
2427,00:00:09.708,0.02281044516712428
2428,00:00:09.712,0.030737119959667353
2429,00:00:09.716,0.01000593893695623
2430,00:00:09.72,-0.03589720325544477
2431,00:00:09.724,0.034950588364154135
2432,00:00:09.728,-0.0349521660245955
2433,00:00:09.732,-0.0034615020267665594
2434,00:00:09.736,0.016705289948731696
2435,00:00:09.74,-0.07023555599153045
2436,00:00:09.744,0.08465309604071083
2437,00:00:09.748,0.0464371384587139
2438,00:00:09.752,-0.04321806412190195
2439,00:00:09.756,-0.04044844827149067
2440,00:00:09.76,-0.02996338950470085
2441,00:00:09.764,0.041690839454531704
2442,00:00:09.768,0.02121785213239489
2443,00:00:09.772,-0.012001506984233901
2444,00:00:09.776,0.01857077825115994
2445,00:00:09.78,-0.003471766132861388
2446,00:00:09.784,-0.02651424752548337
2447,00:00:09.788,-0.006897155195474552
2448,00:00:09.792,0.006710022830930021
2449,00:00:09.796,-0.00629546586424108
2450,00:00:09.8,0.00397747999522831
2451,00:00:09.804,0.023824982927180858
2452,00:00:09.808,0.02113744569942359
2453,00:00:09.812,-0.01324778283014895
2454,00:00:09.816,-0.03549479902721943
2455,00:00:09.82,-0.005845376290380996
2456,00:00:09.824,0.01741760247386991
2457,00:00:09.828,0.005885529622901232
2458,00:00:09.832,-0.024074841116089422
2459,00:00:09.836,0.03727448382414873
2460,00:00:09.84,-0.009844839572906494
2461,00:00:09.844,0.009889595210552202
2462,00:00:09.848,0.02505796588957309
2463,00:00:09.852,-0.056301091797649805
2464,00:00:09.856,-0.02789709437638524
2465,00:00:09.86,0.02126299031078813
2466,00:00:09.864,0.0372046949341893
2467,00:00:09.868,0.0039519830606877795
2468,00:00:09.872,-0.004829069715924561
2469,00:00:09.876,-0.015769390622153878
2470,00:00:09.88,-0.000305421068333085
2471,00:00:09.884,-0.0028657813090831
2472,00:00:09.888,-0.012858880218118469
2473,00:00:09.892,0.01813967945054174
2474,00:00:09.896,0.010895509272813781
2475,00:00:09.9,-0.016623471921775487
2476,00:00:09.904,0.0219654673710466
2477,00:00:09.908,-0.019965954619692673
2478,00:00:09.912,0.012145113199949303
2479,00:00:09.916,-0.0725810695439578
2480,00:00:09.92,0.08444497082382428
2481,00:00:09.924,0.019875081256032018
2482,00:00:09.928,-0.04866035241866486
2483,00:00:09.932,0.04521417897194627
2484,00:00:09.936,-0.01883249450474975
2485,00:00:09.94,-0.04214695375412698
2486,00:00:09.944,-0.02439363719895484
2487,00:00:09.948,0.027726519852876653
2488,00:00:09.952,0.02763375360518697
2489,00:00:09.956,0.008608155301772063
2490,00:00:09.96,0.008250201120972592
2491,00:00:09.964,-0.016272259061224762
2492,00:00:09.968,-0.012218105373904116
2493,00:00:09.972,0.008188489111489613
2494,00:00:09.976,-0.01398188783787191
2495,00:00:09.98,-0.00962346512824296
2496,00:00:09.984,0.009903314996336123
2497,00:00:09.988,0.02806778717786072
2498,00:00:09.992,0.004504573647864163
2499,00:00:09.996,-0.02930017048493026
2500,00:00:10,-0.0144450212828815
2501,00:00:10.004,-0.002781036950182173
2502,00:00:10.008,0.055511019192636096
2503,00:00:10.012,0.007597474381327601
2504,00:00:10.016,-0.0039194370619953095
2505,00:00:10.02,-0.050873526372015476
2506,00:00:10.024,-0.03193051647394892
2507,00:00:10.028,0.0076184161007404405
2508,00:00:10.032,0.02474642940796907
2509,00:00:10.036,0.02875321987085047
2510,00:00:10.04,0.01310701831243933
2511,00:00:10.044,-0.0015221787616610492
2512,00:00:10.048,-0.001791959162801512
2513,00:00:10.052,-0.0193072627298534
2514,00:00:10.056,-0.02463499200530348
2515,00:00:10.06,0.0005022261175327037
2516,00:00:10.064,0.012848306447267532
2517,00:00:10.068,-0.001718496088869841
2518,00:00:10.072,0.0179685278562829
2519,00:00:10.076,0.00013992190361022082
2520,00:00:10.08,-0.02131359744817022
2521,00:00:10.084,0.0284910518676042
2522,00:00:10.088,0.01647974923253063
2523,00:00:10.092,-0.03748820163309581
2524,00:00:10.096,-0.01769450260326267
2525,00:00:10.1,-0.01825502165593214
2526,00:00:10.104,0.019739709794521384
2527,00:00:10.108,0.07760283444076772
2528,00:00:10.112,-0.00144061389437411
2529,00:00:10.116,-0.053301687818020624
2530,00:00:10.12,-0.03180314507335416
2531,00:00:10.124,-0.019836707040667513
2532,00:00:10.128,0.0283199939876795
2533,00:00:10.132,0.028937309980392442
2534,00:00:10.136,0.01654030778445304
2535,00:00:10.14,0.01365868898574263
2536,00:00:10.144,-0.01678527821786702
2537,00:00:10.148,-0.02965014846995471
2538,00:00:10.152,-0.02131126448512078
2539,00:00:10.156,0.00640217168256642
2540,00:00:10.16,0.010617994703352488
2541,00:00:10.164,0.02002156456001103
2542,00:00:10.168,0.02096848189830781
2543,00:00:10.172,-0.02174705709330741
2544,00:00:10.176,0.0016779941506683427
2545,00:00:10.18,-0.007088439655490213
2546,00:00:10.184,-0.01662954268977048
2547,00:00:10.188,0.020532150461804146
2548,00:00:10.192,-0.024415547377429923
2549,00:00:10.196,0.010109621100127688
2550,00:00:10.2,0.036188734404277036
2551,00:00:10.204,-0.00573814311064782
2552,00:00:10.208,-0.01538615103345364
2553,00:00:10.212,-0.02717669197591025
2554,00:00:10.216,-0.00337324012070894
2555,00:00:10.22,0.038088119588792296
2556,00:00:10.224,0.004796608816832261
2557,00:00:10.228,-0.015794139821082347
2558,00:00:10.232,0.0015135775320232296
2559,00:00:10.236,-0.018891305066063086
2560,00:00:10.24,0.005723489797674168
2561,00:00:10.244,0.02487241174094379
2562,00:00:10.248,-0.03061959799379112
2563,00:00:10.252,0.00014843826647853095
2564,00:00:10.256,0.03596648131497203
2565,00:00:10.26,0.02333337394520639
2566,00:00:10.264,-0.03298044810071587
2567,00:00:10.268,-0.0450459647108801
2568,00:00:10.272,-0.02008390612900252
2569,00:00:10.276,0.05238727782852943
2570,00:00:10.28,0.01375977857969706
2571,00:00:10.284,0.0236297711962834
2572,00:00:10.288,-0.010108750400831885
2573,00:00:10.292,-0.03129896195605406
2574,00:00:10.296,-0.005983925890177482
2575,00:00:10.3,0.0011549831833690498
2576,00:00:10.304,0.006834776606410749
2577,00:00:10.308,0.005085157754365355
2578,00:00:10.312,-0.00048011005856097525
2579,00:00:10.316,-0.007229292066767807
2580,00:00:10.32,0.014063996728509671
2581,00:00:10.324,-0.01081634568981826
2582,00:00:10.328,-0.005909345352847599
2583,00:00:10.332,0.011469790711998901
2584,00:00:10.336,-0.019528068602085204
2585,00:00:10.34,0.0809790994971989
2586,00:00:10.344,-0.04372466169297701
2587,00:00:10.348,-0.047923431964591125
2588,00:00:10.352,-0.009823734872043133
2589,00:00:10.356,-0.00579443550668657
2590,00:00:10.36,0.042985151056200224
2591,00:00:10.364,0.02677026507444677
2592,00:00:10.368,0.011866259912494615
2593,00:00:10.372,-0.0030566677451134214
2594,00:00:10.376,-0.03981569781899453
2595,00:00:10.38,-0.036956565454602186
2596,00:00:10.384,0.016509705223143094
2597,00:00:10.388,0.04207266122102742
2598,00:00:10.392,0.017570295836776488
2599,00:00:10.396,-0.032016723183914984
2600,00:00:10.4,-0.03191003203392026
2601,00:00:10.404,0.0018111386089003645
2602,00:00:10.408,0.045495435595512404
2603,00:00:10.412,-0.0056228863541037104
2604,00:00:10.416,-0.01911517749249468
2605,00:00:10.42,0.008635458536446108
2606,00:00:10.424,0.000988848973065599
2607,00:00:10.428,0.009268873865948993
2608,00:00:10.432,0.00983265717513859
2609,00:00:10.436,-0.03880912368185811
2610,00:00:10.44,0.00500194088090212
2611,00:00:10.444,-0.01144046417903153
2612,00:00:10.448,0.010420401580631771
2613,00:00:10.452,0.03483387634332755
2614,00:00:10.456,-0.0031159040518104995
2615,00:00:10.46,-0.01936371345072983
2616,00:00:10.464,0.008563790004700419
2617,00:00:10.468,-0.011940963100641949
2618,00:00:10.472,-0.005154397105798141
2619,00:00:10.476,0.00823025498539209
2620,00:00:10.48,0.02626023604534563
2621,00:00:10.484,-0.034404163248837036
2622,00:00:10.488,-0.005855850409716371
2623,00:00:10.492,-0.0059705622261390055
2624,00:00:10.496,0.007617809344083109
2625,00:00:10.5,0.028625074017327265
2626,00:00:10.504,0.03655302431434386
2627,00:00:10.508,-0.0686611989513039
2628,00:00:10.512,-0.039193428121507196
2629,00:00:10.516,0.09591612941585476
2630,00:00:10.52,-0.014060808345675482
2631,00:00:10.524,-0.01120309520047155
2632,00:00:10.528,-0.05384320206940176
2633,00:00:10.532,0.013332084752619289
2634,00:00:10.536,0.0469105099327862
2635,00:00:10.54,-0.01686037471517923
2636,00:00:10.544,-0.01623139181174337
2637,00:00:10.548,0.014071961864829063
2638,00:00:10.552,0.01651666092220694
2639,00:00:10.556,-0.015019477345049418
2640,00:00:10.56,-0.010674106888473037
2641,00:00:10.564,0.000261922366917129
2642,00:00:10.568,0.008344953879714019
2643,00:00:10.572,0.004009942873381074
2644,00:00:10.576,-0.007620937642059291
2645,00:00:10.58,0.012559710361529138
2646,00:00:10.584,-0.00594088691286743
2647,00:00:10.588,-0.0417925398796796
2648,00:00:10.592,0.004665699321776599
2649,00:00:10.596,0.05739426473155616
2650,00:00:10.6,0.012705872766673579
2651,00:00:10.604,-0.004102433100342702
2652,00:00:10.608,-0.03525465074926617
2653,00:00:10.612,-2.381391823290044e-06
2654,00:00:10.616,-0.02713915309868752
2655,00:00:10.62,-0.0120552405714988
2656,00:00:10.624,0.038234225939959274
2657,00:00:10.628,0.012862563366070388
2658,00:00:10.632,-0.00426328252069654
2659,00:00:10.636,0.01983826060313727
2660,00:00:10.64,-0.012906837277114402
2661,00:00:10.644,-0.011959582101553687
2662,00:00:10.648,-0.003324698536289361
2663,00:00:10.652,0.00873288966249671
2664,00:00:10.656,-0.01685876492410895
2665,00:00:10.66,-0.005976893939077859
2666,00:00:10.664,-0.002982964913826442
2667,00:00:10.668,0.02169363969005644
2668,00:00:10.672,0.01633784361183647
2669,00:00:10.676,-0.03502077353186907
2670,00:00:10.68,0.03385904943570492
2671,00:00:10.684,-0.02020240155979991
2672,00:00:10.688,0.014083730056881905
2673,00:00:10.692,0.04734305944293732
2674,00:00:10.696,-0.09038071800023319
2675,00:00:10.7,-0.007481873035430908
2676,00:00:10.704,0.045171604026108945
2677,00:00:10.708,-0.024612643755972413
2678,00:00:10.712,0.009435919113457227
2679,00:00:10.716,0.0013515639584511514
2680,00:00:10.72,0.030759964603930715
2681,00:00:10.724,0.017173044383525883
2682,00:00:10.728,0.0032482607057318087
2683,00:00:10.732,-0.04467687557917089
2684,00:00:10.736,-0.05074806604534388
2685,00:00:10.74,0.01805317448452114
2686,00:00:10.744,0.014106969814747532
2687,00:00:10.748,0.011641049539321099
2688,00:00:10.752,0.0456566642969847
2689,00:00:10.756,-0.014742713698069539
2690,00:00:10.76,-0.0011731067788787223
2691,00:00:10.764,-0.01786322519183158
2692,00:00:10.768,-0.04367460403591392
2693,00:00:10.772,-0.014023563824594
2694,00:00:10.776,0.1167706819251179
2695,00:00:10.78,-0.030423691496253
2696,00:00:10.784,-0.008604854345321617
2697,00:00:10.788,-0.061427070759236826
2698,00:00:10.792,0.0023721716424916182
2699,00:00:10.796,0.03223688108846544
2700,00:00:10.8,0.01265914598479863
2701,00:00:10.804,0.007639048155397222
2702,00:00:10.808,-0.00974173005670309
2703,00:00:10.812,-0.015909673646092422
2704,00:00:10.816,-0.002033866010606289
2705,00:00:10.82,0.020659376401454228
2706,00:00:10.824,-0.00246510026045143
2707,00:00:10.828,-0.011459324508905452
2708,00:00:10.832,0.0037268470041453908
2709,00:00:10.836,-0.0028946987586095903
2710,00:00:10.84,-0.0069047086872160305
2711,00:00:10.844,0.01844643126241854
2712,00:00:10.848,0.01868596929125483
2713,00:00:10.852,-0.04431085108080882
2714,00:00:10.856,0.002252879086881824
2715,00:00:10.86,0.013310519512742782
2716,00:00:10.864,-0.003636391833424568
2717,00:00:10.868,0.0026188800111412907
2718,00:00:10.872,0.04501355765387413
2719,00:00:10.876,-0.04591422667726869
2720,00:00:10.88,-0.01251700334250927
2721,00:00:10.884,0.023223436437547252
2722,00:00:10.888,-0.01274373894557359
2723,00:00:10.892,-0.006199631570780182
2724,00:00:10.896,-0.00262134382501245
2725,00:00:10.9,0.01585313491523271
2726,00:00:10.904,0.02790136449038978
2727,00:00:10.908,-0.004416436015162615
2728,00:00:10.912,-0.020700492663308936
2729,00:00:10.916,-0.02697974676266314
2730,00:00:10.92,-0.007662733958568424
2731,00:00:10.924,0.012151931749031071
2732,00:00:10.928,0.03099979273974898
2733,00:00:10.932,-0.0007641705451533146
2734,00:00:10.936,-0.006627507973462341
2735,00:00:10.94,0.012562768533825798
2736,00:00:10.944,-0.00617984822019934
2737,00:00:10.948,0.013088578591123237
2738,00:00:10.952,-0.054894134635105736
2739,00:00:10.956,-0.003963610855862488
2740,00:00:10.96,0.0147804524749518
2741,00:00:10.964,0.03026548586785793
2742,00:00:10.968,0.0036121942102908394
2743,00:00:10.972,0.009410571306943998
2744,00:00:10.976,-0.021687756292521905
2745,00:00:10.98,-0.011021900776540867
2746,00:00:10.984,0.013875643722713004
2747,00:00:10.988,0.0035290815867482783
2748,00:00:10.992,-0.007488889881642534
2749,00:00:10.996,-0.01160756452009082
2750,00:00:11,-0.009049808373674759
2751,00:00:11.004,0.00689564598724246
2752,00:00:11.008,0.016469394322484742
2753,00:00:11.012,0.0030284030362963702
2754,00:00:11.016,0.001139404717832809
2755,00:00:11.02,0.010810351930558676
2756,00:00:11.024,-0.031648325501009864
2757,00:00:11.028,0.0257704500108957
2758,00:00:11.032,-0.03629759419709446
2759,00:00:11.036,0.03881831327453251
2760,00:00:11.04,0.0025607608258724004
2761,00:00:11.044,-0.0274672172963619
2762,00:00:11.048,-0.023751603555865565
2763,00:00:11.052,0.034116339404135936
2764,00:00:11.056,0.0004661339335143601
2765,00:00:11.06,0.006183732533827445
2766,00:00:11.064,0.014644690323621059
2767,00:00:11.068,-0.0021249831188469154
2768,00:00:11.072,-0.02032082877121863
2769,00:00:11.076,-0.012536546302726524
2770,00:00:11.08,-0.02090520411729816
2771,00:00:11.084,0.016542006866075123
2772,00:00:11.088,0.019587076705647584
2773,00:00:11.092,0.02400991262402387
2774,00:00:11.096,-0.00648573332000525
2775,00:00:11.1,-0.03190433001145724
2776,00:00:11.104,0.0001637784298509394
2777,00:00:11.108,0.011420263734180432
2778,00:00:11.112,0.015588626265525821
2779,00:00:11.116,-0.013833601646183528
2780,00:00:11.12,0.012064134265529002
2781,00:00:11.124,-0.011768320575356497
2782,00:00:11.128,-0.0446719449246302
2783,00:00:11.132,0.045219014398753615
2784,00:00:11.136,0.0063466585124842935
2785,00:00:11.14,0.0021780491806566707
2786,00:00:11.144,-0.0157827995717525
2787,00:00:11.148,3.453996032473129e-05
2788,00:00:11.152,0.02378040878102183
2789,00:00:11.156,-0.00757922651246192
2790,00:00:11.16,-0.019854312762618058
2791,00:00:11.164,-0.008107968140393518
2792,00:00:11.168,0.015048915985971668
2793,00:00:11.172,0.014616256346926131
2794,00:00:11.176,-0.01188548351638017
2795,00:00:11.18,0.0010161803802475416
2796,00:00:11.184,-0.018467754824087
2797,00:00:11.188,-0.007333822868531573
2798,00:00:11.192,0.058715314604342025
2799,00:00:11.196,-0.040639294806169304
2800,00:00:11.2,-0.00994837190955877
2801,00:00:11.204,0.02249797899276015
2802,00:00:11.208,0.002044452354311929
2803,00:00:11.212,0.07033513393253082
2804,00:00:11.216,-0.09609891008585697
2805,00:00:11.22,-0.028841358609497596
2806,00:00:11.224,-0.00998971448279917
2807,00:00:11.228,0.020855603273958023
2808,00:00:11.232,0.0636618474964052
2809,00:00:11.236,0.02154960192274305
2810,00:00:11.24,-0.02226319734472785
2811,00:00:11.244,-0.02992515487130733
2812,00:00:11.248,-0.007664702832698831
2813,00:00:11.252,-0.0015997019363567198
2814,00:00:11.256,0.002811594167724251
2815,00:00:11.26,0.004573177895508708
2816,00:00:11.264,0.010174284834647551
2817,00:00:11.268,-0.012156447162851719
2818,00:00:11.272,0.013538227649405592
2819,00:00:11.276,-0.01309674279764294
2820,00:00:11.28,-0.0294007867341861
2821,00:00:11.284,0.03213665052317084
2822,00:00:11.288,0.0685085477307439
2823,00:00:11.292,-0.04392501778784213
2824,00:00:11.296,-0.027302283968310852
2825,00:00:11.3,-0.0315181119367481
2826,00:00:11.304,0.0087584235006943
2827,00:00:11.308,0.016820618126075666
2828,00:00:11.312,0.015940302982926403
2829,00:00:11.316,0.006447993218898794
2830,00:00:11.32,0.012463461851439213
2831,00:00:11.324,-0.011376604670658751
2832,00:00:11.328,-0.010100192157551629
2833,00:00:11.332,-0.00743931951001287
2834,00:00:11.336,-0.007178983185440304
2835,00:00:11.34,0.0008946423185989295
2836,00:00:11.344,0.0022607894497923497
2837,00:00:11.348,0.01495198137126863
2838,00:00:11.352,0.01357855356764049
2839,00:00:11.356,-0.012603440089151308
2840,00:00:11.36,-0.0352727258577943
2841,00:00:11.364,0.01981349708512426
2842,00:00:11.368,0.06068872637115421
2843,00:00:11.372,-0.0647394759580493
2844,00:00:11.376,0.01239887578412891
2845,00:00:11.38,-0.02844662196002909
2846,00:00:11.384,0.04291635239496833
2847,00:00:11.388,-0.013761194306425736
2848,00:00:11.392,-0.01695365962223149
2849,00:00:11.396,0.013412263244390488
2850,00:00:11.4,0.01114335982128983
2851,00:00:11.404,0.015731267631053918
2852,00:00:11.408,-0.01916444860398766
2853,00:00:11.412,-0.007306831888854471
2854,00:00:11.416,0.00833735894411802
2855,00:00:11.42,-0.02181897321133871
2856,00:00:11.424,-0.0030454569496214303
2857,00:00:11.428,0.03520588949322704
2858,00:00:11.432,0.0014329017139971204
2859,00:00:11.436,-0.026128048542887
2860,00:00:11.44,-0.007454337435774507
2861,00:00:11.444,0.010656043887138391
2862,00:00:11.448,0.0086974240839481
2863,00:00:11.452,-5.084439180791031e-05
2864,00:00:11.456,0.0201815087348223
2865,00:00:11.46,-0.02581693511456246
2866,00:00:11.464,-0.02273762319237
2867,00:00:11.468,0.049983622506260796
2868,00:00:11.472,-0.003140479791909489
2869,00:00:11.476,-0.0257005451130681
2870,00:00:11.48,-0.015136383473873204
2871,00:00:11.484,-0.013467312790453503
2872,00:00:11.488,0.026263165753334736
2873,00:00:11.492,0.03900549747049806
2874,00:00:11.496,-0.016456471959827464
2875,00:00:11.5,-0.02510454831644901
2876,00:00:11.504,0.0017948136664926694
2877,00:00:11.508,0.01114341488573701
2878,00:00:11.512,-0.0041826916858554095
2879,00:00:11.516,-0.00569945015013223
2880,00:00:11.52,0.00658739020582289
2881,00:00:11.524,0.01094754436053336
2882,00:00:11.528,-0.01852572395000608
2883,00:00:11.532,0.0017639920115470886
2884,00:00:11.536,0.01221965486183759
2885,00:00:11.54,-0.00453396647935733
2886,00:00:11.544,-0.00098850089125336
2887,00:00:11.548,-0.0030274029122665733
2888,00:00:11.552,0.0008415407501161393
2889,00:00:11.556,-0.007407231722027032
2890,00:00:11.56,0.00802367180585857
2891,00:00:11.564,0.006225927441846581
2892,00:00:11.568,-0.005855473689734929
2893,00:00:11.572,-0.003753036377020182
2894,00:00:11.576,0.004835898784222083
2895,00:00:11.58,0.001037830021232318
2896,00:00:11.584,-0.01517361868172885
2897,00:00:11.588,0.02940681856125598
2898,00:00:11.592,0.015706283040344698
2899,00:00:11.596,-0.01116391737014058
2900,00:00:11.6,-0.051697937306016704
2901,00:00:11.604,-0.025024842703714974
2902,00:00:11.608,0.02277355268597608
2903,00:00:11.612,0.0682896263897419
2904,00:00:11.616,0.012515014037489999
2905,00:00:11.62,-0.05619136663153768
2906,00:00:11.624,-0.0212934277951718
2907,00:00:11.628,0.03784135013120249
2908,00:00:11.632,0.03998090431559828
2909,00:00:11.636,-0.055182327283546405
2910,00:00:11.64,-0.035939484369009705
2911,00:00:11.644,0.03148186672478912
2912,00:00:11.648,0.0324198366142809
2913,00:00:11.652,0.00210219435393812
2914,00:00:11.656,-0.021887500071898137
2915,00:00:11.66,-0.015030333772301648
2916,00:00:11.664,-0.013858002610504601
2917,00:00:11.668,0.008878656663000582
2918,00:00:11.672,0.03690807474777108
2919,00:00:11.676,0.01509762508794665
2920,00:00:11.68,-0.02827901998534804
2921,00:00:11.684,-0.010281047900207344
2922,00:00:11.688,0.015143576543778209
2923,00:00:11.692,-0.01152323116548356
2924,00:00:11.696,-0.0288307153969072
2925,00:00:11.7,0.0251881033182144
2926,00:00:11.704,0.023108316760044538
2927,00:00:11.708,-0.015945489984005676
2928,00:00:11.712,-0.010203002253547309
2929,00:00:11.716,0.002474683569744271
2930,00:00:11.72,-0.0041131160687654916
2931,00:00:11.724,0.014345832867547922
2932,00:00:11.728,0.011180321453139231
2933,00:00:11.732,0.01369343091209883
2934,00:00:11.736,-0.01813986944034699
2935,00:00:11.74,-0.03683710296172648
2936,00:00:11.744,-0.00789577269461006
2937,00:00:11.748,0.029448530869558457
2938,00:00:11.752,0.02144525479525328
2939,00:00:11.756,0.0008179135620594007
2940,00:00:11.76,-0.013740722650254647
2941,00:00:11.764,-0.0063721277983859225
2942,00:00:11.768,-0.0065353649551980145
2943,00:00:11.772,0.01655100868083536
2944,00:00:11.776,-0.017434292298275977
2945,00:00:11.78,-0.00404521683230996
2946,00:00:11.784,0.01272542402148247
2947,00:00:11.788,0.00524170091375706
2948,00:00:11.792,-0.0031909104436636613
2949,00:00:11.796,0.01920858444646001
2950,00:00:11.8,-0.01669981423765416
2951,00:00:11.804,-0.006347879767417897
2952,00:00:11.808,-0.01661446318030353
2953,00:00:11.812,-0.004725066944956863
2954,00:00:11.816,0.0409872606396675
2955,00:00:11.82,0.0099202198907733
2956,00:00:11.824,-0.017238683998584678
2957,00:00:11.828,-0.02711762022227051
2958,00:00:11.832,0.005552249494940046
2959,00:00:11.836,0.02161414987494932
2960,00:00:11.84,-0.007733226986601961
2961,00:00:11.844,-0.02282480947906154
2962,00:00:11.848,0.01688185473904013
2963,00:00:11.852,0.022055005654692667
2964,00:00:11.856,0.005546993896132329
2965,00:00:11.86,-0.02134665288031097
2966,00:00:11.864,-0.02853014832362536
2967,00:00:11.868,0.0030687171965837505
2968,00:00:11.872,0.004035418853163747
2969,00:00:11.876,0.053678548429161324
2970,00:00:11.88,0.011118786409497296
2971,00:00:11.884,-0.029743948020040968
2972,00:00:11.888,-0.05654316837899384
2973,00:00:11.892,-0.030348489060997946
2974,00:00:11.896,0.1002689281012863
2975,00:00:11.9,0.017534407787025
2976,00:00:11.904,-0.05296459328383207
2977,00:00:11.908,-0.00021446123719207066
2978,00:00:11.912,0.012519295327365398
2979,00:00:11.916,-0.013559550279751443
2980,00:00:11.92,-0.0066625243052840614
2981,00:00:11.924,0.02530170488171284
2982,00:00:11.928,-0.0042053149081766605
2983,00:00:11.932,-0.0129748024046421
2984,00:00:11.936,-0.0002336185425520004
2985,00:00:11.94,0.010568771976977618
2986,00:00:11.944,-0.01035253354348243
2987,00:00:11.948,0.0002940682534244843
2988,00:00:11.952,0.00513613014481963
2989,00:00:11.956,0.008790392370428897
2990,00:00:11.96,0.02051876625046134
2991,00:00:11.964,-0.01584664988331497
2992,00:00:11.968,-0.04536772682331499
2993,00:00:11.972,0.01757724583148952
2994,00:00:11.976,0.004824360337806871
2995,00:00:11.98,-0.0019318765553180224
2996,00:00:11.984,0.031793873757123864
2997,00:00:11.988,-0.0004318163264542792
2998,00:00:11.992,-0.007618605624884367
2999,00:00:11.996,0.010320589062757811
3000,00:00:12,-0.03992854792159045
3001,00:00:12.004,-0.009140335023403171
3002,00:00:12.008,0.007849220652133239
3003,00:00:12.012,0.01484258554410185
3004,00:00:12.016,0.01612873212434355
3005,00:00:12.02,0.00474318210035562
3006,00:00:12.024,-0.0011067943414673183
3007,00:00:12.028,-0.006565134455740922
3008,00:00:12.032,-0.022276778705418106
3009,00:00:12.036,-0.0038939582154853304
3010,00:00:12.04,0.009379588998854159
3011,00:00:12.044,-0.017165942350402502
3012,00:00:12.048,0.05538936890661715
3013,00:00:12.052,-0.004832256119698328
3014,00:00:12.056,-0.0227911537513137
3015,00:00:12.06,-0.010868041310459401
3016,00:00:12.064,-0.01211808249354361
3017,00:00:12.068,0.011210066266357881
3018,00:00:12.072,0.01279398240149026
3019,00:00:12.076,0.00788892665877932
3020,00:00:12.08,0.01749324868433177
3021,00:00:12.084,-0.042814556509256335
3022,00:00:12.088,-0.02824929147027438
3023,00:00:12.092,0.058547493070364026
3024,00:00:12.096,0.0074558313935995085
3025,00:00:12.1,-0.009387538768351023
3026,00:00:12.104,-0.02909880224615334
3027,00:00:12.108,-0.010979360900819319
3028,00:00:12.112,0.024852495174855032
3029,00:00:12.116,0.0060060686919314755
3030,00:00:12.12,0.009513828903436659
3031,00:00:12.124,-0.01427383394911885
3032,00:00:12.128,-0.010045831859315523
3033,00:00:12.132,0.006137290038168429
3034,00:00:12.136,-0.0166356034460478
3035,00:00:12.14,-0.0015418145339935914
3036,00:00:12.144,0.0792730394750834
3037,00:00:12.148,-0.020892072468996062
3038,00:00:12.152,-0.04666192503646012
3039,00:00:12.156,-0.03223794465884565
3040,00:00:12.16,0.03255951730534435
3041,00:00:12.164,0.0217345471028239
3042,00:00:12.168,-0.038678064476698665
3043,00:00:12.172,0.008024314185604463
3044,00:00:12.176,0.05680081550963225
3045,00:00:12.18,0.006172752240672671
3046,00:00:12.184,-0.047386517748236656
3047,00:00:12.188,-0.02768457098864015
3048,00:00:12.192,0.007159311790019281
3049,00:00:12.196,0.025688427209388503
3050,00:00:12.2,0.015709381375927478
3051,00:00:12.204,-0.018340983428060974
3052,00:00:12.208,-0.0016788255306892002
3053,00:00:12.212,-0.0043411353835836
3054,00:00:12.216,0.010992814073688345
3055,00:00:12.22,0.0025537209585308595
3056,00:00:12.224,-0.028569889254868
3057,00:00:12.228,-8.268561214209123e-05
3058,00:00:12.232,0.05092505844368127
3059,00:00:12.236,-0.0012547777150756813
3060,00:00:12.24,-0.0200136196799576
3061,00:00:12.244,-0.027888995129615103
3062,00:00:12.248,0.00318218360189354
3063,00:00:12.252,0.0029498750809580114
3064,00:00:12.256,-0.014852890744805326
3065,00:00:12.26,0.06371478969231244
3066,00:00:12.264,0.010301806905772539
3067,00:00:12.268,-0.0314528981689364
3068,00:00:12.272,-0.044047522707842304
3069,00:00:12.276,-0.016020449111238122
3070,00:00:12.28,0.036873796023428516
3071,00:00:12.284,0.026972588617354583
3072,00:00:12.288,0.009662975789979131
3073,00:00:12.292,-0.01760504115372895
3074,00:00:12.296,-0.012700984021648761
3075,00:00:12.3,-0.012416568817570809
3076,00:00:12.304,-0.00670996448025107
3077,00:00:12.308,0.0015044873580336623
3078,00:00:12.312,0.03438249669852669
3079,00:00:12.316,0.01629993109963834
3080,00:00:12.32,0.0011851675808430065
3081,00:00:12.324,-0.04240475781261922
3082,00:00:12.328,-0.02062069508247075
3083,00:00:12.332,0.007656945817870997
3084,00:00:12.336,0.01617654715664689
3085,00:00:12.34,0.03754385840147731
3086,00:00:12.344,-0.01891071163117885
3087,00:00:12.348,0.00755355251021683
3088,00:00:12.352,-0.01586227864027017
3089,00:00:12.356,-0.026704722084105008
3090,00:00:12.36,-0.00878340378403664
3091,00:00:12.364,0.03854435961693529
3092,00:00:12.368,0.011975953355431522
3093,00:00:12.372,-0.008299357257783413
3094,00:00:12.376,0.004712430993095064
3095,00:00:12.38,-0.018509462941437998
3096,00:00:12.384,-0.01107335416600113
3097,00:00:12.388,0.00996058271266519
3098,00:00:12.392,0.011164412368088919
3099,00:00:12.396,-0.001703027868643462
3100,00:00:12.4,-0.05216326867230234
3101,00:00:12.404,0.0884539280086756
3102,00:00:12.408,-0.011998148169368478
3103,00:00:12.412,-0.028805623762309503
3104,00:00:12.416,-0.031405012123286696
3105,00:00:12.42,0.025810255378019103
3106,00:00:12.424,0.0004936084151268491
3107,00:00:12.428,0.026104855700395987
3108,00:00:12.432,-0.01236419496126481
3109,00:00:12.436,-0.02867586357751857
3110,00:00:12.44,0.04043925181031225
3111,00:00:12.444,-0.01861442765221005
3112,00:00:12.448,-0.02340282092336569
3113,00:00:12.452,0.013459795387461788
3114,00:00:12.456,0.02379907900467517
3115,00:00:12.46,0.0018723714165389603
3116,00:00:12.464,-0.0160053656436503
3117,00:00:12.468,-0.004854401107877491
3118,00:00:12.472,-0.007043498102575542
3119,00:00:12.476,-0.003726434995769524
