Elapsed Time,EMG1,EMG2,EMG3,BioRadio Event,
00:00:00,-0.0809554234147072,0.141153052449226,-0.564612209796906,0,
00:00:00.004,0.0770375728607178,-0.138473480939865,0.533136129379272,0,
00:00:00.008,0.0702670142054558,-0.111859835684299,0.438131660223007,0,
00:00:00.012,-0.00109724781941622,-0.0131070036441088,0.0798967182636261,0,
00:00:00.016,-0.0358174741268158,0.0833759009838104,-0.234820187091827,0,
00:00:00.02,-0.0410425402224064,0.0592127852141857,-0.297427326440811,0,
00:00:00.024,-0.0178356599062681,0.0407057069242001,-0.18439394235611,0,
00:00:00.028,-0.00335391447879374,-0.0189109276980162,0.00074154615867883,0,
00:00:00.032,0.0151887061074376,-0.0243865083903074,0.0853650718927383,0,
00:00:00.036,0.0121325990185142,-0.0139043107628822,0.0932932123541832,0,
00:00:00.04,0.0111328484490514,-0.00787518173456192,0.079496331512928,0,
00:00:00.044,0.00240582204423845,-0.00503771891817451,0.0411029495298862,0,
00:00:00.048,0.00229562423191965,0.000668662250973284,-0.00876784510910511,0,
00:00:00.052,-0.00714596640318632,0.00216559506952763,-0.0292161758989096,0,
00:00:00.056,-0.0018431399948895,0.0106786582618952,-0.0178537592291832,0,
00:00:00.06,-0.00989255215972662,-0.00376147264614701,-0.0344742126762867,0,
00:00:00.064,0.0083739347755909,0.00744609581306577,-0.00754486210644245,0,
00:00:00.068,0.00788678787648678,0.00534125557169318,0.0171591695398092,0,
00:00:00.072,-0.0109169203788042,-0.0216528717428446,-0.00256337248720229,0,
00:00:00.076,-0.0061995992437005,0.00402485160157084,0.0095248119905591,0,
00:00:00.08,0.0103998742997646,0.00773176411166787,0.00543881673365831,0,
00:00:00.084,0.000307430193061009,-0.0216753035783768,0.0225454457104206,0,
00:00:00.088,0.000895711535122246,0.0200129337608814,-0.0100152958184481,0,
00:00:00.092,-0.0001567036670167,0.00963144842535257,-0.0195980276912451,0,
00:00:00.096,0.0031277232337743,-0.0101989172399044,-0.00892576389014721,0,
00:00:00.1,-0.0113262347877026,-0.0180415567010641,0.00285515072755516,0,
00:00:00.104,0.00608650082722306,0.00333494110964239,0.0165754798799753,0,
00:00:00.108,0.00465924805030227,0.0308116413652897,0.00145778350997716,0,
00:00:00.112,-0.00471267104148865,0.00683469092473388,0.0111552281305194,0,
00:00:00.116,-0.00990520045161247,-0.0107780387625098,-0.0212115403264761,0,
00:00:00.12,0.00576453423127532,-0.0317544043064117,-0.0110669173300266,0,
00:00:00.124,0.00706836581230164,-0.00446446845307946,0.00417623016983271,0,
00:00:00.128,0.00295945047400892,0.0213246289640665,0.00672021228820086,0,
00:00:00.132,0.00300999451428652,0.0118709607049823,0.0126625597476959,0,
00:00:00.136,-0.0131955416873097,-0.00389181752689183,0.00790678430348635,0,
00:00:00.14,-5.19218956469558E-05,-0.000107937456050422,-0.0169477313756943,0,
00:00:00.144,0.00332886190153658,-0.0156338512897491,-0.00911878142505884,0,
00:00:00.148,0.00449649477377534,-0.00529709830880165,0.0191301759332418,0,
00:00:00.152,-0.00145082036033273,0.0162958987057209,-0.0122910365462303,0,
00:00:00.156,-0.00241462141275406,0.0101604219526052,-0.00511617539450526,0,
00:00:00.16,-0.00126988743431866,-0.00505964364856482,-0.00488598830997944,0,
00:00:00.164,-0.00195707753300667,-0.0073262588120997,0.00803619064390659,0,
00:00:00.168,0.00493486132472754,-0.00818734802305698,0.00646938849240541,0,
00:00:00.172,0.00058273138711229,-0.00442276289686561,0.00983209069818258,0,
00:00:00.176,0.00111953064333647,0.0134083544835448,0.00892866775393486,0,
00:00:00.18,-0.0050399829633534,0.0260184481739998,-0.0269521716982126,0,
00:00:00.184,-0.00427656574174762,-0.0111457286402583,-0.0108419777825475,0,
00:00:00.188,0.00754904421046376,-0.0326924957334995,0.024819802492857,0,
00:00:00.192,0.00471857795491815,-0.00293748988769948,-0.00127355160657316,0,
00:00:00.196,-0.00484491884708405,0.00260862288996577,-0.017967352643609,0,
00:00:00.2,-0.00176620134152472,0.0240055155009031,-0.00115625967737287,0,
00:00:00.204,0.00385180534794927,0.0380716994404793,0.0140040908008814,0,
00:00:00.208,0.000503439281601459,-0.0322999767959118,0.00239435886032879,0,
00:00:00.212,-0.0151100428774953,-0.0348124578595161,0.00755844777449965,0,
00:00:00.216,0.00250451755709946,-0.00387428537942469,0.00350039009936154,0,
00:00:00.22,0.012088606134057,0.0175917949527502,-0.0171003863215446,0,
00:00:00.224,0.00410890020430088,0.0305640734732151,-0.0171945560723543,0,
00:00:00.228,-0.00159551599062979,-0.0118316663429141,0.0146237909793854,0,
00:00:00.232,-0.00170714769046754,-0.0185107719153166,0.00626742700114846,0,
00:00:00.236,-0.00308674247935414,0.00547207938507199,-0.00453984178602695,0,
00:00:00.24,-0.00704390648752451,0.00503444671630859,0.00324268406257033,0,
00:00:00.244,-0.00156610715202987,-0.0168429892510176,0.00967880897223949,0,
00:00:00.248,0.00757496850565076,0.0459768176078796,-0.000902657629922032,0,
00:00:00.252,0.0091444319114089,-0.0106588089838624,-0.0144644975662231,0,
00:00:00.256,-0.0100483587011695,-0.0331717133522034,0.00824050605297089,0,
00:00:00.26,-0.0105341086164117,-0.0142770865932107,-0.0103549705818295,0,
00:00:00.264,0.011389521881938,0.00915281381458044,0.0105347828939557,0,
00:00:00.268,0.00875606760382652,0.0163410380482674,-0.00081528740702197,0,
00:00:00.272,-0.00580874737352133,0.0139640485867858,-0.00950230471789837,0,
00:00:00.276,0.00303114717826247,0.0117003032937646,-0.00420494237914681,0,
00:00:00.28,-0.0068021472543478,-0.0109291095286608,0.013090024702251,0,
00:00:00.284,0.00177092966623604,-0.0164803341031075,0.0147758405655622,0,
00:00:00.288,-0.00561710773035884,-0.0125405080616474,-0.0166389103978872,0,
00:00:00.292,-0.00388290523551404,0.00287637393921614,-0.0027581830509007,0,
00:00:00.296,0.00882470328360796,0.0403667390346527,0.0119993854314089,0,
00:00:00.3,0.00606925180181861,-0.0132838888093829,-0.0102145401760936,0,
00:00:00.304,-0.00196790462359786,-0.0416095480322838,-0.00977831985801458,0,
00:00:00.308,-0.00571742188185453,0.00572733813896775,0.00438357191160321,0,
00:00:00.312,0.00172704213764518,0.0249154157936573,0.00496182451024652,0,
00:00:00.316,0.00135006045456976,0.00345300114713609,0.0103147458285093,0,
00:00:00.32,0.00367333041504025,0.0043572043068707,-0.0144291464239359,0,
00:00:00.324,-0.0136157097294927,-0.0098304720595479,0.012872795574367,0,
00:00:00.328,0.00353712379001081,0.00862319953739643,0.0022394210100174,0,
00:00:00.332,-0.000269229320110753,-0.00486748013645411,0.00144257175270468,0,
00:00:00.336,0.00670606456696987,-0.015436103567481,-0.0120309256017208,0,
00:00:00.34,0.00426258612424135,0.00614503817632794,-0.0210165437310934,0,
00:00:00.344,-0.000144540739711374,0.00286096078343689,0.0110787404701114,0,
00:00:00.348,-0.000788521079812199,-0.00443965848535299,0.00405523227527738,0,
00:00:00.352,-0.00927573069930077,0.000780429632868618,0.0207850467413664,0,
00:00:00.356,0.00253533036448061,0.0132806561887264,0.00295166112482548,0,
00:00:00.36,0.00299731059931219,0.0136130265891552,-0.00976351462304592,0,
00:00:00.364,0.000543610251042992,-0.0119862509891391,-0.00970680639147758,0,
00:00:00.368,-0.00535325706005096,-0.0289574060589075,-0.002328563015908,0,
00:00:00.372,0.00249924347735941,0.00695072906091809,0.000928438559640199,0,
00:00:00.376,-0.00367237534373999,0.0148844830691814,-0.0063461447134614,0,
00:00:00.38,0.00437206774950027,0.00076003058347851,0.00342886196449399,0,
00:00:00.384,0.00800098013132811,-0.00207506562583148,0.0176691971719265,0,
00:00:00.388,-0.00524466019123793,-0.00529832905158401,-0.000118826879770495,0,
00:00:00.392,-0.000816965417470783,0.0185885764658451,-0.00850993860512972,0,
00:00:00.396,-0.00293559697456658,-0.00163150287698954,-0.00591506808996201,0,
00:00:00.4,-0.0055142343044281,-0.020692715421319,-0.00301414122804999,0,
00:00:00.404,0.00246592471376061,-0.0116851646453142,0.00845616776496172,0,
00:00:00.408,0.0109420958906412,0.0166787467896938,0.0110622625797987,0,
00:00:00.412,-0.00266220537014306,0.0127251204103231,-0.0214791893959045,0,
00:00:00.416,0.00195867102593184,-0.00276759453117847,0.00491456408053637,0,
00:00:00.42,-0.00775719620287418,-0.0228203628212214,0.0198050402104855,0,
00:00:00.424,-0.00226333434693515,0.0200828537344933,-0.0158068146556616,0,
00:00:00.428,0.00115509470924735,0.00459862779825926,-0.0123627763241529,0,
00:00:00.432,0.0043587670661509,-0.00977137498557568,0.00825912225991488,0,
00:00:00.436,-0.00225153053179383,-0.00769091350957751,-0.00434921821579337,0,
00:00:00.44,0.00101657072082162,0.00527215749025345,0.00980347115546465,0,
00:00:00.444,0.00326020573265851,0.016713410615921,0.00712099811062217,0,
00:00:00.448,-0.00168132944963872,-0.00719063449651003,0.000343273277394474,0,
00:00:00.452,-0.00212939875200391,-0.00300984969362617,0.00413426384329796,0,
00:00:00.456,-0.00299970852211118,-0.0116754528135061,-0.0107163852080703,0,
00:00:00.46,0.00641136290505528,0.000785624317359179,-0.0219318065792322,0,
00:00:00.464,-0.00146892410703003,0.000946992600802332,0.00913859345018864,0,
00:00:00.468,-0.00442930497229099,0.00420854054391384,0.0107439868152142,0,
00:00:00.472,-0.00303179235197604,0.0111045120283961,0.00603365572169423,0,
00:00:00.476,0.0103328246623278,0.00732959201559424,0.000533805519808084,0,
00:00:00.48,-0.00350775709375739,-0.0168004631996155,-0.000740326824598014,0,
00:00:00.484,0.00105585576966405,-0.00864239316433668,0.000806560856290162,0,
00:00:00.488,0.00465271202847362,0.00920941587537527,-0.0181189682334661,0,
00:00:00.492,-0.00689821178093553,0.00198941747657955,-0.00188582867849618,0,
00:00:00.496,-0.00065371353412047,0.0178517438471317,0.0115548865869641,0,
00:00:00.5,-0.00381462322548032,-0.0231019835919142,0.0190863907337189,0,
00:00:00.504,0.00191049533896148,-0.0196595620363951,-0.00825992599129677,0,
00:00:00.508,0.00303291785530746,0.0180600881576538,-0.00957082211971283,0,
00:00:00.512,0.00394681841135025,0.00503331003710628,-0.00966142956167459,0,
00:00:00.516,-0.0017315213335678,-4.69077212983393E-06,0.00131545320618898,0,
00:00:00.52,-0.00246719270944595,0.00951561518013477,0.00163324933964759,0,
00:00:00.524,-0.00332748214714229,-0.0100762229412794,0.00500245997682214,0,
00:00:00.528,5.07114373249351E-06,-0.00977135170251131,0.00954040698707104,0,
00:00:00.532,0.0127395950257778,0.0412769354879856,0.0155853228643537,0,
00:00:00.536,-0.00110165064688772,-0.0124536389485002,-0.0338419303297997,0,
00:00:00.54,-0.0190507471561432,-0.033123817294836,-0.00403764052316546,0,
00:00:00.544,0.0041095488704741,-0.0175576433539391,0.0297089386731386,0,
00:00:00.548,-0.000549759017303586,0.0202412847429514,0.0106996223330498,0,
00:00:00.552,0.0035291058011353,0.0142338071018457,-0.0294275488704443,0,
00:00:00.556,0.0160414129495621,0.0115612344816327,-0.0188444759696722,0,
00:00:00.56,0.000478633301099762,0.00523704849183559,0.0034517883323133,0,
00:00:00.564,-0.00497291050851345,-0.0103971799835563,0.0152681078761816,0,
00:00:00.568,-0.00936019606888294,-0.00924093835055828,0.00782068911939859,0,
00:00:00.572,-0.00344906677491963,-0.00135598867200315,0.00761200953274965,0,
00:00:00.576,-0.00208272645249963,-0.00703724147751927,0.00230131368152797,0,
00:00:00.58,0.00164457934442908,-0.0157032031565905,-0.00519698578864336,0,
00:00:00.584,-0.00256456667557359,0.0058599621988833,-0.00995789933949709,0,
00:00:00.588,0.00922437850385904,0.0522040314972401,-0.0100276935845613,0,
00:00:00.592,0.00857335422188044,0.00382612133398652,0.00173339177854359,0,
00:00:00.596,-0.00165089219808578,-0.0339154191315174,0.0128366379067302,0,
00:00:00.6,-0.00746517395600677,-0.0322926305234432,0.00411248346790671,0,
00:00:00.604,0.00154554739128798,0.00281521654687822,-0.00839005783200264,0,
00:00:00.608,-3.59866207872983E-05,0.036126397550106,-0.000414360198192298,0,
00:00:00.612,-0.0126955034211278,0.000272124540060759,0.00160088937263936,0,
00:00:00.616,0.00531411170959473,-0.0200847908854485,-0.00306383543647826,0,
00:00:00.62,0.00497520109638572,0.0236172899603844,0.0143897365778685,0,
00:00:00.624,0.00292967050336301,-0.00635756645351648,-0.00301386299543083,0,
00:00:00.628,-0.00148396519944072,-0.00999837554991245,-0.0186782293021679,0,
00:00:00.632,-0.00109098176471889,-0.0146325938403606,-0.00651648733764887,0,
00:00:00.636,0.00213553803041577,0.0239485558122396,0.0209514982998371,0,
00:00:00.64,0.00483688525855541,0.00882262829691172,-0.0111933080479503,0,
00:00:00.644,-0.00506246974691749,-0.0278652980923653,0.0209512934088707,0,
00:00:00.648,-0.00916073378175497,0.0137615697458386,-0.0001718299172353,0,
00:00:00.652,0.00444144802168012,0.0168356988579035,-0.0130927320569754,0,
00:00:00.656,0.00268992455676198,-0.0221275202929974,-0.00655975937843323,0,
00:00:00.66,-0.0008681426406838,-0.0141537860035896,0.00363214127719402,0,
00:00:00.664,0.00210045487619936,0.00859193783253431,-0.00315460003912449,0,
00:00:00.668,-0.00088177400175482,-0.000771830789744854,4.61885101685766E-05,0,
00:00:00.672,0.00574638973921537,0.0138735761865973,0.00338309654034674,0,
00:00:00.676,-0.00352930696681142,0.0321992300450802,-0.00232905964367092,0,
00:00:00.68,-0.00424909871071577,-0.0153009966015816,0.0247380267828703,0,
00:00:00.684,-0.00174284749664366,-0.0236436314880848,-0.0108968699350953,0,
00:00:00.688,-0.00133805035147816,-0.0197168383747339,-0.0141050210222602,0,
00:00:00.692,0.00383651256561279,-0.0047503774985671,-0.00161491811741143,0,
00:00:00.696,0.00536738615483046,0.0142502225935459,-0.00156791275367141,0,
00:00:00.7,-0.00104051153175533,0.0401558913290501,0.00469166273251176,0,
00:00:00.704,-0.00261157774366438,-0.00738468766212463,0.00478880107402802,0,
00:00:00.708,-0.00596602074801922,-0.0316426679491997,-0.00192160590086132,0,
00:00:00.712,0.00559874065220356,0.0239945854991674,0.00772749586030841,0,
00:00:00.716,0.00394393689930439,0.00087769643869251,-0.00656362157315016,0,
00:00:00.72,-0.00655709905549884,-0.0246654897928238,-0.00282627576962113,0,
00:00:00.724,-0.00307444809004664,-0.00844234228134155,0.00844723638147116,0,
00:00:00.728,0.0122792962938547,0.0111319571733475,-0.0044023310765624,0,
00:00:00.732,0.000256087543675676,0.00855788961052895,-0.0010134419426322,0,
00:00:00.736,-0.0111787132918835,0.00404850021004677,-0.00359239685349166,0,
00:00:00.74,0.00532459933310747,0.0168833713978529,-0.00797322299331427,0,
00:00:00.744,-0.00313337496481836,0.00122081837616861,-0.00577758206054568,0,
00:00:00.748,-0.0104750962927938,-0.0473118387162685,0.0230063963681459,0,
00:00:00.752,0.00655831024050713,0.0069253952242434,0.00633457535877824,0,
00:00:00.756,0.0150436097756028,0.0626921802759171,0.00864776875823736,0,
00:00:00.76,0.000573822937440127,-0.025305176153779,-0.0187823418527842,0,
00:00:00.764,-0.00756615772843361,-0.0456354655325413,-0.0254889279603958,0,
00:00:00.768,-0.00149665866047144,0.00126818649005145,0.0111474553123116,0,
00:00:00.772,-0.00311715807765722,0.0108504230156541,0.0186564773321152,0,
00:00:00.776,-0.00132115301676095,0.0228036735206842,-0.00808879546821117,0,
00:00:00.78,0.00286016566678882,0.00674322620034218,-0.00563918799161911,0,
00:00:00.784,-0.00225299852900207,-0.0136365387588739,0.0123246554285288,0,
00:00:00.788,0.00402436312288046,0.00512203946709633,-0.000138897114084102,0,
00:00:00.792,-0.00387711497023702,0.00466842949390411,0.00272984104231,0,
00:00:00.796,0.00534023670479655,0.00310182222165167,-0.0128274327144027,0,
00:00:00.8,0.00284320977516472,-0.0192747134715319,0.00432901037856936,0,
00:00:00.804,-0.0054993168450892,-0.0131559064611793,0.00351043348200619,0,
00:00:00.808,0.000642279977910221,-1.52540678755031E-05,-0.0132543006911874,0,
00:00:00.812,-0.00156481843441725,0.00663357740268111,-0.00570561364293098,0,
00:00:00.816,-0.000762470299378037,0.0286942627280951,0.0315071307122707,0,
00:00:00.82,-0.00160464050713927,0.0171433016657829,0.00194121373351663,0,
00:00:00.824,0.00303575675934553,-0.0291462857276201,-0.0131805958226323,0,
00:00:00.828,0.00463174236938357,-0.0178048703819513,-0.00724638672545552,0,
00:00:00.832,-0.00556182768195868,-0.000140209856908768,-0.0160312075167894,0,
00:00:00.836,0.00134512002114207,0.0198975689709187,-0.00099968200083822,0,
00:00:00.84,0.00584444310516119,0.0101652787998319,0.011089394800365,0,
00:00:00.844,-0.00169474282301962,-0.0177412610501051,0.0295736528933048,0,
00:00:00.848,-0.00622351374477148,-0.020794240757823,0.00619478337466717,0,
00:00:00.852,-0.00730684213340282,0.00579327857121825,-0.0288189835846424,0,
00:00:00.856,0.00270256516523659,0.0121118351817131,-0.00932295620441437,0,
00:00:00.86,0.0101956371217966,0.0105846812948585,0.00379736325703561,0,
00:00:00.864,0.00270637823268771,0.0128726363182068,-0.00879437290132046,0,
00:00:00.868,-0.0018545628990978,-0.00309456838294864,0.0275380313396454,0,
00:00:00.872,0.000913933268748224,-0.012981653213501,-0.00415043951943517,0,
00:00:00.876,-0.006391866132617,-0.00391063513234258,-0.0105559434741735,0,
00:00:00.88,-0.0124322390183806,-0.00897529348731041,-0.00372829404659569,0,
00:00:00.884,0.00802341941744089,-0.00640180567279458,0.0256888717412949,0,
00:00:00.888,0.0113774752244353,-0.00208482402376831,-0.00427124509587884,0,
00:00:00.892,0.00171812681946903,0.0238461177796125,-0.0243772678077221,0,
00:00:00.896,0.00293414224870503,0.0239495541900396,-0.00279459077864885,0,
00:00:00.9,-0.0142178367823362,-0.028862027451396,-0.00491548236459494,0,
00:00:00.904,-0.00354497088119388,-0.0157973561435938,0.00355201680213213,0,
00:00:00.908,0.00438801478594542,0.0239427853375673,0.0194283965975046,0,
00:00:00.912,-0.00637241033837199,-0.00779449380934238,0.0173222199082375,0,
00:00:00.916,0.0111759705469012,-0.00842597614973783,-0.00310101802460849,0,
00:00:00.92,0.0115444418042898,0.0158342830836773,-0.0359767861664295,0,
00:00:00.924,-0.0108031341806054,-0.0194196589291096,0.0343463122844696,0,
00:00:00.928,-0.00682268338277936,0.00644649332389236,-0.0154713895171881,0,
00:00:00.932,-0.00104777852538973,0.0105762332677841,-0.0272055268287659,0,
00:00:00.936,0.00874979142099619,0.00289035472087562,0.0023029197473079,0,
00:00:00.94,-0.000669202825520188,-0.0225636195391417,0.021589620038867,0,
00:00:00.944,-0.00495276181027293,0.0140056107193232,0.00412693619728088,0,
00:00:00.948,0.00637459522113204,0.021296501159668,0.0197416413575411,0,
00:00:00.952,-0.00648131407797337,-0.0271921139210463,-0.00246741948649287,0,
00:00:00.956,-0.00597046921029687,-0.00834173709154129,-0.0223459601402283,0,
00:00:00.96,0.00742301438003778,7.08998704794794E-05,-0.0180225633084774,0,
00:00:00.964,0.00368470093235374,0.0225650873035192,0.00593628035858274,0,
00:00:00.968,-0.00163883005734533,0.00370557932183146,0.0178151857107878,0,
00:00:00.972,0.00267819873988628,-0.0120578473433852,0.00194545777048916,0,
00:00:00.976,-0.00204470730386674,-0.00557450484484434,-0.00312666199170053,0,
00:00:00.98,-0.00673696724697948,0.000338289828505367,-0.00720903370529413,0,
00:00:00.984,0.00265617482364178,0.0134921791031957,0.00262265978381038,0,
00:00:00.988,0.00344173773191869,-0.00689637428149581,0.00556823518127203,0,
00:00:00.992,0.00545902922749519,-0.0172196570783854,-0.000729128601960838,0,
00:00:00.996,-0.00879750866442919,0.0128506189212203,0.00370700564235449,0,
00:00:01,-0.000822590081952512,0.0218044854700565,-0.00573425320908427,0,
00:00:01.004,-0.000345729669788852,-0.0144026968628168,-0.0136499153450131,0,
00:00:01.008,0.00773493153974414,-0.00544476974755526,-0.00609951093792915,0,
00:00:01.012,0.000389550434192643,-0.0170007720589638,0.0222016219049692,0,
00:00:01.016,-0.00738298753276467,-0.00157263677101582,0.0198013950139284,0,
00:00:01.02,-0.0055915373377502,0.0361056514084339,-0.0240624230355024,0,
00:00:01.024,0.00558202248066664,0.0144512662664056,0.00714343041181564,0,
00:00:01.028,0.0117530003190041,-0.0275856759399176,0.000943755730986595,0,
00:00:01.032,-0.00621518818661571,-0.025603985413909,-0.0202036704868078,0,
00:00:01.036,-0.00644019385799766,-0.00546623859554529,-0.00322873168624938,0,
00:00:01.04,0.000488617632072419,0.022851848974824,0.00963709596544504,0,
00:00:01.044,0.00230012368410826,0.0176425911486149,0.00975477509200573,0,
00:00:01.048,0.0058183278888464,0.00767579628154635,-0.00386102707125247,0,
00:00:01.052,-0.00354241789318621,-0.012701272033155,0.00907563604414463,0,
00:00:01.056,-0.00793389789760113,-0.0231319330632687,0.0175347216427326,0,
00:00:01.06,0.00490112928673625,-0.00370141374878585,-0.026618480682373,0,
00:00:01.064,0.00243207765743136,0.0427553914487362,-0.0210889596492052,0,
00:00:01.068,-0.00148318568244576,-0.0195913575589657,0.0142002394422889,0,
00:00:01.072,0.00151362491305918,-0.0149382157251239,0.00742865679785609,0,
00:00:01.076,-0.00121333706192672,-0.00209094793535769,0.00927979871630669,0,
00:00:01.08,0.00154919200576842,0.00642234226688743,-0.0202252771705389,0,
00:00:01.084,-0.00151542818639427,0.0182770192623138,-0.000607895839493722,0,
00:00:01.088,0.0032727459911257,0.00310742924921215,0.0422880910336971,0,
00:00:01.092,0.00463955383747816,-0.0199208948761225,-0.0164874643087387,0,
00:00:01.096,-0.0124442484229803,-0.00401318911463022,-0.0264396108686924,0,
00:00:01.1,-0.00429038144648075,0.030569851398468,-0.00515490677207708,0,
00:00:01.104,0.00695155933499336,-0.0186378285288811,0.00928893685340881,0,
00:00:01.108,0.00141478481236845,-0.0306484550237656,0.00377797544933856,0,
00:00:01.112,0.00498269638046622,0.00429739709943533,0.0336701162159443,0,
00:00:01.116,0.00115025951527059,0.0258844159543514,-0.0193002223968506,0,
00:00:01.12,-0.00870505627244711,0.0132013857364655,-0.0250866785645485,0,
00:00:01.124,0.00244445656426251,-0.0090820686891675,-0.0107509903609753,0,
00:00:01.128,0.00260192505083978,-0.0107759889215231,0.0212532784789801,0,
00:00:01.132,-0.00405926676467061,-0.0108801238238811,0.0192636400461197,0,
00:00:01.136,0.00655799871310592,0.0592922493815422,-0.0110203586518764,0,
00:00:01.14,-0.00643728580325842,-0.0235021021217108,0.0118860714137554,0,
00:00:01.144,-0.00387392961420119,-0.0440440289676189,0.00502400565892458,0,
00:00:01.148,0.00335919135250151,-0.00948730111122131,-0.0310629885643721,0,
00:00:01.152,0.00396398734301329,0.0126557145267725,-0.0164639502763748,0,
00:00:01.156,-0.000250550277996808,0.00995466019958258,0.0113220559433103,0,
00:00:01.16,-0.000523993629030883,0.0265951659530401,0.0140181602910161,0,
00:00:01.164,0.00619891611859202,0.00993064977228642,0.015676511451602,0,
00:00:01.168,-0.00366134848445654,-0.0142151741310954,-0.0075893048197031,0,
00:00:01.172,-0.00268772454001009,-0.015455455519259,-0.00380449625663459,0,
00:00:01.176,-0.00422172201797366,0.00501783471554518,0.00622587185353041,0,
00:00:01.18,-0.00530282547697425,-0.0193532109260559,-0.00277281831949949,0,
00:00:01.184,0.00567127205431461,0.0114706177264452,-0.0108208553865552,0,
00:00:01.188,0.00597967114299536,0.00490454630926251,-0.00753453886136413,0,
00:00:01.192,0.00236179702915251,-0.0102772125974298,0.00358237372711301,0,
00:00:01.196,-0.00311544956639409,0.0312573201954365,0.0048104589805007,0,
00:00:01.2,-0.000572318560443819,-0.0143546182662249,0.0195431299507618,0,
00:00:01.204,0.00147465360350907,-0.00432603759691119,-0.0190029200166464,0,
00:00:01.208,-0.00490123452618718,-0.0168106313794851,-0.00520261889323592,0,
00:00:01.212,0.00381301902234554,0.00800392683595419,0.0140908118337393,0,
00:00:01.216,-0.00061523518525064,0.0188770070672035,-0.00390579970553517,0,
00:00:01.22,-0.00816055480390787,0.013418173417449,0.0122216427698731,0,
00:00:01.224,0.00257640797644854,-0.0423968359827995,-0.0162589214742184,0,
00:00:01.228,0.00479354988783598,0.00387051631696522,-0.0109071638435125,0,
00:00:01.232,0.00499710161238909,0.0130719924345613,0.0114529505372047,0,
00:00:01.236,0.000346259330399334,-0.00076149363303557,-0.00814619939774275,0,
00:00:01.24,-0.00715869292616844,0.00165766244754195,0.0014934279024601,0,
00:00:01.244,-0.00579551281407475,-1.40256670420058E-05,0.0305359773337841,0,
00:00:01.248,0.00507774483412504,-0.00747472187504172,0.00417418358847499,0,
00:00:01.252,0.00297379656694829,0.0255517661571503,-0.0350702367722988,0,
00:00:01.256,0.0056020924821496,0.00360429007560015,-0.001859454321675,0,
00:00:01.26,-0.00379606941714883,-0.0268425233662128,-0.00224538589827716,0,
00:00:01.264,0.000170712373801507,-0.0178118422627449,0.00404774164780974,0,
00:00:01.268,-0.00112173694651574,0.0248626358807087,0.0135142765939236,0,
00:00:01.272,-0.00632006069645286,-0.0124712632969022,-0.00204232148826122,0,
00:00:01.276,-0.00194342061877251,-0.017390601336956,-0.000701734388712794,0,
00:00:01.28,0.00675913318991661,0.0631158575415611,-8.94883487490006E-05,0,
00:00:01.284,0.00640004267916083,0.0133583229035139,0.00395891303196549,0,
00:00:01.288,-0.0041790003888309,-0.0489531420171261,0.0059183263219893,0,
00:00:01.292,-0.00650010351091623,-0.0399916842579842,-0.0200553759932518,0,
00:00:01.296,-0.00150035426486284,-0.00829864107072353,0.00924961641430855,0,
00:00:01.3,0.00271012051962316,0.0415046475827694,-0.0105825243517756,0,
00:00:01.304,0.00585486134514213,0.0484721846878529,0.00086159905185923,0,
00:00:01.308,0.00460782833397388,-0.0157435834407806,0.0166033543646336,0,
00:00:01.312,-0.00110245263203979,-0.0256833881139755,-0.0102873174473643,0,
00:00:01.316,-0.00859646406024694,-0.00568265980109572,-0.00184171018190682,0,
00:00:01.32,-0.00444097584113479,-0.0017203155439347,0.00106701976619661,0,
00:00:01.324,0.00526660727337003,-0.00485289003700018,0.0202515237033367,0,
00:00:01.328,-6.83080215821974E-05,0.00461816275492311,0.00414325203746557,0,
00:00:01.332,0.00234776712022722,0.00742115918546915,-0.0235829949378967,0,
00:00:01.336,0.00341321900486946,0.00935257598757744,-0.0194753762334585,0,
00:00:01.34,-0.00845832098275423,-0.00271262717433274,0.00826823245733976,0,
00:00:01.344,0.00521872052922845,-0.00720458431169391,-0.00148005015216768,0,
00:00:01.348,0.00579632120206952,-0.00134537043049932,0.031880471855402,0,
00:00:01.352,-0.00480619445443153,0.00923520978540182,0.00441136443987489,0,
00:00:01.356,-0.00494453310966492,-0.00464251358062029,-0.012487780302763,0,
00:00:01.36,-0.00573142804205418,-0.00586514687165618,-0.0272472631186247,0,
00:00:01.364,0.0073731797747314,-0.00643936451524496,-0.000347279448760673,0,
00:00:01.368,0.00996864959597588,0.0155969737097621,0.0349688678979874,0,
00:00:01.372,-0.013599724508822,-0.0162151623517275,0.00277599808759987,0,
00:00:01.376,0.00182166474405676,-0.00393403368070722,-0.026341687887907,0,
00:00:01.38,0.00862309336662292,0.0390096008777618,-0.00675484584644437,0,
00:00:01.384,0.000278957420960069,0.0184412244707346,0.00110978120937943,0,
00:00:01.388,-0.0100185312330723,-0.0557731352746487,0.029026173055172,0,
00:00:01.392,0.00207772641442716,-0.0299867298454046,-0.00875266082584858,0,
00:00:01.396,0.0010329649085179,0.011150018312037,-0.00735767977312207,0,
00:00:01.4,0.00079245981760323,0.0320012867450714,-0.0116740642115474,0,
00:00:01.404,0.00889305491000414,0.0205936413258314,0.0184073746204376,0,
00:00:01.408,-0.0159208960831165,6.88518557581119E-05,-0.00351952575147152,0,
00:00:01.412,-0.0049159754998982,-0.00798985175788403,-0.00983739178627729,0,
00:00:01.416,0.0178038310259581,-0.0087454067543149,0.0147259449586272,0,
00:00:01.42,-0.00131721759680659,-0.0141594847664237,-0.00671351328492165,0,
00:00:01.424,0.00220081419683993,-0.000475680717499927,-0.0148951997980475,0,
00:00:01.428,-0.00339742074720562,0.00063168874476105,0.0258078649640083,0,
00:00:01.432,-0.00193307304289192,0.0213036239147186,-0.00992477498948574,0,
00:00:01.436,-0.0103373788297176,-0.0141546986997128,-0.0142838004976511,0,
00:00:01.44,0.00227076723240316,-0.0178555101156235,0.0111749619245529,0,
00:00:01.444,0.0101708471775055,0.0289139933884144,0.0068977982737124,0,
00:00:01.448,0.00674203597009182,0.0159594248980284,-0.00179132714401931,0,
00:00:01.452,-0.00385997630655766,-0.00983555894345045,0.00255414703860879,0,
00:00:01.456,-0.0105893006548285,-0.0162631403654814,-0.0166041906923056,0,
00:00:01.46,-0.00234276661649346,-0.0252004861831665,0.00671689305454493,0,
00:00:01.464,0.00664475513622165,0.00797520577907562,0.00298318336717784,0,
00:00:01.468,-0.00438171066343784,0.00565332965925336,0.00947246421128511,0,
00:00:01.472,0.00118122214917094,0.027058245614171,-0.013937278650701,0,
00:00:01.476,0.0076942821033299,-0.00770110916346312,-0.00925736594945192,0,
00:00:01.48,0.00513039948418736,0.00833932682871819,0.0220286678522825,0,
00:00:01.484,-0.00838825292885304,-0.000201449540327303,0.000202353097847663,0,
00:00:01.488,-0.00831210147589445,-0.0149817084893584,-0.0102773923426867,0,
00:00:01.492,0.0034997183829546,-0.0144751993939281,-0.00504550104960799,0,
00:00:01.496,0.0027843564748764,-0.00746514135971665,0.0162300541996956,0,
00:00:01.5,0.00838904082775116,0.0183549169450998,-0.00289383460767567,0,
00:00:01.504,-0.00486905546858907,0.0170847792178392,-0.0135051077231765,0,
00:00:01.508,-0.000873238430358469,0.0117860902100801,-0.0110463136807084,0,
00:00:01.512,-0.00115416443441063,-0.0168886557221413,0.0206784456968308,0,
00:00:01.516,-0.00359450583346188,-0.0204419065266848,0.0172284338623285,0,
00:00:01.52,-0.00943090114742517,-0.00794720090925694,-0.0117351254448295,0,
00:00:01.524,0.0114233838394284,0.0149073638021946,-0.0153014454990625,0,
00:00:01.528,0.0111236581578851,0.010644756257534,-0.00104833499062806,0,
00:00:01.532,-0.00515956757590175,-0.000874788616783917,-0.0103254644200206,0,
00:00:01.536,-0.00219422671943903,-0.00661088153719902,0.0263990648090839,0,
00:00:01.54,-0.00439870869740844,0.0131173683330417,-0.000440426782006398,0,
00:00:01.544,0.00198385864496231,0.0141256218776107,-0.013873222284019,0,
00:00:01.548,-0.00340268993750215,-0.0334944352507591,0.0317727252840996,0,
00:00:01.552,-0.0054735648445785,-0.0129156056791544,-0.0148994820192456,0,
00:00:01.556,0.00548959849402308,0.0134217599406838,-0.0188801251351833,0,
00:00:01.56,0.0017961235716939,0.00660714646801353,-0.0115303546190262,0,
00:00:01.564,0.00634007854387164,0.0163314025849104,0.00569151854142547,0,
00:00:01.568,0.00431605568155646,0.00442575616762042,0.00762964971363544,0,
00:00:01.572,0.00199796562083066,-0.0259140599519014,0.0172923356294632,0,
00:00:01.576,-0.0178144313395023,-0.0181885175406933,0.0211136136204004,0,
00:00:01.58,0.00181119167245924,0.011783235706389,-0.0311224162578583,0,
00:00:01.584,0.000151308937347494,0.0139435101300478,-0.0112325800582767,0,
00:00:01.588,-0.000621464976575226,0.0064194779843092,0.00496375374495983,0,
00:00:01.592,0.00428706174716353,0.00946232210844755,0.0057998332194984,0,
00:00:01.596,0.00357875251211226,-0.00384019408375025,-0.00817976053804159,0,
00:00:01.6,0.00100444641429931,-0.0138039188459516,-0.0033924572635442,0,
00:00:01.604,-0.00109758879989386,-0.014644687063992,0.018228005617857,0,
00:00:01.608,0.000213145569432527,0.00362971005961299,0.0135888578370214,0,
00:00:01.612,-0.00345454388298094,0.0220366176217794,-0.0176929105073214,0,
00:00:01.616,-0.000156782902195118,-0.000247250107349828,-0.000893631717190146,0,
00:00:01.62,-0.00817777868360281,-0.00933960173279047,-0.00667893094941974,0,
00:00:01.624,0.00363997812382877,0.000164338009199128,-0.00691044330596924,0,
00:00:01.628,0.0103953741490841,-0.0208453424274921,0.016382684931159,0,
00:00:01.632,0.00613601598888636,0.0389812476933002,-0.0024138034787029,0,
00:00:01.636,-0.00265214592218399,-0.0049467165954411,-0.0147359799593687,0,
00:00:01.64,-0.0173825491219759,-0.0422137528657913,0.0108226211741567,0,
00:00:01.644,-0.000304307177430019,0.018159169703722,0.0120511027052999,0,
00:00:01.648,0.00359908933751285,0.0229110587388277,-0.00645970040932298,0,
00:00:01.652,0.00921171903610229,-0.0105896294116974,0.00404184870421886,0,
00:00:01.656,0.00598821369931102,0.00984847545623779,-0.00503165787085891,0,
00:00:01.66,-0.00599520374089479,-0.00913646630942822,-0.0181649290025234,0,
00:00:01.664,-0.00827274471521378,-0.00456518912687898,-0.00109501299448311,0,
00:00:01.668,0.00172000378370285,-0.00833296589553356,0.0288194660097361,0,
00:00:01.672,0.000825771247036755,-0.00465201726183295,0.0080602141097188,0,
00:00:01.676,0.00114327284973115,0.0076010380871594,-0.0142757901921868,0,
00:00:01.68,-0.000895418517757207,0.0202948302030563,-0.0172423906624317,0,
00:00:01.684,0.002707130741328,-0.00195542816072702,0.0100916279479861,0,
00:00:01.688,0.00382868689484894,-0.00368758104741573,-0.0158489551395178,0,
00:00:01.692,-0.00629757018759847,-0.0202102661132813,0.0245199296623468,0,
00:00:01.696,-0.00110921578016132,0.0172367431223392,-0.00382663053460419,0,
00:00:01.7,0.00158700416795909,-0.000673698610626161,-0.0127583611756563,0,
00:00:01.704,0.0040136743336916,0.00136459129862487,0.00841338839381933,0,
00:00:01.708,0.00733582256361842,-0.0213315486907959,0.00544827990233898,0,
00:00:01.712,-0.00758410803973675,0.00911624077707529,-0.00135950883850455,0,
00:00:01.716,-0.0136601012200117,0.0176026299595833,0.0078983074054122,0,
00:00:01.72,0.00572879612445831,-0.0121338311582804,0.00108004885260016,0,
00:00:01.724,0.00508436188101768,0.00248543219640851,-0.0286462511867285,0,
00:00:01.728,0.00262871664017439,-0.00357974553480744,0.00588853424414992,0,
00:00:01.732,-0.00185000360943377,-0.000888709153514355,0.00442970264703035,0,
00:00:01.736,0.00289588537998497,0.0186940915882587,-0.0118731558322906,0,
00:00:01.74,0.000347628461895511,-0.00263834488578141,0.0298703890293837,0,
00:00:01.744,-0.00226362817920744,-0.0213768426328897,0.00478931702673435,0,
00:00:01.748,-0.00899493601173162,-0.0179575812071562,-0.00318328384310007,0,
00:00:01.752,-0.00191071792505682,0.0125918062403798,-0.0153156239539385,0,
00:00:01.756,0.0108359111472964,0.0196547526866198,-0.015316623263061,0,
00:00:01.76,0.00859653763473034,0.0390459559857845,0.0206973552703857,0,
00:00:01.764,-0.00473466422408819,-0.0270324982702732,0.00507163722068071,0,
00:00:01.768,-0.00642248801887035,-0.0409146584570408,-0.0169411450624466,0,
00:00:01.772,-0.00743928086012602,-0.0164372436702251,0.00530501641333103,0,
00:00:01.776,0.00835991185158491,0.0589845404028893,-0.00443140091374516,0,
00:00:01.78,0.003590636420995,-0.0143575686961412,-0.00993765145540237,0,
00:00:01.784,-0.010941419750452,-0.0188977662473917,0.0315511748194695,0,
00:00:01.788,0.00755612784996629,0.0194435697048903,0.00611412385478616,0,
00:00:01.792,0.0103531647473574,0.00996552780270576,-0.0174901932477951,0,
00:00:01.796,-0.00797056034207344,-0.0179144088178873,-0.0210922304540873,0,
00:00:01.8,-0.00728437723591924,-0.00413577351719141,0.0373801626265049,0,
00:00:01.804,0.00271295756101608,0.00692631024867296,-0.0298475697636604,0,
00:00:01.808,-0.00315678725019097,0.00440002931281924,0.00527000846341252,0,
00:00:01.812,0.00256896670907736,-0.0108481347560883,0.006458745803684,0,
00:00:01.816,0.00585520314052701,0.00469976849853992,-0.010221884585917,0,
00:00:01.82,0.00235926220193505,0.0134555995464325,0.00635643023997545,0,
00:00:01.824,-0.00144979846663773,-0.00676723616197705,0.013373046182096,0,
00:00:01.828,-0.00307195354253054,-0.0148565089330077,-0.00561708537861705,0,
00:00:01.832,-0.000471612205728889,0.00439581135287881,-0.0049073863774538,0,
00:00:01.836,-0.00505633791908622,0.00439070584252477,-0.010838009417057,0,
00:00:01.84,0.00490476237609982,0.00469500385224819,0.00974274426698685,0,
00:00:01.844,-0.00343848927877843,-0.00967998243868351,0.0222877468913794,0,
00:00:01.848,-0.00128906522877514,0.00136614101938903,-0.0257909819483757,0,
00:00:01.852,0.00612017093226314,0.0257980190217495,-0.00387368467636406,0,
00:00:01.856,0.00327131547965109,0.00269632902927697,0.00175224093254656,0,
00:00:01.86,-0.00305115082301199,-0.0313445702195168,0.00421525584533811,0,
00:00:01.864,-0.00939239282160997,-0.0263330321758986,-0.000454835128039122,0,
00:00:01.868,0.00266439467668533,0.0087294839322567,0.0139436339959502,0,
00:00:01.872,0.0116352774202824,0.0207431335002184,-0.0111241526901722,0,
00:00:01.876,-0.000475486449431628,0.0140873100608587,-0.00371163431555033,0,
00:00:01.88,-0.00870324671268463,0.0092529384419322,0.0197038035839796,0,
00:00:01.884,0.00633157463744283,0.0122401816770434,-0.0193889420479536,0,
00:00:01.888,-0.00196601869538426,-0.0189664587378502,-0.0151722924783826,0,
00:00:01.892,-0.0120568443089724,-0.0290246121585369,0.0143098831176758,0,
00:00:01.896,0.00163017201703042,-0.00578404078260064,0.0125059727579355,0,
00:00:01.9,0.0107186436653137,0.014778302051127,-0.0121326083317399,0,
00:00:01.904,0.00355137721635401,0.00618180353194475,0.00890020839869976,0,
00:00:01.908,0.00285102450288832,0.00342264538630843,0.00696204602718353,0,
00:00:01.912,-0.0112108383327723,-0.00658030575141311,-0.0215742103755474,0,
00:00:01.916,0.000137239490868524,0.02462362870574,0.0200471468269825,0,
00:00:01.92,-0.00014138912956696,0.00630058441311121,-0.00833515170961618,0,
00:00:01.924,-0.00138650054577738,-0.0401205345988274,-0.0136716878041625,0,
00:00:01.928,0.00107972044497728,-0.025911083444953,0.00172158447094262,0,
00:00:01.932,0.010863970965147,0.0494898147881031,0.00709054619073868,0,
00:00:01.936,0.000516835658345371,0.0193141140043736,0.00590531248599291,0,
00:00:01.94,-0.0199988130480051,-0.0333649888634682,0.00426026061177254,0,
00:00:01.944,0.00588067853823304,-0.0223425179719925,-0.0113588571548462,0,
00:00:01.948,0.00633769948035479,0.00767390336841345,0.0037096522282809,0,
00:00:01.952,0.00304147228598595,0.0323714762926102,0.0165447369217873,0,
00:00:01.956,0.00594374909996986,0.0224814936518669,-0.00730020552873611,0,
00:00:01.96,-0.00792411714792252,-0.0212301388382912,-0.0285725649446249,0,
00:00:01.964,-0.0111031569540501,-0.0273630917072296,0.0088898902758956,0,
00:00:01.968,0.00440411735326052,-0.00984867196530104,0.01104945410043,0,
00:00:01.972,0.00380616588518023,0.012727071531117,-0.00475574843585491,0,
00:00:01.976,-0.00173167127650231,0.00898859556764364,0.0117625826969743,0,
00:00:01.98,0.00472964067012072,0.00124775106087327,0.00711591495200992,0,
00:00:01.984,0.000745239551179111,0.0159378908574581,-0.0184913817793131,0,
00:00:01.988,-0.000737447524443269,-0.0120368059724569,-0.00586562836542726,0,
00:00:01.992,0.00104553264100105,-0.0230809487402439,0.0177577901631594,0,
00:00:01.996,0.00346018723212183,0.0370151773095131,0.00271185557357967,0,
00:00:02,0.00033548119245097,0.0154807567596436,-0.0147751802578568,0,
00:00:02.004,-0.0151494517922401,-0.0446346439421177,-0.0102143660187721,0,
00:00:02.008,-0.00624665478244424,-0.0298183131963015,-0.000154174078488722,0,
00:00:02.012,0.0066101630218327,0.0200632307678461,0.0128064127638936,0,
00:00:02.016,0.015223290771246,0.0299929957836866,0.0204700250178576,0,
00:00:02.02,0.00158560683485121,0.019486490637064,0.00503797410055995,0,
00:00:02.024,-0.00634079053997993,-0.0185334496200085,-0.0318715497851372,0,
00:00:02.028,-0.00486791087314487,-0.0177397262305021,-0.0062639033421874,0,
00:00:02.032,0.0030187820084393,0.00286684650927782,0.00767620373517275,0,
00:00:02.036,0.00375188491307199,0.00072010257281363,0.00373546406626701,0,
00:00:02.04,-0.0112273963168263,-0.000714378023985773,0.0156431030482054,0,
00:00:02.044,0.00423141429200768,0.0038652925286442,-0.0115970447659492,0,
00:00:02.048,0.00489903753623366,0.00526774628087878,-0.00706322584301233,0,
00:00:02.052,-0.00288545084185898,-0.00943707767874002,0.00410843780264258,0,
00:00:02.056,-0.00184114079456776,0.00522220693528652,-0.00631547532975674,0,
00:00:02.06,0.00897056609392166,0.0109331300482154,0.014936925843358,0,
00:00:02.064,-0.00604591052979231,-0.0119066666811705,-0.00344554521143436,0,
00:00:02.068,-0.0092090992256999,0.0126972068101168,-0.000611118448432535,0,
00:00:02.072,0.00368433212861419,-0.0230743624269962,0.00723412027582526,0,
00:00:02.076,0.01029322296381,-0.00460301944985986,-0.0115525331348181,0,
00:00:02.08,0.00373783777467906,0.0155109921470284,0.00242751743644476,0,
00:00:02.084,-0.0072059128433466,-0.00230944785289466,-0.0116008371114731,0,
00:00:02.088,-0.00577305909246206,0.0118054356426001,-0.000861782929860055,0,
00:00:02.092,0.00509123783558607,0.00796577613800764,0.0105669377371669,0,
00:00:02.096,0.00247652851976454,-0.0092755313962698,0.00760852545499802,0,
00:00:02.1,-0.0078722545877099,-0.00337224965915084,-0.00717501621693373,0,
00:00:02.104,-0.00348825263790786,-0.0266615655273199,0.00042873338679783,0,
00:00:02.108,0.00446944404393435,-0.00896600261330605,0.00827591214329004,0,
00:00:02.112,0.00701834307983518,0.0127155603840947,-0.000832113844808191,0,
00:00:02.116,-0.00177548395004123,0.0429007336497307,-0.00943934638053179,0,
00:00:02.12,-0.000152089080074802,0.00905926525592804,-0.00100508506875485,0,
00:00:02.124,-0.000441704207332805,-0.0181904919445515,-0.00717221572995186,0,
00:00:02.128,0.00121350062545389,-0.0262052435427904,0.00894439127296209,0,
00:00:02.132,-0.000737510446924716,-0.0125092277303338,0.00915431324392557,0,
00:00:02.136,-0.00822286121547222,0.00721470359712839,-0.00320148142054677,0,
00:00:02.14,0.00420434400439262,0.0259365253150463,-0.0154752908274531,0,
00:00:02.144,-0.00396508676931262,0.000290837400825694,0.0175458714365959,0,
00:00:02.148,0.00893435534089804,-0.00459321774542332,0.00468657491728663,0,
00:00:02.152,0.00714278919622302,-0.000979544478468597,-0.0260995756834745,0,
00:00:02.156,-0.00340420799329877,-0.00711344880983233,0.0242490004748106,0,
00:00:02.16,-0.0126159284263849,-0.0101719181984663,-0.0129942465573549,0,
00:00:02.164,-0.00478136073797941,0.00870998576283455,-0.00928610190749168,0,
00:00:02.168,0.00983756501227617,0.00830554589629173,0.0190180949866772,0,
00:00:02.172,0.00500406324863434,-0.0081268809735775,0.0011836364865303,0,
00:00:02.176,0.0025064367800951,0.0135744279250503,-0.0111722880974412,0,
00:00:02.18,-0.0040584416128695,-0.00999641977250576,-0.00896194484084845,0,
00:00:02.184,-0.00615808926522732,-0.00518734380602837,0.0130958463996649,0,
00:00:02.188,-0.00176144216675311,-0.00543249538168311,0.0178277026861906,0,
00:00:02.192,0.00630399538204074,0.0220294706523418,-0.0139003768563271,0,
00:00:02.196,0.00357023533433676,0.0337060801684856,-0.00629006139934063,0,
00:00:02.2,-0.0027888985350728,-0.0477500222623348,-0.0103466371074319,0,
00:00:02.204,-0.00504814833402634,-0.0339976400136948,0.00830387044698,0,
00:00:02.208,0.00298667280003428,0.0085643669590354,0.00391379045322537,0,
00:00:02.212,-0.00384302414022386,0.015526027418673,0.0082892756909132,0,
00:00:02.216,0.0058781080879271,0.028928829357028,0.00310062174685299,0,
00:00:02.22,0.00136255053803325,0.00240017217583954,-0.0194016061723232,0,
00:00:02.224,0.00101928319782019,-0.00205552112311125,0.00203325599431992,0,
00:00:02.228,-0.00154365238267928,-0.010874105617404,0.0100963274016976,0,
00:00:02.232,-0.0109745711088181,-0.0204200129956007,-0.0111071225255728,0,
00:00:02.236,0.00173872674349695,0.00118449982255697,0.00431427266448736,0,
00:00:02.24,0.00997769273817539,0.0110401511192322,0.00371382478624582,0,
00:00:02.244,0.00470065977424383,-0.00864299200475216,0.00417172582820058,0,
00:00:02.248,0.000284964276943356,0.0340786091983318,0.00654352642595768,0,
00:00:02.252,-0.0150263588875532,0.000797174230683595,0.00183070078492165,0,
00:00:02.256,0.000120271470223088,-0.009151347912848,-0.0221329294145107,0,
00:00:02.26,0.00676787970587611,-0.0380783751606941,-0.0171530209481716,0,
00:00:02.264,-0.000228752745897509,-0.0172655507922173,0.0103502683341503,0,
00:00:02.268,0.00366968638263643,0.035803310573101,0.0290075317025185,0,
00:00:02.272,-0.00338833639398217,0.0267310589551926,0.0049398154951632,0,
00:00:02.276,-0.00231493194587529,-0.0155297694727778,0.00233848229981959,0,
00:00:02.28,0.00232434622012079,-0.00716512324288487,-0.0348687246441841,0,
00:00:02.284,0.00589039176702499,0.00936855189502239,-0.00303422706201673,0,
00:00:02.288,0.000192444029380567,0.00218557985499501,0.0114417271688581,0,
00:00:02.292,-0.0104069244116545,-0.0204908046871424,0.0118138547986746,0,
00:00:02.296,-0.00491444719955325,-0.000360754085704684,-0.011262571439147,0,
00:00:02.3,0.00639974139630795,0.0104919942095876,0.00603882921859622,0,
00:00:02.304,0.00361352204345167,0.00998711585998535,0.00556187145411968,0,
00:00:02.308,-0.000632561335805804,-0.0109809329733253,0.00858475640416145,0,
00:00:02.312,-0.000220737012568861,-0.011872754432261,-0.0258905384689569,0,
00:00:02.316,0.00269752787426114,-0.00389018096029758,0.00321203982457519,0,
00:00:02.32,0.00496138073503971,0.0247492119669914,0.027036540210247,0,
00:00:02.324,-0.00734949810430408,0.00227436213754117,-0.0134382164105773,0,
00:00:02.328,0.00285660452209413,0.0198690257966518,-0.0257326196879148,0,
00:00:02.332,-0.0123738339170814,-0.0307949986308813,0.0197563953697681,0,
00:00:02.336,0.00242820614948869,-0.0222746133804321,-0.00301577500067651,0,
00:00:02.34,0.00398164568468928,0.00142805359791964,-0.0090347258374095,0,
00:00:02.344,0.0102320453152061,0.0213902369141579,0.00381862907670438,0,
00:00:02.348,-0.00152676645666361,0.00497846445068717,0.0153493313118815,0,
00:00:02.352,-0.00879810564219952,-0.00231428956612945,0.0156606063246727,0,
00:00:02.356,-0.0035768027883023,0.0088660279288888,-0.0148471044376493,0,
00:00:02.36,0.0104871140792966,0.00897176191210747,-0.0124608650803566,0,
00:00:02.364,0.00478027341887355,-0.0315546728670597,0.00374956545419991,0,
00:00:02.368,-0.00908744335174561,-0.0178725570440292,-0.00588191347196698,0,
00:00:02.372,-0.00421191845089197,0.0398139506578445,0.00646329857409,0,
00:00:02.376,8.98767539183609E-05,0.0201003365218639,-0.00248942105099559,0,
00:00:02.38,0.00435326574370265,-0.0399086251854897,-0.00964463967829943,0,
00:00:02.384,-0.00372615898959339,-0.0146871218457818,-0.00103625375777483,0,
00:00:02.388,0.00573232350870967,0.0206902101635933,0.031523808836937,0,
00:00:02.392,-0.000834395876154304,-0.00388049893081188,0.00529295019805431,0,
00:00:02.396,0.0050021787174046,0.0099810753017664,-0.0218494851142168,0,
00:00:02.4,-0.00815028045326471,4.79328773508314E-05,-0.0047935526818037,0,
00:00:02.404,-0.00448205787688494,-0.00536355655640364,-0.00902649946510792,0,
00:00:02.408,0.00777804525569081,0.0200791954994202,-0.00462045194581151,0,
00:00:02.412,0.00677280314266682,-0.0270720236003399,0.0187415350228548,0,
00:00:02.416,0.00126573699526489,0.0258322712033987,0.00725599518045783,0,
00:00:02.42,-0.00943260919302702,-0.00327841169200838,-0.00962668005377054,0,
00:00:02.424,-0.0256809536367655,-0.038679450750351,-0.00743177952244878,0,
00:00:02.428,0.0126095646992326,0.0149335823953152,0.0264743454754353,0,
00:00:02.432,0.019913898780942,0.00867960695177317,-0.00699507165700197,0,
00:00:02.436,0.013246163725853,-0.00219380366615951,-0.0198930762708187,0,
00:00:02.44,-0.00252318661659956,0.00667711719870567,-0.00409646658226848,0,
00:00:02.444,-0.0239472016692162,-0.0023666622582823,-0.0056211412884295,0,
00:00:02.448,0.000699930591508746,0.000752664927858859,0.0312051922082901,0,
00:00:02.452,0.00030524461180903,0.00311084557324648,-0.00519184488803148,0,
00:00:02.456,0.00168894359376282,-0.00604814570397139,-0.00554205011576414,0,
00:00:02.46,0.00244690687395632,-0.000611704424954951,-0.00154301279690117,0,
00:00:02.464,0.00412400811910629,0.0226002167910337,-0.0135795408859849,0,
00:00:02.468,-0.00308089796453714,-0.0137672107666731,0.0191159192472696,0,
00:00:02.472,0.000240400695474818,-0.0217647012323141,-0.000659154495224357,0,
00:00:02.476,-0.0013075313763693,-0.0139172710478306,-0.00131246878299862,0,
00:00:02.48,0.00430412217974663,0.0331180803477764,-0.0137901287525892,0,
00:00:02.484,0.00351540977135301,0.0284361261874437,0.00642496813088655,0,
00:00:02.488,-0.00800838507711887,-0.0439839102327824,-0.00182061444502324,0,
00:00:02.492,-0.00273283291608095,-0.0130109069868922,0.00288104522041976,0,
00:00:02.496,-0.00111904507502913,0.0494124367833138,0.00571884727105498,0,
00:00:02.5,0.00431517418473959,-0.033375009894371,0.00206184410490096,0,
00:00:02.504,-0.000562405970413238,0.0292867887765169,0.00241190521046519,0,
00:00:02.508,0.00699086021631956,-0.0125294309109449,-0.00514056347310543,0,
00:00:02.512,0.000197576708160341,-0.0188157260417938,-0.00996035058051348,0,
00:00:02.516,-0.00517610600218177,-0.0172164309769869,0.00936277024447918,0,
00:00:02.52,0.000804722949396819,0.0251682698726654,-0.0104076797142625,0,
00:00:02.524,0.00211257976479828,0.0058420654386282,-0.00831568241119385,0,
00:00:02.528,-0.00953385978937149,-0.0100926021113992,0.0128480875864625,0,
00:00:02.532,-0.00135098944883794,0.0258145276457071,0.0198027025908232,0,
00:00:02.536,0.00596006773412228,-0.00615598959848285,-0.00691771833226085,0,
00:00:02.54,0.00488316640257835,-0.0210779309272766,-0.00420642364770174,0,
00:00:02.544,0.00129962374921888,6.83047182974406E-05,-0.0111337993294001,0,
00:00:02.548,0.000585471105296165,0.00791140180081129,-0.0106247430667281,0,
00:00:02.552,-0.0106130735948682,-0.00790484063327312,0.00466517824679613,0,
00:00:02.556,0.00454091932624578,-0.00510076154023409,0.0334216840565205,0,
00:00:02.56,0.00630198558792472,0.0352012105286121,-0.0051004053093493,0,
00:00:02.564,-0.00175985414534807,0.0120002571493387,-0.0192109905183315,0,
00:00:02.568,-0.0102612497285008,-0.0203683711588383,-0.0106490356847644,0,
00:00:02.572,0.00316139566712081,-0.0314583033323288,0.0010257865069434,0,
00:00:02.576,-0.0017413793830201,-0.0242464765906334,0.00735463341698051,0,
00:00:02.58,0.00564685976132751,0.0177410021424294,0.00944918114691973,0,
00:00:02.584,0.00406859861686826,0.0300043597817421,-0.00236401404254138,0,
00:00:02.588,0.00238231173716486,0.00565357645973563,0.0103588216006756,0,
00:00:02.592,-4.17160226788837E-05,0.00868147891014814,-0.00329033890739083,0,
00:00:02.596,-0.0103364270180464,0.00567730749025941,-0.00815481878817081,0,
00:00:02.6,-0.0114648742601275,-0.0350241661071777,-0.00637929933145642,0,
00:00:02.604,0.0138885676860809,0.00480397464707494,-0.0123653458431363,0,
00:00:02.608,0.00411893520504236,0.015373021364212,0.0033063858281821,0,
00:00:02.612,0.00430889055132866,-0.0304191373288631,0.0401599779725075,0,
00:00:02.616,-0.000913671043235809,0.00285358866676688,-0.0219198074191809,0,
00:00:02.62,-0.00633786944672465,0.0172206275165081,-0.0191652942448854,0,
00:00:02.624,-0.00639483006671071,4.19079151470214E-05,0.0362524427473545,0,
00:00:02.628,0.00351890898309648,0.00781999249011278,-0.0270494371652603,0,
00:00:02.632,-0.00245890743099153,-0.00624866457656026,-0.0138912070542574,0,
00:00:02.636,0.00507091358304024,0.0120782814919949,0.0128138326108456,0,
00:00:02.64,0.00605674646794796,-0.015758890658617,0.0238183289766312,0,
00:00:02.644,-0.0013960269279778,-0.018929386511445,-0.000800155394244939,0,
00:00:02.648,-0.00764758791774511,0.0275081358850002,-0.029500475153327,0,
00:00:02.652,0.00135610077995807,0.00463824346661568,0.00366132915951312,0,
00:00:02.656,0.00874584540724754,-0.00823194812983274,0.0248584356158972,0,
00:00:02.66,-0.00491311075165868,0.000686949526425451,-0.0203160773962736,0,
00:00:02.664,-0.0116491783410311,-0.0166369937360287,0.0106844706460834,0,
00:00:02.668,0.00638176640495658,0.00327103608287871,-0.0109865525737405,0,
00:00:02.672,0.00669821538031101,0.00782693922519684,0.000920604332350194,0,
00:00:02.676,-0.00027373677585274,-0.00309979333542287,0.00617069192230701,0,
00:00:02.68,-0.00221851747483015,0.0068185948766768,-0.00528613943606615,0,
00:00:02.684,0.000360361183993518,0.00461190985515714,0.000731640495359898,0,
00:00:02.688,-0.00457513285800815,-0.00449165748432279,0.0180173758417368,0,
00:00:02.692,0.000719481555279344,0.00257894652895629,-0.0109050683677197,0,
00:00:02.696,0.00839851424098015,-0.000340202648658305,-0.00651054922491312,0,
00:00:02.7,-0.0126582365483046,-0.00956848915666342,-0.00623534293845296,0,
00:00:02.704,-0.000792104634456337,-0.00183366949204355,0.0049197287298739,0,
00:00:02.708,0.00948578864336014,-0.0157996788620949,0.00752468593418598,0,
00:00:02.712,0.00987929664552212,0.0403751321136951,0.0023309753742069,0,
00:00:02.716,-0.00656591728329659,0.00784009508788586,-0.0106409741565585,0,
00:00:02.72,-0.0033609748352319,-0.00815017614513636,-0.00216827448457479,0,
00:00:02.724,-0.00284118880517781,-0.0140691613778472,0.0263688061386347,0,
00:00:02.728,-0.00606803130358458,-0.044127244502306,-0.0170505996793509,0,
00:00:02.732,-0.00481046130880713,0.00491679506376386,-0.0132108721882105,0,
00:00:02.736,0.011996484361589,0.0378180406987667,0.00450219865888357,0,
00:00:02.74,0.010377618484199,0.0232816338539124,-0.00816881842911243,0,
00:00:02.744,-0.00380234769545496,-0.00815337803214788,0.0167021863162518,0,
00:00:02.748,-0.0106547456234694,-0.00780463963747025,0.00677726930007339,0,
00:00:02.752,2.12613031180808E-05,-0.0458554737269878,-0.00933333020657301,0,
00:00:02.756,0.00494676828384399,0.0396974384784698,0.0178317725658417,0,
00:00:02.76,0.000181993586011231,0.0403437353670597,-0.0137565610930324,0,
00:00:02.764,-0.00316687300801277,-0.0294772684574127,-0.023549223318696,0,
00:00:02.768,0.0095002306625247,-0.027009941637516,0.0130376378074288,0,
00:00:02.772,-0.0105043286457658,-0.0245157703757286,0.0299819335341454,0,
00:00:02.776,-0.0041522178798914,0.00851589534431696,-0.0311065744608641,0,
00:00:02.78,-0.00206608232110739,0.0121321631595492,-0.0101508228108287,0,
00:00:02.784,0.0126273585483432,0.0392087362706661,0.0167254097759724,0,
00:00:02.788,0.00704765599220991,0.040876429527998,0.00806257873773575,0,
00:00:02.792,0.000488575955387205,-0.052764005959034,0.00469802739098668,0,
00:00:02.796,-0.0122061623260379,-0.0338910035789013,-0.00533328671008348,0,
00:00:02.8,-0.00336928549222648,0.00475943507626653,-0.0154713690280914,0,
00:00:02.804,-0.00987561140209436,0.0151229612529278,-0.00472400477156043,0,
00:00:02.808,0.0116496821865439,-0.00358507828786969,0.0202540419995785,0,
00:00:02.812,0.00573470490053296,-0.00210078712552786,0.00972483772784472,0,
00:00:02.816,0.00376511784270406,0.0114300092682242,-0.0211180485785007,0,
00:00:02.82,0.00133861671201885,-0.000347716326359659,-0.00318393833003938,0,
00:00:02.824,-0.00539106037467718,0.0289589576423168,0.00617829291149974,0,
00:00:02.828,-0.00716607784852386,-0.0221545863896608,0.00486709643155336,0,
00:00:02.832,-4.66260134999175E-05,-0.0153877390548587,-0.00527131697162986,0,
00:00:02.836,0.00870842020958662,0.023685147985816,2.19786088564433E-05,0,
00:00:02.84,-0.00773076806217432,-0.0439279526472092,0.00859674718230963,0,
00:00:02.844,0.000169140679645352,-0.0140290632843971,-0.00172679824754596,0,
00:00:02.848,0.00272282236255705,0.0436663739383221,-0.00412874389439821,0,
00:00:02.852,0.00429764157161117,0.0134454648941755,0.00144663953687996,0,
00:00:02.856,0.00286296755075455,0.0125016029924154,-0.00229449151083827,0,
00:00:02.86,-0.0144731337204576,-0.0191878285259008,-0.018670653924346,0,
00:00:02.864,0.00752425473183393,-0.0264225769788027,0.0257785115391016,0,
00:00:02.868,0.000151862870552577,-0.00246963929384947,-0.0061281961388886,0,
00:00:02.872,0.00381257198750973,0.0144917033612728,-0.00168568990193307,0,
00:00:02.876,-0.00128317403141409,0.0160858649760485,0.0138563308864832,0,
00:00:02.88,-0.00429502408951521,-0.000496528227813542,-0.00368669885210693,0,
00:00:02.884,-0.00139568280428648,-0.016903929412365,-0.0169779565185308,0,
00:00:02.888,0.00769711565226316,0.00810321886092424,0.00590984988957644,0,
00:00:02.892,0.000615193101111799,0.0140886111184955,-0.000773587205912918,0,
00:00:02.896,-0.0155185265466571,-0.017908301204443,-0.0148891564458609,0,
00:00:02.9,0.00857344921678305,-0.0187770165503025,0.0379833020269871,0,
00:00:02.904,0.0103231435641646,0.0127800842747092,-0.0227786358445883,0,
00:00:02.908,-0.00894368812441826,-0.00907574873417616,0.00468516442924738,0,
00:00:02.912,0.000479396694572642,0.0264928136020899,0.00227528717368841,0,
00:00:02.916,0.00364483403973281,0.0419399552047253,-0.00395938800647855,0,
00:00:02.92,-0.00177414482459426,-0.0422451309859753,-0.0118629559874535,0,
00:00:02.924,-0.000491222424898297,-0.0173081923276186,-0.00338966492563486,0,
00:00:02.928,-0.00117722619324923,-0.021730724722147,0.0218869559466839,0,
00:00:02.932,0.00077674601925537,0.0276675466448069,0.00495145097374916,0,
00:00:02.936,-0.0109219113364816,-0.0129955690354109,0.00195383816026151,0,
00:00:02.94,0.00855306815356016,0.0073358528316021,-0.0103792762383819,0,
00:00:02.944,0.00103461730759591,0.0198801141232252,-0.0134883858263493,0,
00:00:02.948,0.00470350310206413,0.000945040723308921,-0.00140904868021607,0,
00:00:02.952,-0.00282246270217001,-0.00854594260454178,0.0115022044628859,0,
00:00:02.956,-0.00230643223039806,-0.00465702218934894,-0.00794023927301168,0,
00:00:02.96,-0.000133702284074388,-0.00398113531991839,0.00681570172309875,0,
00:00:02.964,0.00529787037521601,0.00191428710240871,0.00870987959206104,0,
00:00:02.968,0.00136228161863983,-0.00164378993213177,-0.00451494799926877,0,
00:00:02.972,-0.00884373299777508,0.00098430213984102,0.003921905066818,0,
00:00:02.976,0.000144621852086857,0.00706580234691501,-0.00887005962431431,0,
00:00:02.98,0.00449810130521655,0.00697087962180376,-0.00308715552091599,0,
00:00:02.984,-0.000227331634960137,-0.0205815471708775,0.00744888372719288,0,
00:00:02.988,-0.00332093704491854,-0.0163865722715855,-0.00934617407619953,0,
00:00:02.992,0.00541967619210482,0.0711378902196884,0.0198588762432337,0,
00:00:02.996,-0.00638567423447967,-0.000957751413807273,0.00185390061233193,0,
00:00:03,0.00135437480639666,-0.0642142966389656,-0.0223899520933628,0,
00:00:03.004,0.00260697398334742,-0.0304377358406782,-0.0200541857630014,0,
00:00:03.008,0.00336291035637259,0.0271215736865997,0.00729725789278746,0,
00:00:03.012,-0.00639123190194368,0.013754827901721,0.0299687013030052,0,
00:00:03.016,0.00540950801223516,0.0126819927245378,0.00614396249875426,0,
00:00:03.02,-0.00184506294317544,0.0217217952013016,-0.00104777060914785,0,
00:00:03.024,-0.00257991929538548,0.0283282455056906,-0.0158836655318737,0,
00:00:03.028,0.00111195456702262,-0.0465201027691364,-0.000684351252857596,0,
00:00:03.032,-0.00342971808277071,-0.0366542004048824,-0.000761511095333844,0,
00:00:03.036,-0.000470173021312803,0.00291745248250663,0.00401674769818783,0,
00:00:03.04,0.00448768958449364,0.0188253466039896,-0.00541970552876592,0,
00:00:03.044,0.00722854770720005,0.0168618485331535,-0.0107022877782583,0,
00:00:03.048,-0.0120567167177796,-0.00340204499661922,0.0245150439441204,0,
00:00:03.052,0.00500272633507848,-0.0133002121001482,0.00703645450994372,0,
00:00:03.056,0.00845749210566282,0.0271002408117056,-0.0197162292897701,0,
00:00:03.06,-0.00850252341479063,0.000397785450331867,-0.0140734128654003,0,
00:00:03.064,-0.00465786550194025,-0.0279199536889791,0.00353526859544218,0,
00:00:03.068,-0.00245306408032775,-0.0142102353274822,0.0230358447879553,0,
00:00:03.072,0.00824222341179848,0.0045266030356288,-0.00095253111794591,0,
00:00:03.076,0.000194445092347451,0.0218495279550552,-0.0127737792208791,0,
00:00:03.08,-0.00570923369377851,0.0144468368962407,0.0139050539582968,0,
00:00:03.084,0.00509807467460632,-0.00938787311315537,-0.0119666866958141,0,
00:00:03.088,-0.00280872359871864,-0.0189592707902193,-0.00187007919885218,0,
00:00:03.092,0.0031979049090296,0.0138661358505487,0.00171042396686971,0,
00:00:03.096,0.00608547404408455,0.0167103838175535,-0.00839789304882288,0,
00:00:03.1,-0.00459649693220854,-0.0173619575798512,0.0295788403600454,0,
00:00:03.104,-0.00322109763510525,-0.0135552836582065,-0.0157692730426788,0,
00:00:03.108,-0.00624658167362213,-0.00944995973259211,-0.0167718064039946,0,
00:00:03.112,-0.000881818239577115,0.00435401126742363,0.0230894088745117,0,
00:00:03.116,0.00570772727951407,0.0180035755038261,-0.0127752488479018,0,
00:00:03.12,0.00470082182437181,0.00249242130666971,-0.0070886267349124,0,
00:00:03.124,0.00132509332615882,-0.0109474556520581,0.00644998671486974,0,
00:00:03.128,-0.00343729904852808,0.0342410989105701,0.00492843613028526,0,
00:00:03.132,0.00589970964938402,0.0130777563899755,0.0109579591080546,0,
00:00:03.136,-0.00607585720717907,-0.0638523176312447,-0.00763587048277259,0,
00:00:03.14,-0.0116452677175403,-0.0124801136553288,-0.0224377270787954,0,
00:00:03.144,0.011087135411799,0.025109451264143,0.0258459951728582,0,
00:00:03.148,-0.00288755213841796,0.0165097322314978,0.00589531427249312,0,
00:00:03.152,0.00686897477135062,0.00489742355421185,-0.0188650563359261,0,
00:00:03.156,-0.00569115811958909,-0.013615963049233,0.0110406065359712,0,
00:00:03.16,-0.00104307848960161,0.012140391394496,-0.0099305147305131,0,
00:00:03.164,0.00579693354666233,-0.0127452500164509,-0.0105459643527865,0,
00:00:03.168,0.0022106955293566,-0.00994715839624405,0.0119619173929095,0,
00:00:03.172,-0.00621506292372942,0.0123146194964647,-0.000585988804232329,0,
00:00:03.176,0.000325254892231897,0.000837989733554423,0.00926426704972982,0,
00:00:03.18,-0.00145100278314203,0.0082191526889801,0.0100465286523104,0,
00:00:03.184,0.00165360304526985,0.024162195622921,-0.0234265513718128,0,
00:00:03.188,-0.00117055501323193,-0.0496413186192513,0.00310891168192029,0,
00:00:03.192,-0.00454571424052119,-0.00909183546900749,0.00633712997660041,0,
00:00:03.196,0.00678408704698086,0.0262789931148291,-0.00409469055011868,0,
00:00:03.2,0.00660462630912662,0.00364256068132818,0.00206442270427942,0,
00:00:03.204,-0.00444434117525816,-0.00415184581652284,-0.000286903406959027,0,
00:00:03.208,-0.0091340085491538,0.0210759807378054,-0.000125123624457046,0,
00:00:03.212,0.00620453665032983,-0.0307470262050629,-0.0100280893966556,0,
00:00:03.216,-0.00387582276016474,-0.0287238657474518,0.0207082331180573,0,
00:00:03.22,0.00520847598090768,0.058420404791832,0.0193125139921904,0,
00:00:03.224,-0.00519601767882705,0.01496412884444,-0.0230166148394346,0,
00:00:03.228,0.00289912964217365,-0.0206432566046715,-0.029904916882515,0,
00:00:03.232,0.00763952592387795,-0.0328080989420414,-0.00440562097355723,0,
00:00:03.236,0.00348198297433555,-0.00648578070104122,0.0151228914037347,0,
00:00:03.24,-0.00606106268242002,0.00618387246504426,0.0187239069491625,0,
00:00:03.244,-0.00908124633133411,0.0182666201144457,0.00891581643372774,0,
00:00:03.248,-0.00572033645585179,0.0169702246785164,-0.00380941736511886,0,
00:00:03.252,-0.000192727136891335,0.000583746761549264,-0.00948949530720711,0,
00:00:03.256,0.0121365673840046,-0.00620263675227761,0.0107704317197204,0,
00:00:03.26,0.00325343175791204,-0.0132866650819778,-0.0227368082851171,0,
00:00:03.264,0.00359583669342101,-0.0196460951119661,0.00139395438600332,0,
00:00:03.268,-0.00571115501224995,-0.00824715476483107,0.00666555855423212,0,
00:00:03.272,0.00130802078638226,0.0782119557261467,0.00433256477117538,0,
00:00:03.276,-0.0010230599436909,-0.00428621144965291,-0.00139282224699855,0,
00:00:03.28,-0.00944686401635408,-0.0612095445394516,-0.0182555429637432,0,
00:00:03.284,-0.00738803623244166,-0.0240681804716587,0.0133501226082444,0,
00:00:03.288,0.00336853903718293,-0.00834082812070847,0.0260963309556246,0,
00:00:03.292,0.0298566315323114,0.108613096177578,-0.0205211918801069,0,
00:00:03.296,-0.0056287357583642,-0.0490059815347195,0.0140845347195864,0,
00:00:03.3,-0.0151679133996367,0.00550866639241576,-0.0101786879822612,0,
00:00:03.304,-0.00608861958608031,-0.0344844497740269,-0.0143891563639045,0,
00:00:03.308,-0.0011746627278626,-0.000580132880713791,-0.0136114060878754,0,
00:00:03.312,-0.00231902743689716,0.0128903510048985,0.00748335290700197,0,
00:00:03.316,0.0174801144748926,0.0122202923521399,0.0325556211173534,0,
00:00:03.32,0.00467172358185053,0.0095292991027236,-0.00151845265645534,0,
00:00:03.324,-0.00352711114101112,-0.00943131186068058,-0.0325896590948105,0,
00:00:03.328,-0.00599827757105231,-0.00617216527462006,0.0103462990373373,0,
00:00:03.332,-0.000285549613181502,-0.00188032723963261,0.0279984921216965,0,
00:00:03.336,-0.00744276493787766,0.0217154715210199,-0.0139883365482092,0,
00:00:03.34,-0.00026662228628993,-0.00546112190932035,-0.0159395765513182,0,
00:00:03.344,0.00334936310537159,-0.0476887114346027,-0.0133274374529719,0,
00:00:03.348,0.00156596372835338,0.0292489919811487,0.012334892526269,0,
00:00:03.352,0.00403769593685865,0.0139907952398062,0.0225770100951195,0,
00:00:03.356,0.00389085174538195,-0.00991163775324821,0.00274473847821355,0,
00:00:03.36,-0.00283390330150723,-0.00652683060616255,-0.0224776454269886,0,
00:00:03.364,-0.00379068125039339,0.0119810169562697,0.00438239006325603,0,
00:00:03.368,0.0020430819131434,-0.00209562061354518,0.0121864723041654,0,
00:00:03.372,-0.00401772791519761,-0.00525144813582301,-0.0155880153179169,0,
00:00:03.376,-0.0062825046479702,-0.000815030594822019,-0.00231929402798414,0,
00:00:03.38,0.00493161240592599,0.00686095142737031,0.010083481669426,0,
00:00:03.384,0.00788135174661875,0.00549472076818347,0.0111251873895526,0,
00:00:03.388,0.00682608364149928,-0.00132724258583039,-0.0142269236966968,0,
00:00:03.392,-0.0166050717234612,-0.0384999103844166,-0.01860386505723,0,
00:00:03.396,-0.00370460213162005,0.00793272629380226,0.00585077190771699,0,
00:00:03.4,0.0189945548772812,0.0874716937541962,0.0149703193455935,0,
00:00:03.404,-0.00344816013239324,-0.000308603688608855,0.0238125026226044,0,
00:00:03.408,-0.0157740171998739,-0.084034726023674,-0.0174342207610607,0,
00:00:03.412,0.0080712977796793,-0.0418977625668049,-0.00220179604366422,0,
00:00:03.416,-0.00320500670932233,0.00114493165165186,-0.0200886745005846,0,
00:00:03.42,0.0123482709750533,0.0345582775771618,-0.00820402707904577,0,
00:00:03.424,0.000149694591527805,0.078100249171257,0.0207669250667095,0,
00:00:03.428,-0.0135521171614528,0.00310675473883748,0.017311317846179,0,
00:00:03.432,0.00695738475769758,-0.0151051757857203,0.00174144248012453,0,
00:00:03.436,0.000338627229211852,-0.0527575388550758,-0.0172147322446108,0,
00:00:03.44,-0.00821334216743708,-0.0362067334353924,-0.0110532296821475,0,
00:00:03.444,0.00431090174242854,0.0107743991538882,0.00399591447785497,0,
00:00:03.448,-0.0016029120888561,0.0473889373242855,0.00861674267798662,0,
00:00:03.452,0.00721516739577055,0.0247079879045486,0.0163639131933451,0,
00:00:03.456,0.00350427464582026,-0.0296978466212749,-0.0234355349093676,0,
00:00:03.46,-0.0058567188680172,-0.0229365769773722,-0.0262609981000423,0,
00:00:03.464,0.0019359712023288,4.84090887766797E-05,0.0342519395053387,0,
00:00:03.468,-0.00421355804428458,0.0781264752149582,0.00877838488668203,0,
00:00:03.472,-0.000634412572253495,-0.0284566581249237,0.00386017467826605,0,
00:00:03.476,-0.00993507821112871,-0.0621230490505695,0.00539117585867643,0,
00:00:03.48,0.0104781799018383,-0.00126388727221638,-0.0248448178172112,0,
00:00:03.484,0.0107592735439539,0.0232289675623178,-0.0153656015172601,0,
00:00:03.488,0.00127795594744384,0.013352663256228,0.00346351112239063,0,
00:00:03.492,-0.0159948319196701,-0.0061639822088182,0.0152452904731035,0,
00:00:03.496,-0.00109360448550433,-0.000195290660485625,-0.000507986405864358,0,
00:00:03.5,0.00604425650089979,0.00796265434473753,0.0150540480390191,0,
00:00:03.504,-0.000363850151188672,-0.000289789866656065,-0.00657403282821178,0,
00:00:03.508,-0.000248103198828176,0.00823334790766239,-0.00830926652997732,0,
00:00:03.512,0.00503519596531987,-0.0303153861314058,-0.013824719004333,0,
00:00:03.516,0.00553886033594608,-0.0058849211782217,0.0255264490842819,0,
00:00:03.52,-0.00430153170600533,0.0585631877183914,0.0222958736121655,0,
00:00:03.524,-0.0171160008758307,0.010509280487895,-0.0318241380155087,0,
00:00:03.528,-0.00270924554206431,-0.0329760536551476,-0.0263374242931604,0,
00:00:03.532,0.0115004517138004,-0.0569129548966885,0.00421717623248696,0,
00:00:03.536,0.00949416216462851,-0.0179701112210751,0.0127036822959781,0,
00:00:03.54,0.00255201128311455,0.0574321709573269,0.0122170923277736,0,
00:00:03.544,0.00332382461056113,0.0358241237699986,-0.00405889051035047,0,
00:00:03.548,-0.00443220743909478,-0.0223557520657778,0.0138573311269283,0,
00:00:03.552,-0.0206814277917147,-0.00842416658997536,0.0209136288613081,0,
00:00:03.556,-0.00702655408531427,0.002870406024158,-0.0269072744995356,0,
00:00:03.56,0.0177161991596222,0.00333741377107799,-0.0407425463199615,0,
00:00:03.564,0.0107992626726627,-0.0104010356590152,0.020079342648387,0,
00:00:03.568,-0.00497968075796962,0.00288812955841422,0.0155583592131734,0,
00:00:03.572,-0.000772695697378367,-0.0121339615434408,-0.00231091375462711,0,
00:00:03.576,0.00955405365675688,0.0463548600673676,0.0146722011268139,0,
00:00:03.58,-0.0113098807632923,-0.0222981944680214,-0.0142817469313741,0,
00:00:03.584,-0.0178789049386978,-0.0392124205827713,-0.00616431795060635,0,
00:00:03.588,0.00839078146964312,0.00484101427718997,-0.00982687994837761,0,
00:00:03.592,0.00679687922820449,0.00254008895717561,0.0341634266078472,0,
00:00:03.596,0.00672659371048212,0.0162848066538572,-0.00619770027697086,0,
00:00:03.6,0.00187679659575224,0.0127213820815086,-0.0264482125639915,0,
00:00:03.604,-0.00640705740079284,0.00779418973252177,-0.000206248645554297,0,
00:00:03.608,0.00646931678056717,0.0298522859811783,0.0223352313041687,0,
00:00:03.612,-0.00135027791839093,-0.0429582931101322,-0.00488348212093115,0,
00:00:03.616,-0.00956237502396107,-0.0181585010141134,-0.0104546286165714,0,
00:00:03.62,-0.00911928154528141,0.00820940546691418,0.0175369363278151,0,
00:00:03.624,0.00117512047290802,-0.0350260250270367,0.00482423091307282,0,
00:00:03.628,0.00774713326245546,0.045734778046608,-0.0133481714874506,0,
00:00:03.632,0.0202834401279688,0.00717276055365801,-0.0128261325880885,0,
00:00:03.636,0.000339312595315278,0.00783697795122862,-0.00852624047547579,0,
00:00:03.64,-0.0224526580423117,-0.0294127874076366,0.0158362779766321,0,
00:00:03.644,0.00767339253798127,0.0411505065858364,0.00872777961194515,0,
00:00:03.648,-0.00760771986097097,-0.0244861841201782,0.00863795075565577,0,
00:00:03.652,-0.00788908265531063,-0.0545076392591,-0.00354910455644131,0,
00:00:03.656,0.0109639456495643,0.0131074106320739,-0.00598091119900346,0,
00:00:03.66,0.00926766917109489,0.0549199096858501,-0.0187872014939785,0,
00:00:03.664,-0.00430455571040511,0.00741642760112882,0.0122089153155684,0,
00:00:03.668,0.000337218487402424,-0.0187068469822407,-0.000647735199891031,0,
00:00:03.672,0.00197180197574198,-0.0169602800160646,-0.00658861268311739,0,
00:00:03.676,-0.00739782536402345,0.00243522832170129,0.0225571449846029,0,
00:00:03.68,0.00695473467931151,0.0164603665471077,-0.0143502550199628,0,
00:00:03.684,-0.00176703440956771,-0.0168631691485643,-0.00543380109593272,0,
00:00:03.688,-0.0120978197082877,-0.00259829848073423,0.0151347117498517,0,
00:00:03.692,0.0118743386119604,0.0507492609322071,-0.0147043894976377,0,
00:00:03.696,-0.00343641359359026,-0.0311686843633652,0.020598154515028,0,
00:00:03.7,-0.00700555602088571,-0.0512627325952053,-0.00742551730945706,0,
00:00:03.704,0.00701456004753709,0.00698057841509581,-0.000221072608837858,0,
00:00:03.708,0.00433689402416348,0.0132944444194436,-0.0309969279915094,0,
00:00:03.712,0.00754167791455984,0.036491684615612,0.0114220138639212,0,
00:00:03.716,-0.00896190479397774,0.0230362471193075,0.019017918035388,0,
00:00:03.72,0.00343448016792536,-0.00638807378709316,0.0123772015795112,0,
00:00:03.724,-0.00641735270619392,-0.0328627564013004,-0.0153368152678013,0,
00:00:03.728,-0.00464251777157187,-0.0236491952091455,-0.00347164808772504,0,
00:00:03.732,-0.00835339725017548,-0.0104789100587368,0.00548236723989248,0,
00:00:03.736,0.0191784985363483,0.0470385737717152,-0.0126121314242482,0,
00:00:03.74,-1.16418468678603E-05,-0.000236419451539405,-0.00341628864407539,0,
00:00:03.744,-0.00390719482675195,-0.0174761507660151,-0.00808321125805378,0,
00:00:03.748,0.00604819040745497,-0.00132945307996124,0.0331145823001862,0,
00:00:03.752,-0.0099343890324235,-0.00390011561103165,0.00697894673794508,0,
00:00:03.756,0.000743623473681509,0.0119533818215132,-0.019356619566679,0,
00:00:03.76,-0.00191804079804569,-0.00858612079173326,-0.00477134715765715,0,
00:00:03.764,-0.00141331448685378,0.0301724225282669,-0.00208372320048511,0,
00:00:03.768,0.0108307227492332,0.00237823138013482,-0.0094690965488553,0,
00:00:03.772,0.00243214820511639,-0.0278550367802382,0.0123178428038955,0,
00:00:03.776,-0.00544023513793945,-0.01386599522084,0.00222994014620781,0,
00:00:03.78,-0.0111143104732037,0.00418143346905708,0.0100346179679036,0,
00:00:03.784,0.00433630356565118,0.0078437952324748,0.0169537607580423,0,
00:00:03.788,0.010245256125927,0.00533610861748457,-0.0168433245271444,0,
00:00:03.792,-0.00328323803842068,-0.00464586773887277,-0.0311839934438467,0,
00:00:03.796,0.00209508277475834,-0.00130317534785718,-0.000153604531078599,0,
00:00:03.8,-0.00712549081072211,-0.00757665652781725,0.00641995621845126,0,
00:00:03.804,-0.00161475327331573,0.0240580085664988,0.0348432287573814,0,
00:00:03.808,-0.00264286948367953,0.00678094010800123,0.00333703984506428,0,
00:00:03.812,0.00623969780281186,-0.0174943115562201,-0.0336127132177353,0,
00:00:03.816,0.0110964672639966,-0.00774485152214766,0.0053894086740911,0,
00:00:03.82,-0.00307217217050493,-0.0001880572817754,-0.024515975266695,0,
00:00:03.824,-0.0131970141083002,0.0159042123705149,0.0542691461741924,0,
00:00:03.828,0.00516827683895826,-0.0102715669199824,-0.0197835601866245,0,
00:00:03.832,-0.0104878349229693,-0.00586829660460353,0.00154218985699117,0,
00:00:03.836,-0.00355937611311674,-0.00139150640461594,0.000179748487425968,0,
00:00:03.84,0.0157312173396349,-9.75935618043877E-05,0.00188730319496244,0,
00:00:03.844,0.0298926923424006,0.021957503631711,-0.0196384713053703,0,
00:00:03.848,-0.0231157224625349,-0.00912891980260611,-0.0105533124879003,0,
00:00:03.852,-0.0107489926740527,0.00739118084311485,0.0118539789691567,0,
00:00:03.856,0.00035816928721033,-0.0255812257528305,0.00942210294306278,0,
00:00:03.86,-0.0118708461523056,0.0277413614094257,-0.0185825265944004,0,
00:00:03.864,0.00909741967916489,0.00090932211605832,0.0652631893754005,0,
00:00:03.868,0.00067874527303502,-0.0307802259922028,-0.0110233081504703,0,
00:00:03.872,0.0105877118185163,-0.00851363223046064,-0.050620760768652,0,
00:00:03.876,-0.00201764050871134,0.00724886683747172,-0.0111952349543571,0,
00:00:03.88,-0.0014665185008198,0.0229316484183073,0.015717314556241,0,
00:00:03.884,0.00267958454787731,0.0247866325080395,0.0105067798867822,0,
00:00:03.888,-0.00931347999721766,-0.0137304048985243,-0.00329237408004701,0,
00:00:03.892,0.00209045480005443,-0.0235763769596815,0.0167376529425383,0,
00:00:03.896,0.00296743842773139,-0.0149339903146029,-0.0074698468670249,0,
00:00:03.9,0.00081556715304032,0.00297634257003665,-0.010648176074028,0,
00:00:03.904,-0.00923584122210741,0.0252659842371941,-0.0173576399683952,0,
00:00:03.908,0.00238361838273704,0.0127831753343344,0.0258263405412436,0,
00:00:03.912,0.0159130729734898,-0.0202057715505362,0.0422354228794575,0,
00:00:03.916,-0.00403710315003991,-0.0081920400261879,-0.0313527546823025,0,
00:00:03.92,-0.0116632515564561,0.0105029530823231,-0.0302596557885408,0,
00:00:03.924,-0.00639409944415092,0.0066543985158205,-0.0140326377004385,0,
00:00:03.928,0.0155840134248137,0.00714381691068411,0.0114246364682913,0,
00:00:03.932,0.00396789191290736,-0.021538432687521,0.0234721284359694,0,
00:00:03.936,-0.00951131992042065,-0.0181647092103958,0.00551291275769472,0,
00:00:03.94,-0.00130073085892946,0.0237802732735872,0.0120613938197494,0,
00:00:03.944,-0.000700313423294574,0.0104033807292581,-0.0225562565028667,0,
00:00:03.948,0.00545129645615816,-0.017258295789361,-0.0132256504148245,0,
00:00:03.952,-0.0018395105144009,0.0121531346812844,-0.00589711219072342,0,
00:00:03.956,0.00242140330374241,0.0243250839412212,0.0345576293766499,0,
00:00:03.96,0.00025082565844059,-0.0227178558707237,-0.0149877015501261,0,
00:00:03.964,-0.0102546140551567,-0.0276605542749166,-0.0058867372572422,0,
00:00:03.968,0.00765450345352292,-0.00153729226440191,0.0101491017267108,0,
00:00:03.972,0.00330695346929133,0.0122868688777089,0.013278148137033,0,
00:00:03.976,-0.000850198324769735,0.0280305240303278,-0.0128080267459154,0,
00:00:03.98,-0.00049271690659225,-0.00843983329832554,-0.0149900298565626,0,
00:00:03.984,-0.014470093883574,-0.0258856825530529,-0.0229723080992699,0,
00:00:03.988,0.00130301935132593,0.0201985631138086,0.0123734520748258,0,
00:00:03.992,0.0207432247698307,0.016482375562191,0.0659166797995567,0,
00:00:03.996,-0.00437914254143834,-0.0142785217612982,-0.00340384105220437,0,
00:00:04,0.00141733582131565,0.00319913239218295,-0.053396925330162,0,
00:00:04.004,-0.00826080609112978,-0.0191856268793345,-0.0220256429165602,0,
00:00:04.008,-0.00700770271942019,-0.0128671964630485,0.01074852142483,0,
00:00:04.012,0.00254572043195367,0.000907365931198001,0.0212520603090525,0,
00:00:04.016,0.0135468877851963,0.0350337587296963,0.0135337421670556,0,
00:00:04.02,-0.0020924131385982,0.0085800914093852,0.0019669143948704,0,
00:00:04.024,-0.00971566047519445,0.00527377938851714,-0.00360836577601731,0,
00:00:04.028,0.00459557073190808,-0.0192231722176075,-0.0219051577150822,0,
00:00:04.032,0.00105307879857719,-0.0262318886816502,0.0134267788380384,0,
00:00:04.036,-0.00740598794072866,-0.017407501116395,0.00664378236979246,0,
00:00:04.04,-0.00393169047310948,0.0156026650220156,-0.0111782420426607,0,
00:00:04.044,0.0161843113601208,0.0481035299599171,-0.0196679625660181,0,
00:00:04.048,0.00539886299520731,0.0160407964140177,0.0335492044687271,0,
00:00:04.052,-0.0125469965860248,-0.0557685904204845,-0.00638818508014083,0,
00:00:04.056,-0.00793331395834684,-0.0147861540317535,-0.00783759728074074,0,
00:00:04.06,0.00479988427832723,0.00806604418903589,0.00171772658359259,0,
00:00:04.064,0.0139153255149722,0.051977813243866,-0.00391707802191377,0,
00:00:04.068,-0.00564922019839287,0.014737238176167,0.00220336322672665,0,
00:00:04.072,-0.0116427978500724,-0.0593618452548981,0.00372495548799634,0,
00:00:04.076,-0.00318853952921927,-0.0302523262798786,0.00650832755491138,0,
00:00:04.08,0.0128111550584435,0.0126097984611988,-0.00374382105655968,0,
00:00:04.084,0.000915434444323182,0.0186299961060286,-0.004576675593853,0,
00:00:04.088,-0.00399992009624839,0.0260683633387089,-0.00825655274093151,0,
00:00:04.092,0.00679171923547983,0.00595076428726316,0.0250942800194025,0,
00:00:04.096,0.00992951076477766,0.0040787048637867,-0.0132820475846529,0,
00:00:04.1,-0.0244804937392473,-0.0199497751891613,-0.0149335851892829,0,
00:00:04.104,-0.00654686987400055,-0.0180927850306034,-0.00823877844959497,0,
00:00:04.108,0.00741545855998993,0.0166202411055565,0.0259922742843628,0,
00:00:04.112,0.00470989663153887,-0.015203695744276,0.0128137059509754,0,
00:00:04.116,0.0127731384709477,0.01597492210567,0.00295636523514986,0,
00:00:04.12,0.00132048164959997,-0.00691948598250747,-0.0251829326152802,0,
00:00:04.124,-0.00980865769088268,-0.00786205008625984,-0.0192896109074354,0,
00:00:04.128,-0.0027711377479136,-0.00546516198664904,0.0199493635445833,0,
00:00:04.132,-0.00901751685887575,-0.00215649069286883,0.000252018449828029,0,
00:00:04.136,0.00784475635737181,0.0460750535130501,-0.000260139815509319,0,
00:00:04.14,0.011043056845665,-0.000375054572941735,0.0130006587132812,0,
00:00:04.144,-0.00474591925740242,-0.0243229083716869,-0.0209873113781214,0,
00:00:04.148,-0.00612873770296574,-0.00449409754946828,0.00963239837437868,0,
00:00:04.152,-0.00658448273316026,-0.00398123543709517,0.0250002015382051,0,
00:00:04.156,0.0030115453992039,-0.0167840290814638,0.000805763993412256,0,
00:00:04.16,0.00789827760308981,0.00377545668743551,-0.0278667528182268,0,
00:00:04.164,0.00421146443113685,0.0132893407717347,-0.0215913876891136,0,
00:00:04.168,0.00145477149635553,0.0180388931185007,0.00858687609434128,0,
00:00:04.172,-0.0031448625959456,0.00103262288030237,0.0146880578249693,0,
00:00:04.176,-0.00686613097786903,-0.00252557988278568,-0.00310425437055528,0,
00:00:04.18,-0.00146134244278073,-0.00716553209349513,0.0135149303823709,0,
00:00:04.184,-0.00130281655583531,-0.00536633282899857,-0.00190407282207161,0,
00:00:04.188,0.00129191868472844,-0.0102859865874052,0.00836067367345095,0,
00:00:04.192,-0.00349652720615268,-0.00815703719854355,-0.00782356970012188,0,
00:00:04.196,0.00623758835718036,0.0176624972373247,-0.00978445075452328,0,
00:00:04.2,0.0141719644889235,0.0148008419200778,-0.00299218506552279,0,
00:00:04.204,-0.00404648296535015,-0.0176193919032812,0.00259349122643471,0,
00:00:04.208,-0.0124433152377605,-0.00279032438993454,-0.0124083152040839,0,
00:00:04.212,-0.00154138705693185,0.0214599594473839,0.0123448111116886,0,
00:00:04.216,0.00642512645572424,0.0105289723724127,0.00697239441797137,0,
00:00:04.22,-0.00358210317790508,-0.0427296422421932,0.0105563644319773,0,
00:00:04.224,0.00201903330162168,0.00987670477479696,-0.0110617419704795,0,
00:00:04.228,-0.00271852849982679,0.00678100762888789,-0.019589452072978,0,
00:00:04.232,0.00782170705497265,-0.00175639835651964,0.0145731549710035,0,
00:00:04.236,-0.00805634073913097,0.00141919788438827,0.0226734541356564,0,
00:00:04.24,-0.00424051098525524,-0.00645909225568175,-0.0108736334368587,0,
00:00:04.244,0.0084782475605607,-0.00980871543288231,-0.016838489100337,0,
00:00:04.248,0.00538866128772497,0.0471161417663097,-0.0152495987713337,0,
00:00:04.252,-0.00683408975601196,-0.0131337279453874,0.0318734422326088,0,
00:00:04.256,0.00402623880654573,-0.0208676587790251,-0.0221563614904881,0,
00:00:04.26,0.00110056006815284,-0.00530788069590926,0.0148947294801474,0,
00:00:04.264,-0.0132937170565128,-0.00137420045211911,0.0152335008606315,0,
00:00:04.268,-0.00444977125152946,-0.00140982086304575,-0.0156860370188951,0,
00:00:04.272,0.0136244539171457,0.0356019251048565,-0.0144795468077064,0,
00:00:04.276,0.00687531009316444,-0.018262991681695,0.00296109961345792,0,
00:00:04.28,0.00386511301621795,-0.0146445445716381,0.0143028246238828,0,
00:00:04.284,-0.0121813230216503,0.00884714536368847,0.00627717422321439,0,
00:00:04.288,-0.00357607123441994,0.0136620989069343,-0.0196399465203285,0,
00:00:04.292,0.00269859400577843,-0.0118932258337736,-0.0015505759511143,0,
00:00:04.296,0.00622558826580644,0.0257510431110859,0.0173424687236547,0,
00:00:04.3,-0.0100180245935917,-0.0445205047726631,0.0221863929182291,0,
00:00:04.304,-0.00241954438388348,-0.0106509970501065,-0.0307888053357601,0,
00:00:04.308,0.0055559896863997,0.00716645829379559,-0.0237316396087408,0,
00:00:04.312,0.00717885093763471,0.0147530706599355,0.00448844814673066,0,
00:00:04.316,0.00389821175485849,0.0311560034751892,0.0424970351159573,0,
00:00:04.32,-0.0109498910605907,0.00214206054806709,-0.0166857559233904,0,
00:00:04.324,-0.00396617082878947,-0.0174858272075653,-0.0103266360238194,0,
00:00:04.328,0.00169319054111838,-0.0214796494692564,0.00487486040219665,0,
00:00:04.332,0.00584376696497202,0.00653753010556102,0.0103534478694201,0,
00:00:04.336,0.00511466804891825,0.00370041676796973,-0.0102595202624798,0,
00:00:04.34,-0.00051479774992913,0.00594455329701304,-0.0100009180605412,0,
00:00:04.344,-0.00820097513496876,-0.0012253598542884,-0.00658564595505595,0,
00:00:04.348,-0.00639094086363912,-0.0155756883323193,0.0370543375611305,0,
00:00:04.352,0.00716430693864822,0.00565237132832408,-0.00977719016373158,0,
00:00:04.356,0.00764241255819798,0.0115386769175529,-0.0194573439657688,0,
00:00:04.36,0.000614723248872906,0.00742696598172188,-0.00236773630604148,0,
00:00:04.364,-0.0105208465829492,0.00251102889887989,0.00807789247483015,0,
00:00:04.368,-0.0072678099386394,-0.0147817470133305,0.000743500189855695,0,
00:00:04.372,0.00188864546362311,-0.0306119006127119,0.00811258051544428,0,
00:00:04.376,0.00894156191498041,0.0402343682944775,-0.000952927162870765,0,
00:00:04.38,0.0105361379683018,0.0210351794958115,0.0033822359982878,0,
00:00:04.384,0.00132117432076484,-0.0260350983589888,0.0107813868671656,0,
00:00:04.388,-0.01202726457268,-0.0378784611821175,-0.0253985151648521,0,
00:00:04.392,-0.00132142438087612,0.0209615174680948,-0.0151410382241011,0,
00:00:04.396,0.0045607197098434,0.0293630287051201,0.00922374986112118,0,
00:00:04.4,-0.00403599068522453,-0.0108961863443255,0.0213363561779261,0,
00:00:04.404,-0.00366266933269799,0.00311072985641658,-0.0212251655757427,0,
00:00:04.408,-0.0108571276068687,-0.0176941528916359,0.0343768522143364,0,
00:00:04.412,0.0118843866512179,0.00167999032419175,-0.00370894488878548,0,
00:00:04.416,0.0108693651854992,0.00668641924858093,-0.030131570994854,0,
00:00:04.42,0.000666630570776761,-0.00157621095422655,-0.00859126821160316,0,
00:00:04.424,-0.00584924453869462,0.00678283581510186,0.0159383323043585,0,
00:00:04.428,-0.00626967241987586,0.00935279112309217,0.0150046264752746,0,
00:00:04.432,0.0115510625764728,-0.00997854303568602,0.00485334265977144,0,
00:00:04.436,-0.00681997276842594,-0.0176206585019827,-0.0227736718952656,0,
00:00:04.44,-0.00201595178805292,0.00946690142154694,-0.00235546287149191,0,
00:00:04.444,-0.00246272794902325,0.0220484361052513,0.020258916541934,0,
00:00:04.448,-0.00818896014243364,-0.0200334824621677,-0.0141372038051486,0,
00:00:04.452,0.00576430838555098,-0.0158713404089212,-0.00906925741583109,0,
00:00:04.456,0.0148495174944401,0.0100126788020134,0.0215460564941168,0,
00:00:04.46,0.00126329972408712,0.01248115953058,-0.0151641592383385,0,
00:00:04.464,-0.000491318816784769,0.0118752466514707,0.0195059180259705,0,
00:00:04.468,0.00337510695680976,0.0237165261059999,-0.00332083599641919,0,
00:00:04.472,-0.00975472293794155,-0.0416474267840385,-0.00968741346150637,0,
00:00:04.476,-0.0246727503836155,-0.0424633584916592,-0.017226142808795,0,
00:00:04.48,-0.00288277468644083,0.00879269745200872,0.0147533267736435,0,
00:00:04.484,0.0190052576363087,0.0356003493070602,-0.0136957643553615,0,
00:00:04.488,0.0220677312463522,0.0372915640473366,0.025980519130826,0,
00:00:04.492,-0.00126153661403805,-0.0223761592060328,0.00299643445760012,0,
00:00:04.496,-0.00929605681449175,-0.0234717950224876,-0.0190832521766424,0,
00:00:04.5,-0.00195446517318487,0.0113957785069942,-0.00587092246860266,0,
00:00:04.504,-0.0156845040619373,-0.00358844920992851,0.0344993732869625,0,
00:00:04.508,-0.00449914205819368,-0.0146969901397824,-0.00234548980370164,0,
00:00:04.512,0.0193663369864225,0.00719323055818677,-0.0268343109637499,0,
00:00:04.516,0.0172595251351595,0.0250402539968491,-0.00835014320909977,0,
00:00:04.52,-0.0329059809446335,-0.0144986407831311,-0.0259539466351271,0,
00:00:04.524,-0.00249192770570517,0.00647393381223083,0.0473926328122616,0,
00:00:04.528,0.022864306345582,-0.0223455671221018,0.0463946461677551,0,
00:00:04.532,0.00472300453111529,-0.0100643867626786,-0.0675064325332642,0,
00:00:04.536,-0.000992355635389686,0.0358176864683628,0.011894004419446,0,
00:00:04.54,-0.0111954314634204,0.0258257184177637,0.00854238588362932,0,
00:00:04.544,-0.0100413803011179,-0.0366815514862537,-0.0301245674490929,0,
00:00:04.548,0.000728265382349491,-0.0352314338088036,0.0217108018696308,0,
00:00:04.552,0.00305364630185068,0.0316400453448296,0.00751133263111115,0,
00:00:04.556,0.0109858894720674,0.0124912224709988,-0.00155306502711028,0,
00:00:04.56,-0.0019864400383085,-0.0159836411476135,0.00601444998756051,0,
00:00:04.564,0.000824307440780103,0.00270969234406948,-0.0170896053314209,0,
00:00:04.568,-0.00306544173508883,0.00530795333907008,-0.00262070773169398,0,
00:00:04.572,-0.00249521364457905,-0.00619320245459676,0.0227144826203585,0,
00:00:04.576,-0.000634529336821288,-0.00370686920359731,-0.00224838382564485,0,
00:00:04.58,0.00494037242606282,0.0138371018692851,-0.0171800442039967,0,
00:00:04.584,-0.00479065394029021,0.0109443245455623,-0.000477978435810655,0,
00:00:04.588,-0.0107770496979356,-0.0342124737799168,0.0176094677299261,0,
00:00:04.592,0.0156061640009284,0.0310933999717236,-0.0135588459670544,0,
00:00:04.596,0.0162809547036886,0.0192769169807434,0.00395495118573308,0,
00:00:04.6,-0.0135738411918283,-0.0418394505977631,0.00539948558434844,0,
00:00:04.604,-0.0192512460052967,-0.0384035483002663,-0.0133032649755478,0,
00:00:04.608,0.00455291429534554,0.0384432151913643,-0.00532994791865349,0,
00:00:04.612,0.0133362114429474,0.0104137416929007,0.0193636901676655,0,
00:00:04.616,0.0139599246904254,0.0152468048036098,-0.00730606820434332,0,
00:00:04.62,-0.0272336434572935,-0.00055482320021838,0.0092253377661109,0,
00:00:04.624,-0.00108467764221132,-0.0157530475407839,-0.00783993490040302,0,
00:00:04.628,0.0114362128078938,-0.0103092761710286,0.00642617698758841,0,
00:00:04.632,-0.0039506615139544,0.00337866088375449,-0.00780820939689875,0,
00:00:04.636,-0.00566031970083714,-0.00295068463310599,0.000109243504994083,0,
00:00:04.64,0.0193031448870897,-0.00165271619334817,-0.00839563086628914,0,
00:00:04.644,0.0142317777499557,0.0247322674840689,-0.0160513129085302,0,
00:00:04.648,-0.0165359284728765,-0.00509429629892111,0.0210612323135138,0,
00:00:04.652,-0.0317804142832756,0.00123056839220226,0.0266815219074488,0,
00:00:04.656,0.00716293836012483,-0.00589160015806556,-0.00389274978078902,0,
00:00:04.66,0.0127256568521261,0.00333184842020273,0.0029928651638329,0,
00:00:04.664,0.00471622962504625,-0.0325848273932934,-0.0370972268283367,0,
00:00:04.668,0.00846688449382782,0.0116035230457783,-0.00918163824826479,0,
00:00:04.672,0.00729218404740095,0.0228164736181498,0.0170836001634598,0,
00:00:04.676,-0.0214760527014732,-0.0254778265953064,-0.00242524547502398,0,
00:00:04.68,-0.00367534556426108,0.0229471437633038,0.0152389938011765,0,
00:00:04.684,0.00755557883530855,0.0334502197802067,0.00666682189330459,0,
00:00:04.688,0.00240626581944525,-0.025744741782546,-0.00610318779945374,0,
00:00:04.692,-0.00903453025966883,-0.0473666787147522,-8.29598066047765E-05,0,
00:00:04.696,0.00836700573563576,-0.00362469558604062,0.0101289777085185,0,
00:00:04.7,0.00352973863482475,0.0262050814926624,-0.0262679290026426,0,
00:00:04.704,-0.00518687115982175,0.0246069896966219,-0.0219050236046314,0,
00:00:04.708,0.000989470514468849,-0.000685476930812001,0.0176733396947384,0,
00:00:04.712,-0.00959361251443625,-0.0153648247942328,0.0608868114650249,0,
00:00:04.716,0.00721536437049508,0.0291834436357021,-0.0336027704179287,0,
00:00:04.72,0.00692136865109205,-0.0236392356455326,-0.0376368351280689,0,
00:00:04.724,0.00570650072768331,-0.00823915377259254,-0.00102965929545462,0,
00:00:04.728,0.00585037423297763,0.00792753230780363,0.0515820868313313,0,
00:00:04.732,-0.0293491035699844,-0.0303655285388231,-0.00880114734172821,0,
00:00:04.736,-0.0133698312565684,0.0153506528586149,-0.0216982234269381,0,
00:00:04.74,0.0242668576538563,0.0157791171222925,-0.0105748074129224,0,
00:00:04.744,0.00493101961910725,-0.00207183812744915,-0.00990710034966469,0,
00:00:04.748,0.0148560032248497,-0.000689935812260956,0.0290314164012671,0,
00:00:04.752,-0.00772172771394253,-0.0121819106861949,0.0224789325147867,0,
00:00:04.756,-0.0113792745396495,0.024512954056263,-0.0200104713439941,0,
00:00:04.76,-0.00641598971560597,-0.000270628108410165,-0.00647631008177996,0,
00:00:04.764,-0.00225811381824315,-0.00739978766068816,-0.00208532111719251,0,
00:00:04.768,0.0117592522874475,0.00820057094097137,-0.010960622690618,0,
00:00:04.772,-0.00641184160485864,-0.0249073021113873,0.00801761914044619,0,
00:00:04.776,0.00580161670222878,-0.0199834425002337,0.0171495173126459,0,
00:00:04.78,0.00205480097793043,0.00402767211198807,-0.00662120571359992,0,
00:00:04.784,-0.00266273901797831,0.0265629384666681,-0.020825732499361,0,
00:00:04.788,-0.0038551117759198,0.015955226495862,0.0234138183295727,0,
00:00:04.792,0.00823010131716728,0.0186031330376863,0.0124533725902438,0,
00:00:04.796,-0.00122880330309272,-0.0208447240293026,-0.0226579159498215,0,
00:00:04.8,-0.00165890005882829,-0.0264594331383705,-0.010922510176897,0,
00:00:04.804,-0.00456658564507961,-0.00750457728281617,-0.00719419913366437,0,
00:00:04.808,-0.00211670389398932,0.00422194926068187,0.0129971718415618,0,
00:00:04.812,-0.00121291307732463,0.0190424304455519,0.0239320173859596,0,
00:00:04.816,0.00843825563788414,0.0101607907563448,0.000135674854391254,0,
00:00:04.82,-0.00436963606625795,-0.00581557443365455,-0.0119250891730189,0,
00:00:04.824,0.00182263785973191,-0.018358763307333,-0.00973906461149454,0,
00:00:04.828,0.0019373222021386,-0.000694467918947339,-0.0072585609741509,0,
00:00:04.832,0.00438447901979089,0.0181989260017872,0.014478137716651,0,
00:00:04.836,-0.00711594568565488,0.00420101825147867,-0.0107672102749348,0,
00:00:04.84,-0.004769466817379,0.0101734176278114,-0.00329935131594539,0,
00:00:04.844,0.00858755875378847,-0.0244616810232401,0.0295081697404385,0,
00:00:04.848,-0.0046794624067843,-0.0243624653667212,0.000143837809446268,0,
00:00:04.852,-0.00743882125243545,-0.00367122166790068,-0.00747386086732149,0,
00:00:04.856,0.0131828999146819,0.0646138265728951,-0.0169608630239964,0,
00:00:04.86,-0.00145175226498395,0.00910731684416533,-0.0102199511602521,0,
00:00:04.864,0.00283018313348293,-0.0501951761543751,-0.00801768898963928,0,
00:00:04.868,-0.000992271467112005,-0.0166588984429836,0.035780031234026,0,
00:00:04.872,-0.0059654382057488,-0.00533111114054918,0.00341578316874802,0,
00:00:04.876,-0.0142137464135885,0.0125004071742296,-0.00985958892852068,0,
00:00:04.88,0.00355619750916958,0.024848124012351,-0.0119664296507835,0,
00:00:04.884,0.0206231195479631,0.0321254245936871,0.0144419614225626,0,
00:00:04.888,0.00044931037700735,-0.017219478264451,-0.0105121685191989,0,
00:00:04.892,-0.00957523565739393,-0.0289013981819153,-0.00430226931348443,0,
00:00:04.896,-0.000621766201220453,-0.0118500310927629,0.0171967931091785,0,
00:00:04.9,0.00361890136264265,0.00295000988990068,-0.00434122560545802,0,
00:00:04.904,0.00308266631327569,0.0095976460725069,-0.00933489203453064,0,
00:00:04.908,-0.00372790358960629,0.0087603023275733,0.0049718264490366,0,
00:00:04.912,-0.0041730422526598,-0.00209096167236567,-0.00942079816013575,0,
00:00:04.916,0.000253422535024583,0.0178401079028845,-0.0102775348350406,0,
00:00:04.92,0.00488217081874609,-0.012136559933424,0.0263273827731609,0,
00:00:04.924,-0.00984663795679808,-0.0169163644313812,0.0191648360341787,0,
00:00:04.928,-0.00350456102751195,0.0309966243803501,-0.0222606025636196,0,
00:00:04.932,0.00436440808698535,-0.0292878001928329,0.0054061021655798,0,
00:00:04.936,0.0195020716637373,-2.16566659219097E-05,-0.0152780199423432,0,
00:00:04.94,-0.00482411496341228,-0.0130320489406586,-0.0113748088479042,0,
00:00:04.944,-0.00663570035248995,0.0169240180402994,0.00162107986398041,0,
00:00:04.948,-0.00662929564714432,0.00438716914504766,0.00952877942472696,0,
00:00:04.952,0.000602614250965416,0.0174410156905651,0.011720516718924,0,
00:00:04.956,0.0088873403146863,0.00316414493136108,0.00714874034747481,0,
00:00:04.96,-0.00174879597034305,-0.0223612878471613,-0.014231463894248,0,
00:00:04.964,-0.010303221642971,-0.0157300028949976,0.0112648978829384,0,
00:00:04.968,0.0035207571927458,0.0070667676627636,-0.0110128168016672,0,
00:00:04.972,0.00289180991239846,0.0130791254341602,-0.0034882475156337,0,
00:00:04.976,-0.00424072239547968,-0.00181483163032681,0.000992477871477604,0,
00:00:04.98,0.0129323285073042,0.0130067020654678,0.0170393735170364,0,
00:00:04.984,-0.0095670884475112,-0.0146818114444613,-0.0014162139268592,0,
00:00:04.988,-0.00144750205799937,-0.0135805932804942,-0.0185174904763699,0,
00:00:04.992,0.00872642546892166,-0.00489218719303608,-0.00966649688780308,0,
00:00:04.996,0.00720098335295916,0.0661402270197868,0.000573687488213182,0,
00:00:05,0.000881250773090869,-0.0074298377148807,-0.00155092368368059,0,
00:00:05.004,-0.0231210272759199,-0.0664226114749908,0.0238539092242718,0,
00:00:05.008,-0.0195894781500101,0.00267168716527522,0.0140006458386779,0,
00:00:05.012,0.0146529655903578,0.00949709955602884,0.00421381555497646,0,
00:00:05.016,0.0271300226449966,0.00297960918396711,-0.0314986295998096,0,
00:00:05.02,0.00384770194068551,0.032661285251379,0.0123348403722048,0,
00:00:05.024,-0.00520787248387933,-0.0103851221501827,-0.019055200740695,0,
00:00:05.028,-0.0109109990298748,-0.0284526459872723,-0.00807174108922482,0,
00:00:05.032,-0.00294125638902187,0.00676585268229246,0.0199058372527361,0,
00:00:05.036,-0.0112684480845928,0.0330784246325493,0.0100467056035995,0,
00:00:05.04,0.00977176427841187,-0.0133414845913649,0.0174749232828617,0,
00:00:05.044,0.00876921229064465,-0.02316540107131,-0.0262679383158684,0,
00:00:05.048,-0.0105400439351797,0.0311721358448267,-0.0122517077252269,0,
00:00:05.052,0.00667673302814364,-0.00998936872929335,-0.0038061214145273,0,
00:00:05.056,0.00337546016089618,0.0095457099378109,0.0188995245844126,0,
00:00:05.06,-0.000254064681939781,-0.0342450141906738,-0.0122979953885078,0,
00:00:05.064,-0.00220101559534669,-0.0103907836601138,0.0216664262115955,0,
00:00:05.068,-0.00227871839888394,0.0194352045655251,-0.000710590335074812,0,
00:00:05.072,-0.00956031028181314,-0.0043913428671658,0.000498648500069976,0,
00:00:05.076,0.00991005171090364,0.0408470965921879,-0.0247648879885674,0,
00:00:05.08,0.015656815841794,0.0315301902592182,-0.00108544284012169,0,
00:00:05.084,-0.014118954539299,-0.0602318979799747,0.0148110166192055,0,
00:00:05.088,-0.0155322896316648,-0.0160620007663965,0.000440583826275542,0,
00:00:05.092,0.0134365037083626,-0.000237019616179168,0.00717223389074206,0,
00:00:05.096,0.0118847815319896,0.00272684590891004,0.00485397269949317,0,
00:00:05.1,-0.0189994461834431,-0.000689756823703647,-0.00902402028441429,0,
00:00:05.104,0.00156968820374459,0.00587334157899022,-0.0197951290756464,0,
00:00:05.108,0.00629823328927159,0.0175418928265572,0.00591070437803864,0,
00:00:05.112,0.00395821547135711,0.00553450500592589,0.00557765597477555,0,
00:00:05.116,0.00438960082828999,0.0106999482959509,-0.00130654138047248,0,
00:00:05.12,-0.00603193650022149,-0.00853605661541224,0.00466114841401577,0,
00:00:05.124,-0.00571810267865658,-0.0206412803381681,0.0113885393366218,0,
00:00:05.128,-0.00391735974699259,-0.00646194815635681,0.00053195032523945,0,
00:00:05.132,0.00551268551498652,-0.00198975624516606,-0.00568758975714445,0,
00:00:05.136,0.00444841245189309,0.0322390086948872,0.00397001719102263,0,
00:00:05.14,-0.00750477565452456,-0.028120981529355,-0.0156884267926216,0,
00:00:05.144,0.0144758997485042,-0.0118213957175612,-0.0169831234961748,0,
00:00:05.148,-0.00981680862605572,0.0302314590662718,0.00626494130119681,0,
00:00:05.152,-0.01171241607517,0.00140415248461068,0.039617445319891,0,
00:00:05.156,0.0105551220476627,-0.016834557056427,0.0064965826459229,0,
00:00:05.16,0.00662042014300823,0.0109745655208826,-0.0379905253648758,0,
00:00:05.164,0.0049314028583467,0.0339974202215672,-0.0118686771020293,0,
00:00:05.168,-0.0109729049727321,-0.0448850058019161,0.00400940515100956,0,
00:00:05.172,-0.000784115632995963,-0.0212834440171719,0.0160978622734547,0,
00:00:05.176,-0.0012432731455192,-0.00219748937524855,0.0109275067225099,0,
00:00:05.18,4.13473826483823E-05,0.0345414057374001,0.00573815358802676,0,
00:00:05.184,-0.000945625070016831,0.0204678419977427,-0.0191380511969328,0,
00:00:05.188,0.00749619957059622,-0.0206084307283163,0.0147814424708486,0,
00:00:05.192,-0.00138913583941758,-0.0256104990839958,-0.0123781766742468,0,
00:00:05.196,-0.000790992577094585,0.0280990153551102,-0.014339349232614,0,
00:00:05.2,-0.0034508272074163,0.0319365784525871,0.017889903858304,0,
00:00:05.204,-0.00768583919852972,-0.0327195078134537,-0.0170767549425364,0,
00:00:05.208,0.0047065275721252,-0.0299080889672041,0.0200426392257214,0,
00:00:05.212,0.0149732511490583,0.0202871020883322,0.00743753742426634,0,
00:00:05.216,0.00398873630911112,0.000408847146900371,-0.0187145043164492,0,
00:00:05.22,-0.0209397003054619,-0.0182557348161936,-0.00711706560105085,0,
00:00:05.224,-0.00385500490665436,-0.0017299666069448,0.0147666241973639,0,
00:00:05.228,0.0131371095776558,0.0526373386383057,0.00905161164700985,0,
00:00:05.232,-0.00988435838371515,0.0115634566172957,-0.00553267868235707,0,
00:00:05.236,0.0113442931324244,-0.0410731434822083,0.00524473655968905,0,
00:00:05.24,0.00033459544647485,-0.0162751264870167,-0.0195959955453873,0,
00:00:05.244,0.0056160637177527,-0.00746806943789124,-0.0221084523946047,0,
00:00:05.248,-0.012147007510066,-0.00445175729691982,0.0350768379867077,0,
00:00:05.252,-0.00739655969664454,0.0575074777007103,0.00106105511076748,0,
00:00:05.256,0.015722842887044,0.0143564604222775,0.00588251277804375,0,
00:00:05.26,-0.00592996133491397,-0.0457961037755013,0.00101243506651372,0,
00:00:05.264,-0.00377724901773036,-0.00409115571528673,-0.0187765322625637,0,
00:00:05.268,-0.00429721409454942,-0.0137833440676332,-0.000575192971155047,0,
00:00:05.272,0.00389893702231348,0.00177574239205569,0.00643654586747289,0,
00:00:05.276,0.0054233823902905,0.00486762775108218,-0.00473241973668337,0,
00:00:05.28,0.00729064084589481,0.0213637351989746,0.00330742984078825,0,
00:00:05.284,-0.0018169506220147,-0.0118180671706796,-0.0188368409872055,0,
00:00:05.288,-0.00511645479127765,0.031353622674942,0.0317281484603882,0,
00:00:05.292,-0.00214375206269324,0.00865572690963745,0.0343955010175705,0,
00:00:05.296,-0.00357686961069703,-0.0292428527027369,-0.0384433604776859,0,
00:00:05.3,-0.00506679201498628,-0.0372996889054775,-0.0213804114609957,0,
00:00:05.304,0.0055843167938292,0.00293207378126681,-0.00422694440931082,0,
00:00:05.308,0.0120270978659391,0.027849929407239,0.000262398098129779,0,
00:00:05.312,-0.0057485643774271,-0.000671785557642579,0.0132622187957168,0,
00:00:05.316,-0.0039807166904211,0.00227907602675259,0.00958480034023523,0,
00:00:05.32,-0.00134599953889847,0.000325396249536425,0.000120769174827728,0,
00:00:05.324,0.00264440453611314,0.0130338408052921,0.00539125315845013,0,
00:00:05.328,-0.00899232923984528,-0.0114689748734236,0.00204367912374437,0,
00:00:05.332,0.00939323008060455,-0.0267862416803837,0.00139221001882106,0,
00:00:05.336,0.00483684102073312,0.0262286625802517,-0.00916447397321463,0,
00:00:05.34,0.00390528771094978,0.03632503002882,-0.0225232634693384,0,
00:00:05.344,-0.00482977693900466,-0.0265604313462973,-0.00145219720434397,0,
00:00:05.348,-0.0124625843018293,-0.0391377545893192,0.0228512547910213,0,
00:00:05.352,0.000316313788061962,-0.00420682644471526,-0.0084488857537508,0,
00:00:05.356,0.00477762380614877,0.0150672839954495,0.000557690102141351,0,
00:00:05.36,0.00631598196923733,0.0156379342079163,0.0264712516218424,0,
00:00:05.364,0.00187528564129025,0.00821983441710472,-0.0145452208817005,0,
00:00:05.368,0.00628409208729863,-0.00169683061540127,-0.0126506397500634,0,
00:00:05.372,-0.0153297353535891,0.0206976421177387,0.00698394468054175,0,
00:00:05.376,-0.0298850201070309,0.0125304209068418,-0.00217023142613471,0,
00:00:05.38,0.0235822461545467,-0.0522274747490883,0.0120725771412253,0,
00:00:05.384,0.0282520726323128,-0.0202326476573944,-0.0201891884207726,0,
00:00:05.388,0.00552803091704845,-0.000447213707957417,-0.0101622026413679,0,
00:00:05.392,-0.0120963575318456,0.0125152701511979,0.0115693416446447,0,
00:00:05.396,-0.0118077825754881,0.0258095264434814,0.0104981660842896,0,
00:00:05.4,-0.00753034371882677,0.015525751747191,0.00113069580402225,0,
00:00:05.404,-0.00802188366651535,0.0252552945166826,0.00582590093836188,0,
00:00:05.408,0.0126248486340046,-0.00190728052984923,0.00823885481804609,0,
00:00:05.412,0.00308560277335346,-0.0852637365460396,-0.0192606970667839,0,
00:00:05.416,-0.00145897478796542,0.00848614051938057,-0.00870259571820498,0,
00:00:05.42,0.00641449866816401,0.00561591470614076,0.0337058790028095,0,
00:00:05.424,-0.00625518336892128,0.0186698902398348,-0.0286456309258938,0,
00:00:05.428,-0.00334151415154338,0.000100322562502697,-0.0212405733764172,0,
00:00:05.432,0.00781126692891121,0.039672739803791,-0.00474677607417107,0,
00:00:05.436,0.00396126182749867,0.00776647590100765,0.023303210735321,0,
00:00:05.44,-0.00183595879934728,-0.0325547084212303,0.0207957476377487,0,
00:00:05.444,-0.004504703450948,-0.0229756161570549,0.00706441141664982,0,
00:00:05.448,-0.00585089297965169,-0.00908525474369526,0.00955827813595533,0,
00:00:05.452,0.00265672919340432,0.026272090151906,-0.0300478804856539,0,
00:00:05.456,-0.0161256995052099,-0.00956646353006363,-0.00163707102183253,0,
00:00:05.46,0.0141363423317671,0.00473718019202352,-0.0265700574964285,0,
00:00:05.464,0.0158389192074537,0.0241663213819265,0.0234572943300009,0,
00:00:05.468,0.00381991500034928,-0.00960722845047712,0.0124792158603668,0,
00:00:05.472,-0.0123144760727882,-0.0197824891656637,-0.0112297143787146,0,
00:00:05.476,-0.00304683577269316,0.00998746696859598,0.00285089830867946,0,
00:00:05.48,-0.00133934232871979,-0.00985199492424726,0.00828849896788597,0,
00:00:05.484,0.00103288795799017,0.00533276377245784,-0.000778253423050046,0,
00:00:05.488,-0.000331403221935034,0.0145790772512555,-0.0152261974290013,0,
00:00:05.492,-0.0177584085613489,-0.0180427711457014,0.0178695544600487,0,
00:00:05.496,0.0108858346939087,0.0122361453250051,-0.0242358315736055,0,
00:00:05.5,0.0276252217590809,0.00465123169124126,0.0177245661616325,0,
00:00:05.504,-0.0250562001019716,-0.0145155098289251,0.00767243420705199,0,
00:00:05.508,0.00828865729272366,0.00893812533468008,-0.0195628181099892,0,
00:00:05.512,-0.00595031771808863,-0.0359598845243454,0.000220481510041282,0,
00:00:05.516,-0.000878495688084513,0.0369851067662239,0.000711570028215647,0,
00:00:05.52,0.0127171603962779,0.0159697718918324,0.0449320748448372,0,
00:00:05.524,0.00531430635601282,-0.00659783324226737,-0.0310701634734869,0,
00:00:05.528,-0.0165918748825789,-0.0217086970806122,-0.0379309356212616,0,
00:00:05.532,-0.00672329217195511,-0.014312126673758,0.0228931177407503,0,
00:00:05.536,-0.00771489785984159,-0.000751002284232527,0.0221784003078938,0,
00:00:05.54,0.00988290645182133,0.0294623766094446,-0.0057151960209012,0,
00:00:05.544,0.00854396261274815,0.0139541877433658,-0.00888977665454149,0,
00:00:05.548,0.0128301167860627,-0.00777644012123346,-0.00579960085451603,0,
00:00:05.552,-0.00769145460799336,-0.0122510707005858,0.0137071646749973,0,
00:00:05.556,-0.00909235514700413,-0.0244916062802076,-0.000656304939184338,0,
00:00:05.56,-0.0038481205701828,-0.00023847512784414,-0.0133510222658515,0,
00:00:05.564,0.005307677667588,0.0526643209159374,0.00195557670667768,0,
00:00:05.568,0.0118582285940647,0.0243416130542755,0.00344344740733504,0,
00:00:05.572,-0.0184356048703194,-0.0565513595938683,0.00762229552492499,0,
00:00:05.576,-0.011352676898241,-0.0364022888243198,0.0084080146625638,0,
00:00:05.58,0.0192791037261486,-0.0018911772640422,-0.017212500795722,0,
00:00:05.584,0.0215805843472481,0.032324206084013,-0.00579339079558849,0,
00:00:05.588,-0.0205911733210087,0.0279022064059973,0.00880340579897165,0,
00:00:05.592,-0.0155272800475359,-0.00736889848485589,0.00790077354758978,0,
00:00:05.596,0.0142380157485604,0.00679942546412349,-0.00437228847295046,0,
00:00:05.6,0.00559741817414761,-0.010970888659358,-0.00755357183516026,0,
00:00:05.604,-0.00343755655921996,-0.0174505636096001,-0.000321457191603258,0,
00:00:05.608,-0.0020899020601064,0.00735710328444839,-0.00573830353096128,0,
00:00:05.612,-0.00374804995954037,0.00451855780556798,0.00841263122856617,0,
00:00:05.616,-0.00310352933593094,-0.0144280027598143,0.0119380177929997,0,
00:00:05.62,0.00351484771817923,0.0262239910662174,-0.00379115715622902,0,
00:00:05.624,0.00403106864541769,-0.0250834655016661,-0.0016572552267462,0,
00:00:05.628,-0.00637849606573582,-0.00362331443466246,-0.00893701240420341,0,
00:00:05.632,0.0138054890558124,0.0487403050065041,0.0113441180437803,0,
00:00:05.636,0.00742989080026746,0.00247784331440926,-0.0192220248281956,0,
00:00:05.64,-0.0157290063798428,-0.0489373542368412,0.00768589787185192,0,
00:00:05.644,-0.0135037954896688,-0.045435406267643,-0.00314964982680976,0,
00:00:05.648,0.00322810164652765,0.0610838085412979,0.0251320134848356,0,
00:00:05.652,0.00159190676640719,-2.47330517595401E-05,0.0077043566852808,0,
00:00:05.656,0.0137300388887525,-0.00673463102430105,-0.0236038155853748,0,
00:00:05.66,0.0108145587146282,0.0109668355435133,-0.0237786527723074,0,
00:00:05.664,-0.0168452691286802,0.00189588707871735,0.0161659140139818,0,
00:00:05.668,-0.000299177918350324,-0.00497498363256454,-0.00277134426869452,0,
00:00:05.672,0.00177804590202868,-0.00629061786457896,-0.00112944131251425,0,
00:00:05.676,-0.0021082004532218,0.00877116154879332,0.0102676087990403,0,
00:00:05.68,-0.00353331910446286,0.000501135771628469,0.0188151597976685,0,
00:00:05.684,0.00430317083373666,-0.00278875837102532,-0.0120253441855311,0,
00:00:05.688,0.000983855803497136,-0.00724732270464301,-0.0116638150066137,0,
00:00:05.692,-9.40745376283303E-05,-0.0104719689115882,0.0157772563397884,0,
00:00:05.696,-0.00024829016183503,2.81600114249159E-05,-0.0203598029911518,0,
00:00:05.7,-0.0022079476621002,-0.0087921442463994,0.0130283432081342,0,
00:00:05.704,-0.000117054347356316,0.0369723960757256,-0.00288917263969779,0,
00:00:05.708,0.0181753691285849,0.058040052652359,-0.00640587089583278,0,
00:00:05.712,-0.014067686162889,-0.0661056563258171,0.000922813662327826,0,
00:00:05.716,-0.0268039014190435,-0.0710683614015579,0.0242428034543991,0,
00:00:05.72,0.0101505983620882,0.0416300483047962,-0.0355521887540817,0,
00:00:05.724,0.0318496525287628,0.0426331125199795,-0.0058930623345077,0,
00:00:05.728,0.000440299918409437,-0.0196398254483938,0.0286638401448727,0,
00:00:05.732,-0.0109982769936323,-0.00209175446070731,0.0136495009064674,0,
00:00:05.736,-0.0122106289491057,0.00371753517538309,-0.00400471314787865,0,
00:00:05.74,-0.000302077940432355,0.00501705892384052,-0.0225936323404312,0,
00:00:05.744,0.000752435647882521,0.00853108894079924,-0.00916584022343159,0,
00:00:05.748,-0.00185661611612886,-0.015566254965961,-0.000775474938564003,0,
00:00:05.752,0.0086373183876276,-0.0109497793018818,0.0272031370550394,0,
00:00:05.756,0.00721018295735121,0.00395153043791652,0.00105995323974639,0,
00:00:05.76,-0.00476633897051215,0.0087310615926981,-0.00996690429747105,0,
00:00:05.764,-0.00773717323318124,-0.00213832035660744,-0.0155118871480227,0,
00:00:05.768,-0.000490264559630305,-0.0180029403418303,-0.0078672282397747,0,
00:00:05.772,-0.00181175640318543,-0.00794559251517057,0.0335772223770618,0,
00:00:05.776,0.0125233307480812,0.115772247314453,0.00809531193226576,0,
00:00:05.78,-0.00151187111623585,-0.027723103761673,-0.00578129151836038,0,
00:00:05.784,-0.0088332137092948,-0.105723686516285,-0.0222776532173157,0,
00:00:05.788,0.00925842113792896,-0.0427360273897648,-0.00608777161687613,0,
00:00:05.792,-0.0236443001776934,0.0141974100843072,0.0125920940190554,0,
00:00:05.796,0.0357432886958122,0.138737007975578,-0.00664883013814688,0,
00:00:05.8,0.00270041823387146,-0.0147221554070711,0.0111775705590844,0,
00:00:05.804,-0.0405795462429523,-0.0447602681815624,0.020886642858386,0,
00:00:05.808,-0.00927311088889837,0.00267239403910935,-0.0199513025581837,0,
00:00:05.812,0.0282406881451607,-0.00622442783787847,-0.0198968481272459,0,
00:00:05.816,0.0241384971886873,-0.0216947495937347,-0.0182008277624846,0,
00:00:05.82,-0.0190106928348541,-0.00838406290858984,0.0370482429862022,0,
00:00:05.824,-0.0040355515666306,0.000954822986386716,0.00928781274706125,0,
00:00:05.828,0.0128544718027115,0.0323790013790131,0.00974567886441946,0,
00:00:05.832,-0.0112747838720679,0.0131202172487974,-0.0093498146161437,0,
00:00:05.836,-0.00590903079137206,0.000228018339839764,-0.0305613894015551,0,
00:00:05.84,-0.00358261540532112,-0.00679178303107619,-0.00576657988131046,0,
00:00:05.844,-0.000742631207685918,-0.0145574621856213,0.01927007175982,0,
00:00:05.848,0.00816575717180967,-0.00225345301441848,0.0149575788527727,0,
00:00:05.852,0.00153892789967358,-0.0142851248383522,-0.0115673104301095,0,
00:00:05.856,0.00460969377309084,0.0121357440948486,0.0164884459227324,0,
00:00:05.86,-0.00143535528331995,0.0160344243049622,-0.00840702839195728,0,
00:00:05.864,-0.0113013982772827,-0.0169933661818504,-0.00879073329269886,0,
00:00:05.868,0.00780741218477488,0.00930886995047331,-0.00262899626977742,0,
00:00:05.872,0.0143195316195488,0.0509354136884212,-0.00624690251424909,0,
00:00:05.876,-0.0123832020908594,-0.0652182847261429,-0.00127057451754808,0,
00:00:05.88,-0.0109297102317214,-0.0227602906525135,0.0287611559033394,0,
00:00:05.884,0.00229180930182338,0.0104109384119511,-0.0159396026283503,0,
00:00:05.888,0.00079531705705449,0.02419070340693,0.00761605706065893,0,
00:00:05.892,-0.00120999314822257,-0.00582831632345915,-0.0195535439997911,0,
00:00:05.896,0.0117437681183219,0.0231509823352098,0.00438848091289401,0,
00:00:05.9,0.00792290642857552,0.00928876176476479,0.00116632611025125,0,
00:00:05.904,-0.00437595834955573,-0.0189031716436148,0.00706501211971045,0,
00:00:05.908,-0.0100563000887632,-0.0141137624159455,-0.00657700002193451,0,
00:00:05.912,-0.00165958655998111,-0.00440606521442533,0.00291108968667686,0,
00:00:05.916,-0.00387561717070639,-0.00112036638893187,0.0151477325707674,0,
00:00:05.92,-0.00387129560112953,0.00764498580247164,0.0029842637013644,0,
00:00:05.924,-0.000766192213632166,0.0119828945025802,-0.00203587068244815,0,
00:00:05.928,0.029731871560216,0.0143204107880592,-0.0397133864462376,0,
00:00:05.932,-0.0128572331741452,-0.0239708330482244,0.0182271618396044,0,
00:00:05.936,-0.0168369766324759,-0.0214405059814453,-0.00774962408468127,0,
00:00:05.94,0.0208589117974043,0.07420664280653,0.00693268422037363,0,
00:00:05.944,0.0016404272755608,-0.0284230038523674,0.0209800321608782,0,
00:00:05.948,-0.0133258001878858,-0.0735879987478256,-0.00109048676677048,0,
00:00:05.952,-0.00347674591466784,-0.00844173412770033,-0.00952022708952427,0,
00:00:05.956,0.00350366067141294,0.059245303273201,0.0104646543040872,0,
00:00:05.96,-0.00121391098946333,0.0311757139861584,-0.0248435623943806,0,
00:00:05.964,0.00462530460208654,-0.00895952805876732,0.0180173888802528,0,
00:00:05.968,0.000378979369997978,-0.017925227060914,-0.00545681640505791,0,
00:00:05.972,-0.000850577431265265,0.000526808551512659,-0.0174355376511812,0,
00:00:05.976,-0.000737225345801562,0.00429598661139607,0.0145379425957799,0,
00:00:05.98,0.00181969802360982,-0.00916756968945265,-0.00287203956395388,0,
00:00:05.984,-0.00185749854426831,-0.0322216115891933,-0.0019911730196327,0,
00:00:05.988,-0.00346965505741537,0.0164474938064814,0.0128061855211854,0,
00:00:05.992,0.00821367371827364,0.0832217186689377,0.0174347572028637,0,
00:00:05.996,-0.00131137087009847,-0.047812707722187,-0.0243410225957632,0,
00:00:06,-0.0182084534317255,-0.0555866770446301,0.00303923361934721,0,
00:00:06.004,0.00936479214578867,-0.00644389539957047,0.00488998601213098,0,
00:00:06.008,0.0153229534626007,0.0221278127282858,-0.0127706471830606,0,
00:00:06.012,6.51800801279023E-05,0.0490584671497345,-0.00259723677299917,0,
00:00:06.016,-0.00383253255859017,0.00389232207089663,-0.0012070374796167,0,
00:00:06.02,0.00070976180722937,-0.0247801300138235,-0.00209777918644249,0,
00:00:06.024,-0.00383306154981256,-0.00585057493299246,0.00172704982105643,0,
00:00:06.028,-0.0370755232870579,0.00740727689117193,0.0586934126913548,0,
00:00:06.032,0.0172813534736633,-0.0292412359267473,-0.0235132612287998,0,
00:00:06.036,0.0237877517938614,-0.00427835993468761,-0.0508485920727253,0,
00:00:06.04,0.0153786661103368,0.0122186588123441,0.00145128148142248,0,
00:00:06.044,-0.00843706447631121,0.0173566751182079,0.0103008858859539,0,
00:00:06.048,-0.012663540430367,0.0156279001384974,0.0107985204085708,0,
00:00:06.052,-0.00150017172563821,-0.00643765646964312,0.0130547117441893,0,
00:00:06.056,-0.0049822274595499,-0.00924071203917265,0.00641824491322041,0,
00:00:06.06,0.000366202380973846,-0.00750838965177536,-0.0100314533337951,0,
00:00:06.064,-0.00411038799211383,-0.00337992934510112,-0.00489481957629323,0,
00:00:06.068,0.014190224930644,-0.00985607411712408,-0.0131572587415576,0,
00:00:06.072,0.00644353590905666,-0.00409160926938057,0.0252642761915922,0,
00:00:06.076,-0.0307312626391649,0.045479703694582,-0.00748030282557011,0,
00:00:06.08,0.00947917997837067,0.0311561543494463,-0.00300347455777228,0,
00:00:06.084,0.0127656506374478,-0.0633629485964775,-0.0186177883297205,0,
00:00:06.088,0.0128575367853045,-0.0223530177026987,-0.00234471447765827,0,
00:00:06.092,-0.00231691496446729,-0.00618369737640023,0.0177431479096413,0,
00:00:06.096,-0.0134593136608601,0.0204896051436663,0.0078096161596477,0,
00:00:06.1,-0.00869612954556942,0.00269803125411272,0.012996026314795,0,
00:00:06.104,-0.000681432720739394,0.00948564056307077,-0.0254654418677092,0,
00:00:06.108,0.0126976715400815,0.0748986899852753,-0.0142032140865922,0,
00:00:06.112,0.00562679208815098,-0.0410767532885075,0.0248725507408381,0,
00:00:06.116,-0.00709700491279364,-0.0365050137042999,-0.0068018208257854,0,
00:00:06.12,-0.0211032591760159,-0.028950210660696,0.0155286183580756,0,
00:00:06.124,0.0182411037385464,0.0136730773374438,-0.00906026922166348,0,
00:00:06.128,0.00558956526219845,0.0249614994972944,-0.0204683914780617,0,
00:00:06.132,-0.00658736284822226,-0.0251091439276934,0.0168665256351233,0,
00:00:06.136,0.0036420589312911,0.0146650243550539,0.0132950423285365,0,
00:00:06.14,0.00288236537016928,0.00683306716382504,-0.00204701442271471,0,
00:00:06.144,0.001609196071513,0.0263270381838083,-0.0273178368806839,0,
00:00:06.148,-0.00659842928871512,0.0042295241728425,-0.0066419430077076,0,
00:00:06.152,-0.00224961480125785,-0.0301823262125254,0.0146738942712545,0,
00:00:06.156,0.00427278084680438,-0.0167031791061163,0.00457971030846238,0,
00:00:06.16,-0.00078224390745163,-0.00369210354983807,-0.00263856328092515,0,
00:00:06.164,-0.010363195091486,0.00110376148950309,0.0192741937935352,0,
00:00:06.168,0.00668581482023001,0.0165724381804466,-0.00590258883312345,0,
00:00:06.172,0.0129252532497048,0.0249973051249981,0.00578871415928006,0,
00:00:06.176,-0.0146011868491769,-0.0111811980605125,-0.0116614941507578,0,
00:00:06.18,-0.00560306385159492,-0.0208333376795053,-0.00641711987555027,0,
00:00:06.184,0.012193133123219,0.0119013292714953,-0.0071180434897542,0,
00:00:06.188,0.00556319672614336,0.0008901686524041,0.0122610721737146,0,
00:00:06.192,-0.00106820103246719,-0.00793963298201561,-0.0130029264837503,0,
00:00:06.196,-0.004231883212924,-0.00584757840260863,-0.0061988914385438,0,
00:00:06.2,-0.00395390391349792,0.0121531803160906,0.0197059120982885,0,
00:00:06.204,0.000202476308913901,0.0044256360270083,0.010933043435216,0,
00:00:06.208,0.00452646194025874,0.00598559435456991,-0.00458222068846226,0,
00:00:06.212,-0.00816783122718334,-0.020899323746562,-0.0153633337467909,0,
00:00:06.216,0.000520719680935144,-0.0104561997577548,0.0223686750978231,0,
00:00:06.22,0.000943038379773498,0.00456800777465105,-0.0118645504117012,0,
00:00:06.224,-0.00601422553882003,0.0135502899065614,-0.00426679290831089,0,
00:00:06.228,0.0102601740509272,0.00976218283176422,-0.00887851510196924,0,
00:00:06.232,0.00785374641418457,0.00621848879382014,-0.00802655052393675,0,
00:00:06.236,-0.00141207710839808,-0.00769583694636822,0.00643771886825562,0,
00:00:06.24,-0.00231014215387404,-0.00890854746103287,0.0215851273387671,0,
00:00:06.244,-0.00356466136872768,-0.0150244990363717,-0.0059656766243279,0,
00:00:06.248,-0.00103454024065286,0.0244583021849394,0.00808910839259624,0,
00:00:06.252,-0.00132696924265474,0.0136933214962482,7.15328178557684E-06,0,
00:00:06.256,-0.00744924880564213,-0.031731866300106,-0.0244696624577045,0,
00:00:06.26,0.00760272052139044,-0.00475479243323207,0.010948377661407,0,
00:00:06.264,0.00348189054057002,0.0105299651622772,0.00416149571537972,0,
00:00:06.268,-0.00422102957963943,-0.0129108335822821,-0.0162567049264908,0,
00:00:06.272,-0.00397807732224464,-0.0183971542865038,-0.00634252745658159,0,
00:00:06.276,0.0138034783303738,0.0842180773615837,0.0353700406849384,0,
00:00:06.28,-0.00759927835315466,0.0163898784667253,-0.00386257586069405,0,
00:00:06.284,-0.00618211319670081,-0.0657325312495232,-0.0115288905799389,0,
00:00:06.288,0.00642972346395254,-0.0446201898157597,-0.000446239981101826,0,
00:00:06.292,0.0126415509730577,0.0127176428213716,-0.001890575629659,0,
00:00:06.296,-0.0146930981427431,0.00689865322783589,-0.00741124665364623,0,
00:00:06.3,-0.00601976038888097,0.0267244763672352,-0.00845436938107014,0,
00:00:06.304,-0.0115129826590419,0.0184230338782072,0.0239724591374397,0,
00:00:06.308,0.0179342348128557,0.0109220296144485,0.0155349215492606,0,
00:00:06.312,0.0178015027195215,-0.00816301163285971,-0.00551491696387529,0,
00:00:06.316,-0.00685782125219703,-0.0321686305105686,-0.015886876732111,0,
00:00:06.32,-0.00845200009644032,-0.0136029683053494,-0.0216899905353785,0,
00:00:06.324,-0.00349428178742528,0.0173308439552784,-0.000772387604229152,0,
