Elapsed Time,EMG1,EMG2,EMG3,BioRadio Event,
00:00:00,-0.197199106216431,0.215881124138832,-1.06902670860291,0,
00:00:00.004,0.185579851269722,-0.209585085511208,1.02766990661621,0,
00:00:00.008,0.153817847371101,-0.168897598981857,0.833699703216553,0,
00:00:00.012,0.0244871210306883,-0.00900102965533733,0.0828641280531883,0,
00:00:00.016,-0.0744224712252617,0.0898414850234985,-0.433352172374725,0,
00:00:00.02,-0.101630702614784,0.10435800999403,-0.523298680782318,0,
00:00:00.024,-0.0659773722290993,0.0593438893556595,-0.32287809252739,0,
00:00:00.028,-0.0156486965715885,-0.0178465414792299,-0.0309552997350693,0,
00:00:00.032,0.0301204491406679,-0.0199859458953142,0.162271618843079,0,
00:00:00.036,0.0419006869196892,-0.0231214445084333,0.199457675218582,0,
00:00:00.04,0.0371764302253723,-0.0198756381869316,0.14667671918869,0,
00:00:00.044,0.0142291029915214,-0.0176435131579638,0.0475313626229763,0,
00:00:00.048,-0.0146572608500719,-0.00669047702103853,-0.0173306539654732,0,
00:00:00.052,-0.00775064481422305,0.0125113232061267,-0.0532236211001873,0,
00:00:00.056,-0.011703765951097,0.00808078516274691,-0.0592277012765408,0,
00:00:00.06,-0.00435901619493961,-0.00109900417737663,-0.0244323704391718,0,
00:00:00.064,-0.00188639434054494,0.00599077809602022,0.00306917377747595,0,
00:00:00.068,0.00640630861744285,0.0106677217409015,0.0161040294915438,0,
00:00:00.072,0.00227279611863196,-0.0035606911405921,0.00356225273571908,0,
00:00:00.076,0.00233344454318285,-0.00757875712588429,0.0123163666576147,0,
00:00:00.08,-0.0024483532179147,-0.00555983558297157,0.0101063651964068,0,
00:00:00.084,-0.00215082010254264,-0.00162105390336365,-0.0054671810939908,0,
00:00:00.088,-0.000445670098997653,0.00353419897146523,-0.0102660683915019,0,
00:00:00.092,0.000825482187792659,0.000645467487629503,0.00155355059541762,0,
00:00:00.096,-0.000924524501897395,-0.00157175946515054,0.0164816286414862,0,
00:00:00.1,0.00274769868701696,0.00272192340344191,-0.0117013407871127,0,
00:00:00.104,0.00180838501546532,0.000206952507141978,0.000137304494273849,0,
00:00:00.108,-0.000112690402602311,0.00655059749260545,-0.00699166860431433,0,
00:00:00.112,0.000785939279012382,-0.00538403820246458,-0.000991135952062905,0,
00:00:00.116,-0.00335674034431577,-0.00668369187042117,-0.00203526858240366,0,
00:00:00.12,-0.00242242519743741,0.00755094224587083,0.00462246406823397,0,
00:00:00.124,0.001850102446042,0.00194416695740074,0.00505920452997088,0,
00:00:00.128,0.00136982789263129,-0.00199073064140975,0.000387699372367933,0,
00:00:00.132,-0.00205492856912315,-0.00709760887548327,-0.000487443146994337,0,
00:00:00.136,-0.00704143429175019,-0.00619376730173826,0.00578885991126299,0,
00:00:00.14,0.006795525085181,0.0110260369256139,-0.00421345001086593,0,
00:00:00.144,0.00849425513297319,0.0058683785609901,-0.00104307802394032,0,
00:00:00.148,0.00172056281007826,0.00440776720643044,-0.00431320071220398,0,
00:00:00.152,-0.00587589340284467,-0.00686709536239505,-0.00889728683978319,0,
00:00:00.156,-0.00322631350718439,-0.00866604968905449,0.00606375839561224,0,
00:00:00.16,-0.00593782030045986,0.00172384746838361,-0.00141473964322358,0,
00:00:00.164,-0.00066602264996618,-0.000991841545328498,0.0169043224304914,0,
00:00:00.168,0.00782126002013683,0.00552319874987006,0.00370868761092424,0,
00:00:00.172,0.00264765694737434,0.0010999517980963,-0.0171395931392908,0,
00:00:00.176,-0.000417744915466756,-0.000619347265455872,-0.00776855368167162,0,
00:00:00.18,-0.0016005338402465,-0.00506970519199967,0.001799785066396,0,
00:00:00.184,-0.00354318530298769,0.00334397377446294,0.0123987356200814,0,
00:00:00.188,0.00124183157458901,0.00310296565294266,0.00788231659680605,0,
00:00:00.192,0.00164489704184234,0.0025393720716238,-0.0167132038623095,0,
00:00:00.196,0.000596420606598258,-0.00345665961503983,0.00430286675691605,0,
00:00:00.2,0.001706165028736,-0.00354269612580538,-0.00153628073167056,0,
00:00:00.204,-0.00270741083659232,-0.00138788891490549,0.00387402134947479,0,
00:00:00.208,-0.00221083569340408,0.00271870708093047,-0.000273671583272517,0,
00:00:00.212,-0.0024373191408813,-0.000418931595049798,-0.00116123724728823,0,
00:00:00.216,0.00296357739716768,-0.00025750877102837,-0.000716920185368508,0,
00:00:00.22,0.0029589245095849,0.000478306203149259,-0.00628139125183225,0,
00:00:00.224,0.00313840014860034,0.00284402607940137,0.0104146618396044,0,
00:00:00.228,-0.00260859238915145,-0.00350468885153532,0.0117364842444658,0,
00:00:00.232,-0.00712297344580293,0.000445760961156338,-0.0144914872944355,0,
00:00:00.236,0.000582901411689818,-0.000848623225465417,-0.0111876940354705,0,
00:00:00.24,0.00770710967481136,0.00262709590606391,0.00950930267572403,0,
00:00:00.244,0.00533226784318686,0.00360303372144699,-0.00808830372989178,0,
00:00:00.248,-0.00810555089265108,-0.00648392643779516,0.0047395690344274,0,
00:00:00.252,-0.00801599118858576,-0.00114412687253207,0.0106855155900121,0,
00:00:00.256,0.00374185456894338,0.00376847991719842,-0.000649257388431579,0,
00:00:00.26,0.00915693026036024,0.00635461835190654,-0.00585796497762203,0,
00:00:00.264,0.000433288019848987,-0.00226848619058728,-0.0030669670086354,0,
00:00:00.268,-0.0057668904773891,-0.00494821276515722,0.00881901476532221,0,
00:00:00.272,-0.00178731442429125,-0.00355773745104671,-0.00569384917616844,0,
00:00:00.276,-0.00428541889414191,-0.0111647387966514,-0.00462496560066938,0,
00:00:00.28,0.000323217711411417,0.00501918932422996,1.4184636711434E-05,0,
00:00:00.284,0.0037642631214112,0.0162575300782919,0.00915820244699717,0,
00:00:00.288,0.00607345160096884,0.00956297758966684,0.0054856026545167,0,
00:00:00.292,0.00632506795227528,0.00127060513477772,-0.0133137684315443,0,
00:00:00.296,-0.00778169045224786,-0.0216326639056206,-0.0094534857198596,0,
00:00:00.3,-0.00880250614136457,-0.0184771902859211,0.00824283249676228,0,
00:00:00.304,0.00252620805986226,0.0100321797654033,0.0169289596378803,0,
00:00:00.308,0.00616228580474854,0.0208810772746801,-0.000678413896821439,0,
00:00:00.312,0.00210732757113874,0.00645954022184014,-0.0165716931223869,0,
00:00:00.316,-0.00597302475944161,-0.00456521194428205,-0.00185338710434735,0,
00:00:00.32,-0.00124849390704185,-0.010382859967649,-0.000944355851970613,0,
00:00:00.324,0.000977906747721136,-0.00847970973700285,0.00935990549623966,0,
00:00:00.328,-0.000648430723231286,0.00148216786328703,0.000886293652001768,0,
00:00:00.332,0.00498344376683235,0.00905527826398611,-0.00553940841928124,0,
00:00:00.336,-0.00219857227057219,0.000172409345395863,0.0089991195127368,0,
00:00:00.34,0.00436391029506922,-0.003669498488307,0.00111196807119995,0,
00:00:00.344,0.000366703403415158,0.00528325606137514,-0.0125203235074878,0,
00:00:00.348,-0.0138142695650458,-0.00838623940944672,-0.0053934114985168,0,
00:00:00.352,-0.000359102734364569,0.00548543641343713,0.00339383468963206,0,
00:00:00.356,0.00988916214555502,0.000162331183673814,0.0214730557054281,0,
00:00:00.36,0.00383383478038013,-0.00042167300125584,-0.00220079114660621,0,
00:00:00.364,-0.00259507284499705,8.20389468572102E-05,-0.0137060387060046,0,
00:00:00.368,0.00371124665252864,0.00450092786923051,0.000635601114481688,0,
00:00:00.372,-0.000451258209068328,0.00664149085059762,-0.00914072617888451,0,
00:00:00.376,-0.00821922812610865,-0.00909609161317348,-0.00334367086179554,0,
00:00:00.38,-0.0127595560625196,-0.0232021305710077,0.0205913614481688,0,
00:00:00.384,0.00891746394336224,0.00704228738322854,0.00166198157239705,0,
00:00:00.388,0.0146374264732003,0.0201061181724072,-0.0151752466335893,0,
00:00:00.392,-0.00364522007293999,0.00503105018287897,0.00939102936536074,0,
00:00:00.396,-0.000858925981447101,-0.00362968142144382,0.0146383075043559,0,
00:00:00.4,-0.00137329450808465,-0.00812397990375757,-0.00978269893676043,0,
00:00:00.404,-0.00185916491318494,-0.00451555801555514,-0.0168954562395811,0,
00:00:00.408,0.00060473702615127,0.00636204425245523,-0.0105255106464028,0,
00:00:00.412,-0.000450052786618471,0.00301542202942073,0.0062027876265347,0,
00:00:00.416,-0.00538531085476279,-0.00385256926529109,0.00770532619208097,0,
00:00:00.42,0.00297032319940627,-0.00994859542697668,0.00872747134417295,0,
00:00:00.424,-0.00311080715619028,-0.00345829781144857,0.0244555249810219,0,
00:00:00.428,0.0130636394023895,0.0182066448032856,-0.000207205506740138,0,
00:00:00.432,-0.00806920323520899,0.00525027373805642,-0.0313490778207779,0,
00:00:00.436,-0.00812623742967844,-0.00756773678585887,-0.0209385678172112,0,
00:00:00.44,0.0129987094551325,-9.16949356906116E-05,0.0176927242428064,0,
00:00:00.444,-0.00172887777443975,-0.0052969167008996,0.000485832075355574,0,
00:00:00.448,-0.00371707789599895,-0.0069150566123426,-0.00233053555712104,0,
00:00:00.452,0.00473517831414938,0.00897047761827707,0.0213109459728003,0,
00:00:00.456,-0.00312508526258171,0.00206933007575572,0.000328767695464194,0,
00:00:00.46,-0.00534864468500018,-0.00869288947433233,-0.00725175021216273,0,
00:00:00.464,0.00314562139101326,0.00706950714811683,0.00359723577275872,0,
00:00:00.468,0.000771129154600203,0.010171671397984,-0.0191883090883493,0,
00:00:00.472,-0.00176012399606407,-0.001334851491265,-0.00390498922206461,0,
00:00:00.476,0.00229144957847893,-0.00856485217809677,0.00205041258595884,0,
00:00:00.48,0.00397315016016364,-0.00598210515454412,0.0125110596418381,0,
00:00:00.484,-0.00171207240782678,-0.00509028555825353,0.0213224831968546,0,
00:00:00.488,-0.000496875902172178,0.0106713706627488,-0.00838398560881615,0,
00:00:00.492,-0.00543641531839967,0.0048480061814189,-0.0220166482031345,0,
00:00:00.496,-0.00170466909185052,-0.00876730307936668,0.0040608337149024,0,
00:00:00.5,0.00635754875838757,0.00288991210982203,0.0104394946247339,0,
00:00:00.504,0.00367104611359537,0.00577321602031589,-0.0084450151771307,0,
00:00:00.508,-0.00688320025801659,-0.000995049835182726,-0.00554015394300222,0,
00:00:00.512,0.00509587861597538,0.00319906556978822,-0.00269142887555063,0,
00:00:00.516,-0.00183417950756848,-0.0123870922252536,0.021617628633976,0,
00:00:00.52,-0.000329719012370333,-0.00374351930804551,-0.00380303314886987,0,
00:00:00.524,0.00136903533712029,0.0136287091299891,-0.0074659064412117,0,
00:00:00.528,-0.00907346792519093,-0.0147414915263653,0.00482859509065747,0,
00:00:00.532,0.00170960451941937,0.0077536809258163,-0.00293859955854714,0,
00:00:00.536,0.00472169509157538,0.0105984890833497,-0.00779880955815315,0,
00:00:00.54,0.0054707913659513,0.00655498122796416,-0.00165000965353101,0,
00:00:00.544,0.000890895258635283,-0.00846389401704073,0.00389719381928444,0,
00:00:00.548,-0.0130849191918969,-0.0179870389401913,0.00945837330073118,0,
00:00:00.552,0.00635158782824874,0.00115940207615495,0.00362948793917894,0,
00:00:00.556,0.00387437455356121,0.0072597311809659,-0.000491736922413111,0,
00:00:00.56,0.000412966182921082,0.00600351905450225,-0.0132592665031552,0,
00:00:00.564,0.0024786985013634,0.000126638144138269,0.00232497020624578,0,
00:00:00.568,-0.010094397701323,0.000957182433921844,-0.000740422983653843,0,
00:00:00.572,-0.000520244706422091,-0.00283424509689212,-0.00157814472913742,0,
00:00:00.576,0.0048806443810463,0.00211886037141085,-0.00037960393819958,0,
00:00:00.58,0.000655229494441301,0.00198947754688561,0.0136982155963778,0,
00:00:00.584,0.00157836452126503,-0.00839825998991728,-0.00143971759825945,0,
00:00:00.588,-0.00446526054292917,-0.00638137012720108,-0.00750969583168626,0,
00:00:00.592,0.00442260457202792,0.00782542303204536,0.000112627225462347,0,
00:00:00.596,-0.00440159114077687,0.00434332434087992,-0.00339878792874515,0,
00:00:00.6,-0.000105526662082411,-0.00109994004014879,0.00790200103074312,0,
00:00:00.604,0.0015601395862177,0.00501376343891025,-0.00553765520453453,0,
00:00:00.608,0.00559112662449479,0.000133496025227942,-0.00366191728971899,0,
00:00:00.612,-0.00337825017049909,-0.010393395088613,-0.00312616187147796,0,
00:00:00.616,-0.00560413720086217,-0.00501316040754318,0.017801009118557,0,
00:00:00.62,-0.00108819280285388,0.00209037121385336,0.00272115087136626,0,
00:00:00.624,0.00263726990669966,0.0053652860224247,-0.014645024202764,0,
00:00:00.628,0.00761789781972766,0.00458632176741958,-0.00198867404833436,0,
00:00:00.632,-0.00182099116500467,-0.00234294217079878,-0.000149085011798888,0,
00:00:00.636,-0.00102338520810008,0.0114342607557774,0.0060706096701324,0,
00:00:00.64,0.00271928939037025,-0.00259338272735476,-0.00352420122362673,0,
00:00:00.644,-0.00535181164741516,-0.00805107317864895,-0.00372403953224421,0,
00:00:00.648,-0.00200146134011447,-0.00246017845347524,0.00570781994611025,0,
00:00:00.652,-0.00443513179197907,-0.0165794845670462,0.00876655429601669,0,
00:00:00.656,0.00458627101033926,0.00405162340030074,-0.00123232242185622,0,
00:00:00.66,0.00424708472564816,0.0151368342339993,-0.0137139884755015,0,
00:00:00.664,-0.00710545293986797,0.00674393866211176,0.00311928219161928,0,
00:00:00.668,0.00462908903136849,-0.0024838640820235,0.00461978605017066,0,
00:00:00.672,0.00660607125610113,-0.00204712036065757,-0.00062266323948279,0,
00:00:00.676,0.000962983292993158,-0.0025624071713537,-0.0013860376784578,0,
00:00:00.68,-0.00978832226246595,0.00191735383123159,-0.0109430644661188,0,
00:00:00.684,0.00349313300102949,0.00114489102270454,0.0122540127485991,0,
00:00:00.688,0.000157534013851546,-0.0174519903957844,0.0214197617024183,0,
00:00:00.692,-0.00351759302429855,0.00134445948060602,-0.0140580516308546,0,
00:00:00.696,0.00275387661531568,0.0147823421284556,-0.0198539942502975,0,
00:00:00.7,-0.00482327770441771,0.00154329382348806,-0.0100097423419356,0,
00:00:00.704,-0.00319461873732507,-0.00618412299081683,0.0188489854335785,0,
00:00:00.708,0.00495754554867744,0.00418243417516351,0.0163774453103542,0,
00:00:00.712,0.00775069743394852,0.00261185318231583,-0.00431017344817519,0,
00:00:00.716,0.0069570685736835,0.00505971163511276,-0.0125474901869893,0,
00:00:00.72,-0.00610354775562882,-0.00696559203788638,-0.00120414048433304,0,
00:00:00.724,-0.0116011444479227,-0.0137911969795823,0.00681106839329004,0,
00:00:00.728,0.000203693067305721,-0.00142680120188743,0.000692094676196575,0,
00:00:00.732,0.00778917409479618,0.0142855737358332,-0.00418941071256995,0,
00:00:00.736,-0.000996453687548637,0.0012590098194778,-0.00436844350770116,0,
00:00:00.74,-0.00224541663192213,-0.00435034884139895,-0.00366344512440264,0,
00:00:00.744,-0.000848066352773458,0.0146658886224031,0.011702916584909,0,
00:00:00.748,-0.0035585081204772,-0.0292670521885157,-0.00120782351586968,0,
00:00:00.752,0.00510171614587307,-0.00542460335418582,0.021423390135169,0,
00:00:00.756,0.00625755684450269,0.0257790256291628,-0.00860182661563158,0,
00:00:00.76,-0.00132674491032958,0.0151320770382881,-0.0284266322851181,0,
00:00:00.764,-0.0035550631582737,-0.00441881082952023,-0.00263110618107021,0,
00:00:00.768,-0.000614228192716837,-0.0139608774334192,0.00212650140747428,0,
00:00:00.772,-0.0048757353797555,-0.00993776600807905,0.00469864765182137,0,
00:00:00.776,0.00306738750077784,-0.00216936343349516,0.0198473632335663,0,
00:00:00.78,0.00279613793827593,0.00351784517988563,0.0111780846491456,0,
00:00:00.784,-0.00158018432557583,0.00526411179453135,-0.00818528700619936,0,
00:00:00.788,0.00295847863890231,0.00391507847234607,-0.0120647875592113,0,
00:00:00.792,-0.00585185177624226,0.00551398750394583,-0.0118083609268069,0,
00:00:00.796,-0.00450992491096258,-0.00886653084307909,0.000535031605977565,0,
00:00:00.8,0.00613844115287066,-0.00311403046362102,0.0124065186828375,0,
00:00:00.804,0.00553307076916099,0.00129563070368022,0.00847428385168314,0,
00:00:00.808,-0.000654168776236475,0.00487728603184223,-0.0118210259824991,0,
00:00:00.812,0.00216922536492348,0.00218378286808729,-0.00319990236312151,0,
00:00:00.816,-0.00328542897477746,-0.00101007439661771,0.0015320333186537,0,
00:00:00.82,-0.00366243137978017,0.00170604267623276,-0.00756074022501707,0,
00:00:00.824,0.00240816036239266,-0.00810903590172529,0.0284867510199547,0,
00:00:00.828,-0.00363269890658557,-0.00214853812940419,-0.00498216832056642,0,
00:00:00.832,0.00229671667329967,0.00992615520954132,-0.0210465658456087,0,
00:00:00.836,-0.0111476117745042,-0.0154921337962151,-0.00857503805309534,0,
00:00:00.84,0.00713979080319405,0.00334111973643303,0.0177003592252731,0,
00:00:00.844,0.0125226639211178,0.0143657475709915,0.00302660861052573,0,
00:00:00.848,-0.00690227327868342,0.00361701101064682,0.00494965491816401,0,
00:00:00.852,0.000988436862826347,-0.00609220191836357,-0.00536623923107982,0,
00:00:00.856,0.00491325976327062,-0.0104163996875286,-0.00761635787785053,0,
00:00:00.86,-0.00503314100205898,0.00120093079749495,0.00813531596213579,0,
00:00:00.864,-0.00522206397727132,0.00187122472561896,-0.007370974868536,0,
00:00:00.868,-0.00186426972504705,0.0108794076368213,-0.00834975112229586,0,
00:00:00.872,0.00328982970677316,-0.00375913572497666,0.00384049257263541,0,
00:00:00.876,-0.00155384815298021,-0.0119012910872698,0.0205582492053509,0,
00:00:00.88,0.00244158925488591,0.0032657366245985,0.00456612696871161,0,
00:00:00.884,0.00653121806681156,0.00970478169620037,-0.0202546436339617,0,
00:00:00.888,-0.00314626982435584,-0.00117994227912277,-0.011485880240798,0,
00:00:00.892,-0.00805577915161848,-0.00786558352410793,0.0125669101253152,0,
00:00:00.896,0.000309453054796904,0.00567943509668112,-0.000689488311763853,0,
00:00:00.9,0.00592175917699933,0.00108569907024503,0.00233471230603755,0,
00:00:00.904,0.00982285477221012,-0.00593221420422196,0.0173976272344589,0,
00:00:00.908,0.0022142743691802,0.00170732021797448,-0.00614539068192244,0,
00:00:00.912,-0.0214178934693336,-0.00208148406818509,-0.0157281849533319,0,
00:00:00.916,-0.00990781188011169,-0.00388966733589768,-0.0075938799418509,0,
00:00:00.92,0.00921221356838942,0.0104377865791321,8.60096042742953E-05,0,
00:00:00.924,0.0159169659018517,0.0059333867393434,0.0151200294494629,0,
00:00:00.928,0.00655380543321371,-0.00568802654743195,0.00826070457696915,0,
00:00:00.932,-0.00530240684747696,0.000630243099294603,-0.0119351828470826,0,
00:00:00.936,-0.00753956846892834,-0.0057226219214499,-0.00500964839011431,0,
00:00:00.94,-0.0067976750433445,-0.00773591641336679,0.00581390224397182,0,
00:00:00.944,0.00325324106961489,0.00631466181948781,0.00655796704813838,0,
00:00:00.948,0.00360384793020785,0.00601598341017962,0.000377228367142379,0,
00:00:00.952,0.00121593393851072,0.00162086472846568,-0.00609695352613926,0,
00:00:00.956,-0.00485777435824275,-0.00387624651193619,-0.00881810672581196,0,
00:00:00.96,-0.00149560463614762,-0.00289818225428462,0.00297681777738035,0,
00:00:00.964,0.0105117885395885,-0.000397146155592054,0.00713968742638826,0,
00:00:00.968,-0.00873507279902697,-0.00287360860966146,-0.00318188895471394,0,
00:00:00.972,0.00165593100246042,0.00761840539053082,0.00665639620274305,0,
00:00:00.976,0.00506834080442786,0.000211167556699365,0.00393187487497926,0,
00:00:00.98,-0.000886776251718402,0.00288697355426848,-0.0138627598062158,0,
00:00:00.984,-0.00247801933437586,-0.000590598327107728,-0.00510149542242289,0,
00:00:00.988,0.000304908462567255,-0.00736493710428476,0.01313073374331,0,
00:00:00.992,-0.00240003853105009,0.00276299240067601,-0.0041326591745019,0,
00:00:00.996,-0.00522415339946747,-0.00445151049643755,-0.011981894262135,0,
00:00:01,0.00466300640255213,-0.0012101239990443,0.0147714009508491,0,
00:00:01.004,0.00480073457583785,0.0026242733001709,0.00999908614903688,0,
00:00:01.008,0.00577711360529065,0.00790902506560087,-0.00725148199126124,0,
00:00:01.012,-0.0072021302767098,0.000627886445727199,-0.0139072136953473,0,
00:00:01.016,-0.00356873474083841,-0.000688982952851802,0.00735302595421672,0,
00:00:01.02,-0.000536216772161424,0.00119924999307841,0.000472993066068739,0,
00:00:01.024,0.00323005160316825,-0.0134309260174632,0.0190150979906321,0,
00:00:01.028,-0.00254304124973714,-0.00958457309752703,-0.0186852850019932,0,
00:00:01.032,0.00342261977493763,0.0144360838457942,-0.00954556744545698,0,
00:00:01.036,0.00391364609822631,0.011647361330688,-0.0056111691519618,0,
00:00:01.04,-0.0131568321958184,-0.00223319744691253,0.0159481018781662,0,
00:00:01.044,0.00621841615065932,-0.00309004075825214,0.0193122215569019,0,
00:00:01.048,0.00429308088496327,-0.00538304494693875,-0.0178567226976156,0,
00:00:01.052,0.00106161006260663,-0.000313365220790729,-0.000807443575467914,0,
00:00:01.056,0.000865701062139124,0.00714881718158722,-0.0034980452619493,0,
00:00:01.06,-0.00386906787753105,-0.00726627837866545,0.000640476529952139,0,
00:00:01.064,-0.00302714505232871,-0.0068293446674943,-0.00090469146380201,0,
00:00:01.068,0.00353855080902576,0.0112558575347066,0.00263964803889394,0,
00:00:01.072,-0.00484806718304753,-0.00212885579094291,-0.00441963085904717,0,
00:00:01.076,-0.00170084764249623,-0.000417420320445672,0.00189921888522804,0,
00:00:01.08,0.00446085399016738,0.000317501602694392,0.0059117404744029,0,
00:00:01.084,0.00801090802997351,0.000347066146787256,0.000654379022307694,0,
00:00:01.088,-0.000801968039013445,7.98814799054526E-05,-0.0033281680662185,0,
00:00:01.092,-0.0106070237234235,-0.00224798056297004,0.00880754366517067,0,
00:00:01.096,0.0041123447008431,0.00585677288472652,-0.00930782873183489,0,
00:00:01.1,-0.00278372131288052,-0.00460371607914567,-0.00476550031453371,0,
00:00:01.104,-0.00278795626945794,0.000847000570502132,0.00848369020968676,0,
00:00:01.108,0.00818214658647776,-0.00358938006684184,-0.000969642074778676,0,
00:00:01.112,0.000493455387186259,-0.000831137760542333,-0.0138870673254132,0,
00:00:01.116,0.00488398410379887,0.00825309846550226,0.0117418766021729,0,
00:00:01.12,-0.00489315064623952,-0.00316564459353685,1.02404646895593E-05,0,
00:00:01.124,-0.00517923012375832,-0.00110479339491576,-0.00120646005962044,0,
00:00:01.128,-0.00199208781123161,0.00183126551564783,0.000222686256165616,0,
00:00:01.132,0.00306250597350299,-0.00608087331056595,0.00529158441349864,0,
00:00:01.136,0.000306777539663017,0.00448139058426023,-0.0029708961956203,0,
00:00:01.14,-0.00173720309976488,0.00119985942728817,0.00318359234370291,0,
00:00:01.144,0.000610830204095691,-0.00249191652983427,-0.00257798680104315,0,
00:00:01.148,0.0042875399813056,0.00114439986646175,-0.0100140189751983,0,
00:00:01.152,0.00418212311342359,0.00313090486451983,0.0016480729682371,0,
00:00:01.156,-0.00277495547197759,-0.00195374293252826,0.00485278386622667,0,
00:00:01.16,-0.00180935149546713,-0.000241812012973242,0.00771224359050393,0,
00:00:01.164,-0.00626661907881498,-0.00290102045983076,-0.00506235612556338,0,
00:00:01.168,-0.00184711499605328,-0.00743803707882762,-0.00438777217641473,0,
00:00:01.172,0.00670784758403897,0.00885710772126913,0.00573123479261994,0,
00:00:01.176,2.26352367462823E-05,0.00677051302045584,-0.00798895489424467,0,
00:00:01.18,0.00160234340000898,0.0004211014311295,-0.00270165619440377,0,
00:00:01.184,0.0025049215182662,-0.00369765073992312,0.0163177978247404,0,
00:00:01.188,-0.000761468021664768,-0.0125217381864786,0.00648623565211892,0,
00:00:01.192,-0.00492255901917815,0.00343233463354409,-0.0157536268234253,0,
00:00:01.196,-0.00485615199431777,0.0105382557958364,-0.0124104339629412,0,
00:00:01.2,0.00649644946679473,-0.000273054116405547,0.00651968596503139,0,
00:00:01.204,-0.000182070943992585,-0.00525516550987959,0.0147287528961897,0,
00:00:01.208,-0.00303478282876313,0.00375917414203286,-0.00400399276986718,0,
00:00:01.212,0.00399300549179316,-0.0049799713306129,0.000467431993456557,0,
00:00:01.216,-0.0017597044352442,-0.000442637829110026,-0.0121388686820865,0,
00:00:01.22,-0.00085471075726673,0.00151977536734194,0.00448977528139949,0,
00:00:01.224,0.00293834321200848,-0.00669053569436073,0.00961343478411436,0,
00:00:01.228,0.00153885665349662,0.0107906078919768,-0.00851547997444868,0,
00:00:01.232,-0.000620873004663736,0.00453668227419257,-0.00305238110013306,0,
00:00:01.236,-0.00169441127218306,0.000590100244153291,-0.000244311784626916,0,
00:00:01.24,0.000565611466299742,-0.0061259395442903,0.0137988682836294,0,
00:00:01.244,-0.0026364354416728,-0.00735485600307584,0.000463383330497891,0,
00:00:01.248,-0.00145887490361929,0.000232902282732539,-0.00764834741130471,0,
00:00:01.252,0.000457295594969764,0.00292491959407926,-0.00776711152866483,0,
00:00:01.256,0.00148632423952222,0.00476592918857932,0.000873589655384421,0,
00:00:01.26,0.001408024225384,-0.000701185141224414,0.00174630002584308,0,
00:00:01.264,-0.00137916882522404,-0.00172887893859297,0.00312532810494304,0,
00:00:01.268,0.00398750090971589,-0.000981875928118825,0.00489190639927983,0,
00:00:01.272,0.00123518554028124,-3.2614907468087E-06,-0.000711627537384629,0,
00:00:01.276,-0.00400272151455283,0.00469287298619747,-0.00410055043175817,0,
00:00:01.28,-0.00302095175720751,0.000775145657826215,0.00255453679710627,0,
00:00:01.284,-0.0025261256378144,-0.0173076204955578,0.00328094023279846,0,
00:00:01.288,0.00124646327458322,0.00415586493909359,-0.00317475502379239,0,
00:00:01.292,0.00536919897422194,0.0113174067810178,-0.00170408643316478,0,
00:00:01.296,0.00712378136813641,0.0101871807128191,-0.00786734744906425,0,
00:00:01.3,-0.00644335057586432,-0.00482497410848737,-0.00136250664945692,0,
00:00:01.304,-0.00360004580579698,-0.00788343232125044,0.0170110668987036,0,
00:00:01.308,0.0031325276941061,-0.00285702059045434,0.00236257747747004,0,
00:00:01.312,-0.00746289314702153,-0.000600982224568725,-0.016142450273037,0,
00:00:01.316,0.001884606317617,-0.00565354619175196,-0.00317012262530625,0,
00:00:01.32,0.00600008107721806,0.00493507273495197,0.0103911394253373,0,
00:00:01.324,-0.00158382521476597,0.00589712196961045,0.00172755925450474,0,
00:00:01.328,0.000616827164776623,0.00487320544198155,0.00480348942801356,0,
00:00:01.332,0.000323989894241095,-0.000424683559685946,-0.00970382243394852,0,
00:00:01.336,-0.00250174757093191,-0.00588102964684367,-0.00590728176757693,0,
00:00:01.34,0.00327302259393036,-0.00407648226246238,-0.0010760281002149,0,
00:00:01.344,-0.000970275606960058,-0.00471998611465096,0.00875375047326088,0,
00:00:01.348,0.00243883533403277,0.009900220669806,0.008265545591712,0,
00:00:01.352,-0.00693312613293529,-0.000427558727096766,0.000744516379199922,0,
00:00:01.356,-0.00327753042802215,0.00264315330423415,-0.0108588831499219,0,
00:00:01.36,0.00601588562130928,-0.00203668605536222,-0.00584524823352695,0,
00:00:01.364,-0.00191694451496005,-0.00652670674026012,0.00129314488731325,0,
00:00:01.368,0.00202387617900968,-0.00126638473011553,0.0214263442903757,0,
00:00:01.372,0.00866339635103941,0.00956088304519653,-0.00522710988298059,0,
00:00:01.376,-0.000728237733710557,0.00462363008409739,-0.019327487796545,0,
00:00:01.38,-0.00938451290130615,-0.00204216572456062,-0.00506544578820467,0,
00:00:01.384,-0.00306672928854823,-0.00920288264751434,0.010006601922214,0,
00:00:01.388,0.00306444521993399,-0.000276497507002205,0.00916530843824148,0,
00:00:01.392,-0.00154881179332733,-0.00242959358729422,0.00307736545801163,0,
00:00:01.396,0.00870161782950163,0.0093584917485714,-0.00623184721916914,0,
00:00:01.4,-0.00558241549879313,-0.00442074099555612,0.0019509558333084,0,
00:00:01.404,-0.00831909012049437,-0.00324700400233269,6.87750361976214E-05,0,
00:00:01.408,0.0106321750208735,0.00498174130916595,-0.00250630080699921,0,
00:00:01.412,0.00252621481195092,0.00111466215457767,-0.00706500327214599,0,
00:00:01.416,-0.00357535528019071,-0.00469893170520663,0.000319960527122021,0,
00:00:01.42,-0.00256198341958225,0.00510192476212978,-0.00283291866071522,0,
00:00:01.424,0.00606520380824804,0.000639319885522127,0.0153949949890375,0,
00:00:01.428,-0.00259383674710989,-0.0036073646042496,-0.00358226429671049,0,
00:00:01.432,-0.00141156185418367,0.00642281118780375,0.00356470281258225,0,
00:00:01.436,-0.0013342424063012,-0.00943206902593374,-0.00274253496900201,0,
00:00:01.44,-0.00503723323345184,-0.000844297581352293,-0.0107860052958131,0,
00:00:01.444,-0.00239641964435577,-0.00169070018455386,-0.00132727727759629,0,
00:00:01.448,0.00973794143646955,0.00647224485874176,0.0124556720256805,0,
00:00:01.452,0.00606474420055747,0.0107256919145584,-0.00502892676740885,0,
00:00:01.456,-0.00257239863276482,-0.00776796927675605,-0.00587497465312481,0,
00:00:01.46,-0.00435277074575424,-0.00339437928050756,0.00299697066657245,0,
00:00:01.464,-0.00486694695428014,-0.00586395431309938,0.0176117606461048,0,
00:00:01.468,0.00353920366615057,0.00543170841410756,-0.00243945932015777,0,
00:00:01.472,0.000691833905875683,-0.000464375276351348,-0.015633475035429,0,
00:00:01.476,-3.31042101606727E-05,-0.000566025322768837,0.002461172407493,0,
00:00:01.48,-0.00415926286950707,-0.00358512811362743,-0.007756934966892,0,
00:00:01.484,0.00822267215698957,0.0029990419279784,0.00295501272194088,0,
00:00:01.488,-0.000522612128406763,0.00821296870708466,0.0056419731117785,0,
00:00:01.492,-0.00493447110056877,0.000266079499851912,0.00387262436561286,0,
00:00:01.496,-8.79835788509808E-05,-0.00553549127653241,-0.00120086257811636,0,
00:00:01.5,0.00534055335447192,0.00458120601251721,0.00273612258024514,0,
00:00:01.504,-0.0051451800391078,-0.00620334967970848,-0.00235113129019737,0,
00:00:01.508,-0.00111256365198642,-0.000601378793362528,-0.00715339044108987,0,
00:00:01.512,-0.00106708204839379,-0.00209942366927862,-0.00387214706279337,0,
00:00:01.516,-0.000714184541720897,-0.00864984374493361,0.00927075184881687,0,
00:00:01.52,0.0106883114203811,0.00517672905698419,0.0208343286067247,0,
00:00:01.524,0.00176303472835571,0.0145927639678121,-0.0221527237445116,0,
00:00:01.528,-0.00611358089372516,-0.00274045206606388,-0.0033339059446007,0,
00:00:01.532,-0.00316159403882921,0.00383592490106821,-0.000766469514928758,0,
00:00:01.536,-0.00147160247433931,-0.00126825703773648,-0.00927901081740856,0,
00:00:01.54,-0.00635867333039641,-0.0137286689132452,0.011774018406868,0,
00:00:01.544,0.00254704477265477,-0.00996895413845778,0.0140619454905391,0,
00:00:01.548,0.00996620859950781,0.0158221386373043,-0.00626747962087393,0,
00:00:01.552,0.000563222041819245,0.00698333326727152,-0.00962101574987173,0,
00:00:01.556,0.002234545070678,0.00200490723364055,-0.00286362809129059,0,
00:00:01.56,-0.00767955929040909,-0.00751704769209027,0.00924995448440313,0,
00:00:01.564,0.00211558537557721,-0.00325524411164224,0.00921606924384832,0,
00:00:01.568,-0.000605910085141659,0.00159857550170273,-0.0115866800770164,0,
00:00:01.572,-0.00106173974927515,-0.00102723075542599,-0.0040325834415853,0,
00:00:01.576,-0.00461967755109072,0.00169752875808626,-0.00376074062660336,0,
00:00:01.58,0.0083461431786418,0.000821251014713198,0.00397467100992799,0,
00:00:01.584,0.0020201129373163,-0.00245848600752652,0.0134386634454131,0,
00:00:01.588,-0.00432972796261311,-0.00508503802120686,-0.000886362104211003,0,
00:00:01.592,-0.00545092998072505,0.000758225389290601,-0.0146584799513221,0,
00:00:01.596,0.00351770501583815,0.0130384955555201,0.00027971199597232,0,
00:00:01.6,0.00321243214420974,0.00297447922639549,0.00434980308637023,0,
00:00:01.604,-0.001517633209005,-0.00627944059669971,-0.000881940068211406,0,
00:00:01.608,-0.00347936875186861,-0.00823913048952818,0.0130889303982258,0,
00:00:01.612,-0.000205864635063335,-0.00262539694085717,-0.00348598742857575,0,
00:00:01.616,0.00645186752080917,0.00449189590290189,-0.0200558565557003,0,
00:00:01.62,0.000693677691742778,0.00841685198247433,0.000604922883212566,0,
00:00:01.624,-0.00601338315755129,-0.00238025351427495,0.0191961172968149,0,
00:00:01.628,0.00393459806218743,-0.00821426417678595,0.00429160473868251,0,
00:00:01.632,0.000146129896165803,-0.000220615445869043,-0.00476792873814702,0,
00:00:01.636,0.000710868742316961,0.00755470525473356,-0.00480644311755896,0,
00:00:01.64,-0.00532146636396647,0.00561605161055923,-0.0126885063946247,0,
00:00:01.644,0.00191695417743176,-0.00565277505666018,0.0013992041349411,0,
00:00:01.648,-0.000265809998381883,-0.00145206542219967,-0.0018066355260089,0,
00:00:01.652,-0.00210509914904833,-0.00784580875188112,0.0114123225212097,0,
00:00:01.656,0.00252968678250909,-0.00195316504687071,0.014939546585083,0,
00:00:01.66,0.00444697355851531,0.00590609200298786,-0.0023936927318573,0,
00:00:01.664,0.000762125418987125,0.00974765606224537,-0.0107966354116797,0,
00:00:01.668,-0.0085242697969079,-0.00178469938691705,-0.00544480793178082,0,
00:00:01.672,0.000887876027263701,-0.00427582580596209,0.000740239920560271,0,
00:00:01.676,0.00299887615256011,-0.00692542921751738,-0.00281538325361907,0,
00:00:01.68,0.00188907829578966,0.00346382241696119,0.00248577236197889,0,
00:00:01.684,0.000163483084179461,0.00636096624657512,0.0053460062481463,0,
00:00:01.688,-0.000914875010494143,-0.0023570959456265,-0.00215521152131259,0,
00:00:01.692,-0.00109192985109985,-0.00254272250458598,0.000509456964209676,0,
00:00:01.696,0.00347902067005634,0.00572950206696987,-0.00981341209262609,0,
00:00:01.7,-0.00405453285202384,-0.000792928680311888,0.00770635483786464,0,
00:00:01.704,-0.00506789423525333,-0.00555277103558183,0.0262391623109579,0,
00:00:01.708,0.00410400237888098,-0.00717182457447052,-0.0159337166696787,0,
00:00:01.712,-0.000420414609834552,0.00454030046239495,-0.0196731854230165,0,
00:00:01.716,0.00267917150631547,0.00996587704867125,-0.0059666302986443,0,
00:00:01.72,-0.000238104650634341,-0.00320743792690337,0.00808940827846527,0,
00:00:01.724,0.00408734055235982,-0.00382196670398116,0.0184161942452192,0,
00:00:01.728,-0.00149200251325965,0.00320256757549942,-0.00416262913495302,0,
00:00:01.732,-0.000744413991924375,0.00355008593760431,-0.00211774464696646,0,
00:00:01.736,-0.00385057227686048,-0.00742190750315785,-0.0020089780446142,0,
00:00:01.74,-0.00199472880922258,-0.00212615984492004,-0.00174525403417647,0,
00:00:01.744,0.000544165435712785,0.00129146128892899,0.00109204719774425,0,
00:00:01.748,0.00187371170613915,0.00236245850101113,6.7292485255166E-06,0,
00:00:01.752,-0.000293623859761283,0.00177438254468143,-0.00309854582883418,0,
00:00:01.756,0.000787570839747787,0.0068012997508049,-0.0073509425856173,0,
00:00:01.76,0.00562423979863524,-0.00633988250046968,0.00504114711657166,0,
00:00:01.764,-0.000785246607847512,-0.00782962329685688,0.00483357021585107,0,
00:00:01.768,-0.000933348550461233,0.00072650087531656,0.00980315543711185,0,
00:00:01.772,-0.00654758792370558,-0.00032642824226059,-0.00466709351167083,0,
00:00:01.776,-0.00474491156637669,0.00930815655738115,-0.00789096672087908,0,
00:00:01.78,0.00794025417417288,0.000509646371938288,0.0202236641198397,0,
00:00:01.784,0.00339745660312474,0.000155490357428789,-0.0112564843147993,0,
00:00:01.788,0.00193934852723032,0.00255434517748654,-0.0201978664845228,0,
00:00:01.792,-0.0037503691855818,-0.0104114692658186,-0.00170250458177179,0,
00:00:01.796,-0.0054898145608604,-0.00314322742633522,0.00978747103363276,0,
00:00:01.8,-0.00119210779666901,0.00433637155219913,0.000559777661692351,0,
00:00:01.804,0.00655512092635036,0.00618904456496239,0.0135087026283145,0,
00:00:01.808,0.00559414504095912,0.00152676424477249,0.00130998657550663,0,
00:00:01.812,-0.00497552007436752,-0.00238884519785643,-0.0147444764152169,0,
00:00:01.816,-0.0089817401021719,-0.00966107193380594,0.00901751220226288,0,
00:00:01.82,0.00465848948806524,0.00367169384844601,0.003358144313097,0,
00:00:01.824,0.0048489416949451,0.00663828989490867,-0.0110597889870405,0,
00:00:01.828,0.00535901496186852,0.00166650267783552,0.00506678689271212,0,
00:00:01.832,-0.0118076419457793,-0.0067433756776154,-0.00517538283020258,0,
00:00:01.836,-0.00596693949773908,-0.0121718654409051,0.010410831309855,0,
00:00:01.84,0.00685175321996212,0.0107504483312368,-0.0135404616594315,0,
00:00:01.844,0.00677735125645995,0.00780670018866658,-0.00388442003168166,0,
00:00:01.848,0.00437663728371263,1.00808892966597E-05,0.0237333737313747,0,
00:00:01.852,-0.00152208982035518,0.00603566179051995,-0.0101661924272776,0,
00:00:01.856,-0.0109296021983027,-0.00787185877561569,-0.00974641554057598,0,
00:00:01.86,-0.00252231047488749,-0.0116549376398325,0.00746198510751128,0,
00:00:01.864,0.00696869567036629,0.00572447804734111,0.00347421830520034,0,
00:00:01.868,0.00226574810221791,-0.000747288053389639,0.00161635992117226,0,
00:00:01.872,-0.00250069634057581,0.000601078849285841,-0.00634475192055106,0,
00:00:01.876,-0.00143493025097996,0.00446982309222221,-0.00178309867624193,0,
00:00:01.88,0.00459739239886403,0.00671039381995797,-0.00361427990719676,0,
00:00:01.884,0.00150198966730386,-0.00429710792377591,0.00730962166562676,0,
00:00:01.888,-0.00410841731354594,-0.00321260374039412,0.00653957575559616,0,
00:00:01.892,-0.00739586865529418,-0.00853489898145199,-0.0068118404597044,0,
00:00:01.896,0.00544167309999466,0.00702180527150631,-0.0135752260684967,0,
00:00:01.9,0.00267390860244632,0.0011699222959578,0.0158779546618462,0,
00:00:01.904,0.000587900402024388,0.00189081346616149,0.00151726964395493,0,
00:00:01.908,-0.000564618268981576,-0.0082698306068778,-0.000572376244235784,0,
00:00:01.912,-0.000863738008774817,0.00862932484596968,-0.00428625522181392,0,
00:00:01.916,0.00353008392266929,0.00517199514433742,-0.00240205740556121,0,
00:00:01.92,-0.00415204837918282,-0.0120187094435096,0.000250576209509745,0,
00:00:01.924,-0.00522926775738597,0.00483283447101712,0.0141136674210429,0,
00:00:01.928,0.00188717409037054,-0.0044939168728888,-0.00607866933569312,0,
00:00:01.932,0.00563173647969961,0.000869585084728897,-0.0150999240577221,0,
00:00:01.936,-0.00171193352434784,0.00919478200376034,-0.00457334006205201,0,
00:00:01.94,0.000740706222131848,0.000625664717517793,0.00767656648531556,0,
00:00:01.944,0.000525145675055683,-0.00607792986556888,0.013133411295712,0,
00:00:01.948,-0.000293812860036269,-0.00652248365804553,-0.00128085166215897,0,
00:00:01.952,-0.000764063850510865,0.0012639508349821,-0.00359770655632019,0,
00:00:01.956,0.0034409542568028,0.00561252469196916,0.00217900169081986,0,
00:00:01.96,-0.010525387711823,-0.00136170501355082,0.00420649442821741,0,
00:00:01.964,0.00267990329302847,-0.000899627280887216,-0.00842191837728024,0,
00:00:01.968,0.00898594316095114,0.00281442329287529,0.00624072970822454,0,
00:00:01.972,-0.0035207592882216,0.00354167795740068,-0.0185194741934538,0,
00:00:01.976,-0.00367299350909889,-0.000529183424077928,-0.000526787713170052,0,
00:00:01.98,0.00148725300095975,0.000940932426601648,0.00373357674106956,0,
00:00:01.984,0.0037975104060024,-0.0113036511465907,0.0140637075528502,0,
00:00:01.988,-0.00152224116027355,-0.0133130848407745,0.00527603924274445,0,
00:00:01.992,-0.000161883057444356,0.0171879343688488,-0.00172535644378513,0,
00:00:01.996,-0.00720715709030628,0.0133951576426625,0.0014123828150332,0,
00:00:02,0.00460172817111015,-0.00484301615506411,-0.00825911946594715,0,
00:00:02.004,0.00409196224063635,-0.00901091657578945,-0.00703352782875299,0,
00:00:02.008,-0.00363551359623671,0.000755249871872365,0.00213638716377318,0,
00:00:02.012,-0.00213074614293873,0.00428685452789068,-0.0079998541623354,0,
00:00:02.016,0.0070027643814683,0.000977392890490592,0.00639932416379452,0,
00:00:02.02,-0.00172083883080631,-0.00204009935259819,0.00345499604009092,0,
00:00:02.024,-0.00723210349678993,-0.00272432318888605,0.0115838665515184,0,
00:00:02.028,0.000342372950399295,-0.00577436853200197,-0.011862775310874,0,
00:00:02.032,0.00760115822777152,-0.00438396818935871,0.0164236314594746,0,
00:00:02.036,0.00120439135935158,0.0143225332722068,-0.0106285810470581,0,
00:00:02.04,-0.00200930121354759,0.00834382139146328,-0.01923624612391,0,
00:00:02.044,-0.00043170660501346,0.000497264438308775,0.00911520514637232,0,
00:00:02.048,-0.00554528553038836,-0.0191713701933622,0.0124849816784263,0,
00:00:02.052,-0.001915676984936,-0.00233137561008334,-0.000714150839485228,0,
00:00:02.056,0.00206440617330372,0.00283919787034392,-0.0127166006714106,0,
00:00:02.06,0.0076265400275588,0.00542266527190804,0.0128960646688938,0,
00:00:02.064,0.000672378053423017,0.0065789045765996,-0.000108262182038743,0,
00:00:02.068,-0.000422725483076647,0.00186574726831168,-0.00476857041940093,0,
00:00:02.072,-0.00471193715929985,-0.000274542195256799,-0.0123340524733067,0,
00:00:02.076,-0.00727573176845908,-0.00786826014518738,-0.00165895780082792,0,
00:00:02.08,0.00165862892754376,-0.00463923625648022,0.0176773965358734,0,
00:00:02.084,0.0090151634067297,0.00660394504666328,0.0053336494602263,0,
00:00:02.088,0.00618786457926035,0.0034969977568835,-0.0047001950442791,0,
00:00:02.092,-0.00167295755818486,-0.00344208534806967,-0.00540134031325579,0,
00:00:02.096,-0.0142155233770609,-0.00563760241493583,-0.00471339700743556,0,
00:00:02.1,-0.00370124913752079,-0.00334187434054911,0.00214059231802821,0,
00:00:02.104,0.0102491779252887,0.00245984457433224,0.0115343267098069,0,
00:00:02.108,-0.00177324598189443,0.00723592052236199,-0.00612593255937099,0,
00:00:02.112,0.00345194642432034,0.0042675044387579,-0.00243562110699713,0,
00:00:02.116,0.00223740004003048,-0.000144959281897172,-0.00572121376171708,0,
00:00:02.12,-0.000360184552846476,-0.00281900260597467,0.000985022634267807,0,
00:00:02.124,0.000151611850014888,0.00310612819157541,0.00315278535708785,0,
00:00:02.128,-0.00188153970520943,-0.00780281377956271,0.000488166813738644,0,
00:00:02.132,-0.0109371589496732,-0.0135117806494236,0.0029446380212903,0,
00:00:02.136,0.00406140740960836,0.0102530149742961,-0.0049848398193717,0,
00:00:02.14,0.0103648751974106,0.0103128589689732,0.00301450677216053,0,
00:00:02.144,-0.00286191329360008,0.00307517405599356,0.0113682886585593,0,
00:00:02.148,-0.00372794736176729,-0.00289329490624368,-0.00315965944901109,0,
00:00:02.152,0.00313402665778995,-0.0069471332244575,-0.00363730546087027,0,
00:00:02.156,-0.000697224400937557,-0.00162616954185069,-0.020118311047554,0,
00:00:02.16,-0.00143731362186372,-0.00358357722871006,0.000959479773882777,0,
00:00:02.164,-0.000792741251643747,-0.00109713058918715,0.00960396602749825,0,
00:00:02.168,0.00214092945680022,0.0143741481006145,0.0109462710097432,0,
00:00:02.172,0.000661168014630675,-0.000186104924068786,0.00605798792093992,0,
00:00:02.176,-0.00509558618068695,-0.00855985004454851,-0.00036334982723929,0,
00:00:02.18,-0.00572440586984158,-0.00164824817329645,-0.00875321682542562,0,
00:00:02.184,0.00827343855053186,0.00204761233180761,-0.0118864541873336,0,
00:00:02.188,0.0088858874514699,0.00678431615233421,-0.00515706324949861,0,
00:00:02.192,-0.00291988905519247,0.00166008831001818,0.00245179748162627,0,
00:00:02.196,0.00148651737254113,0.00310333608649671,0.0146757680922747,0,
00:00:02.2,-0.00647179363295436,-0.0144955590367317,0.0106215290725231,0,
00:00:02.204,-0.00491891475394368,-0.0100933965295553,-0.000599282386247069,0,
00:00:02.208,0.00131560047157109,0.0103078037500381,-0.0158574339002371,0,
00:00:02.212,-0.00180819968227297,0.000968633685261011,-0.00216676644049585,0,
00:00:02.216,0.00125539291184396,0.0039958250708878,0.00629381090402603,0,
00:00:02.22,0.00342740188352764,0.0074922377243638,0.00455435272306204,0,
00:00:02.224,0.00727202137932181,0.0011608274653554,-0.0101731047034264,0,
00:00:02.228,0.00150068767834455,-0.00634654005989432,-0.011562149040401,0,
00:00:02.232,-0.0036515190731734,0.000576736754737794,0.0102422460913658,0,
00:00:02.236,-0.011232441291213,-0.012117313221097,0.0108820227906108,0,
00:00:02.24,0.00261547253467143,-0.0060925567522645,0.0123258121311665,0,
00:00:02.244,0.00223276484757662,0.0111245112493634,-0.00809134729206562,0,
00:00:02.248,-0.000248313270276412,0.0119968829676509,-0.0134279364719987,0,
00:00:02.252,0.00305618857964873,0.00506550399586558,-0.0126950545236468,0,
00:00:02.256,0.00189287855755538,-0.0125918984413147,0.00530328974127769,0,
00:00:02.26,-0.000164003562531434,-0.00644299853593111,0.0123490421101451,0,
00:00:02.264,-0.00347401876933873,0.00407434860244393,0.00321171479299665,0,
00:00:02.268,0.00256763980723917,0.00346572394482791,0.0104135703295469,0,
00:00:02.272,0.00505302054807544,0.000363504135748371,-0.00675683934241533,0,
00:00:02.276,-0.011605535633862,-0.0078295087441802,-0.0176029391586781,0,
00:00:02.28,-0.00985501892864704,-0.00415331637486815,0.011097090318799,0,
00:00:02.284,0.0131066367030144,0.00989225786179304,0.00490260124206543,0,
00:00:02.288,0.00826724246144295,0.0113598825410008,-0.0149763803929091,0,
00:00:02.292,0.00529424473643303,0.000755602086428553,-0.00587272830307484,0,
00:00:02.296,-0.00528359087184072,-0.00901190843433142,0.00547365518286824,0,
00:00:02.3,-0.0158310160040855,-0.0184931382536888,0.0241952780634165,0,
00:00:02.304,-0.000961120240390301,0.00479722721502185,0.00364475161768496,0,
00:00:02.308,0.0119784437119961,0.0097511000931263,-0.0133584775030613,0,
00:00:02.312,0.00423678895458579,0.00823446176946163,-0.0137899303808808,0,
00:00:02.316,-0.00374737032689154,0.00302094663493335,-0.00605380302295089,0,
00:00:02.32,-0.00390459666959941,-0.00820741336792707,0.00621692510321736,0,
00:00:02.324,-0.0035101599059999,-0.0109896818175912,0.010702227242291,0,
00:00:02.328,0.00273858034051955,0.00426337867975235,0.00962705630809069,0,
00:00:02.332,0.0032856606412679,0.00347209279425442,-0.004708556458354,0,
00:00:02.336,0.00152990303467959,0.00627243937924504,-0.015669196844101,0,
00:00:02.34,-0.000312641815980896,-0.00536969071254134,0.00968390516936779,0,
00:00:02.344,-0.00124795327428728,-0.00379019766114652,0.00430408678948879,0,
00:00:02.348,-0.00121608283370733,0.00450081843882799,-0.00612893095239997,0,
00:00:02.352,-0.000638637749943882,-0.00335769448429346,-0.00668971100822091,0,
00:00:02.356,0.0020720821339637,0.00540763419121504,0.00175329309422523,0,
00:00:02.36,0.000481935945572332,0.00467560207471251,0.000171265273820609,0,
00:00:02.364,0.000982862897217274,-0.00567786954343319,0.00307329278439283,0,
00:00:02.368,-0.011699415743351,-0.00726556405425072,0.00823263637721539,0,
00:00:02.372,0.0013141252566129,0.00682409107685089,0.00695491582155228,0,
00:00:02.376,0.00418743444606662,-0.00883493293076754,-0.00683734333142638,0,
00:00:02.38,0.0114041268825531,0.00591245200484991,-0.0103992940858006,0,
00:00:02.384,0.00161037291400135,-0.000608993170317262,0.00395190482959151,0,
00:00:02.388,-0.00214722822420299,0.00703680561855435,-0.00392666598781943,0,
00:00:02.392,-0.00522003183141351,0.00264330254867673,-0.0101037239655852,0,
00:00:02.396,-0.00490385666489601,0.00365386274643242,0.0076034152880311,0,
00:00:02.4,-0.0106261083856225,-0.0187829118221998,0.00360578252002597,0,
00:00:02.404,0.00837313290685415,-0.00669880211353302,0.0316608734428883,0,
00:00:02.408,0.00243620225228369,0.0109284836798906,-0.01753862015903,0,
00:00:02.412,0.00473381811752915,0.00709128426387906,-0.0176904033869505,0,
00:00:02.416,0.00485737575218081,0.00408444227650762,-0.00869755167514086,0,
00:00:02.42,0.00203474774025381,-0.00148842856287956,0.00932854786515236,0,
00:00:02.424,-0.00554671045392752,-0.0168410241603851,0.0090649351477623,0,
00:00:02.428,-0.00778061104938388,0.00579460337758064,0.00313889351673424,0,
00:00:02.432,0.00353365275077522,0.0141996061429381,-0.0038974245544523,0,
00:00:02.436,-0.00172139005735517,-0.000794448656961322,-0.0120518170297146,0,
00:00:02.44,-0.000861325359437615,-0.00857373047620058,0.010738798417151,0,
00:00:02.444,0.00104396499227732,-0.00367609900422394,0.00336729385890067,0,
00:00:02.448,-0.000163148899446242,-0.00253367167897522,-0.00311560719273984,0,
00:00:02.452,0.00352312531322241,-0.00294741010293365,-0.0025943701621145,0,
00:00:02.456,0.00222015776671469,0.00726058799773455,0.00164459890220314,0,
00:00:02.46,-0.000130426124087535,0.00842377636581659,0.00111431896220893,0,
00:00:02.464,-0.00157810130622238,-0.000165542660397477,0.0017854527104646,0,
00:00:02.468,0.000356634933268651,-0.00355745549313724,-0.00299393571913242,0,
00:00:02.472,-0.00298468908295035,0.00072862021625042,-0.00669007888063788,0,
00:00:02.476,-0.00176092248875648,-0.00357310310937464,0.00136365892831236,0,
00:00:02.48,0.000301163760013878,-0.00311966612935066,0.0104615399613976,0,
00:00:02.484,0.00355362240225077,-0.0112255485728383,0.00162277696654201,0,
00:00:02.488,-0.00463914731517434,0.0026932938490063,-0.00776855181902647,0,
00:00:02.492,0.00517750484868884,0.0179942026734352,0.00155877007637173,0,
00:00:02.496,-0.000942850077990443,0.0110715683549643,-0.00751623278483748,0,
00:00:02.5,-0.00311030261218548,-0.0110285533592105,0.000350111135048792,0,
00:00:02.504,0.0104062734171748,-0.000196640015929006,0.00642416905611753,0,
00:00:02.508,-0.00135997147299349,-0.0070096948184073,0.00642814487218857,0,
00:00:02.512,-0.0118066752329469,-0.0157804302871227,0.000523341353982687,0,
00:00:02.516,-0.00274920766241848,0.00679354975000024,-0.0120141720399261,0,
00:00:02.52,0.00537638179957867,0.0126119134947658,0.0097467452287674,0,
00:00:02.524,0.0111690321937203,0.00812505930662155,-0.00816298276185989,0,
00:00:02.528,-0.00422617234289646,-0.00749470805749297,-0.00677767442539334,0,
00:00:02.532,-0.01220444124192,-0.00473701488226652,0.0103593897074461,0,
00:00:02.536,0.00534577947109938,0.000493875180836767,0.00319906393997371,0,
00:00:02.54,0.00374140217900276,-0.00134941539727151,0.00400275364518166,0,
00:00:02.544,0.00128003058489412,-0.000165930032380857,-0.00322513887658715,0,
00:00:02.548,0.00359676871448755,0.00315564521588385,-0.0086880698800087,0,
00:00:02.552,-0.00522113218903542,-0.000578594859689474,-0.00291858450509608,0,
00:00:02.556,-0.0147347627207637,-0.00694935210049152,0.019427265971899,0,
00:00:02.56,0.00906443316489458,0.00592782301828265,-0.00479446118697524,0,
00:00:02.564,0.0120860487222672,0.00331568741239607,-0.0135289002209902,0,
00:00:02.568,0.00137227156665176,0.00504325609654188,0.000854390382301062,0,
00:00:02.572,-0.00418895808979869,-0.000601842766627669,-0.00455146934837103,0,
00:00:02.576,-0.00492085376754403,-0.0066318828612566,-9.32270995690487E-05,0,
00:00:02.58,-0.000806688563898206,-0.000663697137497365,0.014793430455029,0,
00:00:02.584,-0.00227490859106183,-0.00273469183593988,0.00604293588548899,0,
00:00:02.588,-0.00439705280587077,-0.00533758150413632,-0.0081142745912075,0,
00:00:02.592,0.00350290979258716,-0.00139121105894446,-0.00163332337979227,0,
00:00:02.596,0.00944845750927925,0.00908015575259924,0.00607616920024157,0,
00:00:02.6,0.00353435683064163,0.00696692755445838,-0.00206894474104047,0,
00:00:02.604,-0.00269089243374765,-0.00076258450280875,-0.00733538251370192,0,
00:00:02.608,-0.00924151297658682,-0.000878448830917478,-0.00624589342623949,0,
00:00:02.612,-0.00207407912239432,0.00593640934675932,0.00244876672513783,0,
00:00:02.616,0.00189836486242712,-0.0126454215496778,0.00482524232938886,0,
00:00:02.62,0.00290779932402074,-0.014589749276638,0.011831690557301,0,
00:00:02.624,0.00620558718219399,0.0106198266148567,-0.00474618980661035,0,
00:00:02.628,-0.00749181723222137,0.00681209843605757,-0.011454263702035,0,
00:00:02.632,0.000158997878315859,0.00955333653837442,-0.00194763485342264,0,
00:00:02.636,0.0019903713837266,0.000646908592898399,-0.0026953003834933,0,
00:00:02.64,0.00125673308502883,-0.012338443659246,0.0146381538361311,0,
00:00:02.644,-0.00205639796331525,-0.0032813420984894,-0.00035497487988323,0,
00:00:02.648,-0.00083897914737463,-0.00550633855164051,0.00367256347090006,0,
00:00:02.652,0.00486588897183537,0.0120102344080806,0.00337880570441484,0,
00:00:02.656,0.00351064675487578,0.00473956344649196,-0.0145029360428452,0,
00:00:02.66,-0.010459516197443,-0.0183638520538807,-0.00810111500322819,0,
00:00:02.664,-0.00529131758958101,0.00736806262284517,0.00812556501477957,0,
00:00:02.668,0.00638004671782255,0.00952629372477531,0.00939338374882936,0,
00:00:02.672,0.00794076081365347,0.00755673740059137,-0.00845618918538094,0,
00:00:02.676,0.00175231404136866,-0.00633765663951635,0.00809057150036097,0,
00:00:02.68,-0.00327120092697442,-0.00796171370893717,-0.00931598525494337,0,
00:00:02.684,-0.0107823982834816,-0.0124325444921851,0.0100571950897574,0,
00:00:02.688,0.000869915063958615,0.0143797947093844,-0.000464099226519465,0,
00:00:02.692,0.00639585359022021,0.00544296903535724,-0.0112221892923117,0,
00:00:02.696,0.00349321099929512,-0.00118088850285858,-0.00888525880873203,0,
00:00:02.7,-0.00252382550388575,-0.00785837508738041,0.00700822100043297,0,
00:00:02.704,-0.00671371724456549,-0.00117795763071626,0.0199249908328056,0,
00:00:02.708,0.00109013833571225,4.0912320400821E-05,-0.000401405210141093,0,
00:00:02.712,0.00593619234859943,0.00456326315179467,-0.0163358114659786,0,
00:00:02.716,0.00523112388327718,0.00523356907069683,-0.00352517003193498,0,
00:00:02.72,-0.000556531362235546,-0.00372435036115348,0.0157767534255981,0,
00:00:02.724,-0.00627344148233533,0.0029032789170742,-0.00920756626874208,0,
00:00:02.728,-0.00436255615204573,-0.00238144234754145,-0.00493387505412102,0,
00:00:02.732,0.00149380648508668,-0.0034496933221817,0.00305415969341993,0,
00:00:02.736,0.00210793199948967,8.18384796730243E-05,0.00190984364598989,0,
00:00:02.74,-0.00517230154946446,-0.00817908812314272,-0.000209436082514003,0,
00:00:02.744,-0.000279317930107936,-0.00268408143892884,0.00947176292538643,0,
00:00:02.748,0.010406743735075,0.010084361769259,0.00634935265406966,0,
00:00:02.752,0.00505229597911239,0.0129624968394637,-0.0173090156167746,0,
00:00:02.756,-0.00835535116493702,0.000728636048734188,-0.00649870559573174,0,
00:00:02.76,0.000441146286902949,-0.00583463767543435,-0.000545257527846843,0,
00:00:02.764,0.000193140891497023,-0.00447917310521007,0.0110034262761474,0,
00:00:02.768,-0.00139237986877561,-0.00579310115426779,-1.97726149053779E-05,0,
00:00:02.772,-0.00383823923766613,2.50365756073734E-05,-0.00119531340897083,0,
00:00:02.776,-0.00105317425914109,-0.00447011971846223,-0.00410963548347354,0,
00:00:02.78,-0.000354549119947478,0.00138484302442521,0.0255314242094755,0,
00:00:02.784,0.00254518212750554,0.00977635849267244,-0.0199447851628065,0,
00:00:02.788,0.00554791837930679,0.00567124271765351,-0.00790515821427107,0,
00:00:02.792,0.00446213828399777,0.00151051266584545,-0.000456496607512236,0,
00:00:02.796,-0.00526705617085099,-0.00403558975085616,-0.00119151221588254,0,
00:00:02.8,-0.00254687201231718,-0.00374691351316869,-0.00308310822583735,0,
00:00:02.804,0.00101725093554705,-0.003958934918046,0.0173206627368927,0,
00:00:02.808,-0.0020857690833509,-0.0107923038303852,0.00499755004420877,0,
00:00:02.812,-0.0032936823554337,-0.000609477690886706,-0.00523742195218802,0,
00:00:02.816,0.00445342902094126,0.013948648236692,0.00440454110503197,0,
00:00:02.82,-0.00318354251794517,0.00724139343947172,-0.0191418845206499,0,
00:00:02.824,0.0016561517259106,0.00254175183363259,0.00811920594424009,0,
00:00:02.828,0.00487099215388298,-0.00543946586549282,-0.00417506927624345,0,
00:00:02.832,0.00177429779432714,-0.00784278940409422,0.000376418931409717,0,
00:00:02.836,-0.00154603074770421,0.00536731677129865,-0.00549953291192651,0,
00:00:02.84,-0.000765801873058081,-0.0019852127879858,0.010690757073462,0,
00:00:02.844,-0.00212590140290558,-0.00276594772003591,0.0245690383017063,0,
00:00:02.848,-0.00646334048360586,-0.0154590895399451,-0.0235343314707279,0,
00:00:02.852,0.00481082871556282,0.0106076980009675,-0.0117171546444297,0,
00:00:02.856,-0.00471334299072623,0.019237395375967,0.00394738977774978,0,
00:00:02.86,0.00369259971193969,0.00398552790284157,0.00594104966148734,0,
00:00:02.864,0.00425391318276525,-0.0107043329626322,0.000906196422874928,0,
00:00:02.868,0.00174287578556687,-0.00523301213979721,-0.00445437291637063,0,
00:00:02.872,-0.000754804525058717,-0.00287362514063716,0.00163850467652082,0,
00:00:02.876,0.000161826435942203,-0.00099698849953711,0.0052596889436245,0,
00:00:02.88,-0.00370212993584573,0.000565411290153861,0.00207575736567378,0,
00:00:02.884,-0.0045500067062676,-0.00479226792231202,-0.0035666620824486,0,
00:00:02.888,-0.00435144873335958,-0.00503216730430722,0.00937683880329132,0,
00:00:02.892,0.0152306677773595,0.0240015089511871,-0.0065044267103076,0,
00:00:02.896,-0.00122378719970584,0.00478991214185953,-0.0232789013534784,0,
00:00:02.9,-0.0043031070381403,-0.00863940734416246,0.00531433010473847,0,
00:00:02.904,0.00177801749669015,-0.009152309037745,0.014224044047296,0,
00:00:02.908,-0.00385032198391855,-0.00639988435432315,0.00821810588240623,0,
00:00:02.912,0.000162978103617206,0.000508103927131742,-6.44063911749981E-05,0,
00:00:02.916,0.00108001998160034,0.0109560834243894,-0.019368713721633,0,
00:00:02.92,0.00696848053485155,0.00732532609254122,0.0210470482707024,0,
00:00:02.924,-0.00368667114526033,-0.00808485597372055,-0.00537806795910001,0,
00:00:02.928,-0.0112594971433282,-0.0153197487816215,-0.0130324400961399,0,
00:00:02.932,-0.0047363000921905,0.00648061884567142,-0.00192335655447096,0,
00:00:02.936,0.0134608950465918,0.00929068308323622,0.00685632275417447,0,
00:00:02.94,0.0072142630815506,0.00447603315114975,0.00394639279693365,0,
00:00:02.944,0.00229282327927649,-0.000854752957820892,0.00604600412771106,0,
00:00:02.948,-0.00781339593231678,-0.00357873574830592,-0.0017205550102517,0,
00:00:02.952,-0.00390094332396984,-0.00140178890433162,-0.0124748507514596,0,
00:00:02.956,0.0010166063439101,-0.00168991298414767,0.00881158374249935,0,
00:00:02.96,-0.00337566155940294,-0.00564318662509322,0.0077465339563787,0,
00:00:02.964,-0.000431540480349213,0.00130631669890136,-0.00781956687569618,0,
00:00:02.968,0.00249083270318806,0.00155282660853118,-0.00514154555276036,0,
00:00:02.972,0.00519767450168729,0.00696082087233663,-0.00991108641028404,0,
00:00:02.976,0.00201460532844067,0.00278485007584095,0.0110903140157461,0,
00:00:02.98,0.0007110177539289,-0.00399711029604077,0.0026899166405201,0,
00:00:02.984,-0.00266671204008162,0.000228309436351992,0.00706716161221266,0,
00:00:02.988,-0.0058801481500268,-0.00751437898725271,0.00289845326915383,0,
00:00:02.992,-0.00476652989163995,-0.00270088436082006,-0.0168136022984982,0,
00:00:02.996,0.00511340703815222,0.00693659950047731,-0.00139133015181869,0,
00:00:03,0.000473036110633984,0.000819050881545991,0.00662073725834489,0,
00:00:03.004,0.00520218256860971,0.000232908481848426,0.0025871112011373,0,
00:00:03.008,-0.00219275173731148,0.00475169997662306,-0.00576915964484215,0,
00:00:03.012,-0.00192146212793887,-0.00342284655198455,0.00331157888285816,0,
00:00:03.016,0.00411077169701457,-0.0011581121943891,0.0123340748250484,0,
00:00:03.02,0.00540712242946029,0.0055433502420783,-0.00437087565660477,0,
00:00:03.024,-0.0163919441401958,-0.0105737140402198,-0.0137887448072433,0,
00:00:03.028,-0.000626667111646384,-0.00741487834602594,0.0160051640123129,0,
00:00:03.032,0.00976264849305153,0.0108515368774533,-0.00913669634610415,0,
00:00:03.036,0.00553843984380364,0.0123511422425508,-0.0148155726492405,0,
00:00:03.04,-0.000816061103250831,-0.00739865098148584,0.00704582408070564,0,
00:00:03.044,-0.00830258801579475,-0.0076786451973021,0.0117054544389248,0,
00:00:03.048,-0.00207712571136653,-0.00424597831442952,0.0006113252020441,0,
00:00:03.052,0.00344164972193539,0.0146358106285334,-0.00453972350805998,0,
00:00:03.056,-0.00174067914485931,-0.00667353486642241,-0.00426984019577503,0,
00:00:03.06,0.00201836437918246,0.00273000122979283,0.000627601402811706,0,
00:00:03.064,-7.21324176993221E-05,-0.0116214994341135,0.0158960465341806,0,
00:00:03.068,0.00677435379475355,0.0117605468258262,-0.000398545438656583,0,
00:00:03.072,-0.00286415149457753,0.00491801556199789,-0.0165854953229427,0,
00:00:03.076,-0.00828714203089476,-0.00858430378139019,-0.0167329888790846,0,
00:00:03.08,0.00191295775584877,-0.00345504703000188,0.0187754742801189,0,
00:00:03.084,0.00359387439675629,-0.00349789694882929,0.0210652370005846,0,
00:00:03.088,0.0039587183855474,0.00844031013548374,-0.0064906058833003,0,
00:00:03.092,-7.36565198167227E-05,0.00762802781537175,-0.0206684246659279,0,
00:00:03.096,-0.00695767719298601,-0.00635352171957493,-0.0101455356925726,0,
00:00:03.1,-0.00318907597102225,0.000758727604988962,0.0239628106355667,0,
00:00:03.104,0.00570314470678568,-0.00472053233534098,0.0109384907409549,0,
00:00:03.108,0.00174272188451141,-0.00666374247521162,-0.0165657550096512,0,
00:00:03.112,-0.00228591682389379,0.00270186667330563,-0.0132363336160779,0,
00:00:03.116,0.00321746780537069,0.00571111356839538,0.0191795062273741,0,
00:00:03.12,-0.00519284466281533,0.00835732091218233,-0.00263090175576508,0,
00:00:03.124,0.00425262050703168,-0.000786916934885085,-0.00944909639656544,0,
00:00:03.128,0.000335841235937551,-0.00666415225714445,-0.00191170070320368,0,
00:00:03.132,-0.00332812871783972,0.00188869587145746,0.0130547592416406,0,
00:00:03.136,0.00280268816277385,-0.00425549782812595,0.00245753559283912,0,
00:00:03.14,-0.00295695988461375,-0.00277573172934353,-0.00680691422894597,0,
00:00:03.144,-0.00141257815994322,-0.00379586848430336,0.00652725715190172,0,
00:00:03.148,0.00933531485497952,0.00413738843053579,0.0012017342960462,0,
00:00:03.152,-0.00794376526027918,0.00762736611068249,-0.0152097968384624,0,
00:00:03.156,-0.00512058287858963,0.00539914658293128,-0.00453190226107836,0,
00:00:03.16,0.00748051144182682,-0.00340284779667854,0.0084319319576025,0,
00:00:03.164,0.00277879787608981,-0.00318818562664092,0.00318082189187407,0,
00:00:03.168,0.00140874821227044,-0.00534633547067642,0.00189734203740954,0,
00:00:03.172,-0.00608384422957897,-0.00637716054916382,0.00522235967218876,0,
00:00:03.176,-0.00348862493410707,0.00511628575623035,0.00235409755259752,0,
00:00:03.18,0.00271962257102132,0.00808327458798885,-0.00995798222720623,0,
00:00:03.184,0.0049746329896152,0.00284889945760369,-0.00844260584563017,0,
00:00:03.188,-0.00505058374255896,-0.00836061127483845,0.00220093503594399,0,
00:00:03.192,-0.000314232835080475,-0.00011569689377211,0.0181836821138859,0,
00:00:03.196,0.00596531108021736,0.00387146486900747,-0.00738910492509604,0,
00:00:03.2,-0.000111899251351133,0.00122655543964356,-0.00635260529816151,0,
00:00:03.204,-0.00249372282996774,-0.00568331312388182,-0.00207191635854542,0,
00:00:03.208,-0.00226893834769726,0.00367416092194617,-0.00279571698047221,0,
00:00:03.212,-0.0030036298558116,-0.00646587274968624,0.00239488272927701,0,
00:00:03.216,0.00439294427633286,0.00236509554088116,0.0154974833130836,0,
00:00:03.22,0.000628915033303201,0.00169457565061748,0.00673743849620223,0,
00:00:03.224,0.00360069936141372,0.008102647960186,-0.0104243354871869,0,
00:00:03.228,-0.0107077369466424,-0.00457944627851248,-0.0219515841454268,0,
00:00:03.232,0.000409150612540543,-0.00253158947452903,0.000298379163723439,0,
00:00:03.236,0.00876351539045572,0.00313801667653024,0.00501256436109543,0,
00:00:03.24,4.21480544900987E-05,-0.00186268123798072,0.0105212880298495,0,
00:00:03.244,0.000206416909350082,-0.000593953882344067,0.00714062759652734,0,
00:00:03.248,0.00299668381921947,-0.015755120664835,0.0178136304020882,0,
00:00:03.252,-0.0078174713999033,0.00431461026892066,-0.0251359976828098,0,
00:00:03.256,-0.00269454042427242,0.0189541112631559,-0.0115949399769306,0,
00:00:03.26,0.000817268504761159,0.00617501465603709,0.00855677947402,0,
00:00:03.264,0.00427710684016347,-0.00435529416427016,0.00233947695232928,0,
00:00:03.268,-5.02752482134383E-05,-0.0122594516724348,-0.00427532102912664,0,
00:00:03.272,0.00131690467242151,-0.0064518740400672,0.0013829751405865,0,
00:00:03.276,-0.00434980168938637,-0.00108493026345968,-0.00311961770057678,0,
00:00:03.28,0.00259234174154699,0.0130965067073703,0.012318761087954,0,
00:00:03.284,-0.00224767788313329,0.0025575770996511,0.00563928904011846,0,
00:00:03.288,0.00157491944264621,-0.00435087690129876,-0.00960849225521088,0,
00:00:03.292,0.00373959564603865,0.00299461209215224,-0.00133684475440532,0,
00:00:03.296,-0.00564364995807409,-0.00218211463652551,-0.00923647917807102,0,
00:00:03.3,-0.000313462718622759,-0.00749901123344898,0.00434248754754663,0,
00:00:03.304,0.00624358188360929,-0.00219857878983021,0.00121663918253034,0,
00:00:03.308,0.000155282905325294,0.00513052800670266,0.00404951069504023,0,
00:00:03.312,-0.00445602554827929,0.00482691451907158,0.00651665171608329,0,
00:00:03.316,-0.000335633027134463,0.00385687407106161,-0.00410842848941684,0,
00:00:03.32,0.000591535761486739,-0.002913239877671,-0.0049549899995327,0,
00:00:03.324,0.000398622360080481,-0.00374248251318932,0.00198271544650197,0,
00:00:03.328,-0.00202456628903747,-0.00406991736963391,-0.00956732220947742,0,
00:00:03.332,0.00185308919753879,-7.96995955170132E-05,0.00662710564211011,0,
00:00:03.336,0.00153134041465819,0.00893956981599331,0.00433880090713501,0,
00:00:03.34,0.00223876419477165,0.00123644585255533,0.00138960825279355,0,
00:00:03.344,-0.000669559754896909,-0.00723113305866718,0.00130046950653195,0,
00:00:03.348,-0.00661646155640483,-0.00178119353950024,-0.00567641574889421,0,
00:00:03.352,-0.00454255053773522,-0.00299479416571558,-0.00727943982928991,0,
00:00:03.356,0.0103655941784382,0.0120831113308668,0.0109085887670517,0,
00:00:03.36,0.00167684094049037,-0.00131142139434814,2.86566046270309E-06,0,
00:00:03.364,-0.00173314497806132,-0.00836749002337456,0.00817881617695093,0,
00:00:03.368,-0.00415726471692324,-0.00695168180391192,0.00133268733043224,0,
00:00:03.372,0.0029265598859638,0.0151603538542986,-0.0262226462364197,0,
00:00:03.376,-0.000380027660867199,0.00634683109819889,-0.0082542086020112,0,
00:00:03.38,-0.00296579208225012,-0.000576723366975784,0.0188996940851212,0,
00:00:03.384,0.00368944508954883,-0.0125480704009533,0.0103898048400879,0,
00:00:03.388,-0.00426916591823101,-0.00714105600491166,0.0021498512942344,0,
00:00:03.392,0.00294718239456415,0.00512036727741361,-0.00300881266593933,0,
00:00:03.396,0.00472250999882817,0.00767132081091404,-0.00448212772607803,0,
00:00:03.4,-0.00165648758411407,-0.00180339359212667,0.0029017529450357,0,
00:00:03.404,-0.00507127260789275,-0.00872471276670694,-0.00919605419039726,0,
00:00:03.408,0.000121479686640669,0.00115680205635726,-0.00445877388119698,0,
00:00:03.412,0.0014437303179875,0.013941646553576,0.00236136978492141,0,
00:00:03.416,0.00105953111778945,0.00530786672607064,0.0116989985108376,0,
00:00:03.42,0.00027413567295298,-0.0106751341372728,-0.00342054734937847,0,
00:00:03.424,-0.000276255188509822,-0.00428043166175485,0.00501778395846486,0,
00:00:03.428,0.00164390925783664,0.0028316373936832,-0.00779134267941117,0,
00:00:03.432,0.0018753734184429,-0.00989810656756163,-0.000357416487531736,0,
00:00:03.436,-0.0118931550532579,-0.0046003945171833,-0.0027634110301733,0,
00:00:03.44,0.00256764213554561,0.013661784119904,0.00692274328321218,0,
00:00:03.444,0.00558150559663773,0.00550654483959079,0.0117133175954223,0,
00:00:03.448,0.00545457005500793,0.00457915710285306,-0.0157812088727951,0,
00:00:03.452,-0.00383481802418828,-0.00192132324445993,-0.00245189014822245,0,
00:00:03.456,-0.0014176070690155,-0.00778412772342563,-0.00714327860623598,0,
00:00:03.46,0.00146465154830366,-0.00539693236351013,0.00505425268784165,0,
00:00:03.464,-0.00225922372192144,-0.000900441547855735,0.00498709874227643,0,
00:00:03.468,-0.0058537982404232,0.00225792150013149,0.00809505768120289,0,
00:00:03.472,0.0101090287789702,0.0093131186440587,-0.000162690266733989,0,
00:00:03.476,-0.00368432677350938,-0.00790911074727774,-0.00370293715968728,0,
00:00:03.48,-0.00553901260718703,-0.00240757409483194,0.000467534991912544,0,
00:00:03.484,0.00827175658196211,0.00624595768749714,-0.00171866500750184,0,
00:00:03.488,-0.00197778944857419,-0.00056523917010054,-0.0134848477318883,0,
00:00:03.492,0.00177447206806391,0.00102660630363971,0.00960902031511068,0,
00:00:03.496,-5.14410203322768E-05,0.00834806356579065,0.0015973539557308,0,
00:00:03.5,-0.00808608159422874,-0.00681319506838918,-0.0122958365827799,0,
00:00:03.504,0.00178634840995073,-0.0159990917891264,0.022681063041091,0,
00:00:03.508,0.00789916422218084,-0.00344843859784305,0.00681718671694398,0,
00:00:03.512,-0.00380846229381859,0.00974559877067804,-0.0127311050891876,0,
00:00:03.516,0.000870487536303699,0.0209202971309423,-0.0151168731972575,0,
00:00:03.52,-0.00186337088234723,-0.000597054371610284,0.00105736125260592,0,
00:00:03.524,-0.0052886726334691,-0.0109164714813232,0.010845797136426,0,
00:00:03.528,0.00416014483198524,-0.00617602746933699,0.00181431823875755,0,
00:00:03.532,0.00631071953102946,0.00423289835453033,-0.00306237232871354,0,
00:00:03.536,-0.00277950800955296,-0.00709931692108512,-0.00334336142987013,0,
00:00:03.54,-0.00298614404164255,-0.000823819893412292,0.00708624161779881,0,
00:00:03.544,0.00131662469357252,-0.00109307514503598,-0.000643875333480537,0,
00:00:03.548,0.00726678688079119,0.00769652938470244,0.0104021653532982,0,
00:00:03.552,-0.00404062122106552,0.00561431655660272,-0.0171887204051018,0,
00:00:03.556,-0.0119341369718313,0.00488131539896131,-0.00598604511469603,0,
00:00:03.56,0.00303904362954199,-0.000402835692511871,0.000634871888905764,0,
00:00:03.564,0.00332904560491443,-0.0147392433136702,0.00373391341418028,0,
00:00:03.568,-0.00135640182998031,-0.0118393562734127,0.0310440734028816,0,
00:00:03.572,0.00541842961683869,0.0143915601074696,-0.0042749447748065,0,
00:00:03.576,0.00334720173850656,0.00244158948771656,-0.0402617678046227,0,
00:00:03.58,-0.000471309584099799,0.000233376762480475,0.00524602876976132,0,
00:00:03.584,-0.000636268290691078,0.00464915111660957,0.00689017772674561,0,
00:00:03.588,-0.00683291582390666,-0.00542168505489826,0.00257317186333239,0,
00:00:03.592,0.000896285811904818,-0.00112538051325828,0.0144417230039835,0,
00:00:03.596,-0.000545525166671723,0.00298418966121972,-0.0036690067499876,0,
00:00:03.6,0.00234811985865235,0.0054069422185421,-0.0080987261608243,0,
00:00:03.604,-0.000887449423316866,-0.00911775603890419,0.00528063904494047,0,
00:00:03.608,-0.0025358849670738,-0.00331847555935383,-0.00187310017645359,0,
00:00:03.612,0.00250065559521317,0.00552993267774582,-0.00281004584394395,0,
00:00:03.616,0.00463774986565113,0.00336598069407046,-0.00333534507080913,0,
00:00:03.62,0.000951173482462764,-0.000534409307874739,0.00240979087539017,0,
00:00:03.624,-0.00222704210318625,-0.00460605649277568,-0.00125174620188773,0,
00:00:03.628,-0.00924158655107021,-0.0086210435256362,0.00528839183971286,0,
00:00:03.632,-0.000164692668477073,0.00864470843225718,0.0113113224506378,0,
00:00:03.636,0.00858854968100786,0.00721872225403786,-0.0023972277995199,0,
00:00:03.64,0.000579442305024713,-0.00104648747947067,-0.0235166028141975,0,
00:00:03.644,0.00306297442875803,-0.00131242827046663,-0.00238957931287587,0,
00:00:03.648,-0.00465755444020033,-0.00662998994812369,0.0142947714775801,0,
00:00:03.652,0.000746818084735423,0.00159745314158499,0.0135219898074865,0,
00:00:03.656,-0.00210217130370438,0.00213946192525327,-0.011933010071516,0,
00:00:03.66,-0.00142602843698114,-0.00149867159780115,-0.00878774374723434,0,
00:00:03.664,7.25503196008503E-05,-0.00281156902201474,0.010599298402667,0,
00:00:03.668,0.00310766603797674,0.000540454988367856,-0.000205898395506665,0,
00:00:03.672,-0.004985760897398,0.00483102677389979,-0.01071747392416,0,
00:00:03.676,0.0071416636928916,0.00274635083042085,0.00655811140313745,0,
00:00:03.68,-0.000751478713937104,-0.00247900164686143,0.00670670904219151,0,
00:00:03.684,-0.00654833903536201,-0.00227578356862068,0.00990692526102066,0,
00:00:03.688,0.00459383009001613,0.00349256838671863,-0.0125015517696738,0,
00:00:03.692,0.0012601901544258,0.000741233990993351,-0.0124853895977139,0,
00:00:03.696,-0.00260109128430486,-0.0022168904542923,0.00431860098615289,0,
00:00:03.7,0.0051107439212501,-0.00287385960109532,0.00622488791123033,0,
00:00:03.704,-0.00511721987277269,-0.00583525514230132,-0.00124998425599188,0,
00:00:03.708,-0.00341410469263792,-0.000188944555702619,0.00345244025811553,0,
00:00:03.712,0.00262119225226343,0.00840355642139912,0.00122140999883413,0,
00:00:03.716,0.00490460265427828,0.000919812533538789,-0.0118818012997508,0,
00:00:03.72,-0.00300594395957887,0.0036333822645247,0.00949020870029926,0,
00:00:03.724,-0.000235410843743011,-0.00010601580288494,0.00238466914743185,0,
00:00:03.728,-0.00390819227322936,-0.0114475227892399,0.00493331998586655,0,
00:00:03.732,0.00396070210263133,0.00437735207378864,-0.00605433806777,0,
00:00:03.736,0.00514386547729373,0.00665545370429754,-0.0146442726254463,0,
00:00:03.74,-0.00186080299317837,-0.00129640672821552,0.00338157149963081,0,
00:00:03.744,-0.00136879272758961,-0.00998103991150856,0.0160569474101067,0,
00:00:03.748,-0.00625230930745602,-0.00097164826001972,-0.0109833246096969,0,
00:00:03.752,3.51884627889376E-05,0.00619874242693186,0.0127002196386456,0,
00:00:03.756,0.00245840800926089,0.00892396736890078,-0.0101384297013283,0,
00:00:03.76,0.00233494769781828,-0.00503757037222385,-0.0029722775798291,0,
00:00:03.764,0.003181655658409,-0.00101907935459167,0.00321007007732987,0,
00:00:03.768,-1.58221810124815E-05,-0.00324937654659152,-0.00378263765014708,0,
00:00:03.772,-0.00854066666215658,-0.00782001297920942,-0.000120731056085788,0,
00:00:03.776,-0.00075307150837034,0.00851418264210224,0.013774142600596,0,
00:00:03.78,0.00752880843356252,0.0066013690084219,0.00014549535990227,0,
00:00:03.784,0.00597693445160985,0.00252899993211031,-0.0080611128360033,0,
00:00:03.788,-0.00523948250338435,-0.0117410141974688,-0.00183541618753225,0,
00:00:03.792,-0.00744763575494289,0.000245270144660026,-0.00514322193339467,0,
00:00:03.796,0.000155277419253252,0.006630121730268,-0.00310250371694565,0,
00:00:03.8,-0.00123050867114216,-0.0171480886638165,0.00274294940754771,0,
00:00:03.804,0.0107380747795105,0.0104467123746872,0.0033986575435847,0,
00:00:03.808,-0.00162078195717186,0.00831875391304493,0.0167658478021622,0,
00:00:03.812,-0.00332268187776208,0.00426687858998775,-0.00880160462111235,0,
00:00:03.816,0.000591342628467828,-0.00652801152318716,-0.00301883253268898,0,
00:00:03.82,0.00257302937097847,-0.00156686652917415,-0.00843905750662088,0,
00:00:03.824,-0.00235647964291275,-0.00554944621399045,0.00616419175639749,0,
00:00:03.828,-0.00243840669281781,-0.00169658882077783,0.00413300283253193,0,
00:00:03.832,0.00128068297635764,0.00637924112379551,-0.00494107324630022,0,
00:00:03.836,-0.00337137468159199,0.00375305605120957,-0.00349588459357619,0,
00:00:03.84,0.00366820464842021,-0.00258239801041782,0.00228578806854784,0,
00:00:03.844,-0.00363558903336525,-0.00698731513693929,-0.00159258313942701,0,
00:00:03.848,0.00167231052182615,0.00291886110790074,0.00289783254265785,0,
00:00:03.852,0.005132504273206,0.00387866119854152,0.00696637574583292,0,
00:00:03.856,0.0041056964546442,0.00366935064084828,-0.00922063272446394,0,
00:00:03.86,-0.00340722547844052,-0.000575014972127974,0.00604728329926729,0,
00:00:03.864,-0.000366591091733426,-0.00528555363416672,-0.000849422067403793,0,
00:00:03.868,-0.00854517426341772,-0.00118020514491946,-0.00440344214439392,0,
00:00:03.872,-0.00550484238192439,-0.00399466697126627,0.00471762055531144,0,
00:00:03.876,0.00877568032592535,0.00446157902479172,-0.002369204768911,0,
00:00:03.88,0.00694652600213885,0.00173850252758712,-0.00857237074524164,0,
00:00:03.884,-0.0051156678237021,-0.0055505302734673,0.00768130924552679,0,
00:00:03.888,0.00300042377784848,0.0102031119167805,0.00829004682600498,0,
00:00:03.892,-0.000910129747353494,-0.00131681922357529,-0.00356142362579703,0,
00:00:03.896,0.000146809717989527,0.000923943880479783,-0.0133489323779941,0,
00:00:03.9,-0.00330484518781304,-0.00149833795148879,0.0054482757113874,0,
00:00:03.904,-0.00399568071588874,-0.00506900018081069,0.0214889571070671,0,
00:00:03.908,-0.00186319940257818,-0.0108789270743728,-0.00712915323674679,0,
00:00:03.912,0.00924056395888329,0.012742786668241,-0.0190997123718262,0,
00:00:03.916,0.00306250434368849,0.00708176847547293,-0.0119727747514844,0,
00:00:03.92,0.00077707099262625,-0.00227738311514258,0.0188510306179523,0,
00:00:03.924,-0.00280053331516683,-0.00422928901389241,0.00722021423280239,0,
00:00:03.928,-0.00391259510070086,-0.000605722423642874,-0.00602482259273529,0,
00:00:03.932,-0.00680337939411402,-0.00446888292208314,-0.00516135990619659,0,
00:00:03.936,0.00135547830723226,-0.00274458480998874,0.00784255657345057,0,
00:00:03.94,0.0043112076818943,0.00891904626041651,0.00329970754683018,0,
00:00:03.944,0.00360231287777424,0.00952889584004879,0.0077517144382,0,
00:00:03.948,0.00347087299451232,-0.00884593650698662,-0.00829215906560421,0,
00:00:03.952,-0.00463331816717982,-0.00549654942005873,-0.0172588266432285,0,
00:00:03.956,0.000897880701813847,-0.00321592157706618,0.0104595916345716,0,
00:00:03.96,-0.00191627140156925,-0.000488638237584382,0.00626374687999487,0,
00:00:03.964,-0.0055097658187151,0.0100893536582589,-0.00431531807407737,0,
00:00:03.968,0.0060105212032795,0.00731979263946414,0.00461116153746843,0,
00:00:03.972,0.00216010911390185,-0.00769901601597667,-0.00814386736601591,0,
00:00:03.976,0.00175061880145222,-0.000535657862201333,-0.0127696832641959,0,
00:00:03.98,-0.00326721672900021,-0.00535215483978391,-0.000754554814193398,0,
00:00:03.984,-0.00486656976863742,-0.00450997520238161,0.0212214458733797,0,
00:00:03.988,-0.00286583416163921,-0.00293755624443293,0.0317889526486397,0,
00:00:03.992,0.0065332343801856,0.00855082739144564,-0.0268481764942408,0,
00:00:03.996,0.00905598793178797,0.0138744739815593,-0.0179606042802334,0,
00:00:04,-0.00131142686586827,0.000588125316426158,0.00567575171589851,0,
00:00:04.004,-0.00557315116748214,-0.0110444258898497,-0.00332089327275753,0,
00:00:04.008,-0.00900252163410187,-0.00982502289116383,-0.000788590055890381,0,
00:00:04.012,-1.58813982125139E-05,0.00922800973057747,0.00300391088239849,0,
00:00:04.016,0.00405709724873304,0.00129401148296893,0.00010826310608536,0,
00:00:04.02,0.00618129130452871,-0.00604806421324611,0.00696415873244405,0,
00:00:04.024,-0.00194066530093551,-3.0646740924567E-05,0.00614127330482006,0,
00:00:04.028,-0.00180443690624088,0.000494898005854338,-0.00470914226025343,0,
00:00:04.032,0.00210455874912441,0.00239488715305924,-0.00306763290427625,0,
00:00:04.036,0.00115038291551173,0.00891817361116409,-0.00202548038214445,0,
00:00:04.04,-0.000600243336521089,-0.00443368311971426,-0.00299236993305385,0,
00:00:04.044,0.00268756644800305,0.00121074740309268,0.00827548932284117,0,
00:00:04.048,-0.00729676708579063,-0.0055250208824873,0.00259988754987717,0,
00:00:04.052,-0.00391148077324033,-0.00573612563312054,-0.0161422770470381,0,
00:00:04.056,0.00138138374313712,0.00203300127759576,-0.010227283462882,0,
00:00:04.06,0.00604632589966059,0.00401933444663882,0.022180313244462,0,
00:00:04.064,0.00566561566665769,0.00072819652268663,0.0222368706017733,0,
00:00:04.068,-1.04812079371186E-05,0.00473803980275989,-0.0157085601240397,0,
00:00:04.072,-0.0059073343873024,0.000862476765178144,-0.025370467454195,0,
00:00:04.076,-0.00844443030655384,-0.00484347995370626,0.00182026135735214,0,
00:00:04.08,0.0115102818235755,-0.00167117523960769,0.0186301674693823,0,
00:00:04.084,-0.00285435817204416,-0.000678986660204828,-0.0058065252378583,0,
00:00:04.088,-0.0100421262905002,-0.00429197074845433,0.00422537233680487,0,
00:00:04.092,0.00310806906782091,-0.00613512517884374,0.000474423373816535,0,
00:00:04.096,0.0128098325803876,0.0137085458263755,-0.00550379604101181,0,
00:00:04.1,0.000579022860620171,0.0112019442021847,0.0106049934402108,0,
00:00:04.104,-0.00412220833823085,-0.00861317664384842,0.00261391769163311,0,
00:00:04.108,-0.00819981377571821,-0.0101345358416438,-0.0164708737283945,0,
00:00:04.112,0.00409246934577823,0.00829113088548183,-0.00877281744033098,0,
00:00:04.116,0.00357742770574987,0.00460120243951678,0.00263548572547734,0,
00:00:04.12,-0.00400673458352685,-0.00848932564258575,0.00624871253967285,0,
00:00:04.124,0.00194031884893775,-0.00351162534207106,0.0157052055001259,0,
00:00:04.128,0.00323540973477066,0.000571805809158832,-0.00518192583695054,0,
00:00:04.132,-0.00885548256337643,0.00246644811704755,0.00236598681658506,0,
00:00:04.136,-0.00337064545601606,0.000293580087600276,0.00302243954502046,0,
00:00:04.14,0.00545415980741382,0.00734741659834981,-0.00844066962599754,0,
00:00:04.144,0.0100253559648991,-0.000241987974732183,-0.0140955708920956,0,
00:00:04.148,0.000716144044417888,-0.00374422920867801,-0.000895168341230601,0,
00:00:04.152,-0.0019073102157563,-0.00358949624933302,0.0129734883084893,0,
00:00:04.156,-0.00640299636870623,-0.00784083269536495,-0.0045275092124939,0,
00:00:04.16,-0.00205969531089067,0.00218265014700592,0.0198816861957312,0,
00:00:04.164,-0.00231590075418353,0.0124449813738465,-0.00916763581335545,0,
00:00:04.168,-0.00155760708730668,-0.0111751900985837,0.00162578967865556,0,
00:00:04.172,0.00653370143845677,0.0108983656391501,-0.015527006238699,0,
00:00:04.176,0.00225686933845282,0.0066893445327878,-0.00722691928967834,0,
00:00:04.18,0.00205440656282008,-0.000146475838846527,0.00589421717450023,0,
00:00:04.184,-0.002934216754511,-0.00884884502738714,0.00886952597647905,0,
00:00:04.188,-0.000585589441470802,-0.00782990641891956,0.00162660365458578,0,
00:00:04.192,-0.00693973619490862,-0.00903965253382921,0.007090138271451,0,
00:00:04.196,0.000903074396774173,0.00353028927929699,-0.000990753760561347,0,
00:00:04.2,0.0083322124555707,0.0106162000447512,-0.00460429629310966,0,
00:00:04.204,-0.00240310467779636,0.00505063589662313,-0.004349026363343,0,
00:00:04.208,0.00210957392118871,0.00512442039325833,-6.14558957749978E-05,0,
00:00:04.212,0.00684466399252415,0.00280897691845894,0.0044119656085968,0,
00:00:04.216,-0.00529696419835091,-0.0115092191845179,-0.0123279383406043,0,
00:00:04.22,-0.0131865032017231,-0.0150255812332034,0.00243447371758521,0,
00:00:04.224,-0.00387442554347217,0.00647271797060966,0.00624301703646779,0,
00:00:04.228,0.0092287128791213,0.00664806412532926,0.00638066232204437,0,
00:00:04.232,0.00811665132641792,0.00598588678985834,-0.00735468091443181,0,
00:00:04.236,0.00248525920324028,-0.00331865600310266,0.00680802809074521,0,
00:00:04.24,0.0041001015342772,-0.00101857981644571,-0.00155080121476203,0,
00:00:04.244,-0.00349781778641045,0.00368241546675563,-0.00362837011925876,0,
00:00:04.248,-0.0221437811851501,-0.00849628821015358,-0.000356528122210875,0,
00:00:04.252,-0.000747899641282856,-0.00171236984897405,0.00591825507581234,0,
00:00:04.256,0.0110660120844841,0.00477722985669971,-0.0126887792721391,0,
00:00:04.26,0.00925522856414318,0.00788251310586929,-0.0034804861061275,0,
00:00:04.264,0.00505942292511463,-0.00325206271372736,0.0105393305420876,0,
00:00:04.268,-0.0041528157889843,-0.00683712773025036,0.00276103313080966,0,
00:00:04.272,-0.009964719414711,0.00167454942129552,-0.000277446728432551,0,
00:00:04.276,0.00243155471980572,0.00206124410033226,-0.00525196501985192,0,
00:00:04.28,0.00488764606416225,0.000368232373148203,0.000904315151274204,0,
00:00:04.284,-0.00586808379739523,-0.00498309265822172,0.0150962891057134,0,
00:00:04.288,-0.00535276299342513,-0.0011901332763955,-0.0101034641265869,0,
00:00:04.292,0.00749884080141783,0.00675662001594901,-0.00973682291805744,0,
00:00:04.296,0.00337795889936388,-0.00244572339579463,0.00205329828895628,0,
00:00:04.3,0.00214731344021857,0.00718027586117387,-0.000208817858947441,0,
00:00:04.304,-0.00770536158233881,0.0018223273800686,0.00818449445068836,0,
00:00:04.308,0.000599101709667593,-0.0164465922862291,-0.000719389936421067,0,
00:00:04.312,0.00212369463406503,0.00210721511393785,-0.00452676741406322,0,
00:00:04.316,0.00316234515048563,0.0101785073056817,0.00263528781943023,0,
00:00:04.32,-0.00217758980579674,-0.000291433098027483,0.00171592703554779,0,
00:00:04.324,0.00167674734257162,-0.0030744515825063,-0.000634373747743666,0,
00:00:04.328,-0.00696624955162406,-0.00430168211460114,-0.00180177530273795,0,
00:00:04.332,-0.00287185399793088,0.00358571531251073,-0.00567833380773664,0,
00:00:04.336,0.00231900881044567,0.00667320052161813,-0.00488374102860689,0,
00:00:04.34,0.00436811801046133,-0.0062746312469244,0.0136586576700211,0,
00:00:04.344,0.00749834114685655,-0.00931679364293814,0.0140854148194194,0,
00:00:04.348,-0.000871819211170077,0.00344860227778554,-0.018059354275465,0,
00:00:04.352,-0.00625640666112304,0.00598070351406932,-0.00801345519721508,0,
00:00:04.356,0.000309257215121761,0.00358723220415413,0.00531135266646743,0,
00:00:04.36,0.000108008847746532,0.00233384082093835,0.00135055568534881,0,
00:00:04.364,-0.00305302254855633,-0.00382819771766663,0.00569835864007473,0,
00:00:04.368,-0.00123534211888909,-0.0080450652167201,0.00401718774810433,0,
00:00:04.372,0.00106055208016187,0.00645542936399579,-0.0122879417613149,0,
00:00:04.376,-3.1144776585279E-05,-0.00639880076050758,0.00492390291765332,0,
00:00:04.38,0.0036456766538322,0.0045007886365056,0.00397399999201298,0,
00:00:04.384,0.000214517276617698,0.00635717995464802,-0.00276889652013779,0,
00:00:04.388,-0.000211822509299964,-0.00319998594932258,-0.0116718672215939,0,
00:00:04.392,0.00617919396609068,0.00270703714340925,-0.00181738752871752,0,
00:00:04.396,-0.00387089652940631,-0.00286180502735078,0.0150845572352409,0,
00:00:04.4,-0.0132765239104629,-0.0141888055950403,0.0254784468561411,0,
00:00:04.404,0.00970589928328991,0.00780694419518113,-0.0211447980254889,0,
00:00:04.408,0.00105178297962993,0.00631631026044488,-0.0159232635051012,0,
00:00:04.412,0.00346083845943213,0.00236499472521245,-0.0110121937468648,0,
00:00:04.416,-3.59079640475102E-05,0.00118801125790924,0.00347659969702363,0,
00:00:04.42,-0.00897857919335365,-0.00215974706225097,0.015653133392334,0,
00:00:04.424,0.000850095821078867,-0.00766912754625082,0.0129137169569731,0,
00:00:04.428,0.00326367095112801,-0.000734587723854929,0.00179299782030284,0,
00:00:04.432,0.00432646088302135,0.00454651331529021,-0.0103974733501673,0,
00:00:04.436,0.00054721359629184,0.00287399278022349,-0.00825433805584908,0,
00:00:04.44,-0.00233003916218877,2.42547484958777E-05,-0.000131580716697499,0,
00:00:04.444,-0.00697681726887822,-0.00574105093255639,0.00241013010963798,0,
00:00:04.448,-0.00183827464934438,-0.00600301334634423,0.00631720433011651,0,
00:00:04.452,0.00718911690637469,0.0103724515065551,-0.000893730437383056,0,
00:00:04.456,0.000505059259012342,0.00705012166872621,-0.0115625411272049,0,
00:00:04.46,0.00180458044633269,-0.000300292420433834,0.00542045384645462,0,
00:00:04.464,0.00240606116130948,-0.0088451886549592,0.00595845049247146,0,
00:00:04.468,-0.00309813627973199,-0.00303602032363415,-0.000480022426927462,0,
00:00:04.472,-0.00943218730390072,0.000605527486186475,3.36187003995292E-05,0,
00:00:04.476,0.00463646836578846,0.00202655117027462,-0.00340179586783051,0,
00:00:04.48,0.00752220908179879,0.0018251626752317,-0.00196300214156508,0,
00:00:04.484,-0.000103081649285741,0.00295553519390523,-0.00181767053436488,0,
00:00:04.488,-0.00504409428685904,-0.00202887644991279,0.00137755391187966,0,
00:00:04.492,-0.00071573891909793,-0.00221084035001695,0.0154604539275169,0,
00:00:04.496,0.00052549981046468,-0.00287128845229745,-0.00732003012672067,0,
00:00:04.5,0.00053732143715024,0.00451681995764375,-0.0151668135076761,0,
00:00:04.504,0.000236975596635602,-0.00145261583384126,0.00886024441570044,0,
00:00:04.508,0.00415277015417814,0.00335620762780309,0.00718327285721898,0,
00:00:04.512,-0.00403340114280581,-0.00106797914486378,-0.0104319276288152,0,
00:00:04.516,-0.00541694788262248,0.00027847831370309,-0.00698695098981261,0,
00:00:04.52,0.00162648048717529,-0.000872604781761765,0.0114308763295412,0,
00:00:04.524,0.00337845785543323,-0.00357791432179511,0.0043415823020041,0,
00:00:04.528,0.00229325168766081,-0.00328752631321549,0.00450466247275472,0,
00:00:04.532,-0.0016147589776665,0.00121194799430668,-0.00135959289036691,0,
00:00:04.536,-0.00302629824727774,0.00170130922924727,-0.0112655851989985,0,
00:00:04.54,0.00850334018468857,0.011606334708631,0.00728999543935061,0,
00:00:04.544,0.00274454453028739,-0.00288726715371013,-0.0033394314814359,0,
00:00:04.548,-0.00804312434047461,-0.00536126457154751,-0.0102206785231829,0,
00:00:04.552,-0.0103269405663013,0.00111719197593629,0.00485665444284678,0,
00:00:04.556,0.0050666737370193,0.00422374717891216,0.00236621149815619,0,
00:00:04.56,0.0040618758648634,-0.0138266365975142,0.0049509285017848,0,
00:00:04.564,0.00234641088172793,0.000766719458624721,0.0047019706107676,0,
00:00:04.568,0.0047252788208425,0.0115119433030486,-0.00450250552967191,0,
00:00:04.572,-0.0066618169657886,-0.00166050519328564,-0.00809337291866541,0,
00:00:04.576,-0.00444168969988823,-0.00765283172950149,0.0051201949827373,0,
00:00:04.58,-0.00174354494083673,-0.00371128367260098,0.0108734415844083,0,
00:00:04.584,0.0112291518598795,0.0119806751608849,-0.00120000483002514,0,
00:00:04.588,0.000781272246968001,0.00692529929801822,-0.0132610872387886,0,
00:00:04.592,-0.00325443269684911,-0.00354887451976538,0.00778915220871568,0,
00:00:04.596,-0.00324113038368523,-0.00185843021608889,-0.0138859124854207,0,
00:00:04.6,-0.00151251163333654,-0.00795998517423868,-0.00526483310386539,0,
00:00:04.604,0.00437352946028113,-0.00411639409139752,0.0122522925958037,0,
00:00:04.608,-0.00696924608200789,0.00109023449476808,0.0104489754885435,0,
00:00:04.612,-0.00232972856611013,0.00175547471735626,-0.00137759826611727,0,
00:00:04.616,0.00960906688123941,0.00356683251447976,-0.00140777812339365,0,
00:00:04.62,0.0054904199205339,0.00961972679942846,-0.00416303845122457,0,
00:00:04.624,-0.00112911185715348,-0.00431636953726411,0.00614192197099328,0,
00:00:04.628,-0.00875130482017994,-0.0032416358590126,-0.00558095192536712,0,
00:00:04.632,-0.00243705254979432,-0.00201204605400562,-0.000906689034309238,0,
00:00:04.636,0.00121641834266484,0.00135646061971784,-0.006982262711972,0,
00:00:04.64,0.00443310430273414,0.00244054198265076,0.00294976192526519,0,
00:00:04.644,-0.000141442098538391,-0.00902546104043722,0.00232134386897087,0,
00:00:04.648,-0.000954530900344253,0.00532877258956432,0.00020573080109898,0,
00:00:04.652,-0.000462070514913648,-0.00186734565068036,-0.000626558670774102,0,
00:00:04.656,-0.00403444608673453,-0.000264973379671574,0.0101444339379668,0,
00:00:04.66,0.00431333761662245,0.00825440511107445,-0.00312026846222579,0,
00:00:04.664,0.00772703625261784,-0.00344849610701203,0.00554394768550992,0,
00:00:04.668,-0.011818328872323,-0.00769770052284002,-0.018468402326107,0,
00:00:04.672,0.0111331967636943,0.00953160878270864,0.0104548037052155,0,
00:00:04.676,0.00230703386478126,0.00293168774805963,-0.00624586641788483,0,
00:00:04.68,-0.0239681024104357,-0.00673991534858942,-0.00363857881166041,0,
00:00:04.684,0.00674081966280937,-0.00450665876269341,0.0105109307914972,0,
00:00:04.688,0.0105481212958694,0.0104481438174844,-0.00294105126522481,0,
00:00:04.692,0.000513078237418085,-0.00501832086592913,-0.00249846698716283,0,
00:00:04.696,-0.00164284906350076,-0.00932784005999565,0.000699122902005911,0,
00:00:04.7,0.00305545306764543,0.000979837263002992,0.00442421762272716,0,
00:00:04.704,-6.10005508860922E-06,0.00765728252008557,0.0124346306547523,0,
00:00:04.708,-0.00491719925776124,0.00516704982146621,-0.0150138838216662,0,
00:00:04.712,-0.00537831103429198,0.00262760603800416,-0.0108468476682901,0,
00:00:04.716,0.00385974464006722,0.00172811548691243,0.0083531579002738,0,
00:00:04.72,0.00358646828681231,-0.0107197146862745,0.00502125173807144,0,
00:00:04.724,0.000828535354230553,-0.0113108046352863,-0.00123028899542987,0,
00:00:04.728,-0.00325587997213006,0.00588368205353618,-0.00380402244627476,0,
00:00:04.732,-0.00174581038299948,0.00973863154649735,-0.000621553102973849,0,
00:00:04.736,-0.00570658594369888,-0.0107810441404581,0.00203339871950448,0,
00:00:04.74,0.00962723419070244,0.00966411177068949,0.00872289761900902,0,
00:00:04.744,0.00645985174924135,0.000830262142699212,-0.000393015972804278,0,
00:00:04.748,-0.00458258623257279,0.00739604979753494,0.00140833831392229,0,
00:00:04.752,-0.000545748858712614,-0.00438302895054221,-0.00851595029234886,0,
00:00:04.756,-0.00549728190526366,-0.00869260169565678,-0.0131909176707268,0,
00:00:04.76,0.00399033119902015,9.59148164838552E-05,-0.00187884131446481,0,
00:00:04.764,-0.00228278804570436,0.00349988671950996,0.00321866339072585,0,
00:00:04.768,-0.00380013580434024,-0.00545912375673652,0.0236873831599951,0,
00:00:04.772,0.000266308168647811,-0.00187832769006491,-0.000731443171389401,0,
00:00:04.776,0.00315716583281755,0.00478124059736729,-0.00707129016518593,0,
00:00:04.78,0.00537964142858982,0.00852104276418686,-0.00540641276165843,0,
00:00:04.784,-0.00031375780235976,-0.00248127733357251,0.00656097056344152,0,
00:00:04.788,0.00226327870041132,-0.00433351704850793,-0.00487321009859443,0,
00:00:04.792,-0.00137142720632255,-0.00242072623223066,-0.00460740365087986,0,
00:00:04.796,-0.00378003111109138,0.00203507905825973,-0.00499578705057502,0,
00:00:04.8,-0.00963226705789566,-0.00273999641649425,0.00810601655393839,0,
00:00:04.804,0.00246647070161998,0.00177047296892852,0.00208438513800502,0,
00:00:04.808,0.00963692087680101,0.00435686483979225,0.00679570017382503,0,
00:00:04.812,-0.00222030375152826,-0.000899675127584487,-0.0078277513384819,0,
00:00:04.816,-0.00249271374195814,-0.00812120828777552,0.00107386929448694,0,
00:00:04.82,0.00412300787866116,0.00687943445518613,0.00297748460434377,0,
00:00:04.824,-0.00242433766834438,0.00493808882310987,-0.00497416127473116,0,
00:00:04.828,-0.00176304660271853,-0.00463961670175195,-0.0117261549457908,0,
00:00:04.832,0.00648372387513518,-0.00176761846523732,0.0143149783834815,0,
00:00:04.836,-0.00459345756098628,0.00580648938193917,-0.00110720505472273,0,
00:00:04.84,-0.00372906611301005,-0.0098887151107192,0.0168171525001526,0,
00:00:04.844,0.00612684898078442,0.00149006838910282,-0.0192686151713133,0,
00:00:04.848,-0.00371155864559114,0.00113177439197898,-0.00676969392225146,0,
00:00:04.852,0.00370937748812139,-0.000624875305220485,0.00171338336076587,0,
00:00:04.856,-0.00726603576913476,0.00533090531826019,-0.00131301861256361,0,
00:00:04.86,0.00155868986621499,0.00445689866319299,0.0100771794095635,0,
00:00:04.864,0.00543593987822533,-0.00547841656953096,0.00868616160005331,0,
00:00:04.868,-0.00206107087433338,-0.0151772163808346,0.0062828273512423,0,
00:00:04.872,0.00454889377579093,0.0108473328873515,-0.0199800096452236,0,
00:00:04.876,-0.00567154958844185,0.0120869055390358,-0.00343776284717023,0,
00:00:04.88,-0.00156633520964533,0.00192955310922116,0.00239243544638157,0,
00:00:04.884,-0.00346251390874386,-0.0140504091978073,0.000999129260890186,0,
00:00:04.888,0.00321028847247362,-0.00977525766938925,0.0079602962359786,0,
00:00:04.892,0.00832285825163126,0.0119997411966324,-0.0060433060862124,0,
00:00:04.896,0.00448132492601871,0.012654434889555,-0.00373993790708482,0,
00:00:04.9,-0.00940893404185772,-0.0102811781689525,-0.000812406360637397,0,
00:00:04.904,-0.00483120977878571,-0.0108568007126451,0.00982619356364012,0,
00:00:04.908,0.00154030311387032,0.00916947331279516,0.0111905941739678,0,
00:00:04.912,-5.0388651288813E-05,-0.00414462620392442,-0.0140001876279712,0,
00:00:04.916,-0.00340550113469362,-0.0034580803476274,-0.00620494596660137,0,
00:00:04.92,0.00118570530321449,0.00915419403463602,-0.000220586123759858,0,
00:00:04.924,0.0105345230549574,0.0102911842986941,0.00685156136751175,0,
00:00:04.928,0.00428240373730659,-1.54057615873171E-05,-0.00517670763656497,0,
00:00:04.932,-0.00302675715647638,-0.0113677438348532,-0.0018207737011835,0,
00:00:04.936,-0.00807654671370983,-0.01225889287889,0.013270485214889,0,
00:00:04.94,-0.00277844979427755,0.00276180938817561,-0.00140114943496883,0,
00:00:04.944,-0.00827872008085251,0.00688830157741904,-0.00522089330479503,0,
00:00:04.948,0.0112992925569415,0.00715570524334908,0.000433505745604634,0,
00:00:04.952,0.00407011806964874,0.00159458594862372,-0.0047947047278285,0,
00:00:04.956,9.66201769188046E-05,-0.00696270866319537,-0.0020657260902226,0,
00:00:04.96,-0.00151876267045736,-0.00835584942251444,0.00147451926022768,0,
00:00:04.964,-0.00366803491488099,0.00846781674772501,0.00301636941730976,0,
00:00:04.968,0.00312641425989568,0.00839522015303373,0.000402250880142674,0,
00:00:04.972,0.00365568255074322,-0.00402027368545532,0.00499732187017798,0,
00:00:04.976,-0.00509148929268122,-0.00351676275022328,0.00335847237147391,0,
00:00:04.98,-0.00385422445833683,-0.00472442805767059,-0.0107100997120142,0,
00:00:04.984,-0.000220437737880275,-0.00122414366342127,0.00271817552857101,0,
00:00:04.988,-0.00196961592882872,0.00189581140875816,0.000278218038147315,0,
00:00:04.992,0.00440509896725416,-0.0012470711953938,-0.00495553342625499,0,
00:00:04.996,0.00675870152190328,0.00399702414870262,-0.000898845493793488,0,
00:00:05,0.00421916320919991,0.0100530982017517,0.00506981834769249,0,
00:00:05.004,-0.00425104098394513,-0.00252480641938746,0.00397486751899123,0,
00:00:05.008,-0.00554305361583829,-0.00586534710600972,0.0029053958132863,0,
00:00:05.012,-0.00318938563577831,-0.00417633960023522,-0.00558738689869642,0,
00:00:05.016,0.00187000853475183,-0.00105138961225748,-0.00397489406168461,0,
00:00:05.02,-0.00237576593644917,0.00128144735936075,0.00389850093051791,0,
00:00:05.024,0.00237842788919806,0.00414174282923341,0.000173293810803443,0,
00:00:05.028,0.000751861953176558,-0.00245205243118107,0.00533086527138948,0,
00:00:05.032,0.00543331727385521,0.00302058877423406,-0.00865927245467901,0,
00:00:05.036,-0.00053604826098308,0.00339653808623552,-0.00717588746920228,0,
00:00:05.04,-0.00252683158032596,-0.00522135756909847,0.00539773469790816,0,
00:00:05.044,-0.00211220374330878,-0.0101132206618786,0.0147200282663107,0,
00:00:05.048,0.00126814597751945,0.00776682421565056,-0.00709706172347069,0,
00:00:05.052,-0.00164595630485564,0.000942333484999835,-0.00326791452243924,0,
00:00:05.056,-0.00495138019323349,0.00738514773547649,-0.0056495307944715,0,
00:00:05.06,0.00453840149566531,0.00211889413185418,0.00771275907754898,0,
00:00:05.064,0.00450628763064742,-0.00747116887941957,-0.00447931885719299,0,
00:00:05.068,0.00344181735999882,-0.00317320670001209,-0.000385622231988236,0,
00:00:05.072,-0.00327372690662742,-0.000357382028596476,-0.00651905545964837,0,
00:00:05.076,-0.0018135760910809,0.00106332800351083,0.0160486940294504,0,
00:00:05.08,-0.00596469221636653,0.00341308186762035,0.00572906108573079,0,
00:00:05.084,-0.00151364365592599,-0.00105620245449245,-0.0104181859642267,0,
00:00:05.088,0.00689721759408712,-0.00341907469555736,-0.00187044916674495,0,
00:00:05.092,0.00210893247276545,0.001623755088076,-0.00303180888295174,0,
00:00:05.096,-0.0025548308622092,0.00419588293880224,-0.0116713894531131,0,
00:00:05.1,0.00270581222139299,0.00306807784363627,0.00856982730329037,0,
00:00:05.104,-0.00354055361822248,-0.0101014655083418,0.00786376278847456,0,
00:00:05.108,-0.0020580068230629,-0.00043974447180517,0.00819761678576469,0,
00:00:05.112,0.00891044829040766,0.00294579565525055,0.00224774330854416,0,
00:00:05.116,-0.00599340861663222,0.00476361019536853,-0.00546954525634646,0,
00:00:05.12,-0.00492268986999989,-0.00090901437215507,-0.0141165731474757,0,
00:00:05.124,0.0061220726929605,-0.00204541557468474,-0.00570865254849195,0,
00:00:05.128,-0.00501365354284644,0.000823725422378629,0.00765477260574698,0,
00:00:05.132,-0.00385018344968557,-0.00833867304027081,0.00756585504859686,0,
00:00:05.136,0.0130130983889103,0.00690640322864056,-0.00120838975999504,0,
00:00:05.14,0.00203299638815224,0.00550958840176463,-0.00551726343110204,0,
00:00:05.144,-0.00139749539084733,-0.00391572155058384,0.0165937021374702,0,
00:00:05.148,-0.00629690242931247,-0.00128763786051422,-0.00138107384555042,0,
00:00:05.152,-0.00422019325196743,0.00174847233574837,-0.0147152571007609,0,
00:00:05.156,0.00159175996668637,-0.00198776903562248,-0.00973736308515072,0,
00:00:05.16,-0.00201280089095235,0.00259497808292508,-0.00233663385733962,0,
00:00:05.164,0.00292712030932307,-0.0081678032875061,0.0225736424326897,0,
00:00:05.168,0.00320110167376697,-0.00253803259693086,0.0137254297733307,0,
00:00:05.172,0.00768461264669895,0.0142123978585005,-0.0140067646279931,0,
00:00:05.176,-0.0104328580200672,-0.00408210884779692,-0.0110911168158054,0,
00:00:05.18,-0.000192320556379855,0.00399154145270586,-0.00368517683818936,0,
00:00:05.184,-0.00672433339059353,-0.00606329785659909,0.000111935281893238,0,
00:00:05.188,0.00854182057082653,-0.00407929765060544,0.0147133404389024,0,
00:00:05.192,0.00411999225616455,0.00439618015661836,-0.0109301907941699,0,
00:00:05.196,0.00200156448408961,-0.00120615097694099,0.000903399544768035,0,
00:00:05.2,-0.00422234041616321,-0.00258198194205761,0.0085697965696454,0,
00:00:05.204,-0.00400928035378456,0.00713680498301983,0.00747655844315887,0,
00:00:05.208,0.000587637245189399,0.00954870134592056,-0.0107773132622242,0,
00:00:05.212,-0.00120668718591332,-0.00997683312743902,-0.00850222259759903,0,
00:00:05.216,9.22452381928451E-05,-0.013417019508779,0.00507929408922791,0,
00:00:05.22,-0.000752410211134702,-0.000500879134051502,4.03128360630944E-05,0,
00:00:05.224,0.00141888973303139,0.00839428324252367,0.00210052984766662,0,
00:00:05.228,0.00659907935187221,0.0110088428482413,-0.00313239102251828,0,
00:00:05.232,-7.55323708290234E-05,-0.0019140561344102,-0.00677084270864725,0,
00:00:05.236,0.00135514361318201,-0.00510801468044519,0.0205232035368681,0,
00:00:05.24,-0.00871471222490072,-0.00773267587646842,-0.00841505825519562,0,
00:00:05.244,-0.0108962301164865,0.00099990691523999,0.00235138996504247,0,
00:00:05.248,0.0114073548465967,0.00631812633946538,0.00612837634980679,0,
00:00:05.252,0.00945296511054039,0.00779845612123609,-0.0155946705490351,0,
00:00:05.256,-0.000721464748494327,-0.00424060504883528,-0.0112223597243428,0,
00:00:05.26,-0.00437622657045722,-0.00785873364657164,0.00606811046600342,0,
00:00:05.264,-0.00174120755400509,0.00528546515852213,0.00763550633564591,0,
00:00:05.268,-0.00769478548318148,-0.00602924218401313,0.010191747918725,0,
00:00:05.272,0.00279785902239382,-0.00276618637144566,-0.00356678059324622,0,
00:00:05.276,0.00251090107485652,0.00230561336502433,0.00193166173994541,0,
00:00:05.28,0.00457773543894291,0.00855557527393103,0.00504035502672195,0,
00:00:05.284,0.00380332069471478,0.00360519276000559,-0.00566903734579682,0,
00:00:05.288,-0.00319585902616382,-0.00620442070066929,-0.0168388169258833,0,
00:00:05.292,-0.00407277746126056,-0.00465535745024681,-0.00790730491280556,0,
00:00:05.296,-8.34988604765385E-05,0.00358544569462538,0.011792590841651,0,
00:00:05.3,-0.00397436693310738,0.00021035889221821,0.00968434382230043,0,
00:00:05.304,0.00377730187028646,-0.000695140683092177,0.0066029722802341,0,
00:00:05.308,-0.00107792741619051,-0.00254450156353414,-0.00857321638613939,0,
00:00:05.312,-0.00396059127524495,-8.78251594258472E-05,-0.000864452973473817,0,
00:00:05.316,0.0118817761540413,0.00601070048287511,0.0116831371560693,0,
00:00:05.32,0.00538296112790704,0.00434732064604759,-0.0069630560465157,0,
00:00:05.324,-0.00966267846524715,-0.00812638830393553,-0.004191679880023,0,
00:00:05.328,-0.00743425358086824,-0.00540784979239106,-0.00726437335833907,0,
00:00:05.332,0.00106397946365178,0.00234811822883785,-0.00791940744966269,0,
00:00:05.336,0.00345089402981102,0.00368754472583532,0.0134765254333615,0,
00:00:05.34,0.00679204240441322,0.00421914784237742,0.00592242833226919,0,
00:00:05.344,-0.00101047311909497,-0.00182715430855751,0.00282851536758244,0,
00:00:05.348,-0.00786776375025511,-0.00271007977426052,-0.00390542042441666,0,
00:00:05.352,-0.00109214300755411,-0.00144621543586254,-0.00619845651090145,0,
00:00:05.356,0.00434123910963535,0.00211952696554363,-0.0040706661529839,0,
00:00:05.36,-0.00134626729413867,-0.00317774689756334,0.0058770184405148,0,
00:00:05.364,-0.000192923747817986,0.00334275304339826,0.013124318793416,0,
00:00:05.368,0.00354914576746523,0.0041699493303895,-0.00706705451011658,0,
00:00:05.372,0.00184878602158278,-0.00245620869100094,-0.012756060808897,0,
00:00:05.376,0.00142816419247538,-0.00345014734193683,0.00468477187678218,0,
00:00:05.38,-0.0101319057866931,-0.0163271352648735,0.000923068320844322,0,
00:00:05.384,0.00250405259430408,0.00780311040580273,0.00289422436617315,0,
00:00:05.388,0.00805785227566957,0.0229210406541824,0.00749792158603668,0,
00:00:05.392,-0.00244927452877164,0.00780432345345616,-0.0106242848560214,0,
00:00:05.396,-0.00203401176258922,-0.0158980954438448,-0.0105957109481096,0,
00:00:05.4,-0.00613504974171519,-0.0134264109656215,0.00334901479072869,0,
00:00:05.404,-0.00141936633735895,-0.00136089150328189,0.0170749388635159,0,
00:00:05.408,0.00504727475345135,0.00432238401845098,0.0115376571193337,0,
00:00:05.412,0.00426895264536142,0.00502431113272905,-0.0162537265568972,0,
00:00:05.416,0.00329736177809536,0.00718561233952641,-0.00841234996914864,0,
00:00:05.42,-0.00527522386983037,-0.00550398277118802,-0.00127464847173542,0,
00:00:05.424,-0.00174852588679641,-0.0045404015108943,0.00487324874848127,0,
00:00:05.428,0.00192467018496245,0.00372154684737325,0.00581233110278845,0,
00:00:05.432,-0.00155041075777262,0.00242978241294622,-0.00941380206495523,0,
00:00:05.436,-0.00324259558692575,-0.00262918183580041,-0.00109802302904427,0,
00:00:05.44,0.0021011542994529,0.00402792915701866,0.00238887034356594,0,
00:00:05.444,0.00465805502608418,-0.00832929741591215,0.0195423662662506,0,
00:00:05.448,-0.00496443687006831,-0.0123269474133849,0.00902603752911091,0,
00:00:05.452,0.00200476706959307,0.0122701702639461,-0.0258691255003214,0,
00:00:05.456,0.00208749203011394,0.0138050345703959,-0.0151982344686985,0,
00:00:05.46,0.000237466287217103,0.00335819181054831,0.00439613964408636,0,
00:00:05.464,-0.00321173761039972,-0.00939889997243881,0.0114157674834132,0,
00:00:05.468,0.00265619857236743,-0.00172140263020992,-0.00150110840331763,0,
00:00:05.472,0.00296407775022089,-0.0020118651445955,0.00625012908130884,0,
00:00:05.476,-0.00759214861318469,-0.0108227049931884,0.00108714087400585,0,
00:00:05.48,-0.0039792163297534,-0.00196675234474242,-0.00158336863387376,0,
00:00:05.484,0.00157420756295323,0.0145569313317537,-0.00430918671190739,0,
00:00:05.488,0.0104500902816653,0.00447968812659383,0.00242003030143678,0,
00:00:05.492,-0.000213438717764802,-0.00321784219704568,-0.000942949845921248,0,
00:00:05.496,-0.00754942558705807,-0.00111734843812883,-0.00332455243915319,0,
00:00:05.5,0.00327707920223475,0.00315024564042687,0.0077665806747973,0,
00:00:05.504,0.000392079091398045,-0.0049756933003664,-0.0101610347628593,0,
00:00:05.508,-0.00073251232970506,-0.00399011373519897,0.00807187426835299,0,
00:00:05.512,-0.000740148592740297,-0.000548716634511948,-0.00390365975908935,0,
00:00:05.516,0.00178404455073178,0.00191693799570203,-0.000699310563504696,0,
00:00:05.52,-0.00183449336327612,0.000394662813050672,-0.00111944903619587,0,
00:00:05.524,-0.00337469903752208,0.00152547936886549,0.00525651639327407,0,
00:00:05.528,0.00211095809936523,0.0081216050311923,-0.00381016405299306,0,
00:00:05.532,0.00264190346933901,-0.00687477504834533,0.00871522538363934,0,
00:00:05.536,0.00327635742723942,-0.0029895247425884,6.91297973389737E-05,0,
00:00:05.54,0.00186575495172292,0.00438880827277899,-0.00920447986572981,0,
00:00:05.544,-0.00872650649398565,-0.000255601218668744,-0.0116608683019876,0,
00:00:05.548,-0.00456552905961871,-0.00173754536081105,0.0168824400752783,0,
00:00:05.552,0.00567297777161002,0.00696656573563814,-0.00512260990217328,0,
00:00:05.556,-0.00157488672994077,-0.0123683689162135,-0.00590746523812413,0,
00:00:05.56,0.00258447998203337,-0.0104311760514975,0.0120789371430874,0,
00:00:05.564,0.00700725754722953,0.011243999004364,0.0107094747945666,0,
00:00:05.568,0.00138695689383894,0.0150430342182517,-0.00840882956981659,0,
00:00:05.572,-0.00575946876779199,-0.000579615181777626,-0.0163413193076849,0,
00:00:05.576,-0.00298237195238471,-0.00419152714312077,-0.000818356114905328,0,
00:00:05.58,-0.00571777857840061,-0.00553184188902378,0.00382501655258238,0,
00:00:05.584,0.00362200615927577,-0.00604589423164725,0.01219401974231,0,
00:00:05.588,-0.000231133424676955,-0.00124764675274491,-0.00131296971812844,0,
00:00:05.592,0.00330494972877204,0.00272739678621292,-0.00544140487909317,0,
00:00:05.596,0.00455512525513768,0.00388257158920169,0.00446103140711784,0,
00:00:05.6,-0.00364145007915795,0.00274967844597995,0.00614791922271252,0,
00:00:05.604,-0.000777652196120471,0.00285565853118896,-0.00385913718491793,0,
00:00:05.608,-6.03736261837184E-05,-0.00899074785411358,-0.00671805022284389,0,
00:00:05.612,-6.46588596282527E-05,0.00287344353273511,-0.0107336910441518,0,
00:00:05.616,-0.00222598924301565,0.00355948181822896,-0.0030638356693089,0,
00:00:05.62,0.00184188561979681,0.00289132073521614,0.0108206951990724,0,
00:00:05.624,0.00160272303037345,-0.00135259027592838,0.0099152559414506,0,
00:00:05.628,0.00230902247130871,-0.00361334881745279,0.00770023185759783,0,
00:00:05.632,-0.00271513732150197,-0.00104103400371969,-0.0102249076589942,0,
00:00:05.636,-0.00257556489668787,-0.0114469472318888,-0.00596003141254187,0,
00:00:05.64,-0.00698256911709905,-0.00134604726918042,0.00511557329446077,0,
00:00:05.644,0.00876989308744669,0.0179868508130312,-1.32138829940232E-05,0,
00:00:05.648,0.0104848882183433,0.00974604021757841,-0.00446268171072006,0,
00:00:05.652,-0.006026700604707,-0.0106342639774084,-0.000177987036295235,0,
00:00:05.656,-0.01349569670856,-0.00472461106255651,0.000943414168432355,0,
00:00:05.66,0.0029590236954391,0.000634877069387585,-0.00330552202649415,0,
00:00:05.664,0.00821500271558762,0.00247394107282162,0.00231870310381055,0,
00:00:05.668,-0.000464070588350296,-0.0108527773991227,0.00537194637581706,0,
00:00:05.672,0.00254196673631668,0.00754412962123752,-0.00220462866127491,0,
00:00:05.676,-0.00243068835698068,0.00200569746084511,0.00444583501666784,0,
00:00:05.68,-0.00280251330696046,0.00215417239814997,-0.00991996191442013,0,
00:00:05.684,-0.00128958118148148,-0.00647999811917543,0.0105749508365989,0,
00:00:05.688,0.000283461296930909,-5.89590417803265E-05,-0.00404191017150879,0,
00:00:05.692,0.00108304910827428,0.00700805662199855,-0.00704251090064645,0,
00:00:05.696,0.00313223456032574,0.0028826454654336,0.00259902188554406,0,
00:00:05.7,-0.00141442625317723,-0.00411960342898965,0.00128487031906843,0,
00:00:05.704,-0.00162877421826124,-0.00202930299565196,0.00117009924724698,0,
00:00:05.708,-0.00257469387724996,-0.00146405573468655,-0.00323602859862149,0,
00:00:05.712,0.00450982432812452,-0.000788574630860239,0.00848559569567442,0,
00:00:05.716,-0.00163868884555995,-0.00411573145538569,-0.00289687560871243,0,
00:00:05.72,0.00106758181937039,-0.00370501424185932,0.00273646623827517,0,
00:00:05.724,0.00492108799517155,0.014097198843956,-0.000675638788379729,0,
00:00:05.728,-0.00621663732454181,0.00559886172413826,-0.00773220090195537,0,
00:00:05.732,-0.00414037657901645,-0.0064734285697341,-0.00792007707059383,0,
00:00:05.736,0.00460268324241042,-0.00375083112157881,0.00128018425311893,0,
00:00:05.74,-0.000913037394639105,-0.00569075113162398,0.0195515137165785,0,
00:00:05.744,-0.00238950387574732,0.00397944962605834,0.00137589534278959,0,
00:00:05.748,0.00716084334999323,0.00617135409265757,-0.0124647142365575,0,
00:00:05.752,0.00114246900193393,0.00342909852042794,-0.00463433191180229,0,
00:00:05.756,0.00193253403995186,-0.0046306811273098,0.00366327003575861,0,
00:00:05.76,-0.00260690762661397,-0.00526909111067653,0.0102567598223686,0,
00:00:05.764,-0.0151756620034575,-0.0128487227484584,-0.00432802690193057,0,
00:00:05.768,-1.33753974296269E-05,0.0104472013190389,-0.00767348241060972,0,
00:00:05.772,0.0110982349142432,0.0104149132966995,0.00602323329076171,0,
00:00:05.776,0.00292431702837348,0.00103595294058323,-0.00109974713996053,0,
00:00:05.78,-7.85762858868111E-06,-0.00511798076331615,-0.00840144511312246,0,
00:00:05.784,0.00120762386359274,0.000609040667768568,0.00506974942982197,0,
00:00:05.788,0.00331484223715961,-0.000265991868218407,0.00552286161109805,0,
00:00:05.792,-0.00620420230552554,-0.00165594730060548,-0.00445320177823305,0,
00:00:05.796,-0.00541327893733978,-0.00175165710970759,0.00861281901597977,0,
00:00:05.8,-0.00137863773852587,-0.0049780672416091,-0.00371445994824171,0,
00:00:05.804,-0.000220591813558713,-0.00200418499298394,-0.00484968768432736,0,
00:00:05.808,0.00697182398289442,0.0101380003616214,-0.0019947609398514,0,
00:00:05.812,0.00186677533201873,0.0104146311059594,0.00288132298737764,0,
00:00:05.816,-0.00485621253028512,-0.00863028690218925,-0.00203257752582431,0,
00:00:05.82,0.00247734016738832,-0.00582988560199738,0.00206220825202763,0,
00:00:05.824,0.00210657948628068,-0.00583916390314698,0.00633336370810866,0,
00:00:05.828,-0.000141576194437221,0.00518285762518644,-0.00317359948530793,0,
00:00:05.832,0.00048374748439528,0.00756703549996018,-0.00590537954121828,0,
00:00:05.836,-0.00157784670591354,-0.00199810788035393,-0.00364331528544426,0,
00:00:05.84,-0.0086627434939146,0.00132486841175705,0.00632370170205832,0,
00:00:05.844,8.89403527253307E-05,-0.00497403042390943,0.00300626223906875,0,
00:00:05.848,0.0106872729957104,-0.000658275210298598,0.0131958574056625,0,
00:00:05.852,0.00270296214148402,0.00288509321399033,-0.00836714915931225,0,
00:00:05.856,-0.00878506619483233,-0.00317146792076528,-0.0150143001228571,0,
00:00:05.86,0.00198311498388648,0.00286024017259479,-0.00541562121361494,0,
00:00:05.864,0.000192211591638625,-0.00256207888014615,0.012426920235157,0,
00:00:05.868,-0.000109563748992514,0.00322874588891864,0.00402585882693529,0,
00:00:05.872,0.00420583039522171,0.00568501558154821,-0.00652258144691586,0,
00:00:05.876,-0.00582420965656638,-0.00291015231050551,-0.00203602015972137,0,
00:00:05.88,0.000970242370385677,-0.013568046502769,0.00312889227643609,0,
00:00:05.884,-0.00266239675693214,-0.00595514150336385,0.0149043630808592,0,
00:00:05.888,-0.00197264063172042,0.0118411052972078,-0.000876250152941793,0,
00:00:05.892,0.00446468964219093,0.0125357052311301,-0.00577147584408522,0,
00:00:05.896,0.00849192216992378,0.00514796655625105,-0.0197164416313171,0,
00:00:05.9,-0.00239997752942145,-0.0107970032840967,0.00703434925526381,0,
00:00:05.904,-0.00227283267304301,-0.00881832558661699,0.00688232062384486,0,
00:00:05.908,-0.00248202821239829,4.80558846902568E-05,-0.00107031525112689,0,
00:00:05.912,0.000257395586231723,0.0030624489299953,-0.000540617038495839,0,
00:00:05.916,-0.00259105255827308,0.00485810218378901,0.00117104966193438,0,
00:00:05.92,0.00295458314940333,-0.00279337796382606,0.00787808652967215,0,
00:00:05.924,-0.011481030844152,-0.00190077058505267,-0.00705924909561872,0,
00:00:05.928,0.00634340569376946,0.00257340306416154,0.00523006590083241,0,
00:00:05.932,0.0118830176070333,0.0059467894025147,-0.00141190818976611,0,
00:00:05.936,-0.000865920621436089,-0.00405658828094602,-0.0128582986071706,0,
00:00:05.94,-0.00680565508082509,-0.000392138987081125,-0.00626198295503855,0,
00:00:05.944,0.000268174597295001,-0.00769977085292339,0.0152891241014004,0,
00:00:05.948,-0.00368886883370578,-0.0065523711964488,0.00599133130162954,0,
00:00:05.952,0.00334506714716554,0.00928995292633772,0.00581624545156956,0,
00:00:05.956,-0.00185411109123379,0.0105941258370876,-0.0153942946344614,0,
00:00:05.96,0.00164997891988605,-0.00159785407595336,0.00402007903903723,0,
00:00:05.964,-0.000481148599646986,-0.00427459506317973,-0.00324175553396344,0,
00:00:05.968,0.00446319859474897,0.00125280674546957,0.000129618681967258,0,
00:00:05.972,-0.000890953349880874,-0.000509255507495254,0.00102983228862286,0,
00:00:05.976,-0.000260120286839083,-0.000257426087046042,-0.00534663302823901,0,
00:00:05.98,-0.00363946077413857,-0.00842514354735613,0.00428578862920403,0,
00:00:05.984,-0.00203346228227019,-0.00489265052601695,0.00488459458574653,0,
00:00:05.988,-0.00169999443460256,0.00743664661422372,-0.000131173685076647,0,
00:00:05.992,0.0036768747959286,0.00730723282322288,0.00724702887237072,0,
00:00:05.996,0.00539934216067195,0.00685573322698474,-0.00656544137746096,0,
00:00:06,-0.00092596560716629,-0.00748256966471672,-0.0109356949105859,0,
00:00:06.004,-0.00251304474659264,-0.00660960236564279,0.00783383194357157,0,
00:00:06.008,0.000298210332402959,0.000492632738314569,0.00311149167828262,0,
00:00:06.012,-0.00242349947802722,0.0043493676930666,-0.00951931998133659,0,
00:00:06.016,-0.00320633896626532,0.00173981208354235,-0.00520582543686032,0,
00:00:06.02,0.00261152908205986,-0.0011151887010783,0.0124235125258565,0,
00:00:06.024,0.00516776135191321,-0.00630201864987612,0.00849623698741198,0,
00:00:06.028,-0.00264124013483524,-0.00383917498402298,-0.00207019527442753,0,
00:00:06.032,-0.0041595152579248,0.00264115375466645,-0.00948266498744488,0,
00:00:06.036,0.00419540423899889,0.0139243016019464,0.00185515114571899,0,
00:00:06.04,0.00520455464720726,0.00280194077640772,0.00399606581777334,0,
00:00:06.044,-0.00204860279336572,-0.00695510907098651,-0.00445406185463071,0,
00:00:06.048,-0.00580008281394839,-0.0109360236674547,-0.0034044471103698,0,
00:00:06.052,0.00163936545141041,0.00322199333459139,0.00203638966195285,0,
00:00:06.056,-0.000702350749634206,0.0084761306643486,-0.00187276850920171,0,
00:00:06.06,-0.00249916757456958,-0.00866736751049757,0.000714874884579331,0,
00:00:06.064,0.0023723216727376,-0.00449496926739812,0.00903101824223995,0,
00:00:06.068,0.00454540317878127,0.00673641124740243,-0.00115727656520903,0,
00:00:06.072,0.00100273010320961,0.0121039841324091,-0.00781890563666821,0,
00:00:06.076,-0.0103597203269601,-0.00451946444809437,0.00139046274125576,0,
00:00:06.08,0.00508586363866925,-0.00908161606639624,0.00892691593617201,0,
00:00:06.084,0.00269913696683943,0.00453207548707724,-0.019301438704133,0,
00:00:06.088,0.00037860736483708,-0.00402955990284681,0.0187914147973061,0,
00:00:06.092,-0.000927915796637535,-0.0127330366522074,0.0206454172730446,0,
00:00:06.096,0.000919930986128747,0.0130663877353072,-0.0335068739950657,0,
00:00:06.1,-0.00269312248565257,0.0111787151545286,-0.0188384465873241,0,
00:00:06.104,0.000316331424983218,-0.00229616626165807,0.0139696570113301,0,
00:00:06.108,-0.00392879405990243,-0.00301299267448485,0.013618235476315,0,
00:00:06.112,0.00159599876496941,-0.00114400975871831,0.00636912556365132,0,
00:00:06.116,0.00488003576174378,0.00201304955407977,-0.0131547693163157,0,
00:00:06.12,0.00186527299229056,-0.0103550441563129,0.00750323059037328,0,
00:00:06.124,-0.00547682493925095,-0.00465939380228519,0.00749978795647621,0,
00:00:06.128,-0.00481862155720592,0.000874328892678022,-0.00128520512953401,0,
00:00:06.132,0.00310933589935303,0.012384194880724,-0.0129941124469042,0,
00:00:06.136,0.00656154938042164,0.0131721412763,-0.0110667804256082,0,
00:00:06.14,0.00051326397806406,-0.0132116433233023,-0.000729940249584615,0,
00:00:06.144,0.00448846817016602,-0.00645990949124098,0.0317231379449368,0,
00:00:06.148,-0.00778438709676266,-0.00720891868695617,0.0033318311907351,0,
00:00:06.152,-0.00184114812873304,0.00996858067810535,-0.0175036881119013,0,
00:00:06.156,-0.00259609497152269,0.0117000816389918,-0.0170734170824289,0,
00:00:06.16,0.00177021115086973,-0.00541084166616201,0.0019219150999561,0,
00:00:06.164,-0.00238689174875617,-0.00935303326696157,0.00671763252466917,0,
00:00:06.168,0.00251618772745132,-0.00550271337851882,0.0136970421299338,0,
00:00:06.172,0.00297410995699465,0.010559119284153,-0.00754860276356339,0,
00:00:06.176,0.00143295084126294,0.00440058158710599,0.00998068694025278,0,
00:00:06.18,-0.000259350170381367,-0.00312853464856744,-0.00771466828882694,0,
00:00:06.184,0.000901069317478687,-0.00345114478841424,0.00377221847884357,0,
00:00:06.188,-0.00109858135692775,0.000745541823562235,-0.00870076566934586,0,
00:00:06.192,-0.00845308322459459,0.000704511010553688,-0.0030598328448832,0,
00:00:06.196,0.00205352110788226,-0.00221835798583925,0.00126992736477405,0,
00:00:06.2,0.00219072424806654,-0.000652280694339424,0.000932313618250191,0,
00:00:06.204,0.00669063348323107,0.00320267584174871,0.0107770804315805,0,
00:00:06.208,-6.45988548058085E-05,-0.00444569624960423,-0.00522998161613941,0,
00:00:06.212,-0.00478399638086557,-0.000692980655003339,-0.00509052677080035,0,
00:00:06.216,0.00149334641173482,0.0155876576900482,0.00128740735817701,0,
00:00:06.22,-0.00359197240322828,-0.0101340394467115,0.00650149816647172,0,
00:00:06.224,0.00276335328817368,0.000394274102291092,-0.00272673624567688,0,
00:00:06.228,-0.000455962843261659,0.000623319356236607,0.0048756436444819,0,
00:00:06.232,-0.000727525039110333,0.000947663327679038,-0.0132856667041779,0,
00:00:06.236,-9.11009628907777E-05,-0.00794277898967266,-0.00389555399306118,0,
00:00:06.24,0.000432690605521202,-0.000973309914115816,0.00405743531882763,0,
