Elapsed Time,EMG1,EMG2,EMG3,BioRadio Event,Unnamed: 5
00:00:00,-0.107940562069416,-0.533475458621979,4.29894065856934,0,
00:00:00.004,0.0902620851993561,0.507657885551453,-4.09919595718384,0,
00:00:00.008,0.115920186042786,0.42408081889152505,-3.37201189994812,0,
00:00:00.012,-0.0174016654491425,0.0414477773010731,-0.40474104881286604,0,
00:00:00.016,-0.0688214004039764,-0.21832542121410395,1.7615990638732901,0,
00:00:00.02,-0.00104753044433892,-0.26066136360168496,2.12866234779358,0,
00:00:00.024,-0.0433489568531513,-0.16354475915432,1.3158491849899299,0,
00:00:00.028,0.04632080346345901,-0.0104485359042883,0.17119280993938402,0,
00:00:00.032,0.00444853724911809,0.0776238963007927,-0.6247292160987851,0,
00:00:00.036,-0.0746923983097076,0.0929116010665894,-0.87270849943161,0,
00:00:00.04,-0.0154523206874728,0.0710923075675964,-0.6223880052566529,0,
00:00:00.044,0.0306438002735376,0.0345380119979382,-0.22042599320411702,0,
00:00:00.048,0.0550359413027763,-0.0143193602561951,0.0776023119688034,0,
00:00:00.052,0.0706473141908646,-0.0204916018992662,0.277982205152512,0,
00:00:00.056,-0.0198976397514343,-0.0249244030565023,0.250869929790497,0,
00:00:00.06,-0.0716506987810135,-0.0124596757814288,0.0895662754774094,0,
00:00:00.064,-0.03718226775527,-0.006219474598765371,-0.0235529001802206,0,
00:00:00.068,-0.00643437774851918,-0.0045196102000773,-0.0597491003572941,0,
00:00:00.072,0.0267687421292067,0.0123363463208079,-0.0564953088760376,0,
00:00:00.076,0.0511773861944675,0.0075346175581216795,-0.0296752173453569,0,
00:00:00.08,0.0284057483077049,0.010753427632153,-0.0481258817017078,0,
00:00:00.084,-0.0620223060250282,-0.0065116467885673,-0.0159126333892345,0,
00:00:00.088,-0.0058437017723918,-0.00188786687795073,0.0859296321868896,0,
00:00:00.092,-0.0067984852939844105,-0.00313431024551392,0.0304244868457317,0,
00:00:00.096,0.0109925959259272,-0.00115113169886172,-0.0127974925562739,0,
00:00:00.1,0.0303302090615034,0.00487085152417421,-0.0191468764096498,0,
00:00:00.104,-0.0415473021566868,-0.00256092846393585,-0.011463182978331998,0,
00:00:00.108,0.007606499828398229,0.0019014185527339602,-0.00431205378845334,0,
00:00:00.112,0.0645676851272583,-0.0019561906810849896,0.00728695839643478,0,
00:00:00.116,-0.0656319707632065,-0.00600266782566905,-0.00226155109703541,0,
00:00:00.12,0.0299897380173206,0.00766248069703579,-0.0302969105541706,0,
00:00:00.124,-0.0359460450708866,-0.00201470660977066,0.0397089943289757,0,
00:00:00.128,0.00640154350548983,0.000154881752678193,0.0264704879373312,0,
00:00:00.132,0.0159395635128021,0.00043488453957252204,-0.0111844595521688,0,
00:00:00.136,-0.0651847273111343,-0.0019798318389803197,-0.0324521735310555,0,
00:00:00.14,0.0751966908574104,0.00383316189981997,0.000743869401048869,0,
00:00:00.144,0.0366240330040455,0.0035150123294442896,-0.00283763348124921,0,
00:00:00.148,-0.056380171328783,-0.00769343506544828,-0.0165712852030993,0,
00:00:00.152,0.0194036941975355,-0.006518489215523001,0.050865214318037005,0,
00:00:00.156,0.029490863904357,0.0051385313272476205,0.00369621836580336,0,
00:00:00.16,-0.0512504316866398,0.007745772134512659,0.00300933350808918,0,
00:00:00.164,-0.0453562587499619,-0.0018364831339567898,-0.0271629802882671,0,
00:00:00.168,-0.0070563992485404,-0.0006942633772268889,-0.0213975794613361,0,
00:00:00.172,0.0437804721295834,-0.0030346605926752103,-0.000237525411648676,0,
00:00:00.176,0.0531784184277058,0.0009087142534554,0.000667297921609133,0,
00:00:00.18,0.0391263961791992,0.0009218701743520801,0.0280786976218224,0,
00:00:00.184,-0.030355092138052,-0.00206832168623805,0.0215550065040588,0,
00:00:00.188,-0.0672610849142075,-0.000672446447424591,-0.0277661811560392,0,
00:00:00.192,-0.0229699406772852,0.00718517741188407,3.4296681405976394e-05,0,
00:00:00.196,-0.00604452518746257,-0.000313605618430302,-0.00204727239906788,0,
00:00:00.2,0.0456427335739136,-0.00582661712542176,-0.0122143011540174,0,
00:00:00.204,0.0353138335049152,-0.00564710097387433,0.00526760844513774,0,
00:00:00.208,0.0135529078543186,0.00212392071262002,0.0275283269584179,0,
00:00:00.212,-0.0236037392169237,0.0019305754685774398,-0.008267452009022241,0,
00:00:00.216,-0.0371601842343807,-0.00153271050658077,-0.0266180522739887,0,
00:00:00.22,-0.0163126196712255,0.0143921719864011,0.0106091322377324,0,
00:00:00.224,0.0106216799467802,-0.00175360066350549,0.0108439894393086,0,
00:00:00.228,0.0216827299445868,-0.008719258941709999,-0.0253684632480145,0,
00:00:00.232,0.0232089087367058,-0.00109210994560272,0.00629411544650793,0,
00:00:00.236,-0.0276022031903267,-0.00397578440606594,0.0459460653364658,0,
00:00:00.24,0.0470548532903194,0.0038823136128485203,-0.0280125085264444,0,
00:00:00.244,-0.0512766875326633,0.0010382424807176,-0.00919138640165329,0,
00:00:00.248,-0.00047198371612466904,-0.00383910234086216,-0.0047656223177909894,0,
00:00:00.252,0.0218340214341879,0.0020881132222712,0.00825928710401058,0,
00:00:00.256,-0.0526176542043686,0.00334610184654593,0.0159651972353458,0,
00:00:00.26,0.00784367322921753,0.00401925761252642,-0.0161639917641878,0,
00:00:00.264,0.14257803559303303,0.00836114399135113,-0.0076818373054266,0,
00:00:00.268,-0.0798782706260681,-0.014917666092514999,0.0046815937384963,0,
00:00:00.272,-0.0706508383154869,-0.00796423852443695,0.00483682984486222,0,
00:00:00.276,-0.00124414765741676,0.00679517397657037,-0.00674840714782476,0,
00:00:00.28,-0.00351825705729425,-0.000791799393482506,0.00685216905549169,0,
00:00:00.284,0.0437331534922123,0.000277677085250616,-0.00980669725686312,0,
00:00:00.288,0.0234371181577444,8.955008524935691e-05,0.0215722620487213,0,
00:00:00.292,0.0167668778449297,0.008536583743989471,-0.00622768327593803,0,
00:00:00.296,-0.0198062602430582,0.00311243440955877,-0.0091691929847002,0,
00:00:00.3,-0.0173571165651083,-0.00516200065612793,-0.0036721755750477297,0,
00:00:00.304,-0.00980028323829174,-0.0075629008933901795,0.0037279629614204203,0,
00:00:00.308,-0.00581184728071094,-0.0025975399184972,-0.0023334766738116698,0,
00:00:00.312,0.0055511612445116,0.00831121206283569,0.0157490782439709,0,
00:00:00.316,0.00216215290129185,-0.0041868230327963794,0.00259451987221837,0,
00:00:00.32,0.0158573389053345,0.00206486880779266,-0.017705412581563,0,
00:00:00.324,0.012850834056735002,0.00217972998507321,-0.0055826669558882705,0,
00:00:00.328,-0.0247550457715988,-0.0016326827462762599,-0.007930643856525421,0,
00:00:00.332,-0.00413205102086067,0.00103532522916794,0.0151301734149456,0,
00:00:00.336,0.0118838390335441,0.00240985164418817,0.0186531189829111,0,
00:00:00.34,-0.0285482164472342,-0.00476236408576369,-0.00135504617355764,0,
00:00:00.344,0.0649657696485519,-0.000713880639523268,0.000661408819723874,0,
00:00:00.348,0.00660178437829018,0.000755056855268776,-0.0478960536420345,0,
00:00:00.352,-0.0802133902907372,-0.00118212553206831,0.0258536469191313,0,
00:00:00.356,-0.0201634969562292,-0.00166779046412557,0.0048672212287783605,0,
00:00:00.36,0.0179368574172258,0.0119003998115659,0.0161245465278625,0,
00:00:00.364,0.0310049150139093,-0.0067884162999689605,0.00700959842652082,0,
00:00:00.368,0.0314876325428486,0.000391411740565673,-0.0460723526775837,0,
00:00:00.372,-0.00290077715180814,-0.00622538011521101,0.0230104736983776,0,
00:00:00.376,-0.0025980442296713604,0.000406283070333302,0.0108044454827905,0,
00:00:00.38,-0.0126372538506985,0.007270865142345429,-0.0198564361780882,0,
00:00:00.384,-0.008835026063025,0.0009196695173159241,-0.00121388281695545,0,
00:00:00.388,-0.0234584882855415,-0.0020667549688369,0.0166750065982342,0,
00:00:00.392,0.010568693280219999,-0.00444340845569968,0.0235850661993027,0,
00:00:00.396,-0.0109709473326802,-0.0034574025776237197,-0.0201751589775085,0,
00:00:00.4,0.0716445818543434,0.007666585966944691,-0.0300426986068487,0,
00:00:00.404,-0.0417117439210415,0.00226120231673121,0.0126349311321974,0,
00:00:00.408,-0.0073392186313867595,0.0008462079567834731,4.85933996969834e-05,0,
00:00:00.412,-0.0239360928535461,-0.0042804852128028896,0.00579749047756195,0,
00:00:00.416,0.019977206364274,-0.0033396044746041302,0.0339312925934792,0,
00:00:00.42,0.0100284200161695,-0.000668522669002414,-0.0237542167305946,0,
00:00:00.424,-0.007028554100543261,-0.00283077475614846,-0.0194396451115608,0,
00:00:00.428,0.00459745246917009,0.00998958759009838,-0.00349658890627325,0,
00:00:00.432,-0.0139370858669281,-0.00139215472154319,0.00558691937476397,0,
00:00:00.436,-0.0147752333432436,-0.0046952236443758,0.0327869430184364,0,
00:00:00.44,0.0559724308550358,0.00528695061802864,-0.00557874515652657,0,
00:00:00.444,0.0203397944569588,0.00461796531453729,-0.00678451312705874,0,
00:00:00.448,-0.0628476664423943,-0.0120715443044901,-0.0243715438991785,0,
00:00:00.452,-0.00628980109468102,0.000583318236749619,-0.00666955159977078,0,
00:00:00.456,-0.0027557848952710602,0.0035115759819746,0.0121209649369121,0,
00:00:00.46,-0.0230797789990902,0.00436851102858782,0.00440606661140919,0,
00:00:00.464,0.0794729515910149,-0.00377625320106745,0.0220559239387512,0,
00:00:00.468,0.0316822864115238,0.0014201261801645199,-0.00861966703087091,0,
00:00:00.472,-0.041048139333724996,-0.00378652010113001,0.009997577406466009,0,
00:00:00.476,-0.0834401473402977,-0.00352289783768356,-0.0258478280156851,0,
00:00:00.48,-3.66514432244003e-05,0.00966921634972095,-0.0166594944894314,0,
00:00:00.484,0.007297804579138759,0.000311489246087149,0.014135368168353998,0,
00:00:00.488,0.102515012025833,-0.0048979567363858206,0.009036252275109291,0,
00:00:00.492,0.0871137902140617,0.0036501735448837298,0.00982923991978168,0,
00:00:00.496,-0.135426461696625,-0.00528934365138412,0.00429045781493187,0,
00:00:00.5,-0.0845979899168015,-0.00482463790103793,0.0125004099681973,0,
00:00:00.504,0.018706364557147002,0.00958742201328278,-0.0359930582344532,0,
00:00:00.508,0.0517857484519482,-0.0010038340697065,0.00287328823469579,0,
00:00:00.512,0.021188972517848,4.0867820644052706e-05,-0.00371399987488985,0,
00:00:00.516,0.0194688234478235,-0.00446100439876318,-0.00949571374803782,0,
00:00:00.52,0.009849352762103079,0.0053451526910066605,0.0109834270551801,0,
00:00:00.524,-0.0453619435429573,0.00272312085144222,0.0200968887656927,0,
00:00:00.528,-0.0135095873847604,-0.0015351087786257302,0.009844925254583359,0,
00:00:00.532,-0.00955965276807547,-0.00339022488333285,-0.0319129526615143,0,
00:00:00.536,0.0453137122094631,-0.0109934732317925,0.0138069251552224,0,
00:00:00.54,0.0144957443699241,0.00292317825369537,0.0236148163676262,0,
00:00:00.544,-0.0158746596425772,0.0134060438722372,-0.0157779697328806,0,
00:00:00.548,-0.0328804478049278,0.0035427990369498704,-0.0192919336259365,0,
00:00:00.552,-0.0140572944656014,-0.00954760890454054,-0.0187081508338451,0,
00:00:00.556,0.0319645293056965,-0.00767473224550486,0.0128916939720511,0,
00:00:00.56,0.0158354174345732,0.0111735975369811,-0.004047938622534279,0,
00:00:00.564,-0.0476343594491482,0.0041768443770706706,0.0285191535949707,0,
00:00:00.568,0.0475023575127125,-0.00431664707139134,0.0203025694936514,0,
00:00:00.572,0.0146999480202794,-0.00263020722195506,-0.00750022474676371,0,
00:00:00.576,-0.0365364924073219,-0.0039437012746930105,-0.038211964070797,0,
00:00:00.58,0.00172256457153708,-0.00300994701683521,0.0140956901013851,0,
00:00:00.584,-0.00281206821091473,0.00375989149324596,-0.00477601867169142,0,
00:00:00.588,-0.0103952186182141,0.0022029387764632698,0.0100727276876569,0,
00:00:00.592,0.00042356777703389504,0.00405490025877953,0.00397454155609012,0,
00:00:00.596,0.0383440963923931,0.00966271944344044,-0.0222307965159416,0,
00:00:00.6,-0.00265190075151622,-0.0155075499787927,0.0262290295213461,0,
00:00:00.604,-0.014155869372188998,-0.0051640160381794,-0.0218642242252827,0,
00:00:00.608,-0.0481366775929928,0.00425238721072674,-0.0362843833863735,0,
00:00:00.612,0.0469675958156586,0.00481545785441995,0.0724256858229637,0,
00:00:00.616,0.0412888042628765,0.0021092661190778,0.0140303075313568,0,
00:00:00.62,-0.0460315980017185,-0.0026169721968472,-0.0367541387677193,0,
00:00:00.624,-0.00685278885066509,-0.0018859994597733,-0.0126959681510925,0,
00:00:00.628,0.0221363306045532,0.00197290163487196,0.00783944129943848,0,
00:00:00.632,-0.0167010650038719,0.0010379555169493,-0.0098459254950285,0,
00:00:00.636,-0.0555991642177105,0.00151296390686184,-0.0147915808483958,0,
00:00:00.64,0.0783222839236259,-0.00117207679431885,0.0433837324380875,0,
00:00:00.644,-0.00639093713834882,-0.0108624277636409,-0.00679410202428699,0,
00:00:00.648,0.0006270380690693861,0.0037888770457357203,-0.00861167535185814,0,
00:00:00.652,-0.00759954890236259,0.0100448336452246,-0.000370595080312341,0,
00:00:00.656,-0.0341115891933441,0.0011010688031092301,-0.00630594324320555,0,
00:00:00.66,0.00772831356152892,-0.00977428629994392,0.0213618464767933,0,
00:00:00.664,0.0311125200241804,-0.000158514507347718,-0.0122850183397532,0,
00:00:00.668,-0.005253646988421679,0.0006100106984376911,-0.0444843806326389,0,
00:00:00.672,0.000596480036620051,0.004127610009163621,0.0279291626065969,0,
00:00:00.676,-0.0259736888110638,0.00226718396879733,0.0374568849802017,0,
00:00:00.68,0.0516573525965214,-0.000384135026251897,0.0149318855255842,0,
00:00:00.684,-0.0112512474879622,-0.00388902658596635,-0.043903011828661,0,
00:00:00.688,-0.0514074191451073,-0.003952579572796821,-0.017073929309845,0,
00:00:00.692,-0.0054530412890017,0.0129976626485586,0.0173484869301319,0,
00:00:00.696,0.0471479706466198,-0.00645223446190357,-0.0233049243688583,0,
00:00:00.7,0.0450457707047462,-0.00652370229363441,0.0206725280731916,0,
00:00:00.704,-0.0294262785464525,-0.00116801564581692,0.0201352201402187,0,
00:00:00.708,-0.068268746137619,0.00286267674528062,0.0034091498237103198,0,
00:00:00.712,-0.0524557642638683,0.00583613617345691,-0.00463031232357025,0,
00:00:00.716,0.12840758264064803,0.00662741903215647,-0.0234890040010214,0,
00:00:00.72,0.0132638700306416,-0.00723434239625931,0.004020699299871921,0,
00:00:00.724,-0.0358812101185322,-0.0041535897180438,0.0121375732123852,0,
00:00:00.728,-0.0196103695780039,-0.005297492723912,0.0059156031347811205,0,
00:00:00.732,0.00900619849562645,0.006871762685477729,-0.0102256527170539,0,
00:00:00.736,-0.0396043211221695,0.0070051597431302105,-0.0228739753365517,0,
00:00:00.74,0.0328211821615696,-0.00605656346306205,0.0269033443182707,0,
00:00:00.744,0.00864950008690357,-0.006779238115996121,-0.00910395104438066,0,
00:00:00.748,-0.0105567639693618,0.00599613366648555,0.000357301003532484,0,
00:00:00.752,0.0099470242857933,0.0025007729418575803,0.0270312782377005,0,
00:00:00.756,0.0630223378539085,-4.89381127408706e-05,-0.011999343521892998,0,
00:00:00.76,-0.0480808168649673,-0.00119760225061327,-0.0272196792066097,0,
00:00:00.764,-0.045554019510745995,-0.00119589932728559,-0.0104773500934243,0,
00:00:00.768,-0.0273332130163908,-0.000611542200203985,0.024025920778512996,0,
00:00:00.772,0.0297352820634842,-0.00828381814062595,0.0072783259674906705,0,
00:00:00.776,0.0694848746061325,0.0165922604501247,0.0179391968995333,0,
00:00:00.78,-0.00670119700953364,0.00325634400360286,-0.0332839079201221,0,
00:00:00.784,-0.0504884459078312,-0.015759713947773,0.0279349349439144,0,
00:00:00.788,-0.028171245008707,-0.00137275899760425,-0.0178546197712421,0,
00:00:00.792,-0.0206256415694952,-0.000408063206123188,-0.0209425091743469,0,
00:00:00.796,0.130849242210388,0.0138419847935438,0.0224534533917904,0,
00:00:00.8,0.00209156423807144,-0.00103013322222978,0.0067188758403062794,0,
00:00:00.804,-0.0664719939231873,-0.00490902969613671,-0.00426264712586999,0,
00:00:00.808,-0.0328396484255791,-0.00557720987126231,0.00544723076745868,0,
00:00:00.812,-0.0289359446614981,-0.00086012837709859,-0.0160546470433474,0,
00:00:00.816,0.000820084125734866,0.00272899051196873,0.008907157927751541,0,
00:00:00.82,0.112759776413441,0.00760837504640222,-0.020014263689518,0,
00:00:00.824,-0.0192617326974869,-0.0018345258431509102,0.00404679123312235,0,
00:00:00.828,-0.0309534519910812,-0.000991837005130947,0.0251738987863064,0,
00:00:00.832,0.00829636305570602,0.000713531859219074,0.0148252248764038,0,
00:00:00.836,-0.0368710048496723,-0.00330049660988152,-0.0309529490768909,0,
00:00:00.84,-0.0107761081308126,-0.00653359526768327,-0.0134227322414517,0,
00:00:00.844,0.00450764317065477,0.0058390055783093,0.0336470156908035,0,
00:00:00.848,0.0780185386538506,0.00471143331378698,-0.00310336495749652,0,
00:00:00.852,-0.0326586477458477,-0.00370507501065731,-0.0270111504942179,0,
00:00:00.856,-0.0354313179850578,-0.00045898839016445,-0.0007616865914314991,0,
00:00:00.86,0.0127358958125114,0.00257395510561764,0.0205718595534563,0,
00:00:00.864,0.0202298127114773,-0.00362890912219882,0.0041341851465404,0,
00:00:00.868,0.0111657287925482,0.00040932270349003396,-0.00570183992385864,0,
00:00:00.872,-0.0371205024421215,-0.00493392674252391,0.009357322007417679,0,
00:00:00.876,-0.0222531724721193,0.0150220599025488,-0.0258511658757925,0,
00:00:00.88,0.00394800491631031,-0.00501068215817213,-0.0087683629244566,0,
00:00:00.884,0.031012449413537996,-0.0024058553390204898,0.0211173631250858,0,
00:00:00.888,0.0624126717448235,-0.00405377428978682,0.0296438653022051,0,
00:00:00.892,-0.0581787899136543,-0.0014682154869660698,-0.0314466543495655,0,
00:00:00.896,-0.0048761903308332,-0.0029912688769400102,0.00868121720850468,0,
00:00:00.9,-0.0345263630151749,0.00617648754268885,-0.00559885986149311,0,
00:00:00.904,0.00698832282796502,0.005091496277600529,-0.0123748863115907,0,
00:00:00.908,0.0153257511556149,0.00105803622864187,-0.014482207596302,0,
00:00:00.912,0.0502713285386562,9.22343897400424e-05,0.0145878279581666,0,
00:00:00.916,-0.00241956650279462,-0.000665057101286948,0.0600640960037708,0,
00:00:00.92,-0.0345794931054115,-0.0117536783218384,-0.0360056050121784,0,
00:00:00.924,-0.0207568276673555,-0.00423641875386238,-0.0153742721304297,0,
00:00:00.928,-0.0018735503545031,0.012437385506928002,-0.00936089176684618,0,
00:00:00.932,0.00765408528968692,0.005488261580467221,0.0041964994743466395,0,
00:00:00.936,-0.0361496321856976,-0.00512876315042377,-0.0105122765526175,0,
00:00:00.94,0.11239629983902,5.4328178521245704e-05,-0.00134971085935831,0,
00:00:00.944,-0.0290773194283247,-0.000240839304751717,0.041870579123497,0,
00:00:00.948,0.0092750983312726,-0.00532904313877225,0.0317326039075851,0,
00:00:00.952,-0.0340180434286594,-0.00145142350811511,-0.0678335949778557,0,
00:00:00.956,-0.0703465417027473,0.00872205104678869,-0.0046206489205360395,0,
00:00:00.96,-0.0060082538984715895,-0.00643210578709841,0.0206174496561289,0,
00:00:00.964,0.0437503941357136,0.00561469746753573,-0.0231176093220711,0,
00:00:00.968,0.0729551613330841,0.00545392604544759,0.000945494277402759,0,
00:00:00.972,-0.026213126257062,-0.0157294385135174,0.0508759021759033,0,
00:00:00.976,-0.0139621179550886,0.00449068145826459,0.00694140093401074,0,
00:00:00.98,-0.024484895169735,0.00848448928445578,-0.0424873642623425,0,
00:00:00.984,0.0326262637972832,0.00023475199122913198,-0.0144654801115394,0,
00:00:00.988,-0.0138648049905896,-0.0054092337377369395,-0.00038948061410337703,0,
00:00:00.992,-0.0103247324004769,-0.00131378206424415,0.0020655409898608897,0,
00:00:00.996,0.0186086967587471,0.000110600340121891,0.0573466196656227,0,
00:00:01,-0.0036778806243091796,-0.00161705503705889,-0.019661370664835,0,
00:00:01.004,-0.0501355268061161,0.000319826300255954,-0.023831756785512002,0,
00:00:01.008,0.000951684487517923,0.00389293767511845,-0.00121899717487395,0,
00:00:01.012,0.128400027751923,0.00195385003462434,-0.0313580073416233,0,
00:00:01.016,-0.0597886517643929,-0.0006287403521128,0.0132879670709372,0,
00:00:01.02,-0.0962886586785316,-0.0018826065352186602,0.0414909683167934,0,
00:00:01.024,0.0173722449690104,-0.00375795131549239,0.0153832659125328,0,
00:00:01.028,0.0952691808342934,-0.00290386704728007,-0.0283044092357159,0,
00:00:01.032,0.00227576843462884,0.00788596086204052,-0.00370236556045711,0,
00:00:01.036,-0.0511215440928936,-0.0019484045915305601,0.0179071966558695,0,
00:00:01.04,0.0152407335117459,0.0046167550608515705,-0.0491729490458965,0,
00:00:01.044,-0.0369224213063717,0.0009161373018287119,0.00620068004354835,0,
00:00:01.048,-0.00699961604550481,-0.00711362157016993,0.00982575956732035,0,
00:00:01.052,0.00382115645334125,-0.00201103487052023,0.0384503155946732,0,
00:00:01.056,0.0728537365794182,0.0007881383644416929,0.00764210242778063,0,
00:00:01.06,-0.0141028203070164,0.0037832539528608296,-0.0503674224019051,0,
00:00:01.064,-0.0159287694841623,-0.00679345102980733,0.0215600486844778,0,
00:00:01.068,-0.0124269258230925,0.009058791212737559,-0.0199134573340416,0,
00:00:01.072,-0.00221545738168061,0.000711971137207001,0.00778293423354626,0,
00:00:01.076,-0.0213175546377897,-0.00443336414173245,0.0408324524760246,0,
00:00:01.08,0.004682309925556179,-0.002410052344203,-0.0529026351869106,0,
00:00:01.084,-0.0176684465259314,0.0046685547567904,0.028568210080266002,0,
00:00:01.088,0.0425852537155151,6.0350026615196805e-05,-0.00409337040036917,0,
00:00:01.092,0.0888796225190163,-0.00147367012687027,-0.008133913390338421,0,
00:00:01.096,-0.06649691611528401,-0.00538692902773619,-0.00471254717558622,0,
00:00:01.1,-0.07744196802377701,0.00979410856962204,-0.0016369317891076198,0,
00:00:01.104,-0.00751161947846413,-0.00231393380090594,0.0306378379464149,0,
00:00:01.108,0.0323744751513004,-0.0101931551471353,-0.00119211117271334,0,
00:00:01.112,0.0303889494389296,0.008361059240996841,-0.0387727022171021,0,
00:00:01.116,0.0214724075049162,0.00166345131583512,0.0133865894749761,0,
00:00:01.12,-0.0084993178024888,-0.000980687560513616,0.0149852260947227,0,
00:00:01.124,-0.00215483829379082,0.000735933484975249,-0.0199883449822664,0,
00:00:01.128,-0.0278553050011396,-0.00478886067867279,0.00930961780250072,0,
00:00:01.132,-0.00444578705355525,0.000303396111121401,0.0056486907415092,0,
00:00:01.136,-0.00196143984794617,-0.00023240812879521402,0.0100239617750049,0,
00:00:01.14,0.053235549479723,0.00757592124864459,-0.00486370781436563,0,
00:00:01.144,-0.0158489271998405,0.000208275625482202,-0.0252309199422598,0,
00:00:01.148,-0.0629618912935257,-0.00752105051651597,0.007965720258653159,0,
00:00:01.152,0.0168594978749752,-0.00152825366239995,0.016145771369338,0,
00:00:01.156,0.0293730739504099,0.00158393708989024,0.0055278809741139395,0,
00:00:01.16,0.00892430916428566,0.0022228276357054697,-0.00263130338862538,0,
00:00:01.164,-0.0330180078744888,0.00350634683854878,-0.0122900754213333,0,
00:00:01.168,0.0072685326449573,-0.00584991136565804,-0.0119021432474256,0,
00:00:01.172,0.11617983132600801,0.00384758599102497,-0.00868291966617107,0,
00:00:01.176,-0.0867965146899223,-0.00172711745835841,0.0280778743326664,0,
00:00:01.18,-0.0433847531676292,0.0009430687059648339,0.00146313000004739,0,
00:00:01.184,-0.0321094393730164,0.00266624358482659,0.00833045598119497,0,
00:00:01.188,0.0284825544804335,-0.00020920894166920302,-0.0185641404241323,0,
00:00:01.192,0.0223133880645037,-0.006449649576097729,-0.0185580719262362,0,
00:00:01.196,0.0278073754161596,0.00159055960830301,0.0357148051261902,0,
00:00:01.2,0.0236960761249065,-0.00405983906239271,0.0128360949456692,0,
00:00:01.204,-0.0533172003924847,0.0024174801073968397,-0.0141976261511445,0,
00:00:01.208,0.0257966406643391,0.008295780979096891,-0.0472446121275425,0,
00:00:01.212,-0.0125974472612143,0.000851408636663109,0.00736618135124445,0,
00:00:01.216,-0.00398636236786842,0.00134578649885952,0.0291066262871027,0,
00:00:01.22,-0.0179562959820032,-0.00509347440674901,0.0192615389823914,0,
00:00:01.224,-0.0364658907055855,-0.0008836362976580859,-0.0146228112280369,0,
00:00:01.228,0.0378702729940414,-0.016397425904870002,0.0103455660864711,0,
00:00:01.232,0.0751647800207138,0.00539211183786392,-0.0215933118015528,0,
00:00:01.236,0.012383203022182,0.0100883394479752,0.00161584559828043,0,
00:00:01.24,-0.0827902257442474,0.00839904602617025,-0.00917292945086956,0,
00:00:01.244,-0.0534621626138687,-0.00330088706687093,-0.00888690818101168,0,
00:00:01.248,0.0946560949087143,-0.00466838059946895,0.0277077574282885,0,
00:00:01.252,-0.0023858929052949,0.0017601497238501898,0.0262943524867296,0,
00:00:01.256,-0.0482417233288288,0.000211780381505378,-0.0236739069223404,0,
00:00:01.26,-0.0174727085977793,-0.00395029410719872,-0.0201019067317247,0,
00:00:01.264,0.0200466923415661,-0.00441408948972821,-0.009710121899843221,0,
00:00:01.268,0.0150546487420797,0.00439506396651268,0.00345048611052334,0,
00:00:01.272,0.0571738369762897,0.0036349790170788795,0.0144165642559528,0,
00:00:01.276,-0.0275523830205202,0.000569083669688553,0.0306798871606588,0,
00:00:01.28,-0.0259779449552298,-0.00150901975575835,-0.0261542182415724,0,
00:00:01.284,-0.0136850941926241,-0.00602535111829638,0.0066105630248785,0,
00:00:01.288,0.0114843500778079,0.000782509217970073,-0.00336445844732225,0,
00:00:01.292,-0.0115599501878023,0.00106573884841055,-0.00620699906721711,0,
00:00:01.296,-0.0147539898753166,0.00660497276112437,0.0020986013114452397,0,
00:00:01.3,0.0329935327172279,0.00466930028051138,-0.0272120647132397,0,
00:00:01.304,-0.00298251979984343,-0.0018695378676056899,0.0231629572808743,0,
00:00:01.308,0.0061329137533903105,-0.0136290853843093,0.00661495281383395,0,
00:00:01.312,0.0686476528644562,-0.0030087430495768803,0.00744251674041152,0,
00:00:01.316,-0.0621006786823273,0.00855798367410898,0.0143899191170931,0,
00:00:01.32,-0.0574778579175472,0.00227493094280362,-0.0236211940646172,0,
00:00:01.324,0.0121798366308212,0.00286897155456245,-0.0201177038252354,0,
00:00:01.328,0.00468064518645406,0.00255181430839002,0.0125753870233893,0,
00:00:01.332,-0.00189741712529212,-0.00355539121665061,-0.007383901625871659,0,
00:00:01.336,0.0689404979348183,-0.00796172767877579,0.00720508117228746,0,
00:00:01.34,0.0367541424930096,0.00846459902822971,0.0159376580268145,0,
00:00:01.344,-0.0766211673617363,-0.00225196569226682,-0.0108905714005232,0,
00:00:01.348,-0.0459052249789238,-0.00313071184791625,0.00684241577982903,0,
00:00:01.352,0.0273277088999748,-0.00497274892404675,0.0310651045292616,0,
00:00:01.356,0.011385066434741001,0.00930953305214643,-0.0426197610795498,0,
00:00:01.36,-0.0154751893132925,0.00116592715494335,-0.0152584975585341,0,
00:00:01.364,0.0391081534326077,0.00252128927968442,0.0146005479618907,0,
00:00:01.368,0.0122073143720627,-0.0056500644423067604,0.0060420292429626,0,
00:00:01.372,-0.0128881027922034,-0.0061519569717347605,-8.347708353539929e-05,0,
00:00:01.376,-0.00586671242490411,0.00169957778416574,0.00213418551720679,0,
00:00:01.38,-0.0316214598715305,0.00590759189799428,-0.011351702734828,0,
00:00:01.384,-0.0241440515965223,-0.00340182962827384,0.0238500814884901,0,
00:00:01.388,0.0868455842137337,0.00504890223965049,-0.00328542129136622,0,
00:00:01.392,0.00119377591181546,0.00232410337775946,-0.0162282604724169,0,
00:00:01.396,-0.0622166395187378,-0.0017506186850369,-0.0215652473270893,0,
00:00:01.4,-0.00661766529083252,-0.0055438205599784894,0.0505801141262054,0,
00:00:01.404,0.00957687944173813,-0.009053821675479409,-0.0204703342169523,0,
00:00:01.408,0.009952705353498459,0.00451939273625612,0.0058578699827194205,0,
00:00:01.412,-0.00461558345705271,0.0155981769785285,-0.0116721633821726,0,
00:00:01.416,0.0594591051340103,0.00481873797252774,-0.0137839987874031,0,
00:00:01.42,-0.0188605412840843,-0.0141294552013278,-0.0015342505648732198,0,
00:00:01.424,-0.0575808919966221,-0.0096020270138979,0.0330980867147446,0,
00:00:01.428,0.0241172518581152,0.00599529920145869,-0.0050493972375989,0,
00:00:01.432,-0.0311201550066471,-0.00040638845530338596,0.004039962776005271,0,
00:00:01.436,0.0381607711315155,0.00323086511343718,-0.0248260926455259,0,
00:00:01.44,0.0145572116598487,0.00501881306990981,0.008124458603560921,0,
00:00:01.444,0.0150407217442989,-0.00508061004802585,0.0122221019119024,0,
00:00:01.448,-0.0346977859735489,-0.00046296263462863895,-0.0181878544390202,0,
00:00:01.452,-0.0239107124507427,0.0036074225790798703,0.0038298957515507897,0,
00:00:01.456,0.0662944614887238,0.00153017102275044,-0.0020580021664500197,0,
00:00:01.46,-0.0402656085789204,0.00302441301755607,0.00402693031355739,0,
00:00:01.464,-0.0422784462571144,-0.0061941794119775295,0.0132792377844453,0,
00:00:01.468,0.0155925480648875,-0.007157308515161279,-0.0072395657189190405,0,
00:00:01.472,0.0218294747173786,-0.00316349626518786,-0.00888003129512072,0,
00:00:01.476,0.0463409498333931,0.0139119885861874,-0.00122348358854651,0,
00:00:01.48,-0.0209232568740845,0.000478299974929541,0.0168146919459105,0,
00:00:01.484,-0.0156205166131258,-0.0054181222803890705,-0.0025107350666075897,0,
00:00:01.488,0.0046354015357792395,-0.000677512318361551,-0.00268753105774522,0,
00:00:01.492,-0.0278000067919493,0.0029819484334439,-0.0124726518988609,0,
00:00:01.496,-0.0106005603447556,-0.0052494183182716396,-0.0019441524054855102,0,
00:00:01.5,0.00611044419929385,0.00469615729525685,0.0234446842223406,0,
00:00:01.504,0.0345876961946487,0.00302828010171652,-0.00761923799291253,0,
00:00:01.508,0.0259006377309561,-0.0027946615591645197,-0.0275293719023466,0,
00:00:01.512,-0.0210776831954718,-0.00278474576771259,0.00115140143316239,0,
00:00:01.516,-0.00857461616396904,-0.00295759714208543,0.0377855822443962,0,
00:00:01.52,-0.0232300814241171,0.0027124963235110005,0.00492367055267096,0,
00:00:01.524,-0.0330123975872993,0.0008895111386664211,0.00521628186106682,0,
00:00:01.528,0.0335022062063217,0.00733346771448851,-0.0353949628770351,0,
00:00:01.532,0.0750164389610291,-0.00278664520010352,-0.0313387997448444,0,
00:00:01.536,-0.0200703851878643,-0.0064213415607809994,0.0148076750338078,0,
00:00:01.54,-0.0739876553416252,-0.000324393447954208,0.01815440133214,0,
00:00:01.544,0.0206491053104401,0.00386463082395494,0.0440252050757408,0,
00:00:01.548,0.00352867925539613,-0.00237095355987549,-0.0188769940286875,0,
00:00:01.552,0.00113163865171373,0.001071956474334,-0.0203149300068617,0,
00:00:01.556,0.0071879462338984,0.00340179749764502,-0.0100773861631751,0,
00:00:01.56,0.0168329700827599,0.0026298847515136,0.006584796123206621,0,
00:00:01.564,-0.0177771262824535,-0.008030508644878859,0.0061844908632338,0,
00:00:01.568,0.00655856216326356,-0.00216655293479562,-0.0150482701137662,0,
00:00:01.572,0.0106575200334191,-0.000492382678203285,0.0182341765612364,0,
00:00:01.576,-0.0395872481167316,0.00880671478807926,0.00053765025222674,0,
00:00:01.58,0.00223927129991353,0.0037783004809171,-0.0118583953008056,0,
00:00:01.584,0.0393062196671963,-0.00442903721705079,0.0138013837859035,0,
00:00:01.588,0.0149514516815543,-0.00492411432787776,0.00869107898324728,0,
00:00:01.592,-0.007817046716809271,-0.00428413460031152,-0.0107383700087667,0,
00:00:01.596,-0.035923458635807,-0.0015936418203637,-0.0214916933327913,0,
00:00:01.6,-0.00699820602312684,0.007583784405142071,0.0243285521864891,0,
00:00:01.604,-0.00192412419710308,0.00331138609908521,-0.0363726802170277,0,
00:00:01.608,0.00470281066372991,-0.00164013088215142,0.0292710978537798,0,
00:00:01.612,-0.0104017918929458,0.007064109202474359,0.0076620914041996,0,
00:00:01.616,0.0483271107077599,-0.0016746207838878,-0.0179846454411745,0,
00:00:01.62,0.0743409842252731,-0.009857091121375559,0.0203322526067495,0,
00:00:01.624,-0.0679575428366661,-0.007212148513644929,0.0146396365016699,0,
00:00:01.628,-0.0771062299609184,0.00321660377085209,-0.008010289631783959,0,
00:00:01.632,-0.0287201050668955,0.00407691998407245,-0.0250943135470152,0,
00:00:01.636,0.0472061969339848,0.008460662327706809,-0.0216452181339264,0,
00:00:01.64,0.075377345085144,0.0008337870822288099,0.00821552239358425,0,
00:00:01.644,-0.009208669885993,0.00134625809732825,0.0152809154242277,0,
00:00:01.648,0.0054970164783299,-0.0072253393009305,0.0357509516179562,0,
00:00:01.652,-0.05601891502738,-0.0032111257314682,-0.02658911049366,0,
00:00:01.656,-0.0402909554541111,-0.0068570151925087,0.000580320425797254,0,
00:00:01.66,0.0199294034391642,0.0067954589612782,-0.0131375957280397,0,
00:00:01.664,0.0600964017212391,0.00215428206138313,0.0067057120613753796,0,
00:00:01.668,0.024882797151804,0.00148514087777585,0.00867544393986464,0,
00:00:01.672,-0.0388157963752747,0.00529440538957715,0.0012917929561808699,0,
00:00:01.676,-0.0352741926908493,0.000597368460148573,-0.0229616612195969,0,
00:00:01.68,0.0419273599982262,-0.00557337794452906,0.0104615213349462,0,
00:00:01.684,-0.0281009133905172,-0.004418154247105121,0.0199967734515667,0,
00:00:01.688,-0.0181943811476231,0.00513663701713085,-0.0151248369365931,0,
00:00:01.692,0.0208004601299763,-0.00861392077058554,0.00151954533066601,0,
00:00:01.696,0.015396929346024999,0.0033841475378722,-0.008732244372367859,0,
00:00:01.7,0.0242089368402958,0.000412824418162927,-0.00194075086619705,0,
00:00:01.704,-0.00991613510996103,0.0058785001747310205,0.0298185627907515,0,
00:00:01.708,-0.0493643470108509,0.000532876059878618,-0.00880287028849125,0,
00:00:01.712,-0.009893660433590409,0.000520886562298983,-0.0214253142476082,0,
00:00:01.716,0.00988707225769758,-0.00367236929014325,-0.00823926739394665,0,
00:00:01.72,0.0717322751879692,-0.00468740612268448,0.0034661942627281,0,
00:00:01.724,0.0693634748458862,0.00165101082529873,0.0191249269992113,0,
00:00:01.728,-0.13460057973861697,0.00699734129011631,0.0063324049115181,0,
00:00:01.732,-0.045579656958579996,-0.00227042357437313,0.0251356735825539,0,
00:00:01.736,0.0125470822677016,-0.00732614984735847,-0.043229129165411,0,
00:00:01.74,0.0325626693665981,0.0027354983612895,-0.00993749685585499,0,
00:00:01.744,0.0339562483131886,0.0080955745652318,-0.0173897016793489,0,
00:00:01.748,0.0399321094155312,-0.00011590824578888701,0.0327304340898991,0,
00:00:01.752,-0.0191906709223986,-0.0120426649227738,0.0326407365500927,0,
00:00:01.756,-0.0407568924129009,0.000201452377950773,-0.00156759179662913,0,
00:00:01.76,-0.0047617740929126705,0.0110570415854454,-0.0125952176749706,0,
00:00:01.764,0.00352203217335045,0.00249185599386692,-0.0556536428630352,0,
00:00:01.768,0.0136070363223553,-0.00521386507898569,0.00746134435757995,0,
00:00:01.772,-0.0101856291294098,-0.00872035603970289,0.0292576476931572,0,
00:00:01.776,0.0135034350678325,0.004688498098403221,0.0209081713110209,0,
00:00:01.78,-0.0409586392343044,0.00257523683831096,-0.0144977997988462,0,
00:00:01.784,0.0413037277758121,0.00295798340812325,-0.00478015234693885,0,
00:00:01.788,0.0266456659883261,-0.00424604490399361,0.0148864639922976,0,
00:00:01.792,-0.0262566674500704,-0.00029328509117476604,0.00444271462038159,0,
00:00:01.796,0.0033522576559335,0.0008917567902244631,-0.0450577065348625,0,
00:00:01.8,-0.0352291464805603,0.00488239387050271,0.00313302595168352,0,
00:00:01.804,-0.0110560161992908,-0.00584216974675655,0.0494046211242676,0,
00:00:01.808,0.0151054076850414,-0.0036167888902127704,-0.0296687018126249,0,
00:00:01.812,0.0253743138164282,0.00290260603651404,-0.0084556108340621,0,
00:00:01.816,-0.000613777723629028,0.00531718973070383,0.0402782969176769,0,
00:00:01.82,0.0462390519678593,0.0034851070959121,-0.0437324494123459,0,
00:00:01.824,-0.0461239777505398,-0.00613421155139804,0.00996675994247198,0,
00:00:01.828,-0.0215532705187798,-0.00275126472115517,0.0194225590676069,0,
00:00:01.832,0.00856024399399757,-0.0068415170535445205,-0.00979033764451742,0,
00:00:01.836,0.000522768008522689,0.00862811598926783,-0.023587541654706,0,
00:00:01.84,-0.00265222392044961,0.00402009673416615,-0.0018698796629905699,0,
00:00:01.844,0.00106461846735328,-0.00226828339509666,0.0190161168575287,0,
00:00:01.848,0.0395598858594894,-0.00647439854219556,0.0314571410417557,0,
00:00:01.852,-0.0330869108438492,0.00330379488877952,-0.0229142885655165,0,
00:00:01.856,-0.0232099760323763,0.0039330869913101205,0.0036604709457606103,0,
00:00:01.86,0.0338299572467804,0.00343183428049088,-0.00914484821259975,0,
00:00:01.864,-0.0166145414113998,-0.007155476603657009,0.00227329833433032,0,
00:00:01.868,0.0268572960048914,0.00242221215739846,-0.0286651272326708,0,
00:00:01.872,-0.0218604821711779,0.00162577570881695,-0.00204100273549557,0,
00:00:01.876,0.0169994365423918,-0.00303004332818091,0.0370667055249214,0,
00:00:01.88,-0.0013515158789232401,-0.00013624197163153402,0.0112910913303494,0,
00:00:01.884,-0.0339610651135445,-0.00204839347861707,-0.00352281215600669,0,
00:00:01.888,0.00514923175796866,-0.00237834127619863,-0.0194984469562769,0,
00:00:01.892,0.00129994645249099,0.00334487669169903,-0.0108166048303246,0,
00:00:01.896,0.0249063353985548,0.00549565954133868,0.00743629364296794,0,
00:00:01.9,-0.009300188161432741,-0.00272178021259606,-0.000395943672629073,0,
00:00:01.904,0.00806878414005041,0.0059152590110898,0.00450647575780749,0,
00:00:01.908,0.0114579480141401,-0.0101474085822701,0.0151272984221578,0,
00:00:01.912,-0.0372353531420231,-0.00132136407773942,0.00894302316009998,0,
00:00:01.916,0.0160269793123007,0.00436317920684814,-0.00803999416530132,0,
00:00:01.92,0.0221290215849876,0.000576739723328501,-0.0258489903062582,0,
00:00:01.924,0.00592529401183128,-0.00032498099608346804,-0.0331355892121792,0,
00:00:01.928,-0.0423129461705685,-0.00229155621491373,0.0137806851416826,0,
00:00:01.932,-0.0221849456429482,0.00616015121340752,0.0410294532775879,0,
00:00:01.936,-0.0280633270740509,-0.00632482534274459,0.0133070815354586,0,
00:00:01.94,0.0802616849541664,0.00508506922051311,0.0187310744076967,0,
00:00:01.944,-0.00534609379246831,-0.00394979398697615,-0.0181251149624586,0,
00:00:01.948,0.0505235157907009,0.0037688242737203797,-0.0458590164780617,0,
00:00:01.952,0.00131675961893052,-0.0030272456351667604,-0.0185902304947376,0,
00:00:01.956,-0.0594410076737404,-0.00237198453396559,0.0297340136021376,0,
00:00:01.96,-0.0611146725714207,-0.0020415727049112303,0.0139080854132771,0,
00:00:01.964,0.0056530572474002795,0.00562494015321136,-0.007796285208314659,0,
00:00:01.968,0.0400933735072613,-0.000705526384990662,0.0194157343357801,0,
00:00:01.972,0.033799797296524,0.0014402646338567099,-0.00740371132269502,0,
00:00:01.976,0.0327720940113068,0.0026923338882625103,-0.0069624022580683205,0,
00:00:01.98,-0.0329962708055973,-0.0005062036798335611,0.00313788908533752,0,
00:00:01.984,-0.0362052582204342,-0.011003122664988001,0.02335593290627,0,
00:00:01.988,-0.00465387618169189,0.0072956513613462405,-0.039213739335537005,0,
00:00:01.992,-0.0373328849673271,0.00124668900389224,0.008728528395295141,0,
00:00:01.996,0.0658747553825378,0.0013318576384335802,-0.03941617906093601,0,
00:00:02,0.0408362373709679,-0.000713774410542101,0.0292611457407475,0,
00:00:02.004,-0.0226849820464849,-0.0059761055745184396,0.0428145714104176,0,
00:00:02.008,-0.0486140996217728,0.00033002792042680096,-0.0210153646767139,0,
00:00:02.012,0.0132204135879874,0.0026457486674189602,0.00789562705904245,0,
00:00:02.016,0.0146107599139214,0.0023055232595652303,-0.0254904702305794,0,
00:00:02.02,-0.00871320441365242,0.00297066569328308,0.0107997171580791,0,
00:00:02.024,-0.0114060156047344,-0.00236184196546674,-0.00294017465785146,0,
00:00:02.028,0.0272843614220619,-0.00262643559835851,-0.00123071169946343,0,
00:00:02.032,-0.000345665903296322,-0.00108497566543519,0.000170462793903425,0,
00:00:02.036,-0.0317520350217819,-0.00585164641961455,-0.0114856427535415,0,
00:00:02.04,0.0124165434390306,0.00902558956295252,0.0212502758949995,0,
00:00:02.044,0.0468386672437191,0.00592879531905055,0.00478087365627289,0,
00:00:02.048,-0.0056933476589620105,0.00146452034823596,-0.0196725931018591,0,
00:00:02.052,-0.0445928648114204,-0.00839024316519499,0.00640095677226782,0,
00:00:02.056,-0.0354655459523201,-0.00813031475991011,0.0149986278265715,0,
00:00:02.06,0.000936379132326692,0.00539146596565843,-0.0178460516035557,0,
00:00:02.064,0.0642331764101982,-0.0014973619254306,-0.0109139969572425,0,
00:00:02.068,-0.0124225728213787,0.000428255501901731,0.0214050728827715,0,
00:00:02.072,-0.00342159997671843,0.00684838090091944,-0.00803726818412542,0,
00:00:02.076,0.026566419750452003,0.00513054709881544,-0.0018790053436532601,0,
00:00:02.08,-0.0135038727894425,-0.0119505058974028,-0.00614893017336726,0,
00:00:02.084,-0.0132831251248717,0.00458580907434225,0.0191220119595528,0,
00:00:02.088,-0.0226162560284138,0.0013038864126429,0.0127185508608818,0,
00:00:02.092,-0.0193203762173653,-0.0116497930139303,-0.0178813319653273,0,
00:00:02.096,0.0432822108268738,0.007957834750413891,-0.0193719975650311,0,
00:00:02.1,0.0128104444593191,0.00496108271181583,0.0110644847154617,0,
00:00:02.104,0.00496190134435892,0.00282490905374289,-0.0029895140323787897,0,
00:00:02.108,-0.0102327847853303,-0.00181747996248305,-0.00609243707731366,0,
00:00:02.112,-0.0299271326512098,-0.00194037787150592,0.031219681724906,0,
00:00:02.116,-0.0028964513912797,-0.0115248886868358,-0.0012771880719810698,0,
00:00:02.12,0.0405263639986515,0.00100575969554484,-0.00636761821806431,0,
00:00:02.124,0.00815808027982712,0.00747720757499337,-0.0249011255800724,0,
00:00:02.128,-0.0521038249135017,0.002626076573506,-0.0194805469363928,0,
00:00:02.132,-0.00455681700259447,-0.00193606002721936,0.0198266040533781,0,
00:00:02.136,0.0191758535802364,-0.00100867857690901,0.0391645468771458,0,
00:00:02.14,0.0452698394656181,0.0046455594711005705,-0.00146773376036435,0,
00:00:02.144,-0.0347775407135487,0.00120993598829955,-0.0300757251679897,0,
00:00:02.148,-0.0352224968373775,-0.0107635473832488,0.00856923498213291,0,
00:00:02.152,0.0642388686537743,0.006476395763456821,0.000215632608160377,0,
00:00:02.156,-0.0110791604965925,0.000212856772122905,-0.0116950357332826,0,
00:00:02.16,0.00622527301311493,-0.00139125448185951,-0.00538477674126625,0,
00:00:02.164,-0.0385641381144524,0.0032428677659481803,0.00539835728704929,0,
00:00:02.168,-0.0266325864940882,-0.0060116620734334,0.015948073938489,0,
00:00:02.172,0.0144995152950287,-0.00279728882014751,0.0304309874773026,0,
00:00:02.176,0.0124701205641031,0.00391123211011291,-0.00777245266363025,0,
00:00:02.18,0.05157922580838201,0.0038814069703221295,-0.0518977418541908,0,
00:00:02.184,0.0103565780445933,0.00142569246236235,-0.037069033831358005,0,
00:00:02.188,-0.0285716652870178,-0.00287546520121396,0.0531552247703075,0,
00:00:02.192,-0.05549131706357,0.0043849260546267,0.0192532669752836,0,
00:00:02.196,-0.0036877843085676397,-0.0037995562888681897,0.0148532772436738,0,
00:00:02.2,0.0231867656111717,-0.00376624171622097,-0.0083816796541214,0,
00:00:02.204,0.0312377102673054,-0.0031345377210527697,-0.0260816384106874,0,
00:00:02.208,0.0153248850256205,0.00319284410215914,-0.0019165833946317397,0,
00:00:02.212,-0.0220443494617939,0.0036394826602190703,0.00653589703142643,0,
00:00:02.216,-0.0312345046550035,0.0037694773636758297,-0.0065371380187571,0,
00:00:02.22,-0.0321084782481194,-0.00229814159683883,-0.000659946294035763,0,
00:00:02.224,0.0866579487919807,-0.000919710379093885,0.0119029423221946,0,
00:00:02.228,0.0864119827747345,-0.00348422559909523,0.00924293790012598,0,
00:00:02.232,-0.115701600909233,-0.00773768639191985,-0.00887237582355738,0,
00:00:02.236,-0.0750286355614662,0.0129839414730668,-0.000888039940036833,0,
00:00:02.24,-0.0027091593947261602,0.00295405252836645,-0.0109500857070088,0,
00:00:02.244,0.0680929198861122,-0.0047760223969817205,0.0125618604943156,0,
00:00:02.248,0.0366519764065742,-0.00612163310870528,0.0152361476793885,0,
00:00:02.252,-0.0114380782470107,-0.00106569810304791,-0.0418930575251579,0,
00:00:02.256,-0.00408693682402372,0.0070416028611362,0.0219423696398735,0,
00:00:02.26,0.0158000402152538,0.00184697145596147,0.0140524357557297,0,
00:00:02.264,-0.0216269250959158,-0.000910420902073383,-0.0007461585337296129,0,
00:00:02.268,-0.00244008260779083,-0.00376822333782911,-0.0275584869086742,0,
00:00:02.272,-0.0456754378974438,0.0069305715151131205,0.00699967751279473,0,
00:00:02.276,0.00194677512627095,-0.0047281114384532,0.0190692953765392,0,
00:00:02.28,0.0247015878558159,-0.006596173159778121,-0.0119013050571084,0,
00:00:02.284,0.044808566570282,0.0011155597167089599,-0.0358639247715473,0,
00:00:02.288,0.012312825769186,0.0015186382224783301,0.0351073294878006,0,
00:00:02.292,-0.0278561934828758,0.00689654005691409,0.0389614701271057,0,
00:00:02.296,-0.0541581213474274,-0.0014591800281778,-0.00927011668682098,0,
00:00:02.3,0.0312842987477779,0.0040324390865862396,-0.0419493354856968,0,
00:00:02.304,0.0179420746862888,0.0016132193850353401,0.000598195823840797,0,
00:00:02.308,-0.0159824974834919,-0.0123995812609792,0.00798140466213226,0,
00:00:02.312,-0.0175680220127106,-0.00634113745763898,0.012706097215414,0,
00:00:02.316,0.0303542912006378,0.000200570400920697,0.00278857932426035,0,
00:00:02.32,-0.0116681819781661,0.0125544052571058,-0.0198267176747322,0,
00:00:02.324,0.00403739605098963,0.007487740367650991,0.000505887030158192,0,
00:00:02.328,0.0309148970991373,-0.000565395050216466,-0.0117571502923965,0,
00:00:02.332,0.00747491791844368,-0.00515230791643262,0.021377956494688998,0,
00:00:02.336,-0.0618409030139446,-0.009458650834858421,0.0227841176092625,0,
00:00:02.34,0.0077624134719371796,0.00321647571399808,0.0146376146003604,0,
00:00:02.344,-0.0137286391109228,-0.0027810798492282603,-0.0455991849303246,0,
00:00:02.348,-0.00253094104118645,0.00033884312142618,-0.00986647699028254,0,
00:00:02.352,0.0322419442236423,0.00542689906433225,0.00580135732889175,0,
00:00:02.356,0.0402596741914749,0.00166544120293111,0.0111313071101904,0,
00:00:02.36,-0.0269062723964453,0.0023507548030465802,-0.0041293967515230205,0,
00:00:02.364,0.0146157592535019,0.0059494930319488,0.0163181405514479,0,
00:00:02.368,-0.0385550260543823,-0.0102362046018243,-0.0153720639646053,0,
00:00:02.372,-0.00147484801709652,-0.00332032493315637,0.0043371575884521,0,
00:00:02.376,-0.0104420818388462,-0.00228488817811012,0.00899238977581263,0,
00:00:02.38,-0.00302182580344379,-0.00113033677916974,-0.0099719911813736,0,
00:00:02.384,0.0543292015790939,0.0068701938726007895,-0.006661504041403529,0,
00:00:02.388,0.000936566560994834,0.0023494642227888103,0.0215646680444479,0,
00:00:02.392,-0.0410118289291859,-0.0021969994995743,-0.00443908898159862,0,
00:00:02.396,-0.0116894217208028,-0.0012273944448679699,-0.017421355471015,0,
00:00:02.4,0.0140324477106333,0.0024658569600433103,-0.0180628355592489,0,
00:00:02.404,-0.0193032585084438,0.009434807114303109,-0.000847491261083633,0,
00:00:02.408,0.0367335118353367,-0.0107957879081368,0.033015713095665,0,
00:00:02.412,0.0859519988298416,-0.0124905630946159,0.019987054169178002,0,
00:00:02.416,-0.0953632593154907,0.0117342863231897,0.008834065869450571,0,
00:00:02.42,-0.0670422241091728,0.00206369627267122,-0.0114538185298443,0,
00:00:02.424,0.0716640129685402,0.0012488440843299,-0.0429717265069485,0,
00:00:02.428,-0.00663239555433393,-0.004947078879922629,-0.0273591112345457,0,
00:00:02.432,-0.0131848035380244,9.05446067918092e-05,0.0295834802091122,0,
00:00:02.436,0.006517347414046529,-0.00245235301554203,0.0249034464359283,0,
00:00:02.44,0.0188559051603079,0.0073808473534882095,-0.00261641573160887,0,
00:00:02.444,0.0400114096701145,0.00167586072348058,0.0294939838349819,0,
00:00:02.448,-0.0331165120005608,-0.00171295704785734,-0.0250406935811043,0,
00:00:02.452,-0.0321468524634838,-0.000497390865348279,-0.0258343443274498,0,
00:00:02.456,-0.0216995291411877,-0.00167616782709956,1.62151391123189e-05,0,
00:00:02.46,0.0188662558794022,-0.00407833140343428,0.009607452899217609,0,
00:00:02.464,0.0204552076756954,-0.0033547270577400897,0.00688510434702039,0,
00:00:02.468,0.0130893057212234,0.0035451625008136,0.0060504558496177205,0,
00:00:02.472,-0.0119249382987618,0.00424291100353003,0.0134552987292409,0,
00:00:02.476,-0.0142562296241522,0.00422545289620757,-0.0043691713362932205,0,
00:00:02.48,0.0293697528541088,-9.506599599262701e-05,-0.0485861040651798,0,
00:00:02.484,0.0193175598978996,-0.009275678545236591,0.0178922172635794,0,
00:00:02.488,-0.0241071600466967,-0.00154724810272455,0.0379139110445976,0,
00:00:02.492,-0.0621782355010509,0.009132083505392071,-0.0238680467009544,0,
00:00:02.496,-0.0115203429013491,-0.00229557068087161,-0.0111402878537774,0,
00:00:02.5,0.0778177380561829,-0.000752977386582643,0.0152369402348995,0,
00:00:02.504,0.0541877672076225,0.00380726484581828,0.00522787123918533,0,
00:00:02.508,-0.0642886608839035,-0.00626774039119482,-0.016700740903616,0,
00:00:02.512,-0.0300088487565517,-0.00145583192352206,0.0255966782569885,0,
00:00:02.516,-0.0105498908087611,-0.00289063481613994,-0.0143620558083057,0,
00:00:02.52,0.0281165186315775,0.00796093419194222,-0.0135146444663405,0,
00:00:02.524,0.0163426678627729,0.00471106776967645,0.0126924142241478,0,
00:00:02.528,-0.00392941478639841,-0.00500647118315101,-0.0114608202129602,0,
00:00:02.532,-0.0168357603251934,-0.0019435135181993198,-0.0015659087803214801,0,
00:00:02.536,0.0233512092381716,0.0016502505168318699,0.0192325487732887,0,
00:00:02.54,-0.00526582123711705,-0.00380505993962288,0.0171107146888971,0,
00:00:02.544,-0.006252332590520379,0.0028353589586913603,-0.0333012714982033,0,
00:00:02.548,-0.0303638074547052,-0.000167273959959857,0.000633063784334809,0,
00:00:02.552,0.0106240315362811,-0.0025319647975266,0.00706116808578372,0,
00:00:02.556,0.0402746945619583,0.0019927304238081,0.0244285129010677,0,
00:00:02.56,0.00263270852155983,0.00616521202027798,-0.032813522964716,0,
00:00:02.564,-0.0211852788925171,-0.0075309369713068,-0.0382648333907127,0,
00:00:02.568,0.0109297707676888,0.00209640944376588,0.0251473784446716,0,
00:00:02.572,-0.06638303399086,-0.000107428073533811,0.0536561906337738,0,
00:00:02.576,0.0158641189336777,-0.0024824186693877,-0.00146585842594504,0,
00:00:02.58,0.0685392320156097,0.0060479994863271705,0.0121477320790291,0,
00:00:02.584,-0.0356129631400108,-0.00415713712573051,-0.0416860803961754,0,
00:00:02.588,0.04200275987386701,-0.000824976363219321,-0.0329443141818047,0,
00:00:02.592,-0.0189399179071188,-0.00142891763243824,-0.00176604429725558,0,
00:00:02.596,-0.0368031449615955,0.00492222653701901,-0.00414280779659748,0,
00:00:02.6,0.00120163068640977,-0.00191411527339369,0.042979609221219996,0,
00:00:02.604,-0.0144545584917068,-0.00154127995483577,0.0259733945131302,0,
00:00:02.608,0.00207359250634909,0.00440774811431766,0.00424807192757726,0,
00:00:02.612,0.0325046479701996,-0.0027330054435879,-0.0174158811569214,0,
00:00:02.616,0.0326131694018841,0.00401170970872045,-0.0226082652807236,0,
00:00:02.62,-0.00406655436381698,-0.00385486707091331,-0.00602754997089505,0,
00:00:02.624,-0.0411607138812542,-0.00554914958775043,-0.0243333168327808,0,
00:00:02.628,-0.0244493689388037,0.0054591358639299896,0.0288921352475882,0,
00:00:02.632,0.00164465152192861,-0.004975236020982271,0.0171531587839127,0,
00:00:02.636,0.0333353318274021,0.00498084723949432,-0.0197160877287388,0,
00:00:02.64,0.0370142795145512,0.00153464451432228,0.0181809924542904,0,
00:00:02.644,-0.0039038988761603798,0.00181289773900062,0.0188222676515579,0,
00:00:02.648,-0.0523785538971424,-0.0028637186624109697,-0.0043123299255967106,0,
00:00:02.652,-0.0194839294999838,-0.00450855074450374,-0.0557390972971916,0,
00:00:02.656,0.0174939557909966,0.00140702410135418,0.0264951474964619,0,
00:00:02.66,0.0229476280510426,0.000403393874876201,-0.0212104041129351,0,
00:00:02.664,-0.008092534728348259,-0.0007641412666998799,0.0162416156381369,0,
00:00:02.668,0.00307946791872382,0.00561371305957437,0.0256768148392439,0,
00:00:02.672,0.0264853090047836,0.00888528116047382,0.0150525951758027,0,
00:00:02.676,0.0122418347746134,-0.007320166099816559,-0.009259559214115141,0,
00:00:02.68,-0.0700477436184883,-0.0123358992859721,-0.0204359106719494,0,
00:00:02.684,0.0161962080746889,0.000653704453725368,-0.0433952212333679,0,
00:00:02.688,0.016748134046793,0.00470683770254254,0.00179422309156507,0,
00:00:02.692,-4.88299447169993e-05,0.0018250822322443102,0.07505675405263901,0,
00:00:02.696,-0.0194288976490498,0.00343272741883993,-0.0115959774702787,0,
00:00:02.7,0.0210822802037001,0.0114184701815248,-0.0116445980966091,0,
00:00:02.704,0.0393610522150993,-0.0111855138093233,-5.0344140618108206e-05,0,
00:00:02.708,-0.0377467535436153,-0.0145120117813349,-0.0308254342526197,0,
00:00:02.712,-0.0560327842831612,-0.00271854875609279,0.0103212418034673,0,
00:00:02.716,0.0305086337029934,0.0129795493558049,0.00675750570371747,0,
00:00:02.72,0.0562483780086041,0.00718190567567945,0.0226146001368761,0,
00:00:02.724,-0.0109799467027187,-0.00110719830263406,-0.028715455904602994,0,
00:00:02.728,-0.0387930572032928,0.00332130887545645,-0.0280428733676672,0,
00:00:02.732,-0.0192472096532583,-0.00800497084856033,0.0475378334522247,0,
00:00:02.736,0.0222519729286432,-0.0056444974616169895,0.0114870788529515,0,
00:00:02.74,0.0604257993400097,0.0017742427298799198,-0.0033053865190595397,0,
00:00:02.744,0.000188746023923159,0.003177982987836,-0.0202517453581095,0,
00:00:02.748,-0.0805805325508118,0.00195538904517889,-0.0098340455442667,0,
00:00:02.752,-0.00273951725102961,0.00235953531228006,-0.0139286695048213,0,
00:00:02.756,0.00836864858865738,-0.000666759326122701,0.0219132080674171,0,
00:00:02.76,0.0193112343549728,-0.0046000499278307,0.0136182457208633,0,
00:00:02.764,0.0263838320970535,-0.00453020352870226,0.0132209770381451,0,
00:00:02.768,0.00462826434522867,0.000436035305028781,0.000222002796363086,0,
00:00:02.772,-0.0188776217401028,0.00572537304833531,-0.0306560043245554,0,
00:00:02.776,0.00412023440003395,0.00591008784249425,-0.0110617494210601,0,
00:00:02.78,-0.0126905618235469,0.000423215620685369,-0.0113556627184153,0,
00:00:02.784,-0.0136756729334593,-0.00974741950631142,0.0249912701547146,0,
00:00:02.788,-0.0259153712540865,-0.000269429350737482,0.0155938398092985,0,
00:00:02.792,0.04466178268194201,0.0044989762827754,-0.000756925903260708,0,
00:00:02.796,0.0139425667002797,-4.6368262701434994e-05,0.0198394171893597,0,
00:00:02.8,0.0067056859843432895,-0.00108105666004121,-0.0217088647186756,0,
00:00:02.804,-0.0317074470221996,-0.000649152672849596,-0.0296836644411087,0,
00:00:02.808,-0.0016951638972386698,-0.004118915181607011,0.0031051528640091398,0,
00:00:02.812,0.0541852302849293,0.00644913828000426,-0.00215820292942226,0,
00:00:02.816,-0.0381998829543591,0.0038247343618422703,0.025539131835102997,0,
00:00:02.82,-0.021589420735836,-0.00510490825399756,0.014884602278471,0,
00:00:02.824,-0.0308851897716522,-0.00153386418242007,-0.0165698379278183,0,
00:00:02.828,0.0598689951002598,0.00217624614015222,0.00250259088352323,0,
00:00:02.832,0.0119735123589635,-0.00344240781851113,-0.00589103531092405,0,
00:00:02.836,-0.0406373180449009,0.000867150956764817,-0.00254040397703648,0,
00:00:02.84,-0.04815570265054701,0.0037938682362437205,-0.008895691484212879,0,
00:00:02.844,0.131296023726463,0.0011184070026502,0.00850320514291525,0,
00:00:02.848,0.0253533367067575,-0.0014889807207509901,0.0056047635152936,0,
00:00:02.852,-0.0872875899076462,-0.00848293956369162,0.00580010423436761,0,
00:00:02.856,-0.12264978885650599,-0.00180384109262377,-0.0051476894877851,0,
00:00:02.86,0.0283218212425709,0.0126922484487295,-0.00550668779760599,0,
00:00:02.864,0.0960293784737587,0.0041976855136454105,-0.0021502962335944197,0,
00:00:02.868,0.06214714422822001,-0.00676912209019065,0.0175522025674582,0,
00:00:02.872,0.00950489938259125,-0.00312549923546612,-0.0425962135195732,0,
00:00:02.876,-0.0920848846435547,-0.0047765513882041,0.0392964407801628,0,
00:00:02.88,0.0249723102897406,0.00465350924059749,0.0152051504701376,0,
00:00:02.884,-0.00625280011445284,0.00639655720442533,-0.0519603788852692,0,
00:00:02.888,-0.0428458265960217,0.00535767152905464,0.0306145530194044,0,
00:00:02.892,-0.0175985842943192,-0.0110668484121561,-0.0216870754957199,0,
00:00:02.896,0.0388347320258617,-0.0032354558352381,0.028822485357522996,0,
00:00:02.9,0.0522756353020668,-0.00572855398058891,0.0218384563922882,0,
00:00:02.904,-0.0057844500988721795,0.00561782671138644,-0.0335027985274792,0,
00:00:02.908,-0.00277381669729948,0.00437779864296317,-0.0170161332935095,0,
00:00:02.912,-0.05680105090141299,0.00909488461911678,-0.00760180409997702,0,
00:00:02.916,0.00397068820893765,-0.00296511733904481,0.0157398581504822,0,
00:00:02.92,0.0469910800457001,-0.00768427597358823,0.0456430315971375,0,
00:00:02.924,-0.0132568599656224,0.0024877490941435103,-0.0201571676880121,0,
00:00:02.928,-0.0180093832314014,-0.00502676470205188,-0.0186279211193323,0,
00:00:02.932,-0.0218963529914618,-0.0038944978732615705,-0.008907456882297991,0,
00:00:02.936,0.0236510261893272,0.0104664796963334,-0.0119467740878463,0,
00:00:02.94,0.0266107283532619,0.00151800515595824,0.0153012545779347,0,
00:00:02.944,0.00656696455553174,-0.0040223621763289,0.0218446590006351,0,
00:00:02.948,-0.0266253650188446,-0.000257224164670333,-0.00821607559919357,0,
00:00:02.952,0.0154218878597021,0.000463607662823051,0.0083770239725709,0,
00:00:02.956,-0.0277538672089577,0.00430359411984682,-0.010752878151833999,0,
00:00:02.96,-0.028072552755475,-0.0062404600903391795,-0.00109277351293713,0,
00:00:02.964,0.0548529103398323,-0.0037063697818666705,-0.00593421561643481,0,
00:00:02.968,-0.0257448460906744,0.00305617763660848,-0.00512907886877656,0,
00:00:02.972,0.0873991400003433,0.0014097719686105802,-0.0031674695201218102,0,
00:00:02.976,-0.0320794768631458,0.00763536151498556,0.0192169658839703,0,
00:00:02.98,-0.098365306854248,-0.00275894766673446,-0.0140800978988409,0,
00:00:02.984,-5.6276341638294993e-05,-0.0044830329716205606,0.0107657695189118,0,
00:00:02.988,0.019896699115634,-0.00869195908308029,0.00946801155805588,0,
00:00:02.992,0.0594535619020462,0.0101216593757272,-0.0264360308647156,0,
00:00:02.996,0.008789165876805779,0.004536559339612721,0.032098263502121006,0,
00:00:03,-0.0613911971449852,-0.00102941028308123,3.46997876476962e-05,0,
00:00:03.004,0.0410349108278751,-0.0055514145642519,-0.0436143763363361,0,
00:00:03.008,0.00935305561870337,-0.0051829987205565,0.00561766466125846,0,
00:00:03.012,0.0189357381314039,0.00443219859153032,0.00875631999224424,0,
00:00:03.016,-0.023354034870863,0.00403787102550268,0.0357330664992332,0,
00:00:03.02,-0.0579655878245831,-0.0052921567112207395,-0.0179001539945602,0,
00:00:03.024,0.00221034931018949,0.000403569458285347,0.009497099556028841,0,
00:00:03.028,0.0303236413747072,0.00484632607549429,-0.0390914566814899,0,
00:00:03.032,-0.00706909690052271,0.00658717658370733,-0.00833696313202381,0,
00:00:03.036,0.0490488037467003,-0.00479901023209095,0.0688602700829506,0,
00:00:03.04,-0.0249843802303076,-0.009920500218868259,-0.0290370844304562,0,
00:00:03.044,0.0129471672698855,0.00341244833543897,-0.0444520562887192,0,
00:00:03.048,0.0059806234203279,0.0019571171142160897,0.0340078100562096,0,
00:00:03.052,-0.0500574745237827,0.00512414984405041,0.0159562509506941,0,
00:00:03.056,-0.0212525241076946,-0.00366239179857075,-0.00278600445017219,0,
00:00:03.06,0.0184236839413643,-0.00755451899021864,-0.0130111817270517,0,
00:00:03.064,0.043154414743184995,0.0033254474401474,-0.0135141788050532,0,
00:00:03.068,0.0153666697442532,0.00265482207760215,0.000303538690786809,0,
00:00:03.072,-0.0204113014042377,0.00633935118094087,0.0281530637294054,0,
00:00:03.076,-0.0408486053347588,-0.000762050796765834,0.00673323171213269,0,
00:00:03.08,-0.0148305827751756,-0.00537002552300692,-0.0215120781213045,0,
00:00:03.084,0.0663011968135834,0.0033172937110066397,-0.00749315042048693,0,
00:00:03.088,0.00100206770002842,-0.00550326472148299,0.0154539430513978,0,
00:00:03.092,0.00241332198493183,-0.000726180267520249,-0.0117018101736903,0,
00:00:03.096,-0.0240279641002417,0.00157214270438999,-0.00979583989828825,0,
00:00:03.1,0.006890625692904,-0.000184960474143736,0.0311712082475424,0,
00:00:03.104,-0.010451109148562,0.0031093992292881,-0.0372387282550335,0,
00:00:03.108,-0.0386868268251419,0.0018083269242197301,0.00341475382447243,0,
00:00:03.112,-0.0286081004887819,0.0017771394923329399,0.0161530692130327,0,
00:00:03.116,0.0969775319099426,-0.00346033298410475,0.026769382879137996,0,
00:00:03.12,0.033548392355442,0.00102312047965825,0.024356123059987998,0,
00:00:03.124,-0.0545289926230907,-0.00698490999639034,-0.0494967587292194,0,
00:00:03.128,-0.0170357674360275,-0.000451721978606656,-0.0859136879444122,0,
00:00:03.132,-0.0143958255648613,-0.00133486778941005,0.0760140493512154,0,
00:00:03.136,-0.00367984850890934,0.00702810008078814,0.0436701327562332,0,
00:00:03.14,0.000372512615285814,0.0070422990247607205,-0.005387672223150729,0,
00:00:03.144,0.056641798466443995,0.0004961843951605259,-0.0269048400223255,0,
00:00:03.148,0.00849030446261168,-0.0104307411238551,-0.0168775636702776,0,
00:00:03.152,-0.0114264478906989,0.000986587954685092,-0.005363913718610999,0,
00:00:03.156,-0.0300617031753063,-6.4788167946972e-05,0.0246648322790861,0,
00:00:03.16,-0.0309697519987822,-0.00187344313599169,0.0196029674261808,0,
00:00:03.164,0.0296133495867252,0.0025788077618926803,-0.0197018887847662,0,
00:00:03.168,-0.0226368121802807,0.00232495041564107,-0.0211683809757233,0,
00:00:03.172,0.00543857319280505,0.004782820120453829,0.00916727632284164,0,
00:00:03.176,0.0697023943066597,-0.006750956643372771,0.00448068650439382,0,
00:00:03.18,-0.0154726775363088,-0.0024759816005826,0.0136136868968606,0,
00:00:03.184,-0.0490458533167839,-0.00165653345175087,-0.00984576437622309,0,
00:00:03.188,0.0129905706271529,0.00148230860941112,-0.0470943562686443,0,
00:00:03.192,0.00432254886254668,0.00919055752456188,0.0770324170589447,0,
00:00:03.196,-0.0348033085465431,0.00059523805975914,0.0233046021312475,0,
00:00:03.2,0.0432353839278221,-0.0101782437413931,-0.0757219195365906,0,
00:00:03.204,0.0194092113524675,-0.00249481713399291,0.0116730015724897,0,
00:00:03.208,-0.0261576790362597,0.006663953419774771,-0.0195065177977085,0,
00:00:03.212,-0.0197801534086466,0.00189996033441275,0.0236075259745121,0,
00:00:03.216,-0.00775680551305413,0.001385428593494,0.0120545895770192,0,
00:00:03.22,0.0141254067420959,-0.00342187145724893,0.0246103852987289,0,
00:00:03.224,0.0145822251215577,-0.000648796500172466,-0.0462359562516212,0,
00:00:03.228,0.0502083376049995,-0.00457171071320772,0.0219702795147896,0,
00:00:03.232,-0.0302565824240446,0.0035008911509066803,0.0108278524130583,0,
00:00:03.236,-0.0660211220383644,-0.00314775039441884,-0.0120352478697896,0,
00:00:03.24,-0.000630780239589512,0.00229463679715991,-0.0109378155320883,0,
00:00:03.244,0.0775645673274994,0.0076117082498967596,-0.015417336486280001,0,
00:00:03.248,-0.00179662625305355,0.00013851052790414499,0.0026309976819902697,0,
00:00:03.252,-0.0449272580444813,-0.00114659813698381,0.0185082592070103,0,
00:00:03.256,-0.011340843513608,-0.00110180641058832,0.0245194304734468,0,
00:00:03.26,0.00845652539283037,-0.0134937660768628,-0.0565778650343418,0,
00:00:03.264,0.009520743973553179,0.00253426400013268,0.031598873436451,0,
00:00:03.268,0.0445610396564007,0.00857488811016083,0.0258440300822258,0,
00:00:03.272,-0.0364659205079079,0.004559990484267471,0.0115920836105943,0,
00:00:03.276,-0.0487194359302521,-0.008920006453990941,-0.0269678235054016,0,
00:00:03.28,0.0674033761024475,0.00461475923657417,-0.0480757690966129,0,
00:00:03.284,0.008654850535094741,0.00341100338846445,0.00460067437961698,0,
00:00:03.288,-0.0317916423082352,-0.0049405889585614204,0.0504327490925789,0,
00:00:03.292,-0.0239834915846586,-0.00123835017438978,-0.00980904698371887,0,
00:00:03.296,0.0218523647636175,-0.0017547931056469698,-0.00548706250265241,0,
00:00:03.3,-0.00350496149621904,0.0047502880915999395,-0.00621322356164455,0,
00:00:03.304,0.0210249815136194,0.000189385478734039,0.00174486497417092,0,
00:00:03.308,0.0116573460400105,0.00288364943116903,0.0057886247523129,0,
00:00:03.312,-0.0266919601708651,-0.00710030645132065,0.00450478820130229,0,
00:00:03.316,-0.055082131177187,-0.00165061524603516,0.0277347341179848,0,
00:00:03.32,0.0796849802136421,0.0015485753538087,-0.0592777989804745,0,
00:00:03.324,0.0326021201908588,0.0044284486211836295,-0.0140598108991981,0,
00:00:03.328,-0.0552151165902615,-0.000364805513527244,0.0495900325477123,0,
00:00:03.332,-0.0537277944386005,-0.0033229384571313897,0.008940944448113441,0,
00:00:03.336,0.0440189354121685,-0.0028737187385559104,-0.0409265905618668,0,
00:00:03.34,0.00462618982419372,0.00974395032972097,0.0150795886293054,0,
00:00:03.344,0.00157536042388529,-0.0022090889979153898,0.00709522655233741,0,
00:00:03.348,0.0445267260074615,-0.00144872150849551,0.0324401445686817,0,
00:00:03.352,-0.0467198044061661,0.0008004652336239809,-0.0228396411985159,0,
00:00:03.356,0.0201132446527481,-0.0049310065805912,-0.0303142070770264,0,
00:00:03.36,-0.0290919747203588,-0.00203867862001061,0.000266859889961779,0,
00:00:03.364,-0.00828075967729092,0.005722923669964079,0.021781837567687003,0,
00:00:03.368,0.0190686024725437,-0.000940685044042766,-0.0160250198096037,0,
00:00:03.372,0.0143697047606111,0.00319312047213316,0.0163645278662443,0,
00:00:03.376,-0.0021064558532089,-0.0015108479419723199,0.0177701152861118,0,
00:00:03.38,-0.0147703159600496,-8.65856054588221e-05,-0.0153739452362061,0,
00:00:03.384,0.00519024301320314,-0.00307552795857191,-0.00779061019420624,0,
00:00:03.388,-0.0113721219822764,-0.00359148462302983,0.00542440405115485,0,
00:00:03.392,0.0326704382896423,0.00466622598469257,-0.0387279354035854,0,
00:00:03.396,0.000462898286059499,-0.000752455263864249,0.0519126653671265,0,
00:00:03.4,-0.0438958518207073,0.0040655923075974,-0.00803540833294392,0,
00:00:03.404,0.00686806486919522,-0.00276846834458411,-0.0226930379867554,0,
00:00:03.408,-0.0314956307411194,0.00016839019372128002,0.0306397080421448,0,
00:00:03.412,0.10846085101366,0.00249668140895665,-0.0206573028117418,0,
00:00:03.416,0.0194057915359735,0.0021025305613875398,-0.00127603020519018,0,
00:00:03.42,-0.0963002294301987,-0.010174130089581,0.0104999849572778,0,
00:00:03.424,-0.0402017422020435,5.1860843086615205e-05,0.0098878713324666,0,
00:00:03.428,-0.0120235495269299,0.0035548992455005602,-0.0284994058310986,0,
00:00:03.432,0.0732227116823196,0.00102459162008017,0.00859811436384916,0,
00:00:03.436,-0.00440000835806131,0.00108328042551875,-0.0128023829311132,0,
00:00:03.44,0.0346812270581722,0.00518235471099615,0.0194456372410059,0,
00:00:03.444,0.0113977966830134,0.00272656907327473,0.0178458672016859,0,
00:00:03.448,-0.045309841632843,-0.009474353864789009,-0.0124843958765268,0,
00:00:03.452,-0.007209735922515391,-0.00391050055623055,-0.00210054661147296,0,
00:00:03.456,-0.0037699842359870703,0.00258732051588595,0.00103261973708868,0,
00:00:03.46,0.0080430880188942,-0.00149733189027756,-0.028967859223485003,0,
00:00:03.464,-0.0343776717782021,0.000734340166673064,0.0114132184535265,0,
00:00:03.468,0.00825277995318174,0.00264978408813477,0.00101207639090717,0,
00:00:03.472,0.0392679907381535,0.00879037473350763,0.0142968986183405,0,
00:00:03.476,-8.5123858298175e-05,-0.0047844471409916895,0.0194085370749235,0,
00:00:03.48,0.0298209115862846,-0.00325602688826621,-0.022574745118617998,0,
00:00:03.484,0.0140760438516736,0.000368193635949865,0.00586869241669774,0,
00:00:03.488,-0.0334036536514759,-0.00230151624418795,-0.0057496652007103,0,
00:00:03.492,-0.11459603160619698,-0.0031586147379130103,0.0277709476649761,0,
00:00:03.496,0.037297684699297,-0.00151434575673193,-0.0370520427823067,0,
00:00:03.5,0.0726516395807266,0.0133209116756916,-0.0264521352946758,0,
00:00:03.504,0.00108634703792632,0.0029978679958730897,0.00333123933523893,0,
00:00:03.508,-0.000127442996017635,-0.0129350638017058,0.0291223041713238,0,
00:00:03.512,-0.0229800026863813,-0.00478908605873585,0.0293972622603178,0,
00:00:03.516,-0.005735498853027821,0.00630210107192397,0.000215213469346054,0,
00:00:03.52,0.0220297873020172,0.000835089536849409,-0.0126727996394038,0,
00:00:03.524,0.0231951158493757,0.00466583902016282,-0.0258705485612154,0,
00:00:03.528,-0.0339628718793392,-0.000949387555010617,-0.0188247226178646,0,
00:00:03.532,-0.0320241712033749,-0.00241153477691114,0.0406590960919857,0,
00:00:03.536,-0.00232838792726398,-0.0038019930943846703,-0.0293147563934326,0,
00:00:03.54,0.0121292611584067,0.00359942670911551,0.0073516108095645905,0,
00:00:03.544,0.0479889921844006,0.00015895934484433402,0.0472966022789478,0,
00:00:03.548,0.0306131187826395,-0.000657920609228313,-0.0113739809021354,0,
00:00:03.552,-0.0615478232502937,-0.000399245473090559,-0.0281439367681742,0,
00:00:03.556,-0.0344136208295822,-0.00203144270926714,-0.0068901129998266706,0,
00:00:03.56,0.0418168976902962,0.0022657522931695,-0.0168458987027407,0,
00:00:03.564,0.0345780104398727,0.0019295478705316802,0.0261605847626925,0,
00:00:03.568,-0.0146313821896911,0.000318316742777824,0.0206552650779486,0,
00:00:03.572,-0.0647084340453148,-0.0029372381977737,-0.0202214419841766,0,
00:00:03.576,-0.009323739446699621,0.0008358441991731519,0.0054966933093965106,0,
00:00:03.58,0.0674726963043213,0.00296532246284187,0.0010220077820122199,0,
00:00:03.584,-0.0303222183138132,-0.00195698346942663,-0.00373864313587546,0,
00:00:03.588,0.0514823794364929,-0.000126268118037842,-0.0399409718811512,0,
00:00:03.592,-0.0275418851524591,-0.00482308026403189,0.041390422731638,0,
00:00:03.596,-0.0136323859915137,0.000885966699570417,0.0245126690715551,0,
00:00:03.6,0.0151819689199328,0.0067052305676043,-0.0380977503955364,0,
00:00:03.604,-0.03439590707421299,-0.00203284388408065,0.0223992094397545,0,
00:00:03.608,0.0294675696641207,-0.00688222330063581,0.00315712136216462,0,
00:00:03.612,-0.022449841722846,0.00307944673113525,-0.0408394262194633,0,
00:00:03.616,0.009906258434057241,-9.626306564314291e-05,0.0181797351688147,0,
00:00:03.62,0.0165733136236668,0.009771693497896191,-0.000114648879389279,0,
00:00:03.624,-0.0119698187336326,0.0006757425726391379,0.00448835967108607,0,
00:00:03.628,0.00755835510790348,-0.00879088137298822,0.0227800719439983,0,
00:00:03.632,0.005600119940936571,-0.0032902117818594,-0.00767901772633195,0,
00:00:03.636,0.0358210578560829,0.000390132132451981,-0.0292493458837271,0,
00:00:03.64,-0.10381391644477801,-0.000108310552604962,0.0378868617117405,0,
00:00:03.644,0.0298995077610016,0.00802169367671013,-0.010379696264863002,0,
00:00:03.648,0.05140359699726099,-0.00131242501083761,-0.0319604650139809,0,
00:00:03.652,-0.033642940223217004,-0.0051440456882119205,0.0182819906622171,0,
00:00:03.656,-0.0227345880120993,-0.0018290753941983,-0.012283269315958,0,
00:00:03.66,0.0496009401977062,0.005720145534724,0.0109372595325112,0,
00:00:03.664,0.0231993570923805,0.000854896090459079,0.02202451787889,0,
00:00:03.668,-0.0219029262661934,-0.00331054790876806,-0.0161084029823542,0,
00:00:03.672,-0.0706999823451042,0.00258801970630884,0.015494043007493,0,
00:00:03.676,0.0275348611176014,-0.0011404012329876401,-0.0245144329965115,0,
00:00:03.68,0.0501801855862141,-0.00357810873538256,-0.000845915055833757,0,
00:00:03.684,-0.0294197015464306,-0.0006923201144672929,0.0182220712304115,0,
00:00:03.688,0.0089440206065774,0.00601465720683336,-0.0259287264198065,0,
00:00:03.692,0.0147327547892928,0.0047186724841594705,0.0238333344459534,0,
00:00:03.696,-0.0615885481238365,-0.00770987570285797,-0.0239813886582851,0,
00:00:03.7,0.0423243343830109,-0.00515592144802213,0.0337497368454933,0,
00:00:03.704,0.0464929938316345,0.0106902001425624,-0.0203196555376053,0,
00:00:03.708,-0.0390730462968349,-0.0084724985063076,-0.0115169584751129,0,
00:00:03.712,-0.0559401549398899,-0.00269900052808225,0.0350950844585896,0,
00:00:03.716,0.0525305084884167,0.00458882469683886,-0.004046591464430089,0,
00:00:03.72,-0.00457860855385661,0.0063337916508317,-0.0273677725344896,0,
00:00:03.724,-0.0554948598146439,-0.00270100682973862,0.007354449015110729,0,
00:00:03.728,0.109288036823273,-0.000797649321611971,-0.00459057139232755,0,
00:00:03.732,-0.0207013804465532,-0.000610792427323759,0.00806509330868721,0,
00:00:03.736,-0.0540208891034126,-0.0006536791916005309,0.00112109002657235,0,
00:00:03.74,-0.00461903307586908,0.00159329327289015,0.0015639949124306401,0,
00:00:03.744,0.0220805481076241,-0.0021325822453945897,-0.0355375669896603,0,
00:00:03.748,0.0038159163668751704,-0.0035823513753712203,0.0756715908646584,0,
00:00:03.752,0.0059365192428231205,0.00207398249767721,-0.0213322564959526,0,
00:00:03.756,-0.0537866838276386,0.0027404953725636,-0.0242595132440329,0,
00:00:03.76,0.0699397325515747,-0.0007283693994395429,-0.033698283135891,0,
00:00:03.764,0.04511958360672,0.0038582198321819297,0.0258015859872103,0,
00:00:03.768,-0.10001566261053098,-0.00133885105606169,0.0198646541684866,0,
00:00:03.772,0.0353824086487293,-0.0024761662352830198,-0.0237753726541996,0,
00:00:03.776,-0.0078309727832675,0.000508448050823063,0.0265205763280392,0,
00:00:03.78,-0.0263281222432852,-0.00633245380595326,0.0106216501444578,0,
00:00:03.784,0.040787149220705,0.0050888299010694,-0.021321339532733,0,
00:00:03.788,0.00500882463529706,0.0020530510228127198,-0.0102948928251863,0,
00:00:03.792,-0.0449903085827827,0.000190106351510622,0.0105452099815011,0,
00:00:03.796,0.0253316201269627,-0.00480364076793194,0.00587416579946876,0,
00:00:03.8,0.0544202588498592,0.0052768597379326794,-0.0105611532926559,0,
00:00:03.804,-0.06652889400720599,0.0008527500322088599,-0.0145426159724593,0,
00:00:03.808,-0.0052608666010201,0.000699009629897773,0.0219308622181416,0,
00:00:03.812,0.00777172250673175,-0.0036804818082600797,0.0190790891647339,0,
00:00:03.816,0.00997935701161623,-0.00470258202403784,-0.0465867258608341,0,
00:00:03.82,0.0315298773348331,0.0038078962825238705,-0.00147670414298773,0,
00:00:03.824,-0.013445490039884999,-0.00311681861057878,0.0533026680350304,0,
00:00:03.828,-0.0456156134605408,0.006240935530513529,0.00651606544852257,0,
00:00:03.832,0.0211060233414173,0.00551686342805624,-0.0424814410507679,0,
00:00:03.836,0.0274685192853212,-0.0072854608297348,-0.0176795516163111,0,
00:00:03.84,-0.0103000281378627,-0.00318455952219665,0.00896980240941048,0,
00:00:03.844,0.0151804210618138,0.00208670599386096,0.0251415465027094,0,
00:00:03.848,0.010657318867743,-0.00043878605356439905,0.003906581085175279,0,
00:00:03.852,-0.0572447367012501,-0.00212288508191705,-0.0206536129117012,0,
00:00:03.856,-0.0385472662746906,0.000587489979807287,-0.00195032090414315,0,
00:00:03.86,0.0597973950207233,0.0044952086172998,0.0130327120423317,0,
00:00:03.864,0.0206679776310921,-0.0017804382368922199,0.00323468120768666,0,
00:00:03.868,-0.0385262072086334,0.00541920680552721,-0.007880766876041891,0,
00:00:03.872,0.0345183722674847,0.00121349224355072,0.021566104143858,0,
00:00:03.876,0.0150358714163303,-0.00325298472307622,-0.019374268129468002,0,
00:00:03.88,-0.026202242821455002,-0.00442373706027865,-0.009194613434374329,0,
00:00:03.884,-0.00361652346327901,-0.00698594003915787,-0.0046788384206593,0,
00:00:03.888,0.0024029533378779897,0.00358723127283156,0.0225638337433338,0,
00:00:03.892,-0.0025954395532608,0.000575478537939489,-0.0100035713985562,0,
00:00:03.896,0.0033330863807350397,0.00214301701635122,-0.00430155312642455,0,
00:00:03.9,-0.0130210258066654,0.00498076481744647,-0.00532836420461535,0,
00:00:03.904,0.0022058053873479397,0.0041577238589525205,0.000739988114219159,0,
00:00:03.908,-0.00798980984836817,-0.00528317736461759,0.0258873030543327,0,
00:00:03.912,0.00630805734544992,-0.0024100358132273,0.0065462319180369394,0,
00:00:03.916,0.0248501002788544,-0.00298782507888973,-0.0184585005044937,0,
00:00:03.92,-0.0150002175942063,0.0019403815967962102,-0.00895143579691648,0,
00:00:03.924,0.0332818515598774,0.00413602590560913,-0.0324450209736824,0,
00:00:03.928,0.0210045296698809,-0.00127355079166591,0.0322833880782127,0,
00:00:03.932,-0.0727213397622108,-1.1617873497016301e-05,0.0133720142766833,0,
00:00:03.936,-0.0205543171614408,-0.000924848602153361,0.0018463718006387398,0,
00:00:03.94,0.0063243075273931,-0.005489950068294999,0.0128374733030796,0,
00:00:03.944,-0.000551528413780034,0.00514685874804854,-0.0373176671564579,0,
00:00:03.948,0.0533680096268654,-0.0049773575738072395,-0.000763918447773904,0,
00:00:03.952,0.012124783359467999,0.0010605825809761901,0.0292248222976923,0,
00:00:03.956,0.00208343868143857,0.00571084721013904,-0.00283080991357565,0,
00:00:03.96,-0.0156734734773636,0.00102091964799911,-0.0200199224054813,0,
00:00:03.964,-0.0397106744349003,0.0034372538793832103,-0.00660036038607359,0,
00:00:03.968,-0.00262368656694889,-0.000889623945113271,0.00483429897576571,0,
00:00:03.972,-0.00289553077891469,-0.00603040680289268,0.023373618721962003,0,
00:00:03.976,-0.00104533263947815,-0.00400758907198906,0.0011582518927753,0,
00:00:03.98,0.06656556576490401,-0.000326885899994522,-0.0339491702616215,0,
00:00:03.984,0.0138867497444153,0.00418602395802736,-0.00420397566631436,0,
00:00:03.988,-0.0551507733762264,-0.00146804586984217,0.0434409864246845,0,
00:00:03.992,-0.0323554910719395,0.00408551655709744,0.00773801561444998,0,
00:00:03.996,0.0166414268314838,-0.000139524461701512,-0.0214617885649204,0,
00:00:04,-0.023952990770339997,-0.00743454461917281,-0.00913997739553452,0,
00:00:04.004,0.08074801415205,0.00917587522417307,-0.00584521424025297,0,
00:00:04.008,0.0316783003509045,0.00278058345429599,-0.0150267193093896,0,
00:00:04.012,-0.0902335420250893,-0.00869985669851303,0.000568954099435359,0,
00:00:04.016,0.0597949624061584,0.00182281574234366,0.0233956892043352,0,
00:00:04.02,-0.0728882029652596,0.00204245396889746,0.0400394797325134,0,
00:00:04.024,-0.0269916728138924,-0.00427096989005804,-0.0126195540651679,0,
00:00:04.028,0.0379854030907154,0.0025161316152662,-0.0273928921669722,0,
00:00:04.032,0.0397839173674583,-0.00222792918793857,-0.0212274603545666,0,
00:00:04.036,0.0041623688302934204,0.0037976561579853296,0.0042778248898685,0,
00:00:04.04,-0.0190170146524906,0.00195891479961574,0.00732976384460926,0,
00:00:04.044,-0.00181194243486971,-0.005056384950876239,0.0190426763147116,0,
00:00:04.048,0.0127254817634821,-0.000321661558700725,-0.00156302249524742,0,
00:00:04.052,0.0160520263016224,-0.000692356843501329,-0.0227235238999128,0,
00:00:04.056,-0.0289101023226976,0.00326306186616421,0.0138579420745373,0,
00:00:04.06,-0.0266936812549829,0.00422180071473122,0.0291438419371843,0,
00:00:04.064,0.007375278510153291,-0.00201287679374218,-0.0228390581905842,0,
00:00:04.068,-0.0248118191957474,-0.007178718689829109,-0.0118967862799764,0,
00:00:04.072,0.0783476680517197,0.00225495919585228,-0.00284178135916591,0,
00:00:04.076,0.0120443506166339,0.007406704593449829,-0.0056176348589360705,0,
00:00:04.08,-0.0611333400011063,-0.000560494721867144,0.0185624584555626,0,
00:00:04.084,-0.0205653514713049,-0.0058526690118014795,-0.00625749817118049,0,
00:00:04.088,0.0363631770014763,-0.0054578990675509,0.0195493660867214,0,
00:00:04.092,0.00897366274148226,-0.00181444513145834,-0.005818760022521021,0,
00:00:04.096,0.022246990352869003,0.0122089246287942,-0.0428106188774109,0,
00:00:04.1,-0.0166007317602634,0.00201714504510164,0.0221752487123013,0,
00:00:04.104,-0.0499124452471733,-0.00037328858161345097,0.0258102342486382,0,
00:00:04.108,-0.009772977791726591,-0.00714279245585203,0.0145852342247963,0,
00:00:04.112,0.035232737660408,-0.00359422783367336,-0.009202925488352779,0,
00:00:04.116,0.0346207767724991,0.0052354000508785204,-0.0450454354286194,0,
00:00:04.12,0.01117895077914,0.0035011931322515,-0.0340951904654503,0,
00:00:04.124,-0.0182380694895983,-0.000190798411495052,0.0496694520115852,0,
00:00:04.128,-0.0271956734359264,-0.0064211613498628105,0.0246404130011797,0,
00:00:04.132,-0.017928896471858,-0.0045242523774504705,0.0212781820446253,0,
00:00:04.136,-0.00445488654077053,0.00610017869621515,-0.00411035120487213,0,
00:00:04.14,-0.00328468531370163,0.0054503311403095705,-0.0473250187933445,0,
00:00:04.144,0.0657575577497482,0.00346213555894792,-0.0116165345534682,0,
00:00:04.148,0.0129997665062547,-0.00172930001281202,0.0033789852168411,0,
00:00:04.152,-0.0362684987485409,-0.0064575201831758,0.0208898484706879,0,
00:00:04.156,-0.0276691075414419,-0.00597556214779615,-0.0015784151619300199,0,
00:00:04.16,0.00955830328166485,0.0019956463947892198,0.0205875243991613,0,
00:00:04.164,-0.0280507393181324,0.0019655507057905197,-0.0179010462015867,0,
00:00:04.168,0.0658223852515221,0.006904383189976221,0.00238338857889175,0,
00:00:04.172,0.0128715662285686,0.00041644083103165,0.010576986707746998,0,
00:00:04.176,-0.0495706051588058,-0.000209321704460308,-0.0243506822735071,0,
00:00:04.18,-0.0326870009303093,-0.0085070077329874,0.0178929232060909,0,
00:00:04.184,0.0319735780358315,0.00313427904620767,-0.0350842773914337,0,
00:00:04.188,0.0312457270920277,0.00111190881580114,0.00965857785195112,0,
00:00:04.192,-0.0180845744907856,0.000255197752267122,0.0559418015182018,0,
00:00:04.196,-0.0154519136995077,-0.00210411776788533,-0.0284915007650852,0,
00:00:04.2,-0.00924280565232039,0.00398031389340758,-0.0039128810167312605,0,
00:00:04.204,0.0805201828479767,0.0037787300534546397,-0.00437494786456227,0,
00:00:04.208,-0.0332506112754345,-0.00542206503450871,-0.0231111608445644,0,
00:00:04.212,-0.0638492628931999,-0.008447373285889629,0.00915005430579185,0,
00:00:04.216,0.000898644677363336,0.00549412332475185,0.023112591356038995,0,
00:00:04.22,-0.00021332039614208,0.00131456076633185,0.00883271638303995,0,
00:00:04.224,0.0395109280943871,0.00328439939767122,-0.024651788175106003,0,
00:00:04.228,0.0364674516022205,0.00349044683389366,-0.006293858867138621,0,
00:00:04.232,-0.0294928606599569,-0.00689737126231194,0.0363785922527313,0,
00:00:04.236,-0.007376702036708591,0.000521566718816757,-0.0152973970398307,0,
00:00:04.24,0.0231000818312168,0.00569152878597379,-0.0294385701417923,0,
00:00:04.244,-0.0375505797564983,-0.00346163916401565,-0.015289125032722999,0,
00:00:04.248,-0.0154872313141823,-0.0017265758942812699,0.0352026373147964,0,
00:00:04.252,-0.00163988512940705,-0.0031554119195789103,0.0169752556830645,0,
00:00:04.256,0.0591670796275139,-0.00466575706377625,0.0365780629217625,0,
00:00:04.26,0.00702838459983468,0.0057380679063499,-0.0492522455751896,0,
00:00:04.264,-0.0336222983896732,0.00772669166326523,-0.039215162396431004,0,
00:00:04.268,-0.0353058949112892,-0.00212770374491811,0.009783630259335041,0,
00:00:04.272,-0.00853566452860832,-0.0010305239120498302,0.0219279713928699,0,
00:00:04.276,0.0472936891019344,0.00294637493789196,0.0296849943697453,0,
00:00:04.28,0.00221692374907434,-0.00512781320139766,-0.00412508333101869,0,
00:00:04.284,0.0150441937148571,-0.0060776243917644,-0.0223448351025581,0,
00:00:04.288,-0.0202451683580875,0.00151179952081293,-0.0136827314272523,0,
00:00:04.292,0.007284079212695359,0.00366291776299477,-0.016843393445015,0,
00:00:04.296,-0.0255713518708944,-0.00143723119981587,0.0401833988726139,0,
00:00:04.3,0.0118682747706771,0.0109748914837837,0.00800820346921682,0,
00:00:04.304,-0.0198643188923597,-0.00541755510494113,-0.0129363825544715,0,
00:00:04.308,-0.0108637176454067,-0.0059324363246560105,0.000713955028913915,0,
00:00:04.312,0.0560470260679722,-0.00170066591817886,-0.0111009730026126,0,
00:00:04.316,0.0180721897631884,0.00591010693460703,0.0125123402103782,0,
00:00:04.32,-0.0534100756049156,0.000931208196561784,0.0192770101130009,0,
00:00:04.324,0.0354438684880733,0.00292752962559462,-0.0629144981503487,0,
00:00:04.328,-0.00701136514544487,-0.0137036796659231,0.006709124892950061,0,
00:00:04.332,-0.022098783403634997,0.00800353568047285,0.0268097631633282,0,
00:00:04.336,-0.0328760854899883,0.00436181901022792,0.0343863591551781,0,
00:00:04.34,0.0109477061778307,-0.00238341605290771,-0.0173013769090176,0,
00:00:04.344,-0.00604407861828804,-0.00900047738105059,-0.00187493255361915,0,
00:00:04.348,0.0505072101950645,0.00906995963305235,0.00158104428555816,0,
00:00:04.352,0.0506818257272244,0.0036556439008563796,-0.0217523835599422,0,
00:00:04.356,-0.0576511882245541,-0.00141474371775985,-0.0155214862897992,0,
00:00:04.36,-0.0216665640473366,-0.0075763184577226595,0.0180561803281307,0,
00:00:04.364,-0.00483331829309464,-0.00294453464448452,0.0026781547348946303,0,
00:00:04.368,-0.0113988947123289,0.0021824953146278897,0.0210718791931868,0,
00:00:04.372,0.0239341985434294,0.00830365438014269,-0.0182495955377817,0,
00:00:04.376,0.037955604493618,0.00130430853459984,-0.00382212293334305,0,
00:00:04.38,-0.014055909588933,-0.00222328281961381,0.031538549810648,0,
00:00:04.384,-0.0286513417959213,-0.004898259416222571,-0.0512758158147335,0,
00:00:04.388,-0.0270127765834332,0.000215692576603033,0.00443033780902624,0,
00:00:04.392,0.0250322464853525,0.00547625031322241,0.0311328172683716,0,
00:00:04.396,0.0389450117945671,-0.0030984664335846897,0.00926352292299271,0,
00:00:04.4,0.00592878879979253,-0.005240290891379121,-0.0177672151476145,0,
00:00:04.404,-0.0198343358933926,-0.000771039049141109,-0.013073286972940001,0,
00:00:04.408,-0.0575847215950489,0.00700239976868033,-0.00543775362893939,0,
00:00:04.412,0.0177223924547434,0.0037684447597712296,0.0164999403059483,0,
00:00:04.416,0.0264238584786654,-0.000939343415666372,0.0110147474333644,0,
00:00:04.42,0.00187443604227155,-0.00536010507494211,-0.0103600155562162,0,
00:00:04.424,0.0368196256458759,-0.0072230426594615,0.0136336507275701,0,
00:00:04.428,-0.0404639206826687,0.00422420911490917,-0.0275017321109772,0,
00:00:04.432,-0.0177871380001307,0.00958275888115168,0.0210909228771925,0,
00:00:04.436,-0.0143023105338216,-0.0034754876978695397,-0.0124328900128603,0,
00:00:04.44,0.0333792492747307,-0.00183021510019898,-0.0170496590435505,0,
00:00:04.444,0.0425352528691292,0.00129066791851074,0.0330074764788151,0,
00:00:04.448,-0.012257824651897,-0.0041939034126699,0.0014019284863025,0,
00:00:04.452,-0.0484639517962933,0.00258817593567073,-0.0156538784503937,0,
00:00:04.456,-0.0229017902165651,-0.000253706792136654,-0.0045001185499131706,0,
00:00:04.46,0.018853098154068,-0.00458643212914467,0.0018330883467569897,0,
00:00:04.464,0.0797810256481171,0.00610447814688087,-0.0107685858383775,0,
00:00:04.468,-0.0530517771840096,0.00173026463016868,0.0333033874630928,0,
00:00:04.472,-0.0095076160505414,-0.00295095518231392,0.009123364463448521,0,
00:00:04.476,0.00740179698914289,0.00860351417213678,-0.0554681681096554,0,
00:00:04.48,-0.0276457816362381,-0.0096040703356266,0.0215987153351307,0,
00:00:04.484,-0.00429029297083616,-0.0027672888245433604,0.0100789982825518,0,
00:00:04.488,0.0284150261431932,-0.007844682782888409,0.0006128547247499231,0,
00:00:04.492,0.0310464799404144,0.00736535806208849,0.00689580151811242,0,
00:00:04.496,0.0136203654110432,0.00995280127972364,-0.0068707037717104,0,
00:00:04.5,-0.0396955534815788,0.00312404194846749,0.00143872783519328,0,
00:00:04.504,-0.0422562956809998,-0.0092872716486454,-0.0122961830347776,0,
00:00:04.508,-0.0089537613093853,0.000721798278391361,-0.0216665472835302,0,
00:00:04.512,0.0494668520987034,-0.00104032410308719,0.0550238266587257,0,
00:00:04.516,0.0235577262938023,0.00131617812439799,-0.0294845495373011,0,
00:00:04.52,-0.0131565565243363,-0.00605485495179892,-0.0110093085095286,0,
00:00:04.524,0.0193644948303699,0.005021908786147829,0.0278400033712387,0,
00:00:04.528,-0.00306326732970774,0.00392340030521154,0.0033972633536905102,0,
00:00:04.532,-0.0823214873671532,-0.0040477029979229,-0.0282901618629694,0,
00:00:04.536,0.0303402692079544,-0.00248758750967681,0.0109208868816495,0,
00:00:04.54,0.0074699958786368405,0.0047679771669209,0.00911769457161427,0,
00:00:04.544,-0.0153284957632422,-0.0017900972161442,-0.0157168861478567,0,
00:00:04.548,0.0994389951229095,0.00274443766102195,-0.0138834435492754,0,
00:00:04.552,0.0365726426243782,0.0046737720258534,0.00828011892735958,0,
00:00:04.556,-0.152344092726707,-0.00788832921534777,0.0373362600803375,0,
00:00:04.56,-0.0421996153891087,-0.009928743354976179,-0.00153442739974707,0,
00:00:04.564,0.0539819002151489,0.00163774192333221,-0.0220860280096531,0,
00:00:04.568,0.0414492934942245,0.0086264293640852,-0.0205191113054752,0,
00:00:04.572,0.0161149278283119,0.0037725006695836795,0.0112114446237683,0,
00:00:04.576,0.000311931013129652,0.004807295277714729,0.0125416358932853,0,
00:00:04.58,0.0170397292822599,-0.0009457927080802619,0.00227337493561208,0,
00:00:04.584,-0.0187171399593353,-0.00897554401308298,-0.0173468831926584,0,
00:00:04.588,-0.0321617685258389,-0.000924178399145603,0.02258669026196,0,
00:00:04.592,-0.026418674737215,-0.0012655665632337301,0.00569069478660822,0,
00:00:04.596,0.0131397228688002,-0.00156118487939239,-0.0479668714106083,0,
00:00:04.6,0.0113573111593723,0.00789489131420851,0.0316160805523396,0,
00:00:04.604,-0.00076599937165156,-0.00257910904474556,0.0072049391455948405,0,
00:00:04.608,0.0535464733839035,0.00195496436208487,-0.015327082015574,0,
00:00:04.612,-0.0104470532387495,0.0006071028765290981,0.0216763876378536,0,
00:00:04.616,0.0231888871639967,-0.005414642393589021,-0.0151533298194408,0,
00:00:04.62,-0.0407171510159969,0.00211446150206029,-0.000873341399710625,0,
00:00:04.624,-0.0624593682587147,-9.0058520072489e-06,0.0160380732268095,0,
00:00:04.628,-0.0064444593153893896,-0.0020020697265863397,-0.0217657163739204,0,
00:00:04.632,0.0233323350548744,0.000358780729584396,-0.000159117320436053,0,
00:00:04.636,0.0265330076217651,0.00621260795742273,-0.0243781767785549,0,
00:00:04.64,0.043620128184556996,0.00219664466567338,0.024624751880765,0,
00:00:04.644,0.00146606808993965,-0.00432255864143372,0.019202584400773,0,
00:00:04.648,-0.0160563979297876,-0.00393474800512195,0.0185188315808773,0,
00:00:04.652,-0.0174084585160017,-0.00334958918392658,-0.00401655398309231,0,
00:00:04.656,-0.00445643486455083,0.000865842157509178,-0.024325605481862998,0,
00:00:04.66,-0.035489272326231,0.00750908581539989,-0.0159390922635794,0,
00:00:04.664,0.0111877545714378,0.00338103622198105,-0.00795874930918217,0,
00:00:04.668,0.0185853000730276,-0.00786166358739138,-0.00752647640183568,0,
00:00:04.672,0.0048136487603187604,0.00211247708648443,0.0190338641405106,0,
00:00:04.676,0.0388758331537247,0.00385710503906012,0.0321164168417454,0,
00:00:04.68,0.0174110718071461,-0.00673791393637657,-0.00524689164012671,0,
00:00:04.684,-0.0636780634522438,-0.00161151436623186,0.00203074142336845,0,
00:00:04.688,0.0022045518271625,-0.000606123183388263,0.0032337112352252,0,
00:00:04.692,-0.00877619255334139,0.008401244878768921,-0.0448905862867832,0,
00:00:04.696,-0.0118809938430786,0.0013455169973895,-0.00637106923386455,0,
00:00:04.7,-0.0167450197041035,-0.0046760723926127,0.0137693108990788,0,
00:00:04.704,0.0198645070195198,-0.00332753243856132,0.0168438032269478,0,
00:00:04.708,0.0426327884197235,-0.000333053059875965,0.0121446680277586,0,
00:00:04.712,0.039205152541399,-0.000465327262645587,-0.009063452482223509,0,
00:00:04.716,-0.0240564215928316,0.00597551232203841,0.0077967457473278,0,
00:00:04.72,-0.040923997759818996,-0.00125563924666494,-0.0160978361964226,0,
00:00:04.724,-0.0248388759791851,-0.00144321285188198,0.0124752512201667,0,
00:00:04.728,0.00881125591695309,-5.84567096666433e-05,0.0209813751280308,0,
00:00:04.732,-0.00864736642688513,0.0090721445158124,-0.0538184866309166,0,
00:00:04.736,0.0495739616453648,-0.00510646309703588,-2.33308674069121e-06,0,
00:00:04.74,0.0591379962861538,-0.00419111689552665,0.0163296051323414,0,
00:00:04.744,-0.040366355329752,-0.00868018437176943,0.0155663369223475,0,
00:00:04.748,-0.0603441037237644,0.0013548037968576,0.004743844270706179,0,
00:00:04.752,0.000860523548908532,0.0120037794113159,-0.0186300259083509,0,
00:00:04.756,-0.0385601073503494,0.0054744896478951,-0.0057326680980622794,0,
00:00:04.76,-0.00415194965898991,-0.00661562755703926,0.0263075176626444,0,
00:00:04.764,0.0981192365288734,-0.0123446397483349,0.0035778239835053704,0,
00:00:04.768,0.0164388250559568,0.0103584639728069,-0.0327773690223694,0,
00:00:04.772,-0.0102867279201746,0.000693151319865137,0.0140333091840148,0,
00:00:04.776,-0.00931718666106462,0.000539126107469201,-0.000808643409982324,0,
00:00:04.78,-0.0437887236475945,-0.00289654498919845,0.0065773907117545605,0,
00:00:04.784,-0.0308552738279104,-0.0035963237751275297,-0.0112567869946361,0,
00:00:04.788,0.0218889862298965,0.00245024263858795,0.0100898183882236,0,
00:00:04.792,0.0457973591983318,0.0051537980325519995,-0.0259988810867071,0,
00:00:04.796,-0.0292291957885027,-0.00261563691310585,0.0181243009865284,0,
00:00:04.8,0.0035905817057937397,0.00414692563936114,0.0155074391514063,0,
00:00:04.804,0.0131847588345408,-0.00581170758232474,0.012001340277493,0,
00:00:04.808,-0.0500218123197556,-0.0035856363829225297,-0.0112825240939856,0,
00:00:04.812,0.0542759224772453,0.000720930169336498,-0.0043312427587807205,0,
00:00:04.816,0.109362475574017,0.0112904608249664,-0.0243351869285107,0,
00:00:04.82,-0.11402142792940101,-0.0030743097886443103,-0.0190666187554598,0,
00:00:04.824,-0.0600311495363712,-0.00529796816408634,0.0163156650960445,0,
00:00:04.828,-0.0192864034324884,0.0035490647424012397,0.0604459755122662,0,
00:00:04.832,0.00895808450877666,-0.00554660987108946,-0.0238115172833204,0,
00:00:04.836,0.0696577057242393,-0.009184100665152071,-0.0182046163827181,0,
00:00:04.84,0.031819362193346,0.00940803065896034,-0.0022579159121960397,0,
00:00:04.844,-0.0203546602278948,0.00854569766670465,-0.0142929963767529,0,
00:00:04.848,-0.0013082989025861,0.00202488084323704,0.00113643030636013,0,
00:00:04.852,0.0193964801728725,-0.00717255985364318,0.0230556707829237,0,
00:00:04.856,-0.0527031198143959,-0.0025950928684324,0.0176417306065559,0,
00:00:04.86,-0.0278564244508743,5.04679119330831e-05,-0.0180855318903923,0,
00:00:04.864,0.0449768602848053,0.0031558072660118302,-0.0350423268973827,0,
00:00:04.868,0.00623466772958636,-0.00509352795779705,0.0200396925210953,0,
00:00:04.872,-0.00604303739964962,0.00281735323369503,0.0102361096069217,0,
00:00:04.876,-0.0036836182698607397,0.0072359247133135796,0.0192193891853094,0,
00:00:04.88,0.00876748375594616,-0.00307098822668195,-0.00485672056674957,0,
00:00:04.884,-0.00986651424318552,-0.0022120310459286,-0.027521500363946,0,
00:00:04.888,-0.00730810547247529,-0.0018874445231631398,-0.0005272651324048639,0,
00:00:04.892,0.0063956514932215205,-0.00522362114861608,0.0266715064644814,0,
00:00:04.896,-0.0113746002316475,-0.000247042800765485,-0.0130324373021722,0,
00:00:04.9,-0.00420975964516401,0.00585343921557069,-0.0269401241093874,0,
00:00:04.904,0.0328233391046524,0.00445496616885066,0.00843924470245838,0,
00:00:04.908,-0.00533000892028213,-0.00116069708019495,0.0552714057266712,0,
00:00:04.912,0.0140151707455516,0.00233295722864568,-0.0317048616707325,0,
00:00:04.916,-0.0141176600009203,0.0013284123269841099,-0.0237415544688702,0,
00:00:04.92,-0.00925382133573294,-0.0113736232742667,0.0332147404551506,0,
00:00:04.924,-0.0207257065922022,-0.0009325047140009699,-0.0282621271908283,0,
00:00:04.928,-0.0175448283553123,0.00523937772959471,0.0097609581425786,0,
00:00:04.932,0.0321402922272682,0.00129990454297513,0.0036002704873681103,0,
00:00:04.936,0.0582424029707909,-0.0020674758125096603,0.00857718102633953,0,
00:00:04.94,-0.00278518442064524,0.00382047914899886,-0.0233696904033422,0,
00:00:04.944,-0.0834412425756454,-0.000493809289764613,0.008440498262643809,0,
00:00:04.948,0.0021705972030758897,-0.00153374904766679,0.00844664219766855,0,
00:00:04.952,0.0444894954562187,-0.00519803073257208,-0.0197341423481703,0,
00:00:04.956,-0.0172265507280827,0.00581821752712131,0.0388082787394524,0,
00:00:04.96,-0.0132066160440445,0.0037503857165575,-0.0115116313099861,0,
00:00:04.964,-0.00024003403086680897,-0.0027472614310681803,0.0067095123231411,0,
00:00:04.968,0.0356316231191158,-0.0072979968972504096,-0.0358795523643494,0,
00:00:04.972,0.0217733718454838,0.00265789125114679,0.007970115169882771,0,
00:00:04.976,-0.0506108067929745,0.00586343742907047,-0.00216027605347335,0,
00:00:04.98,-0.0203757174313068,0.00176688632927835,0.00590882450342178,0,
00:00:04.984,0.0492906495928764,-0.00206348858773708,0.0208158157765865,0,
00:00:04.988,-0.00153428746853024,-0.00947061087936163,-0.00212027248926461,0,
00:00:04.992,0.00681238528341055,0.00784491281956434,-0.00871274061501026,0,
00:00:04.996,-0.0291524082422256,-0.0056989444419741605,-0.000508777564391494,0,
00:00:05,-0.00937719736248255,0.00202745827846229,0.00022589699074160297,0,
00:00:05.004,-0.0243325773626566,0.00957986153662205,-0.0279717948287725,0,
00:00:05.008,0.0537373274564743,-0.0103607103228569,0.0115366140380502,0,
00:00:05.012,0.0123151270672679,0.0008339665946550669,0.000665262050461024,0,
00:00:05.016,-0.0687168091535568,0.00310983159579337,0.0619877502322197,0,
00:00:05.02,0.0499475486576557,-0.00245816190727055,-0.0338295511901379,0,
00:00:05.024,0.0487649999558926,0.0037085842341184603,-0.0225522294640541,0,
00:00:05.028,-0.0412638150155544,0.0040685934945941,-0.024733530357479997,0,
00:00:05.032,-0.0473299957811832,-0.0070565412752330295,0.0226651076227427,0,
00:00:05.036,0.0210060402750969,0.00618673674762249,0.0310469511896372,0,
00:00:05.04,0.0146886482834816,-0.00484788091853261,-0.0298189260065556,0,
00:00:05.044,-0.0422754883766174,-0.0107758548110723,0.0127445869147778,0,
00:00:05.048,0.00865561049431562,0.00300441076979041,-0.0035309384111315,0,
00:00:05.052,0.0565764605998993,0.00686272699385881,-0.00415508216246963,0,
00:00:05.056,0.0628611370921135,0.0111099071800709,-0.00886736530810595,0,
00:00:05.06,-0.0710384771227837,-0.00687025114893913,0.0348666608333588,0,
00:00:05.064,-0.0147372605279088,-0.00257586711086333,-0.0188226625323296,0,
00:00:05.068,-0.0921781733632088,0.00271160458214581,-0.0385876893997192,0,
00:00:05.072,0.0505433492362499,-0.00484300730749965,0.0463466159999371,0,
00:00:05.076,0.0739294737577438,-0.007722249254584309,0.0179892033338547,0,
00:00:05.08,-0.0325943343341351,0.00594132486730814,-0.028482573106884998,0,
00:00:05.084,0.014819297939539,0.00564024038612843,-0.0169186405837536,0,
00:00:05.088,0.00457588071003556,-0.00271789357066154,-0.00951300282031298,0,
00:00:05.092,-0.0365527234971523,-0.00406249240040779,0.0160803068429232,0,
00:00:05.096,0.0114646898582578,0.00446654064580798,0.0326693989336491,0,
00:00:05.1,0.0301620364189148,0.0033832807093858697,-0.0115035232156515,0,
00:00:05.104,-0.0404291078448296,-0.00204109796322882,-0.0325351990759373,0,
00:00:05.108,-0.00211205310188234,-0.000155161164002493,0.0257294066250324,0,
00:00:05.112,0.000891423725988716,-0.0007268490153364839,0.0017624483443796602,0,
00:00:05.116,0.00955064501613379,-0.00532143004238606,-0.007522296626120809,0,
00:00:05.12,0.0319717638194561,0.00304035795852542,-0.0108449505642056,0,
00:00:05.124,-0.0258519202470779,0.00302582466974854,0.0166158005595207,0,
00:00:05.128,-0.0276807993650436,0.00275774812325835,0.0022248113527894,0,
00:00:05.132,0.0229739584028721,-0.00307167577557266,-0.00032795371953398,0,
00:00:05.136,0.0113308038562536,-0.00525245675817132,-0.0173256061971188,0,
00:00:05.14,-0.016599714756012,-0.00126662803813815,0.00618273438885808,0,
00:00:05.144,0.0497802868485451,0.00223702122457325,-0.022399790585041,0,
00:00:05.148,-0.000693999463692307,0.00528568867594004,0.0454597249627113,0,
00:00:05.152,-0.0577678233385086,0.00433187140151858,0.008644239045679571,0,
00:00:05.156,-0.0260984487831593,-0.00102037633769214,-0.022087499499320998,0,
00:00:05.16,0.00847386009991169,-0.006227351259440179,-0.0371760912239552,0,
00:00:05.164,-0.00251648528501391,-0.0040317946113646,0.0234283916652203,0,
00:00:05.168,0.0515316240489483,-0.00438540847972035,0.0087820328772068,0,
00:00:05.172,0.0745917484164238,0.0020076073706150103,-0.0160523112863302,0,
00:00:05.176,-0.05729381367564199,0.00777896121144295,0.0302166491746902,0,
00:00:05.18,-0.0376493036746979,0.0072606126777827705,0.0163672603666782,0,
00:00:05.184,-0.00927840545773506,0.006845290306955579,-0.0441454946994781,0,
00:00:05.188,-0.0209213998168707,-0.0122104473412037,-0.0325425080955029,0,
00:00:05.192,0.0166688915342093,-0.0101291434839368,0.0836717113852501,0,
00:00:05.196,-0.0168076604604721,-8.68523929966614e-05,-0.010869637131691,0,
00:00:05.2,0.0463453717529774,0.0017951283371076,-0.0320335067808628,0,
00:00:05.204,0.0171402972191572,0.0058226482942700395,-0.0235873535275459,0,
00:00:05.208,-0.0303058493882418,-0.0004922016523778441,0.0326754450798035,0,
00:00:05.212,0.0610722973942757,0.00421418296173215,0.00163511955179274,0,
00:00:05.216,-0.0401102639734745,0.005555211100727321,-0.0295536983758211,0,
00:00:05.22,-0.0483235754072666,-0.00583732360973954,0.0170178879052401,0,
00:00:05.224,0.00175549217965454,-0.00637181522324681,0.00323639693669975,0,
00:00:05.228,0.0303381122648716,-0.0047365422360599,0.0349780060350895,0,
00:00:05.232,-0.0234360750764608,-0.00534144137054682,-0.0167422890663147,0,
00:00:05.236,0.0657650455832481,0.0184747744351625,-0.011242694221437,0,
00:00:05.24,-0.0331795215606689,0.0032988116145134,-0.0129946889355779,0,
00:00:05.244,-0.0266777463257313,-0.0038398134056478704,-0.029844731092453,0,
00:00:05.248,-0.0157975666224957,-0.00916129164397717,0.0288598388433456,0,
00:00:05.252,-0.0116186002269387,0.000909201335161924,0.038971871137619,0,
00:00:05.256,0.0988079607486725,0.00699360575526953,-0.0261011123657227,0,
00:00:05.26,0.0239772461354733,-0.00023875865736044903,-0.0281556434929371,0,
00:00:05.264,-0.104590594768524,-0.00937625486403704,0.0420010127127171,0,
00:00:05.268,-0.0114243673160672,-0.0030352792236954,0.010623705573379999,0,
00:00:05.272,0.0047675408422946895,0.00579230487346649,-0.0285212490707636,0,
00:00:05.276,-0.000215886553633027,0.00807456579059362,0.00217283307574689,0,
00:00:05.28,0.0620356351137161,0.0047314632683992395,-0.014965538866818,0,
00:00:05.284,0.0268410053104162,-0.00232367473654449,-0.0189325157552958,0,
00:00:05.288,-0.0413900539278984,-0.00791901722550392,0.035753458738327006,0,
00:00:05.292,-0.0275291353464127,-0.005151182878762479,0.0338376872241497,0,
00:00:05.296,-0.0192208476364613,-0.000483482843264937,-0.0322137251496315,0,
00:00:05.3,0.00239633861929178,0.0005310579435899849,-0.0168848037719727,0,
00:00:05.304,0.0262954868376255,-0.00100942165590823,0.000844796479213983,0,
00:00:05.308,0.0401116795837879,0.0117846857756376,0.007319146767258641,0,
00:00:05.312,-0.0241334829479456,0.00572021771222353,0.0439069718122482,0,
00:00:05.316,-0.015870176255703,-0.004620003513991829,-0.0701132342219353,0,
00:00:05.32,0.0211806707084179,-0.00856949668377638,-0.0195964090526104,0,
00:00:05.324,-0.0179740507155657,0.000106594496173784,0.0684128776192665,0,
00:00:05.328,-0.029021704569459,-0.00497283460572362,0.0304809026420116,0,
00:00:05.332,0.00892507564276457,0.0001268344494747,-0.0364529117941856,0,
00:00:05.336,0.00713820196688175,0.0106305442750454,-0.026956869289278998,0,
00:00:05.34,0.0255858115851879,-0.0031208291184157103,0.0205336175858974,0,
00:00:05.344,-0.00182675337418914,0.0038431109860539397,-0.0176300853490829,0,
00:00:05.348,-0.0194704011082649,0.00531493034213781,-0.0113442558795214,0,
00:00:05.352,0.030303755775094,-0.0104117095470428,0.0267735701054335,0,
00:00:05.356,-0.0044257715344429,-0.0048647210933268105,-0.0134141305461526,0,
00:00:05.36,-0.0196750089526176,0.00663647940382361,0.0225215032696724,0,
00:00:05.364,-0.0121034597977996,-0.00289874710142612,0.0123260067775846,0,
00:00:05.368,-0.0126150771975517,-0.00398984411731362,-0.0406314730644226,0,
00:00:05.372,0.00239739171229303,0.0071508917026221796,0.00894281920045614,0,
00:00:05.376,0.0835390686988831,0.0063996175304055205,-0.0018816121155396102,0,
00:00:05.38,-0.0657554641366005,-0.0069531309418380295,0.0334429293870926,0,
00:00:05.384,-0.0276205353438854,-0.0012269336730241802,-0.0340020023286343,0,
00:00:05.388,0.0652291551232338,-0.00639918493106961,0.0114105110988021,0,
00:00:05.392,0.0223985575139523,0.0036263759247958703,-0.00590696325525641,0,
00:00:05.396,-0.0539972484111786,0.00463930936530232,-0.0122293289750814,0,
00:00:05.4,-0.0577462241053581,0.0021302760578692,0.0199921149760485,0,
00:00:05.404,0.0150097506120801,0.00157488381955773,0.00130510213784873,0,
00:00:05.408,0.0400085039436817,-0.00584819028154016,-0.007650450337678191,0,
00:00:05.412,0.0183116961270571,0.000706363178323954,-0.0008218654547818009,0,
00:00:05.416,0.0101559273898602,0.0007150804740376769,0.0149471340700984,0,
00:00:05.42,0.00395021308213472,-0.00461944285780191,-0.00516323931515217,0,
00:00:05.424,-0.0347664691507816,0.0009222119115293029,-0.0149078378453851,0,
00:00:05.428,-0.0335159860551357,0.000484671560116112,0.0343672819435596,0,
00:00:05.432,0.0780873000621796,0.00596458278596401,-0.0493064038455486,0,
00:00:05.436,-0.0177695043385029,0.000200347873033024,-0.021673034876584996,0,
00:00:05.44,-0.0420301593840122,6.159675103845071e-05,0.0462093912065029,0,
00:00:05.444,-0.006536730099469421,-0.00394283700734377,0.039572861045599,0,
00:00:05.448,-0.00168101908639073,-0.00674281595274806,-0.0228152144700289,0,
00:00:05.452,0.0486262068152428,0.0017748436657711898,-0.0349421463906765,0,
00:00:05.456,0.00971162039786577,0.00880969874560833,-0.000524515984579921,0,
00:00:05.46,-0.0452109985053539,-0.000358691351721063,0.00493075186386704,0,
00:00:05.464,0.0440154261887074,0.00399830751121044,0.0157912820577621,0,
00:00:05.468,0.00648739747703075,-0.0114750452339649,0.0378351025283337,0,
00:00:05.472,-0.0629163607954979,-0.0011734742438420699,-0.0369143784046173,0,
00:00:05.476,0.007507448550313709,0.00530026573687792,-0.0277281552553177,0,
00:00:05.48,-0.0189194642007351,0.0035132905468344697,0.0117293111979961,0,
00:00:05.484,0.055095087736844996,0.000103302430943586,0.0204723458737135,0,
00:00:05.488,0.0041018221527338,0.000118319549073931,-0.0234872754663229,0,
00:00:05.492,-0.0362108275294304,-0.00620001927018166,0.0079672709107399,0,
00:00:05.496,0.0136898932978511,0.0012306470889598099,0.0346126891672611,0,
00:00:05.5,0.0408706478774548,-0.00258730608038604,-0.0333474837243557,0,
00:00:05.504,-0.0243378300219774,-0.00205423752777278,-0.0251695867627859,0,
00:00:05.508,-0.0515268445014954,0.0023367041721939997,0.0504253432154655,0,
00:00:05.512,0.0171968173235655,0.0126108350232244,0.0027541012968868,0,
00:00:05.516,0.0621111355721951,0.0036554038524627703,-0.0506391674280167,0,
00:00:05.52,-0.0245877578854561,-0.009488350711762909,0.0315293334424496,0,
00:00:05.524,-0.0345039367675781,-0.006229938473552471,0.018440205603838,0,
00:00:05.528,-0.006043697707355021,-0.00654101464897394,-0.0146150691434741,0,
00:00:05.532,-0.00323344860225916,0.000549117161426693,-0.0201076492667198,0,
00:00:05.536,0.0326427891850472,0.005395276471972471,-0.0102213714271784,0,
00:00:05.54,0.0643322020769119,0.0119700524955988,0.0126118399202824,0,
00:00:05.544,-0.0400937423110008,-0.000732810061890632,0.0080175194889307,0,
00:00:05.548,-0.0957675129175186,-0.00901928544044495,0.0169058404862881,0,
00:00:05.552,0.0669408738613129,0.001908915117383,0.0123952329158783,0,
00:00:05.556,-0.0169468633830547,-0.000309821625705808,-0.0301950313150883,0,
00:00:05.56,0.0276635531336069,-0.000732103013433516,0.000143638360896148,0,
00:00:05.564,0.0303953159600496,0.00175226642750204,-0.0113487197086215,0,
00:00:05.568,-0.0460517145693302,-0.00385919329710305,0.00520105194300413,0,
00:00:05.572,-0.0371785759925842,-0.00128558138385415,0.0128106316551566,0,
00:00:05.576,0.00596715696156025,0.0121692167595029,-0.0171459559351206,0,
00:00:05.58,0.0365113243460655,-0.00294033833779395,0.0215758681297302,0,
00:00:05.584,0.0158641487360001,-0.0123275341466069,6.77266734783188e-06,0,
00:00:05.588,-0.0127306720241904,-0.00391787849366665,0.0365074723958969,0,
00:00:05.592,0.0409870967268944,0.010776225477457,-0.0493199564516544,0,
00:00:05.596,0.00291772652417421,0.009652589447796341,-0.0341000407934189,0,
00:00:05.6,-0.0670323297381401,-0.00774472951889038,0.0121864108368754,0,
00:00:05.604,-0.0404354482889175,-0.0018610280239954602,0.0402187593281269,0,
00:00:05.608,0.0271382536739111,0.00205510412342846,-0.0038389840628951797,0,
00:00:05.612,0.0481693930923939,0.00030643338686786603,-0.0118665806949139,0,
00:00:05.616,-0.0301704183220863,-0.007745236624032259,0.0167787559330463,0,
00:00:05.62,0.0545570738613606,0.00410538865253329,-0.0184995513409376,0,
00:00:05.624,0.00631464412435889,0.00396165251731873,0.00545456958934665,0,
00:00:05.628,-0.0427689999341965,0.00068058812757954,-0.0106402263045311,0,
00:00:05.632,-0.0442744120955467,-0.00582184316590428,0.0095960758626461,0,
00:00:05.636,0.00867014843970537,-0.00024087689234875096,0.0065176603384316,0,
00:00:05.64,0.0255683548748493,-0.00013887726527173102,-0.000912094255909324,0,
00:00:05.644,-0.00298358616419137,0.00589320482686162,0.00541590387001634,0,
00:00:05.648,-0.00945233833044767,0.006678206846117971,-0.0415119864046574,0,
00:00:05.652,0.0797251015901566,-0.00763025972992182,0.0113607654348016,0,
00:00:05.656,-0.00350073166191578,-0.0108455661684275,0.0293571706861258,0,
00:00:05.66,-0.0945854857563972,0.00251391576603055,-0.004361725412309171,0,
00:00:05.664,-0.0136597072705626,0.00582040939480066,0.00117001018952578,0,
00:00:05.668,0.0707149654626846,0.0018869366031140102,0.0236011203378439,0,
00:00:05.672,-0.0177039615809917,0.00484350463375449,-0.0441202521324158,0,
00:00:05.676,-0.0464198812842369,0.0023660454899072604,-0.00988307781517506,0,
00:00:05.68,0.0465440899133682,-0.0054399031214416,-0.00370320002548397,0,
00:00:05.684,0.0684135407209396,-0.007807980757206679,0.0394125916063786,0,
00:00:05.688,-0.0335460714995861,-0.00268542068079114,0.0171291884034872,0,
00:00:05.692,-0.0525506921112537,0.000160304771270603,-0.0204163063317537,0,
00:00:05.696,-0.0254445020109415,0.0040329503826797,-0.0129824066534638,0,
00:00:05.7,-0.0134233925491571,0.0131201492622495,-0.0285208914428949,0,
00:00:05.704,0.0324852354824543,-0.00498289568349719,0.0240625012665987,0,
00:00:05.708,0.0326095670461655,-0.000100309494882822,0.0196212790906429,0,
00:00:05.712,0.0413295812904835,-0.0103542990982533,0.00225294241681695,0,
00:00:05.716,-0.0187916960567236,0.0024094858672469898,-0.0130917197093368,0,
00:00:05.72,-0.0331780798733234,0.00175006478093565,0.00820259656757116,0,
00:00:05.724,0.0050712353549897705,0.00351333781145513,-0.0138769308105111,0,
00:00:05.728,-0.01507583912462,-0.00315670110285282,-0.0187847577035427,0,
00:00:05.732,-0.0221911575645208,0.00472129182890058,0.0222068373113871,0,
00:00:05.736,-0.0363380834460258,-0.00483001582324505,0.0141776036471128,0,
00:00:05.74,0.0453072041273117,-0.0049157170578837395,-0.0185021851211786,0,
00:00:05.744,0.0779310092329979,0.009163669310510159,-0.008874526247382159,0,
00:00:05.748,0.0486013256013393,0.00266581075266004,0.0448252409696579,0,
00:00:05.752,-0.0805461779236794,-0.00217243540100753,-0.0223468896001577,0,
00:00:05.756,-0.0853254571557045,-0.00776987196877599,-0.0207490343600512,0,
00:00:05.76,0.0470013245940208,-0.00480810785666108,0.00791249144822359,0,
00:00:05.764,-0.011117234826088,0.0148653788492084,-0.000101235214970075,0,
00:00:05.768,0.0296287816017866,0.000299802719382569,0.0009882136946544051,0,
00:00:05.772,-0.0140503700822592,-0.00667006382718682,0.0173613447695971,0,
00:00:05.776,-0.0110555542632937,-0.0061022550798952606,-0.0109696993604302,0,
00:00:05.78,0.0382572002708912,0.00221365387551486,-0.0183713473379612,0,
00:00:05.784,-0.00957738794386387,0.008439300581812859,0.0022534830495715102,0,
00:00:05.788,0.0152121325954795,-0.007292624562978741,0.0151281431317329,0,
00:00:05.792,0.009613204747438429,0.00734230084344745,0.0222111213952303,0,
00:00:05.796,-0.0270846579223871,-0.0005051234038546679,0.0238924995064735,0,
00:00:05.8,-0.0226577632129192,-0.0026929525192827,-0.0717610418796539,0,
00:00:05.804,-0.0138428816571832,-0.00410803314298391,-0.0220053307712078,0,
00:00:05.808,0.0241295415908098,-0.0006655416800640519,0.0302102342247963,0,
00:00:05.812,-0.0181189998984337,0.00831382628530264,0.026510464027523998,0,
00:00:05.816,0.0164608284831047,-0.00328591396100819,0.0012737144716084,0,
00:00:05.82,0.0753376856446266,-0.0054166950285434706,0.0176818929612637,0,
00:00:05.824,-0.0428065732121468,0.00570068834349513,-0.0199381839483976,0,
00:00:05.828,-0.0451127141714096,-0.00276994775049388,-0.0302346888929605,0,
00:00:05.832,0.0452873110771179,0.00700619863346219,0.00506281340494752,0,
00:00:05.836,-0.0460769236087799,0.0017932541668415102,0.0211425255984068,0,
00:00:05.84,-0.00817958172410727,-0.00799705274403095,-0.0202602129429579,0,
00:00:05.844,0.0430589281022549,-0.00553411478176713,0.018836073577403998,0,
00:00:05.848,-0.00517412135377526,-0.008581343106925491,0.0128951342776418,0,
00:00:05.852,-0.0383420586585999,0.0110306823626161,-0.00200478686019778,0,
00:00:05.856,0.0135010024532676,0.0143653359264135,-0.0353600531816483,0,
00:00:05.86,0.0428876169025898,-0.00310326204635203,0.0198257714509964,0,
00:00:05.864,0.0232868995517492,-0.000220152083784342,-0.0116979107260704,0,
00:00:05.868,-0.0385099798440933,-0.00985728856176138,0.0200606640428305,0,
00:00:05.872,-0.0547057092189789,-0.00749966315925121,0.0454418882727623,0,
00:00:05.876,0.0461694449186325,0.0071806856431067,-0.0677202194929123,0,
00:00:05.88,-0.020537368953228,0.00215588579885662,-0.0162793435156345,0,
00:00:05.884,0.00537817040458322,0.00530281942337751,-0.0293141640722752,0,
00:00:05.888,0.0651854276657104,-0.00103285384830087,0.0749518647789955,0,
00:00:05.892,-0.0147725017741323,-0.0007621562108397481,0.0314115360379219,0,
00:00:05.896,-0.0396160371601582,-0.0020209918729960897,-0.0405246615409851,0,
00:00:05.9,-0.0389342866837978,-0.00631826650351286,-0.0098576508462429,0,
00:00:05.904,-0.00409722654148936,-0.00345306703820825,0.00480413669720292,0,
00:00:05.908,0.0467186383903027,0.00931004527956247,0.00045515625970438096,0,
00:00:05.912,0.0281786415725946,0.00622246041893959,-0.00821677502244711,0,
00:00:05.916,-0.0264036729931831,-0.0021193150896579,0.0060695293359458394,0,
00:00:05.92,0.0307473298162222,-0.00391081953421235,-0.00384684605523944,0,
00:00:05.924,-0.00949274189770222,-0.00254060979932547,0.00974055752158165,0,
00:00:05.928,-0.0547775961458683,-0.0046304562129080296,0.0100350305438042,0,
00:00:05.932,-0.0298237223178148,0.0048680268228054,-0.028178621083497998,0,
00:00:05.936,0.0490792989730835,0.006648154929280279,-0.00995352678000927,0,
00:00:05.94,0.0495033487677574,0.00343946041539311,0.0297762751579285,0,
00:00:05.944,0.0114929787814617,-0.0049319826066494,0.0061376178637147,0,
00:00:05.948,-0.0439856052398682,-0.0118766408413649,-0.0006795518565922981,0,
00:00:05.952,-0.0333297364413738,0.00317758065648377,-0.00676934979856014,0,
00:00:05.956,-0.0366809740662575,-0.000838082458358258,0.00279710371978581,0,
00:00:05.96,0.16620072722435,0.0107726808637381,-0.0371129289269447,0,
00:00:05.964,-0.0917883962392807,-0.00140045478474349,-0.00334953609853983,0,
00:00:05.968,-0.0368558652698994,0.0011255298741161802,0.0375877134501934,0,
00:00:05.972,-0.0165105555206537,-0.00318203610368073,0.0246957279741764,0,
00:00:05.976,-0.00152204651385546,-0.0028022583574056604,-0.00599676324054599,0,
00:00:05.98,0.056207574903964996,0.00326134939678013,-0.025840999558567997,0,
00:00:05.984,0.0413725450634956,-0.0074025117792189095,-0.0150597924366593,0,
00:00:05.988,-0.00741287833079696,-0.000109982116555329,0.0191800221800804,0,
00:00:05.992,-0.0741895288228989,0.00802624877542257,-0.0146776009351015,0,
00:00:05.996,-0.0116332303732634,0.0062704524025321,0.00718377809971571,0,
00:00:06,0.0517449527978897,-0.00520111294463277,0.0130713554099202,0,
00:00:06.004,-0.00645656418055296,-0.007605103310197591,-0.02537502348423,0,
00:00:06.008,0.0083819916471839,-0.00214956933632493,0.0249110236763954,0,
00:00:06.012,0.0191859360784292,0.00678432732820511,0.0157102439552546,0,
00:00:06.016,-0.0357460826635361,0.00428725779056549,0.0020883763208985303,0,
00:00:06.02,-0.0326491370797157,-0.00024218394537456298,-0.0371125601232052,0,
00:00:06.024,-0.007891402579844,-0.00902825221419334,-0.0085821058601141,0,
00:00:06.028,0.0861247256398201,-0.00313153979368508,0.004671976901590821,0,
00:00:06.032,-0.0499198772013187,0.009459433145821091,0.0188966821879148,0,
00:00:06.036,0.0154003156349063,0.00358164589852095,-0.00701314583420753,0,
00:00:06.04,0.0403822921216488,-0.000968118838500232,0.0116623668000102,0,
00:00:06.044,-0.0230306163430214,-0.0028416917193681,-0.00714568188413978,0,
00:00:06.048,-0.0655639842152596,-0.00040526126394979705,-0.000501075061038136,0,
00:00:06.052,-0.0104201771318913,-0.00720437662675977,0.00350099452771246,0,
00:00:06.056,0.0179506838321686,0.000499263755045831,0.00719485664740205,0,
00:00:06.06,0.0678922533988953,0.00812137126922607,-0.00154018600005656,0,
00:00:06.064,-0.00145137740764767,0.00805683340877295,-0.0219041146337986,0,
00:00:06.068,-0.0212641842663288,-0.009569608606398109,-0.00365057657472789,0,
00:00:06.072,-0.0108842654153705,-0.007394756656140091,0.0203334372490644,0,
00:00:06.076,-0.0201920606195927,-0.000590773008298129,0.012756627984345,0,
00:00:06.08,0.00790549721568823,0.0121639668941498,-0.00713966926559806,0,
00:00:06.084,0.0061512291431427,-0.00135471415705979,-0.0321083329617977,0,
00:00:06.088,0.043871708214282996,-0.00390910869464278,0.00657746428623796,0,
00:00:06.092,-0.0164071768522263,-0.00214427732862532,0.00929769314825535,0,
00:00:06.096,-0.0566684193909168,0.00222145137377083,0.0242639798671007,0,
00:00:06.1,-0.00875244475901127,-0.004759444389492271,0.0211945772171021,0,
00:00:06.104,0.0429185777902603,0.00367834628559649,-0.0301536843180656,0,
00:00:06.108,-0.0170244462788105,0.0100179761648178,-0.0456777065992355,0,
00:00:06.112,0.048605103045702,-0.00480091571807861,0.00441994704306126,0,
00:00:06.116,0.0597867965698242,-0.00609830534085631,0.033585499972105,0,
00:00:06.12,-0.0524503253400326,0.00370461842976511,0.018507469445467,0,
00:00:06.124,-0.0817952081561089,-0.00701310904696584,0.00213276804424822,0,
00:00:06.128,-0.0450978726148605,-0.0024945221375674,-0.0310065634548664,0,
00:00:06.132,0.040495689958334004,0.0073569891974329905,0.00489003024995327,0,
00:00:06.136,0.0507968030869961,0.00746189150959253,0.0123855676501989,0,
00:00:06.14,0.0111793410032988,-0.00552075961604714,-0.008177474141120909,0,
00:00:06.144,0.0479222722351551,-0.00651233876124024,-0.0067437794059515,0,
00:00:06.148,-0.0395451970398426,0.0058494838885963,0.00821849424391985,0,
00:00:06.152,-0.00322191673330963,0.00621945550665259,0.00046819553244859,0,
00:00:06.156,-0.0368190370500088,-0.0024021309800446,-0.0204532239586115,0,
00:00:06.16,-0.0112521601840854,-0.015092559158802,0.0123028457164764,0,
00:00:06.164,0.00801047310233116,0.000438354967627674,0.0538525469601154,0,
00:00:06.168,0.0149755971506238,0.0176935587078333,-0.0550355762243271,0,
00:00:06.172,0.0223454795777798,0.00110975431744009,-0.00862815696746111,0,
00:00:06.176,-0.019727224484086002,-0.00515056448057294,0.0183414276689291,0,
00:00:06.18,-0.0086286524310708,-0.00503523461520672,-0.0029190152417868397,0,
00:00:06.184,-0.0114967282861471,-0.00228949682787061,-0.006051688455045221,0,
00:00:06.188,0.0922839120030403,0.00040788756450638197,-0.01021483913064,0,
00:00:06.192,0.021310294046998,0.00801807921379805,-0.0020225984044373,0,
00:00:06.196,-0.13625036180019398,-0.0103647597134113,0.0622142627835274,0,
00:00:06.2,-0.0453481450676918,0.00198596413247287,0.0118768494576216,0,
00:00:06.204,0.035952489823103,0.0044683013111352895,-0.0801154300570488,0,
00:00:06.208,0.080965057015419,0.0025568366982042802,-0.0207937136292458,0,
00:00:06.212,-0.00924333836883307,0.00200227438472211,0.0375614836812019,0,
00:00:06.216,-0.00110223842784762,-0.00360037153586745,0.0219279285520315,0,
00:00:06.22,0.0567762479186058,-0.00342322164215148,-0.0113013023510575,0,
00:00:06.224,-0.049019780009985,-0.00330258347094059,0.00180414109490812,0,
00:00:06.228,-0.0613980144262314,0.0068380092270672295,-0.0172489415854216,0,
00:00:06.232,0.00285836262628436,-0.000796790351159871,0.0305698569864035,0,
00:00:06.236,0.0108322678133845,-0.00390491122379899,-0.0127285476773977,0,
00:00:06.24,0.016854565590620003,-0.000746064935810864,0.0159820672124624,0,
00:00:06.244,0.0103650633245707,0.00829146057367325,-0.0380239635705948,0,
00:00:06.248,-0.00586310448125005,0.0008773806039243941,0.0281477328389883,0,
00:00:06.252,0.02425248734653,-0.0073160813190043,-0.0345705151557922,0,
00:00:06.256,-0.00836020428687334,-0.00171323854010552,0.00739866960793734,0,
00:00:06.26,0.0215132478624582,0.00333259720355272,0.0124477203935385,0,
00:00:06.264,-0.0141965886577964,0.0020661849994212398,0.00602457346394658,0,
00:00:06.268,-0.0410739220678806,-0.008510027080774309,0.0142864184454083,0,
00:00:06.272,-0.000615018303506076,0.00858093053102493,0.00825156923383474,0,
