Elapsed Time,EMG1,EMG2,EMG3,BioRadio Event,Unnamed: 5
00:00:00,0.633112907409668,1.19564938545227,6.4266152381897,0,
00:00:00.004,-0.587942898273468,-1.12948262691498,-6.12805271148682,0,
00:00:00.008,-0.525029242038727,-0.957869589328766,-5.07191324234009,0,
00:00:00.012,-0.0680690929293633,-0.110819011926651,-0.523728311061859,0,
00:00:00.016,0.28623598814010603,0.49806886911392206,2.59841871261597,0,
00:00:00.02,0.330566942691803,0.602844417095184,3.15887403488159,0,
00:00:00.024,0.174125701189041,0.35695111751556396,1.94090306758881,0,
00:00:00.028,0.0119073120877147,0.0376230776309967,0.266066044569016,0,
00:00:00.032,-0.0898847430944443,-0.174257010221481,-0.921009123325348,0,
00:00:00.036,-0.12786701321601898,-0.234634086489677,-1.2635706663131698,0,
00:00:00.04,-0.0830008238554001,-0.162714555859566,-0.9352377653121949,0,
00:00:00.044,-0.0333973579108715,-0.0694430023431778,-0.35871058702468894,0,
00:00:00.048,0.0294590480625629,0.0258587431162596,0.163928836584091,0,
00:00:00.052,0.0322333946824074,0.0657684281468391,0.34597244858741805,0,
00:00:00.056,0.0194012280553579,0.062487967312335996,0.34058403968810996,0,
00:00:00.06,0.0140494396910071,0.0341701246798038,0.18612457811832397,0,
00:00:00.064,-0.00637039076536894,0.00295922486111522,-0.00106130412314087,0,
00:00:00.068,-0.0030799941159784803,-0.0166397336870432,-0.0846070423722267,0,
00:00:00.072,0.0159377083182335,-0.0251789521425962,-0.0975561141967773,0,
00:00:00.076,-0.0224853567779064,-0.00443172594532371,-0.0921784266829491,0,
00:00:00.08,-0.0147103937342763,-0.00724965846166015,-0.0440638586878777,0,
00:00:00.084,0.005474371369928121,0.0048631569370627395,0.0226251501590014,0,
00:00:00.088,-6.70841836836189e-05,-0.00589891383424401,0.0495415739715099,0,
00:00:00.092,0.00614021206274629,0.0029318705201149,0.0436981730163097,0,
00:00:00.096,0.00439111795276403,0.005023694131523371,0.0134682198986411,0,
00:00:00.1,0.007291330490261321,0.0141651621088386,-0.00673152273520827,0,
00:00:00.104,0.00335808889940381,0.00415204698219895,-0.0275331009179354,0,
00:00:00.108,0.00645576324313879,-0.00573637383058667,-0.0143074188381433,0,
00:00:00.112,-0.0272739436477423,-0.0193545743823051,0.0122865308076143,0,
00:00:00.116,-0.00589295011013746,0.0034395069815218397,-0.004425980150699621,0,
00:00:00.12,0.00955824553966522,0.00029329495737329104,0.00640272628515959,0,
00:00:00.124,-6.0832073359051706e-05,0.00271110446192324,-0.00459953397512436,0,
00:00:00.128,0.00616108346730471,0.0144046191126108,0.0152205238118768,0,
00:00:00.132,0.00230509508401155,-0.0109986141324043,-0.0108044920489192,0,
00:00:00.136,0.00867435522377491,0.0007658659014850849,-0.0130911888554692,0,
00:00:00.14,-0.00863343570381403,-0.00254862196743488,0.0139015726745129,0,
00:00:00.144,-0.00360776833258569,0.00362408743239939,0.00268913991749287,0,
00:00:00.148,0.000463970500277355,0.00378622836433351,-0.00608204491436481,0,
00:00:00.152,-0.00860538054257631,-0.0030898752156645103,-0.000658685807138681,0,
00:00:00.156,0.000590041861869395,-0.0101314717903733,0.0038987568113952897,0,
00:00:00.16,0.00959288887679577,-0.00012241333024576298,0.00201062904670835,0,
00:00:00.164,-0.00483723543584347,0.011341474018991,-0.0048523866571486,0,
00:00:00.168,0.0155338207259774,-0.00274513405747712,-0.00635391334071755,0,
00:00:00.172,-0.00166200404055417,-0.0024397661909461,0.0260424595326185,0,
00:00:00.176,-0.00592575594782829,0.0151758277788758,-0.019969092682004,0,
00:00:00.18,-0.0149680003523827,-0.00750155979767442,-0.008094831369817259,0,
00:00:00.184,-0.0064860880374908395,-0.017879132181406004,0.0102740293368697,0,
00:00:00.188,0.0181672051548958,0.00807020720094442,0.004445628728717571,0,
00:00:00.192,0.0133189829066396,0.0125316986814141,-0.00106565351597965,0,
00:00:00.196,-0.0175846610218287,-0.008422601968050001,-0.0157964900135994,0,
00:00:00.2,0.000184957418241538,-0.00467959046363831,-0.00128406030125916,0,
00:00:00.204,-0.000720521144103259,0.00013913116708863502,0.0167411547154188,0,
00:00:00.208,0.00342844007536769,0.000663434388116002,0.0265137627720833,0,
00:00:00.212,0.00665856385603547,0.00477766105905175,-0.0252662878483534,0,
00:00:00.216,-0.007793662603944541,0.00513814762234688,-0.0167434550821781,0,
00:00:00.22,-0.00469292094931006,0.00222630426287651,-0.0086609972640872,0,
00:00:00.224,0.0074239890091121205,-0.0137068247422576,0.0209727063775063,0,
00:00:00.228,0.0023452788591384896,0.00027471914654597597,0.0180017221719027,0,
00:00:00.232,-0.00321187381632626,0.0040395432151854,-0.00632451381534338,0,
00:00:00.236,0.00590700609609485,0.0050537958741188,-0.0119538074359298,0,
00:00:00.24,-0.0122637907043099,-0.00337104639038444,-0.0201961733400822,0,
00:00:00.244,0.00269314483739436,0.0014417406637221599,0.00446427846327424,0,
00:00:00.248,0.0123909208923578,0.00428124284371734,0.0129119493067265,0,
00:00:00.252,-0.0127857951447368,-0.007567730732262129,0.0206045601516962,0,
00:00:00.256,-0.0120771732181311,-0.00520861661061645,-0.00655898870900273,0,
00:00:00.26,0.0143777318298817,-0.0039500999264419105,-0.0107329189777374,0,
00:00:00.264,0.0109981577843428,0.00954719912260771,0.0086681330576539,0,
00:00:00.268,-0.0034150315914303103,0.00507074641063809,-0.0139131210744381,0,
00:00:00.272,-0.0164873208850622,0.0007770548108965161,-0.0125587666407228,0,
00:00:00.276,0.0103660393506289,-0.00183303037192672,0.00809528678655624,0,
00:00:00.28,0.0101155154407024,0.00582755450159311,0.0193821731954813,0,
00:00:00.284,-0.0108221005648375,-0.0200347974896431,-0.00811118725687265,0,
00:00:00.288,0.000620018457993865,0.00688877189531922,0.00134225573856384,0,
00:00:00.292,-0.00338489026762545,0.00599309988319874,0.00272701610811055,0,
00:00:00.296,-0.00542051717638969,-0.00440013175830245,-0.00578491762280464,0,
00:00:00.3,0.00534419203177094,0.00665905419737101,-0.00645093526691198,0,
00:00:00.304,-0.00463325111195445,-0.00145854381844401,0.0118521731346846,0,
00:00:00.308,0.0204622913151979,-0.00287800002843142,-0.00816609337925911,0,
00:00:00.312,0.00552487839013338,-0.00157079251948744,-0.00962977763265371,0,
00:00:00.316,-0.0223958715796471,-0.00201081647537649,0.00336190452799201,0,
00:00:00.32,9.211860742652789e-06,0.005017436575144529,0.024975435808301003,0,
00:00:00.324,0.00553162349388003,0.00482799159362912,-0.000931575545109808,0,
00:00:00.328,-0.0069369627162814106,-0.0027936892583966303,-0.0232512932270765,0,
00:00:00.332,0.00346796587109566,-0.00834829732775688,0.00017215234402101498,0,
00:00:00.336,-0.00277802534401417,-0.00468675885349512,0.0100979320704937,0,
00:00:00.34,-0.00577923003584147,0.0112569136545062,-0.00808148644864559,0,
00:00:00.344,0.0155873419716954,0.00684442557394505,0.0074839610606432,0,
00:00:00.348,0.00673035532236099,-0.0113563155755401,0.00695613352581859,0,
00:00:00.352,-0.00869930721819401,0.00261775101535022,-0.00926370546221733,0,
00:00:00.356,-0.00480363657698035,0.00109020236413926,-0.00618548970669508,0,
00:00:00.36,0.00939606316387653,0.00423115398734808,0.0088486997410655,0,
00:00:00.364,-0.0024324068799614898,-0.0043276636861264706,0.0005958955734968191,0,
00:00:00.368,-0.014522192068398,-0.0036946535110473602,-0.00209046248346567,0,
00:00:00.372,-0.00897969212383032,-0.0005819747457280759,-0.00594463897868991,0,
00:00:00.376,0.0176669973880053,0.0058209071867168,-0.000722614990081638,0,
00:00:00.38,0.0147000765427947,-0.0017802644288167399,-0.000548699521459639,0,
00:00:00.384,-0.00961682014167309,-0.00188171514309943,0.0290433801710606,0,
00:00:00.388,-0.0110098188742995,-0.00217182422056794,-0.0160835664719343,0,
00:00:00.392,0.0147140901535749,0.0030848507303744602,-0.007891712710261341,0,
00:00:00.396,-0.00886102486401796,0.00700534554198384,-0.0114888437092304,0,
00:00:00.4,0.00137102440930903,-0.00523813627660275,-0.0004983668914064769,0,
00:00:00.404,0.000954484392423183,-0.0022503996733576103,0.0160822402685881,0,
00:00:00.408,-0.007364975754171609,0.00180974486283958,0.007228502072393891,0,
00:00:00.412,-7.43048512958921e-05,-0.00339651014655828,0.000840162974782288,0,
00:00:00.416,-0.000551669043488801,0.0010930816642939999,-0.0113980323076248,0,
00:00:00.42,0.007648938335478309,0.00397971831262112,-0.00267490441910923,0,
00:00:00.424,0.007216890342533591,-0.00298440083861351,0.000688535568770021,0,
00:00:00.428,0.000273473211564124,0.00446574529632926,-0.000616136763710529,0,
00:00:00.432,-0.00667430507019162,-0.00106782931834459,-0.00519805820658803,0,
00:00:00.436,-0.0116115063428879,-0.0049683293327689206,0.00798432715237141,0,
00:00:00.44,0.00230179890058935,-0.00432322267442942,0.0170528888702393,0,
00:00:00.444,0.0146153066307306,0.0050987056456506296,-0.00866976287215948,0,
00:00:00.448,0.0029616106767207397,0.0022051262203604,-0.0131742060184479,0,
00:00:00.452,-0.0133701246231794,0.00277671637013555,-0.00495399115607142,0,
00:00:00.456,-0.005103210452944039,0.0020335991866886603,-0.00321589270606637,0,
00:00:00.46,0.00626112334430218,-0.0123492050915956,0.022431306540966003,0,
00:00:00.464,0.000994065892882645,0.0039774370379746,0.0040625906549394105,0,
00:00:00.468,0.0028026835061609697,0.000980782439000905,-0.00371906883083284,0,
00:00:00.472,-0.00297358562238514,0.00343516399152577,-0.0137321604415774,0,
00:00:00.476,0.0115338880568743,0.00374110043048859,-0.00652373861521482,0,
00:00:00.48,-0.00827512145042419,-0.000495712913107127,0.000180470975465141,0,
00:00:00.484,-0.00975268054753542,-0.009498622268438341,0.0249637216329575,0,
00:00:00.488,0.0005282382480800151,0.0005371488514356321,-0.00853905733674765,0,
00:00:00.492,0.0152023723348975,0.00525954365730286,-0.0168017745018005,0,
00:00:00.496,-0.00958613213151693,-0.0017340767662972199,0.0153497559949756,0,
00:00:00.5,0.00803213659673929,0.007114065811038021,-0.00155118817929178,0,
00:00:00.504,0.00234259688295424,-0.0030985998455435,-0.0081821009516716,0,
00:00:00.508,-0.0215731244534254,-0.00904445350170136,0.00239529437385499,0,
00:00:00.512,-0.00566960964351892,-0.00494920229539275,0.00843808893114328,0,
00:00:00.516,0.0122884986922145,0.00731033040210605,-0.00577950244769454,0,
00:00:00.52,0.0184257552027702,0.00911797862499952,0.006708443630486729,0,
00:00:00.524,0.00313617731444538,0.0066832457669079295,-0.0108425682410598,0,
00:00:00.528,-0.0150747904554009,-0.00711072608828545,0.00339275412261486,0,
00:00:00.532,0.0010529569117352401,-0.0186272617429495,0.0017926919972524,0,
00:00:00.536,0.00296382117085159,-0.000273178622592241,0.000511063088197261,0,
00:00:00.54,-0.0184552390128374,0.021076736971736,-0.000248291762545705,0,
00:00:00.544,0.00936530996114016,-0.00109845120459795,0.0181880667805672,0,
00:00:00.548,0.00968765094876289,-0.0014657500432804199,-0.028547503054142002,0,
00:00:00.552,-0.008083594962954521,-0.00313408812507987,-0.00297811557538807,0,
00:00:00.556,-0.0018094020197168,-0.0115066850557923,-0.0036073862574994603,0,
00:00:00.56,0.00507397670298815,0.00403344538062811,0.0148795722052455,0,
00:00:00.564,0.0102769946679473,0.0105894738808274,0.0136428736150265,0,
00:00:00.568,-0.00109980860725045,-0.00263102957978845,0.0126410676166415,0,
00:00:00.572,-0.00866939872503281,0.000536008214112371,-0.0203284341841936,0,
00:00:00.576,-0.00835975538939238,-0.0008322093053720889,-0.0167676042765379,0,
00:00:00.58,0.0070081786252558205,-0.00406917836517096,-0.00334214279428124,0,
00:00:00.584,-0.0017954249633476101,0.00226643704809248,0.00854171998798847,0,
00:00:00.588,-0.0116058187559247,-0.00934242364019156,0.00905798561871052,0,
00:00:00.592,0.0131029253825545,0.0026753526180982603,0.00864259898662567,0,
00:00:00.596,0.0168268252164125,0.0125414254143834,-0.0105379531159997,0,
00:00:00.6,-0.0151154706254601,0.0027751352172344897,0.00374710466712713,0,
00:00:00.604,0.0121000539511442,-0.00371162593364716,-0.00263450364582241,0,
00:00:00.608,-0.0168896913528442,-0.00532923918217421,0.0136070121079683,0,
00:00:00.612,-0.012803346849978,-0.005636234767735,-0.0273049231618643,0,
00:00:00.616,0.0121873058378696,-0.00707525527104735,-0.0108949346467853,0,
00:00:00.62,0.0046760025434196,0.0129645587876439,0.0265115946531296,0,
00:00:00.624,0.0021716700866818398,0.000591124757193029,0.00970050878822804,0,
00:00:00.628,0.0029064733535051302,0.00160005723591894,-0.0131295062601566,0,
00:00:00.632,-0.00221962691284716,0.000809809193015099,0.00440285261720419,0,
00:00:00.636,0.00156258861534297,0.007846084423363209,-0.00214030011557043,0,
00:00:00.64,-0.00525340996682644,-0.0050033060833811795,-0.00951325334608555,0,
00:00:00.644,0.000847775721922517,-0.007670383434742691,-0.0020679356530308697,0,
00:00:00.648,-0.00575487082824111,-0.00876762345433235,0.008955217897892,0,
00:00:00.652,0.0072434493340551905,-0.000477198598673567,0.0149908056482673,0,
00:00:00.656,0.00395821081474423,0.00775203667581081,-0.00898540578782558,0,
00:00:00.66,-0.00154425913933665,0.0109080327674747,-0.00967536494135857,0,
00:00:00.664,-0.0102553991600871,0.0005443980335257951,-0.0030984990298748,0,
00:00:00.668,0.00058656552573666,-0.00869521591812372,0.0107715772464871,0,
00:00:00.672,-0.0127764446660876,-0.00299669429659843,-0.00144955073483288,0,
00:00:00.676,0.0209736414253712,-0.0015130068641156,0.00510239833965898,0,
00:00:00.68,0.0164086669683456,0.00799954123795033,-0.0154064241796732,0,
00:00:00.684,-0.00263688201084733,0.0034426534548401802,0.00215859594754875,0,
00:00:00.688,-0.0133780380710959,-0.0105465371161699,0.00169192964676768,0,
00:00:00.692,-0.0207730811089277,-0.00695524970069528,0.00959715805947781,0,
00:00:00.696,0.00484923599287868,0.0130449878051877,-0.000497500121127814,0,
00:00:00.7,0.0152388513088226,0.0100682051852345,-0.0010491576977074099,0,
00:00:00.704,-0.0005112488288432361,-0.00953148305416107,-0.00847685430198908,0,
00:00:00.708,-0.00182648783084005,-0.0124144656583667,0.0015973721165210002,0,
00:00:00.712,0.0105609595775604,0.0107398927211761,0.00775030767545104,0,
00:00:00.716,-0.00854636821895838,-0.005434872582554821,-0.00393970217555761,0,
00:00:00.72,-0.0051066791638732,0.00837112963199615,-0.0116752674803138,0,
00:00:00.724,0.0034050142858177397,-0.000168721016962081,0.0203310362994671,0,
00:00:00.728,0.0103783085942268,-0.00274811312556267,0.00507590966299176,0,
00:00:00.732,-0.0127920703962445,0.001947101787664,-0.0107550006359816,0,
00:00:00.736,-0.0129202445968986,-0.00671492144465446,-0.0180855635553598,0,
00:00:00.74,-0.0035366017837077397,-0.0028627328574657397,0.0068899979814887,0,
00:00:00.744,0.0197067745029926,0.006313023157417771,0.00512714916840196,0,
00:00:00.748,0.0363802947103977,0.0106179071590304,-0.00246743741445243,0,
00:00:00.752,-0.0209621135145426,-0.0182183999568224,0.00572981406003237,0,
00:00:00.756,-0.03178492560982701,0.0024124188348650898,0.0214616023004055,0,
00:00:00.76,-0.006857307627797129,0.0127600692212582,-0.0169399604201317,0,
00:00:00.764,0.00462035089731216,-0.006413155235350129,-0.007145853713154791,0,
00:00:00.768,0.0228180810809135,0.000861074891872704,-0.00683966279029846,0,
00:00:00.772,0.0121414195746183,-0.00374333956278861,-0.00655088294297457,0,
00:00:00.776,-0.0105616925284266,-0.00142145866993815,0.00827254168689251,0,
00:00:00.78,-0.00806902162730694,0.0158798489719629,0.0183727629482746,0,
00:00:00.784,-0.0030356179922819103,-0.0156390387564898,-0.000508616503793746,0,
00:00:00.788,0.00293214269913733,-0.00793121103197336,-0.013014686293899999,0,
00:00:00.792,0.0108259506523609,0.0106392540037632,0.00832159444689751,0,
00:00:00.796,-0.0156739111989737,0.0013155080378055599,-0.00124094297643751,0,
00:00:00.8,0.00046723536797799197,-0.00236486527137458,-0.013454313389956998,0,
00:00:00.804,0.0150760402902961,0.0104050245136023,-0.000443025957792997,0,
00:00:00.808,-0.0065019065514206895,-0.00168764207046479,0.00519947428256273,0,
00:00:00.812,-0.0137464143335819,-0.0121896965429187,0.013557430356741,0,
00:00:00.816,-0.00029683654429391,-0.0009536445140838619,-0.00736545119434595,0,
00:00:00.82,0.0176373366266489,0.00950362998992205,-0.00479392241686583,0,
00:00:00.824,-0.00643710698932409,-0.000546559342183173,-0.0029372968710959,0,
00:00:00.828,-0.0025764538440853396,-0.0156884621828794,0.00771903758868575,0,
00:00:00.832,0.0287205446511507,0.009644553996622559,-0.00024157935695257003,0,
00:00:00.836,-0.0164351500570774,0.0116832889616489,-0.0059997551143169394,0,
00:00:00.84,-0.0254576504230499,0.00019281986169517,-0.00334268203005195,0,
00:00:00.844,-0.00736904423683882,-0.0135867726057768,0.0258312411606312,0,
00:00:00.848,0.0255302619189024,0.0066704023629427,-0.0120185064151883,0,
00:00:00.852,0.0045219911262393,-0.00421565072610974,-0.0117462584748864,0,
00:00:00.856,-0.0069595240056514705,0.00163548358250409,-0.0124105997383595,0,
00:00:00.86,0.0025134282186627397,0.00359228858724236,0.0062406240031123205,0,
00:00:00.864,-0.00261501036584377,-0.0102095426991582,0.0280327927321196,0,
00:00:00.868,-0.00772352004423738,0.0054420861415565,0.00455206632614136,0,
00:00:00.872,0.0147120906040072,0.00348580093123019,-0.0295614786446095,0,
00:00:00.876,0.00046858499990776203,-0.0009653493179939689,-8.23668160592206e-05,0,
00:00:00.88,-0.000698817893862724,0.00343233067542315,0.00017725155339576299,0,
00:00:00.884,-0.00637236051261425,-0.00163513165898621,0.0037704186979681297,0,
00:00:00.888,-0.009185138158500191,0.00364510621875525,0.00914929714053869,0,
00:00:00.892,0.000616364821325988,-0.00954268965870142,-0.000508073077071458,0,
00:00:00.896,0.00290674576535821,-0.0113858282566071,0.00579280592501163,0,
00:00:00.9,0.00262280879542232,0.0118507696315646,-0.009596917778253559,0,
00:00:00.904,0.00378649984486401,0.0123893804848194,-0.0173992495983839,0,
00:00:00.908,0.0196492467075586,-0.0020245919004082697,0.0219226162880659,0,
00:00:00.912,-0.00449489243328571,-0.007890818640589709,0.00225509679876268,0,
00:00:00.916,-0.0303250048309565,-0.0043012197129428395,0.010014264844358,0,
00:00:00.92,-0.00782651174813509,0.000431256397860125,-0.0223177969455719,0,
00:00:00.924,0.0191855039447546,0.0132767157629132,-0.0133876018226147,0,
00:00:00.928,0.0118966223672032,-0.00498562026768923,0.00253809103742242,0,
00:00:00.932,0.0055848550982773295,-0.0088522071018815,0.025605546310544,0,
00:00:00.936,-0.0234898533672094,-0.000694706803187728,-0.00542768044397235,0,
00:00:00.94,0.0127286091446877,0.00300425942987204,-0.0047104503028094795,0,
00:00:00.944,0.00363901467062533,0.00739093963056803,0.007593669462949041,0,
00:00:00.948,-0.0205735918134451,-0.00637777987867594,0.00623298389837146,0,
00:00:00.952,0.00157144572585821,0.00482631288468838,-0.0187196843326092,0,
00:00:00.956,0.0069940285757184,-0.00826819706708193,-0.0058992221020162106,0,
00:00:00.96,0.0218406170606613,0.00349921779707074,0.0117402467876673,0,
00:00:00.964,-0.00572018232196569,0.0083301393315196,-0.00961494818329811,0,
00:00:00.968,-0.013464973308146002,-0.00271363463252783,0.000122381781693548,0,
00:00:00.972,-0.0174844786524773,-0.0108468979597092,0.0383011139929295,0,
00:00:00.976,0.0148452688008547,0.00751827750355005,-0.00971831008791924,0,
00:00:00.98,0.0299957636743784,0.0030969693325459996,-0.026814129203558,0,
00:00:00.984,-0.0193217117339373,-0.00525405397638679,-0.0174535736441612,0,
00:00:00.988,-0.0165571868419647,0.00122349627781659,0.00306233507581055,0,
00:00:00.992,-0.0037992959842085795,-0.00299001345410943,0.0270210020244122,0,
00:00:00.996,-0.0005071716732345519,-0.00251804059371352,0.0125989085063338,0,
00:00:01,0.0308361519128084,0.0123770926147699,-0.00888606067746878,0,
00:00:01.004,-0.00727025605738163,-0.0015706699341535599,-0.0061371303163468794,0,
00:00:01.008,-0.00930908042937517,-0.00475621502846479,-0.00651154108345509,0,
00:00:01.012,-0.000166215046192519,-0.00098541914485395,-0.00857099238783121,0,
00:00:01.016,-0.0116262277588248,-0.00442049792036414,0.0198651906102896,0,
00:00:01.02,0.0137559594586492,-0.00245150201953948,-0.00385511689819396,0,
00:00:01.024,0.0112466141581535,0.0112783564254642,-0.0129690337926149,0,
00:00:01.028,-0.00306984060443938,0.00768241798505187,-0.00279344851151109,0,
00:00:01.032,-0.0167837180197239,-0.0146748693659902,0.01253183465451,0,
00:00:01.036,-0.007206828333437441,-0.0060009253211319395,0.0211752373725176,0,
00:00:01.04,0.00811509229242802,0.0109584713354707,-0.009244560264050959,0,
00:00:01.044,0.00678943516686559,0.0043996241874992795,-0.0249299295246601,0,
00:00:01.048,0.0100628240033984,-0.007706615142524241,0.00163610931485891,0,
00:00:01.052,-0.00535127148032188,-0.00414590444415808,0.0101843820884824,0,
00:00:01.056,-0.00241778022609651,0.007700907066464421,-0.00459212996065617,0,
00:00:01.06,-0.00057183374883607,0.00642215786501765,0.0116872619837523,0,
00:00:01.064,0.00192112266086042,-0.00118163379374892,-0.00966764613986015,0,
00:00:01.068,-0.023183835670352,-0.0118288183584809,0.0056317555718123895,0,
00:00:01.072,0.00281327730044723,-0.00351242418400943,0.0079543711617589,0,
00:00:01.076,0.0251314677298069,0.000366405118256807,-0.0177125949412584,0,
00:00:01.08,-0.00323191890493035,0.006423052400350571,0.0149445356801152,0,
00:00:01.084,0.00216578016988933,0.00921569485217333,-0.0122380778193474,0,
00:00:01.088,0.0026971481274813396,-0.00673375371843576,0.007228548638522629,0,
00:00:01.092,-0.0146810906007886,-0.000879959028679878,-0.004673609510064129,0,
00:00:01.096,-0.005934929009526971,0.0045098853297531605,-0.00536938570439816,0,
00:00:01.1,-0.0019745093304663897,-0.0060024652630090705,0.0007250287453643981,0,
00:00:01.104,0.00127139606047422,-0.00587301328778267,0.0026141640264540898,0,
00:00:01.108,0.0388186983764172,0.00682115321978927,0.0149641549214721,0,
00:00:01.112,-0.00662023294717073,-0.0012589858379215,-0.00402459222823381,0,
00:00:01.116,-0.0236041601747274,0.008038264699280259,-0.0027180693577975,0,
00:00:01.12,-0.0184063892811537,0.00206125085242093,-0.00547294318675995,0,
00:00:01.124,-0.0045213601551949995,-0.0124658020213246,-0.0071725812740624,0,
00:00:01.128,0.0340271517634392,-0.004194004926830529,0.00416984315961599,0,
00:00:01.132,-0.00591755798086524,0.00454377895221114,0.00744861224666238,0,
00:00:01.136,-0.00325384736061096,0.00908252317458391,0.00683786906301975,0,
00:00:01.14,-0.00591074815019965,-0.0017830240540206398,-0.0100354086607695,0,
00:00:01.144,0.0159111898392439,-0.007969775237143041,-0.0174924675375223,0,
00:00:01.148,0.0168026611208916,0.00384580227546394,0.020233454182744002,0,
00:00:01.152,-0.0198406521230936,0.00335899833589792,0.0109406849369407,0,
00:00:01.156,-0.0147691313177347,2.36702599067939e-05,-0.0209928434342146,0,
00:00:01.16,-0.0158713888376951,-0.0103826140984893,0.00480157369747758,0,
00:00:01.164,-0.00228820508345962,0.0036440857220441103,0.0253349933773279,0,
00:00:01.168,0.0259801223874092,0.0137086044996977,-0.0246324334293604,0,
00:00:01.172,0.0262005366384983,-0.007515678647905591,-0.0137934293597937,0,
00:00:01.176,-0.0125632164999843,-0.009439783170819279,-0.00313570885919034,0,
00:00:01.18,-0.0118454061448574,0.0026763908099383103,0.015053859911858999,0,
00:00:01.184,-0.000652289134450257,0.00895529706031084,0.0145321805030107,0,
00:00:01.188,-0.0114815346896648,-0.00751220667734742,-0.00482285348698497,0,
00:00:01.192,-0.00917353015393019,0.000516366329975426,0.0108356429263949,0,
00:00:01.196,0.0179354082792997,0.00909347273409367,-0.0114279016852379,0,
00:00:01.2,0.0177516210824251,-0.00183578324504197,-0.0179162938147783,0,
00:00:01.204,-0.0106398081406951,-0.0025091597344726302,0.0017645377665758103,0,
00:00:01.208,0.00226774532347918,-0.00924198888242245,0.0137892728671432,0,
00:00:01.212,-0.00989784207195044,-0.00241327588446438,0.0104066049680114,0,
00:00:01.216,-0.010204590857029,0.0145084522664547,-0.0210979729890823,0,
00:00:01.22,0.00465366384014487,0.000277745013590902,-0.00823541637510061,0,
00:00:01.224,0.0223599057644606,0.00223713787272573,0.0179364234209061,0,
00:00:01.228,-0.00889007654041052,-0.0112443687394261,0.0008180257864296441,0,
00:00:01.232,-0.000437304814113304,-0.0101643819361925,0.00856644660234451,0,
00:00:01.236,-0.017458388581871997,0.0140575803816319,-0.00828035920858383,0,
00:00:01.24,-0.00334097607992589,0.007286760956048971,-0.015778811648488,0,
00:00:01.244,0.0178363416343927,-0.009134120307862759,0.0144337806850672,0,
00:00:01.248,0.0021015361417084898,-0.0073385927826166205,-0.0091772647574544,0,
00:00:01.252,-0.00602754298597574,0.00148953753523529,0.032620333135128,0,
00:00:01.256,0.00648156134411693,0.0167639702558517,-0.00877155922353268,0,
00:00:01.26,0.0049918452277779605,0.0104503631591797,-0.0290067568421364,0,
00:00:01.264,-0.0087810792028904,-0.0114889051765203,-0.0186058208346367,0,
00:00:01.268,-0.0109369847923517,-0.0236331485211849,0.0166081544011831,0,
00:00:01.272,0.0009734838968142869,-0.0025986114051193,0.0280649736523628,0,
00:00:01.276,0.00838232506066561,0.0174598228186369,-0.00459661846980453,0,
00:00:01.28,0.0204308088868856,0.00904158689081669,0.00208249408751726,0,
00:00:01.284,0.00785600394010544,-0.000103060840046965,-0.009011656977236271,0,
00:00:01.288,-0.0441674180328846,-0.007011882495135071,-0.00260199629701674,0,
00:00:01.292,-0.0132554424926639,-0.00732213258743286,-0.00725546153262258,0,
00:00:01.296,0.00575654581189156,-0.0012796955415979,0.00336276204325259,0,
00:00:01.3,0.02967344596982,0.007467450574040409,-0.00343155395239592,0,
00:00:01.304,0.0144883235916495,-0.00375882629305124,0.0208828244358301,0,
00:00:01.308,-0.00834578182548285,0.00964659359306097,0.00494008604437113,0,
00:00:01.312,0.00151340023148805,0.00778497103601694,-0.0210913382470608,0,
00:00:01.316,-0.0176913719624281,-0.0202750973403454,-0.00437384564429522,0,
00:00:01.32,-0.0038728052750229796,-0.00423543434590101,-0.0105137806385756,0,
00:00:01.324,-0.00212711445055902,0.00650240806862712,0.0108816875144839,0,
00:00:01.328,0.005340223200619221,0.00838264357298613,0.0202513784170151,0,
00:00:01.332,-0.00245029013603926,-0.00167655083350837,-0.009042946621775629,0,
00:00:01.336,0.021354965865612,-0.0007731229416094719,-0.00025633740006014705,0,
00:00:01.34,-0.00333123933523893,0.0009795209625735881,-0.000594028097111732,0,
00:00:01.344,-0.0176386777311563,0.00101473985705525,-0.0146385263651609,0,
00:00:01.348,0.0202485676854849,-0.0104885334149003,0.0011597212869674,0,
00:00:01.352,-0.0207133423537016,0.000348208996001631,0.0330571196973324,0,
00:00:01.356,-0.00382663914933801,0.0082412101328373,-0.0101466430351138,0,
00:00:01.36,0.000734093540813774,-0.00455502280965447,-0.0165600441396236,0,
00:00:01.364,0.008360289037227629,0.00205392064526677,-0.00612730858847499,0,
00:00:01.368,0.005127664189785721,0.0044685578905046,-0.00472211884334683,0,
00:00:01.372,0.00863857939839363,-0.00343031110242009,0.008673319593071941,0,
00:00:01.376,0.00846858322620392,-0.000595199875533581,0.0134710036218166,0,
00:00:01.38,-0.0122584467753768,0.00209727068431675,-0.00579884694889188,0,
00:00:01.384,-0.0304719433188438,-0.0061832866631448295,-0.00021994643611833502,0,
00:00:01.388,0.0030115193221718103,6.37008852208965e-05,0.0030216001905500897,0,
00:00:01.392,0.0225240048021078,0.00493501871824265,-0.0017923762788996103,0,
00:00:01.396,0.0100600989535451,0.0048773237504065,0.0141884470358491,0,
00:00:01.4,-0.00828109495341778,0.0017655000556260302,-0.017136599868536,0,
00:00:01.404,-0.009961255826056,-0.00981669593602419,-0.017367759719491,0,
00:00:01.408,0.0039044227451086,-0.00566331762820482,0.00317198410630226,0,
00:00:01.412,0.00608543865382671,0.00306712766177952,0.0107537815347314,0,
00:00:01.416,-0.00142935325857252,0.0046482882462441895,0.0131563264876604,0,
00:00:01.42,-0.0118450531736016,0.00488556222990155,0.007760520093142991,0,
00:00:01.424,-0.0028529714327305603,-0.0037111171986907703,-0.010716924443841,0,
00:00:01.428,0.0161281004548073,-0.000912187155336142,-0.0107614994049072,0,
00:00:01.432,0.00845365598797798,0.0019497927278280302,-0.00834471639245749,0,
00:00:01.436,-0.010984811000525998,-0.00617618206888437,0.00992607977241278,0,
00:00:01.44,-0.0022425241768360103,0.00221460941247642,-0.00451978435739875,0,
00:00:01.444,-0.0193110071122646,-0.00112470739986748,0.0213181059807539,0,
00:00:01.448,0.0295936185866594,0.0134374368935823,-0.007642961572855709,0,
00:00:01.452,0.0107710268348455,-0.0031455273274332302,-0.0140955643728375,0,
00:00:01.456,-0.0223468355834484,-0.0116060012951493,0.00247872387990355,0,
00:00:01.46,-0.015005593188107,-0.00731819635257125,0.009796392172575,0,
00:00:01.464,0.004572576377540829,0.00630613276734948,0.00340331974439323,0,
00:00:01.468,0.0139485746622086,0.0135776465758681,-0.0176548454910517,0,
00:00:01.472,0.00304903532378376,-0.00875772535800934,0.00227044383063912,0,
00:00:01.476,-0.00351204350590706,-0.00383608182892203,0.0240096505731344,0,
00:00:01.48,0.00165364157874137,0.0139137823134661,-0.0128538152202964,0,
00:00:01.484,-0.00412578834220767,-0.00628662528470159,-0.0145545331761241,0,
00:00:01.488,-0.0042674606665968895,-0.0112910605967045,0.00819611735641956,0,
00:00:01.492,0.0026894968468695896,0.00814502406865358,0.00961847230792046,0,
00:00:01.496,0.014074525795876999,0.0058194980956614,-0.00924007315188646,0,
00:00:01.5,-0.00590417301282287,-0.0007086102268658581,-0.00755516299977899,0,
00:00:01.504,-0.0187437888234854,-0.0167646538466215,0.014216223731637,0,
00:00:01.508,0.0163503363728523,0.00573359895497561,-0.00282497541047633,0,
00:00:01.512,-0.00280819414183497,0.00393677735701203,-0.00552792847156525,0,
00:00:01.516,-0.008238933049142359,0.00523778703063726,0.0143009517341852,0,
00:00:01.52,0.00770841585472226,0.00394479651004076,-0.0019711579661816398,0,
00:00:01.524,0.00793194305151701,0.000758907350245863,-0.0052693574689328705,0,
00:00:01.528,-0.0061019635759294,-0.0104341907426715,-0.0139277372509241,0,
00:00:01.532,-0.00338565045967698,-0.0037679991219192704,-0.007719492074102159,0,
00:00:01.536,0.00119146052747965,0.00119463971350342,0.00182438502088189,0,
00:00:01.54,-0.0054458002559840705,0.00112287874799222,0.0409634485840797,0,
00:00:01.544,0.0138657977804542,0.00682869739830494,0.00576665019616485,0,
00:00:01.548,-0.0037806802429258797,-0.00325556565076113,-0.0321286171674728,0,
00:00:01.552,-0.0107149202376604,0.0022333923261612697,-0.00518200825899839,0,
00:00:01.556,-0.00964626483619213,0.00331142917275429,-0.00836886931210756,0,
00:00:01.56,0.0138732334598899,0.0012989726383239,0.0038673656526953,0,
00:00:01.564,0.00923735555261374,-0.00541350385174155,0.0131327649578452,0,
00:00:01.568,-0.000311765295919031,-0.0132603039965034,0.0035335642751306295,0,
00:00:01.572,0.00277647143229842,-0.00623260997235775,0.00586041668429971,0,
00:00:01.576,-0.011171224527061001,0.0259310211986303,-0.0096466364338994,0,
00:00:01.58,-0.00454770680516958,0.00511484779417515,-0.00253314361907542,0,
00:00:01.584,0.007245639339089391,0.00110292667523026,-0.0040595191530883295,0,
00:00:01.588,-0.00249482877552509,-0.0151119604706764,0.00256085069850087,0,
00:00:01.592,0.00021521674352698,-0.0116413738578558,0.02238954231143,0,
00:00:01.596,0.00300079281441867,0.00625208858400583,-0.0198185164481401,0,
00:00:01.6,-0.00130729877855629,0.007747767027467491,-0.0107938786968589,0,
00:00:01.604,0.00889847334474325,0.00138831580989063,0.00458745425567031,0,
00:00:01.608,-0.0227122064679861,-0.00292529840953648,0.0025187386199832,0,
00:00:01.612,-0.004133063834160571,-0.00123448367230594,-0.000822463247459382,0,
00:00:01.616,0.0259690806269646,0.00500088557600975,0.000762827170547098,0,
00:00:01.62,0.0169550981372595,-0.00240892125293612,0.0231260769069195,0,
00:00:01.624,-0.0320238806307316,-0.0022710068151354803,0.0034755785018205604,0,
00:00:01.628,0.0070694764144718595,0.00386024895124137,-0.0264656320214272,0,
00:00:01.632,0.00235351012088358,0.0053951065056026,-0.0156338829547167,0,
00:00:01.636,-0.0147311696782708,-0.00789706036448479,0.010166491381824,0,
00:00:01.64,0.000147811471833847,-0.012414569966495,0.0118475751951337,0,
00:00:01.644,0.0117387631908059,0.00320667796768248,0.0050995731726288795,0,
00:00:01.648,-0.00259324233047664,0.00801365356892347,0.00279015558771789,0,
00:00:01.652,-0.00204322743229568,0.00806268863379955,-0.016503494232893,0,
00:00:01.656,0.0284382961690426,0.007975710555911059,-0.00537783093750477,0,
00:00:01.66,0.000319386599585414,-0.00927063263952732,0.00428535183891654,0,
00:00:01.664,-0.0342982225120068,-0.0138956820592284,0.0282360818237066,0,
00:00:01.668,-0.00680863671004772,0.0062441681511700205,-0.0143620874732733,0,
00:00:01.672,0.00836428720504045,-0.007284609135240321,-0.0150894559919834,0,
00:00:01.676,0.00694661447778344,0.00544164702296257,0.00046522406046278796,0,
00:00:01.68,0.0104679297655821,0.0125967944040895,0.00133420899510384,0,
00:00:01.684,-0.0046684006229043,-0.00527160381898284,0.00856699887663126,0,
00:00:01.688,-0.0203569587320089,-0.00594833912327886,0.00913915131241083,0,
00:00:01.692,0.0260693933814764,0.0025127336848527197,-0.00852998625487089,0,
00:00:01.696,0.00075542472768575,-0.0021355117205530396,-0.0028683077543973897,0,
00:00:01.7,-0.00988569110631943,0.0015681212535128,-0.00074853008845821,0,
00:00:01.704,-0.00894167460501194,0.00366729171946645,-0.00205234996974468,0,
00:00:01.708,-0.000874739256687462,-0.00568098947405815,0.0064324643462896295,0,
00:00:01.712,0.00684240227565169,0.0038746900390833603,0.00636933837085962,0,
00:00:01.716,0.00162933592218906,-0.0017705739010125399,-0.0210653748363256,0,
00:00:01.72,-0.00046858083806000704,0.00506667094305158,0.0043923864141106606,0,
00:00:01.724,0.0160386897623539,-0.0033384487032890302,0.00834046490490437,0,
00:00:01.728,-0.0115767158567905,-0.005611095111817121,-0.004174820613116029,0,
00:00:01.732,0.00221135304309428,-0.0011475146748125599,0.00720701180398464,0,
00:00:01.736,-0.0009772484190762039,0.008856113068759441,0.00349009386263788,0,
00:00:01.74,-0.00686580175533891,-0.00445424253121018,-0.0042621660977602,0,
00:00:01.744,-0.0193882118910551,0.00346682057715952,0.00140909303445369,0,
00:00:01.748,0.0092388279736042,0.0037036421708762602,-0.0103154396638274,0,
00:00:01.752,0.0161778293550015,-0.0117530962452292,-0.0129893505945802,0,
00:00:01.756,0.00600818451493979,0.00561529770493507,0.0106615237891674,0,
00:00:01.76,-0.007707079406827691,-0.0038494218606501796,0.0333542935550213,0,
00:00:01.764,0.00949803646653891,0.0011498159728944302,-0.0182403605431318,0,
00:00:01.768,-0.00529434531927109,0.00708325812593102,-0.0140143958851695,0,
00:00:01.772,-0.0123261688277125,0.0024128882214427,0.00467227632179856,0,
00:00:01.776,-0.0070512951351702205,-0.00254517933353782,-0.00403972435742617,0,
00:00:01.78,0.0111682275310159,-0.0104940803721547,0.00361711578443646,0,
00:00:01.784,0.00615879287943244,-0.0013226743321865801,-0.00455856928601861,0,
00:00:01.788,-0.00769637944176793,0.00600618636235595,0.0113609060645103,0,
00:00:01.792,0.00539216585457325,0.008939067833125591,-0.000258597865467891,0,
00:00:01.796,-0.00464386586099863,-0.00485909124836326,-0.00473937764763832,0,
00:00:01.8,0.0007085037068463861,-0.00493729580193758,0.00233344826847315,0,
00:00:01.804,0.0173125937581062,0.0029634793754667,0.00558305252343416,0,
00:00:01.808,0.0007536085322499281,-0.000194133070181124,-0.00483876094222069,0,
00:00:01.812,-0.0208734124898911,-0.000775924767367542,-0.013593053445219999,0,
00:00:01.816,-0.012010189704597002,0.0038128227461129397,0.007962731644511221,0,
00:00:01.82,0.00800109934061766,-0.005833336152136329,0.0160672925412655,0,
00:00:01.824,0.00132037943694741,-0.00294669112190604,-0.0104340817779303,0,
00:00:01.828,0.00622907979413867,0.005717468447983261,-0.011808630079031,0,
00:00:01.832,0.009866531938314441,0.0016935961320996302,0.0024002003483474302,0,
00:00:01.836,-0.0037372284568846204,-0.00444710906594992,0.00600682850927114,0,
00:00:01.84,0.00170623511075974,0.0071633812040090596,0.00832124520093203,0,
00:00:01.844,-0.0034798621200025103,0.00060273427516222,-0.007191351614892479,0,
00:00:01.848,-0.0082667013630271,-0.0115098264068365,-0.0007633973727934059,0,
00:00:01.852,0.00583329796791077,0.00018575596914161002,0.00494640227407217,0,
00:00:01.856,0.00139334995765239,0.00865278113633394,-0.0076390290632844,0,
00:00:01.86,-0.00767218181863427,-6.0471006690932e-06,0.000501046772114933,0,
00:00:01.864,0.00812865979969502,0.00439402973279357,0.00868768524378538,0,
00:00:01.868,-0.01041229814291,-0.00500013213604689,-0.0125890178605914,0,
00:00:01.872,0.00318090990185738,-0.00702456291764975,0.007352754939347509,0,
00:00:01.876,0.0206087715923786,0.000334732758346945,-0.0006879243301227691,0,
00:00:01.88,-0.00607351679354906,0.00498093292117119,-0.009339253418147559,0,
00:00:01.884,-0.0216285735368729,-0.00147880637086928,0.0103051504120231,0,
00:00:01.888,-0.00288102333433926,-0.000637183431535959,0.0264245476573706,0,
00:00:01.892,0.0160888861864805,0.00942320562899113,-0.0260390657931566,0,
00:00:01.896,0.00760886445641518,-0.00417054770514369,-0.0200613886117935,0,
00:00:01.9,0.00315375719219446,-0.00544448290020227,0.0054255658760666795,0,
00:00:01.904,-0.0153435943648219,-0.00431731808930635,0.020057313144207,0,
00:00:01.908,-0.0147213833406568,0.0008315001614391799,0.0167487990111113,0,
00:00:01.912,0.0161763299256563,0.0100955748930573,-0.024807158857584,0,
00:00:01.916,0.0166917182505131,-0.00427062856033444,-0.0168646387755871,0,
00:00:01.92,-0.00925180688500404,0.000862425949890167,0.0112288985401392,0,
00:00:01.924,-0.0205679349601269,0.000815621635410935,0.00546152563765645,0,
00:00:01.928,0.00244498974643648,-0.00251281191594899,0.00133499014191329,0,
00:00:01.932,0.037604633718729,0.00496662454679608,0.007833875715732571,0,
00:00:01.936,-0.0129254134371877,-0.0054315198212862,-0.00022344652097672202,0,
00:00:01.94,-0.0163864959031343,0.00048669692478142695,-0.0104090953245759,0,
00:00:01.944,-0.0055681187659502,-0.0034644016996026,0.0058011463843286,0,
00:00:01.948,-0.000442019605543464,0.00163375795818865,0.004938600584864621,0,
00:00:01.952,0.000306208123220131,0.0025201849639415698,-0.0169864557683468,0,
00:00:01.956,0.0075455270707607295,-0.000621472951024771,0.00353451236151159,0,
00:00:01.96,0.00490071065723896,0.0041229696944356,0.00841326918452978,0,
00:00:01.964,0.0151211628690362,0.000967950269114226,-0.009444658644497391,0,
00:00:01.968,-0.00955238379538059,-0.00850478745996952,0.00960032269358635,0,
00:00:01.972,-0.0155151663348079,-0.00136564986314625,0.00996526330709457,0,
00:00:01.976,0.0115287899971008,0.00892949476838112,-0.0182213671505451,0,
00:00:01.98,-0.0070929257199168205,0.00364552042447031,0.00289563811384141,0,
00:00:01.984,-0.009280458092689509,-0.008927373215556141,-0.00379441049881279,0,
00:00:01.988,0.0134203610941768,-0.00537975132465363,0.00038596245576627596,0,
00:00:01.992,0.0043024281039834,0.00294745271094143,0.0145199410617352,0,
00:00:01.996,-0.009777078405022621,0.00432915752753615,-0.0033794029150158197,0,
00:00:02,0.000377455580746755,-0.0037460816092789203,-0.00172663026023656,0,
00:00:02.004,0.0100007522851229,0.00812557898461819,-0.000532984733581543,0,
00:00:02.008,0.00534643372520804,0.00370947923511267,-0.0128467567265034,0,
00:00:02.012,-0.0224910862743855,-0.00464090751484036,-0.00133021268993616,0,
00:00:02.016,0.00997951161116362,-0.00118429306894541,0.0186707302927971,0,
00:00:02.02,0.0045344810932874706,-0.0128036802634597,-0.00457489723339677,0,
00:00:02.024,-0.00456008175387979,0.000895440636668354,-0.00159222260117531,0,
00:00:02.028,-0.00277082086540759,0.0105698714032769,0.00541791040450335,0,
00:00:02.032,0.00910836923867464,0.00806412007659674,-0.0189927443861961,0,
00:00:02.036,0.0029894628096371898,-0.008865430019795891,0.0106709524989128,0,
00:00:02.04,-0.016371151432395,4.9454323743702796e-05,0.0114690288901329,0,
00:00:02.044,-0.00456377910450101,-0.0014862124808132599,-0.007583064958453179,0,
00:00:02.048,0.007412950508296491,0.00339646870270371,-0.0112757887691259,0,
00:00:02.052,0.0124628357589245,-0.00570554425939918,0.00466512003913522,0,
00:00:02.056,-0.00199405499733984,-0.00665748119354248,0.00627381354570389,0,
00:00:02.06,0.00427202600985765,0.0101033775135875,0.00473813060671091,0,
00:00:02.064,0.0025166783016175,0.00936384778469801,-0.000866035756189376,0,
00:00:02.068,-0.0183690302073956,-0.0038851678837090705,0.00209709163755178,0,
00:00:02.072,-0.0054445485584437795,-0.00604371121153235,-0.0161374732851982,0,
00:00:02.076,0.00332803698256612,-0.0033795915078371802,-0.0029315953142941,0,
00:00:02.08,0.0083681046962738,-0.0042160265147686,-0.0035893281456083103,0,
00:00:02.084,-0.00328421359881759,0.00790161546319723,0.0225082971155643,0,
00:00:02.088,0.0040148887783289,0.00134436064399779,-0.00557398609817028,0,
00:00:02.092,0.0141548588871956,0.00402895733714104,0.00490203406661749,0,
00:00:02.096,-0.0132081406190991,-0.0020158777479082303,-0.00104839086998254,0,
00:00:02.1,-0.0080362306907773,-0.0032352793496102103,-0.0101981144398451,0,
00:00:02.104,0.00595715595409274,6.107607623562221e-05,0.004292699508368971,0,
00:00:02.108,0.0106535637751222,-0.00640294048935175,0.005352279171347621,0,
00:00:02.112,-0.0144555093720555,0.00318781984969974,-0.00893557071685791,0,
00:00:02.116,7.85379234002903e-05,0.006341890897601839,0.00767704471945763,0,
00:00:02.12,0.0031994606833905,2.56777020695154e-05,-0.0015584409702569199,0,
00:00:02.124,0.00199879123829305,1.2734933079627801e-05,-0.0125734349712729,0,
00:00:02.128,-0.00606078468263149,-0.00585773168131709,0.00298044155351818,0,
00:00:02.132,0.0030030580237507803,-0.000382736761821434,-0.00202852953225374,0,
00:00:02.136,0.00185050326399505,-0.000367626518709585,0.011859392747283001,0,
00:00:02.14,0.0036330693401396296,0.00159421400167048,0.0008798340568318961,0,
00:00:02.144,0.00302997208200395,0.0106418915092945,0.00288947764784098,0,
00:00:02.148,-0.00565963238477707,-0.00835978984832764,0.00554158864542842,0,
00:00:02.152,0.004107280634343621,0.0019355900585651398,-0.00937413237988949,0,
00:00:02.156,-0.0104071693494916,-0.00780975027009845,-0.0127329006791115,0,
00:00:02.16,-0.00672489870339632,0.00155615748371929,-0.0027856135275214897,0,
00:00:02.164,0.0155788343399763,0.00773213896900415,-0.00484964018687606,0,
00:00:02.168,0.00447689322754741,-0.00999941490590572,0.04459002614021299,0,
00:00:02.172,-0.010959155857563,0.00696211727336049,-0.0102492487058043,0,
00:00:02.176,-0.007240216247737409,0.0032347068190574603,-0.0255921110510826,0,
00:00:02.18,0.0234113037586212,0.0015673525631427802,0.00820913631469011,0,
00:00:02.184,0.0085347443819046,-0.000134470377815887,-0.00806217081844807,0,
00:00:02.188,-0.036085344851017,-0.00985110830515623,0.0036616350989788797,0,
00:00:02.192,-0.0018641365459188802,-0.00460042571648955,0.00308149075135589,0,
00:00:02.196,0.00811625830829144,0.00218119705095887,0.00255791307426989,0,
00:00:02.2,0.0156095223501325,0.0135538773611188,-0.006888087373226879,0,
00:00:02.204,0.0120161082595587,-0.00346531835384667,0.0142449634149671,0,
00:00:02.208,-0.0245248433202505,-0.00899143703281879,0.0019457354210317102,0,
00:00:02.212,-0.00102528429124504,0.00866113509982824,-0.00929486006498337,0,
00:00:02.216,-0.0035545481368899298,0.0069719580933451705,-0.00849453546106815,0,
00:00:02.22,0.0132755460217595,-0.0124011356383562,-0.00686172861605883,0,
00:00:02.224,0.00710658403113484,-0.00744888046756387,0.0251973979175091,0,
00:00:02.228,-0.00631249044090509,0.00774506013840437,0.0048592672683298605,0,
00:00:02.232,-0.0151638956740499,0.00650828750804067,-0.0199470333755016,0,
00:00:02.236,-0.00109259167220443,-0.000976949813775718,0.0019465748919174101,0,
00:00:02.24,0.0260429847985506,-0.00279557146131992,0.00176977261435241,0,
00:00:02.244,-0.00134212709963322,-0.0060819727368652795,-0.00167675130069256,0,
00:00:02.248,-0.00805729907006025,0.00352382054552436,-0.00046869312063790896,0,
00:00:02.252,-0.0184210352599621,0.00390646560117602,0.00118078256491572,0,
00:00:02.256,-0.000388089538319036,0.00334854633547366,-0.0107177412137389,0,
00:00:02.26,0.00624721730127931,-0.0030050105415284603,0.0151649750769138,0,
00:00:02.264,0.018841203302145,-0.0014270773390308,0.0227283351123333,0,
00:00:02.268,-0.008153812028467659,-0.00773768266662955,-0.0272795464843512,0,
00:00:02.272,0.0075057712383568296,0.000592600728850812,0.000643974693957716,0,
00:00:02.276,0.00279623246751726,0.0126683535054326,-0.0011519213439896698,0,
00:00:02.28,-0.016957126557827,-0.0017658047145232602,-0.0050495667383074795,0,
00:00:02.284,-0.0163321997970343,-0.00886064115911722,-0.00620163371786475,0,
00:00:02.288,0.009355016984045509,-0.000912106886971742,0.0184442959725857,0,
00:00:02.292,0.0148492380976677,0.00309811416082084,-0.00233895122073591,0,
00:00:02.296,0.00679268827661872,0.0075530088506639,0.00894548557698727,0,
00:00:02.3,-0.00396463042125106,0.00399125041440129,-0.0036356728523969702,0,
00:00:02.304,-0.0040177027694881,-0.0114942919462919,-0.0074240094982087595,0,
00:00:02.308,-0.0058714491315186,-0.00048470360343344504,-0.00950699299573898,0,
00:00:02.312,-0.00654807221144438,0.0036234674043953397,0.0005556131363846361,0,
00:00:02.316,0.00723404716700315,-0.0074314926750958,-0.0074399346485734,0,
00:00:02.32,0.00620708987116814,-4.15848853663192e-06,0.0229428615421057,0,
00:00:02.324,-0.00495931087061763,0.0124261118471622,0.00426359148696065,0,
00:00:02.328,0.011916846036911002,-0.00158839323557913,-0.00205274252220988,0,
00:00:02.332,-0.0185975730419159,-0.0127098830416799,0.00479788053780794,0,
00:00:02.336,0.00375956948846579,0.005295874085277321,-0.0192889422178268,0,
00:00:02.34,0.0062639317475259295,0.008544242940843109,-0.0069242417812347395,0,
00:00:02.344,-0.0122897997498512,-0.0019874421413987897,0.000457516289316118,0,
00:00:02.348,0.0122707737609744,0.00261585926637053,0.00626903492957354,0,
00:00:02.352,0.0168884005397558,-0.00575105100870132,0.0049694306217134,0,
00:00:02.356,-0.0129773523658514,-0.0047479830682277705,0.00613024644553661,0,
00:00:02.36,-0.0111798252910376,-0.00305242068134248,0.014476777985691998,0,
00:00:02.364,0.0022202406544238303,0.00595101388171315,-0.0138619290664792,0,
00:00:02.368,-0.00592112401500344,0.000323762185871601,-0.009400059469044209,0,
00:00:02.372,0.00580423511564732,0.00662160245701671,-0.00811371579766274,0,
00:00:02.376,-0.009284079074859621,-0.0110353073105216,0.00247081927955151,0,
00:00:02.38,0.00480691296979785,0.00826082937419415,-0.00213093403726816,0,
00:00:02.384,0.0218880064785481,0.00502044847235084,0.0150345154106617,0,
00:00:02.388,0.009271419607102871,-0.00613410118967295,0.0128136808052659,0,
00:00:02.392,-0.026716735213994997,-0.0118191316723824,-0.0075871255248785,0,
00:00:02.396,0.000736740010324866,0.00860987696796656,-0.0104910340160131,0,
00:00:02.4,0.00319323828443885,0.00695893634110689,-0.0202275421470404,0,
00:00:02.404,-0.012789455242455,-0.0100429188460112,0.0263105146586895,0,
00:00:02.408,-0.000999443931505084,-0.00018630991689860802,0.00921152159571648,0,
00:00:02.412,0.00315188360400498,0.00789600424468517,-0.0170497298240662,0,
00:00:02.416,0.0186273958534002,0.001515599549748,-0.00373089453205466,0,
00:00:02.42,0.0207986105233431,0.00219316082075238,-0.00155843899119645,0,
00:00:02.424,-0.0223186146467924,-0.0149298468604684,0.0161109790205956,0,
00:00:02.428,-0.0158938653767109,0.00288859731517732,-0.00424194149672985,0,
00:00:02.432,-0.0108424937352538,0.00794587004929781,-0.00587776163592935,0,
00:00:02.436,0.0179983340203762,0.00728871673345566,0.00028074151487089704,0,
00:00:02.44,0.005824580322951079,-0.0120845325291157,-0.00234304321929812,0,
00:00:02.444,-0.00892669893801212,-0.00328043755143881,-0.0031296182423829998,0,
00:00:02.448,0.0072551304474473,0.00358791509643197,0.0238077007234097,0,
00:00:02.452,-0.0017984688747674199,-0.0053269956260919606,-0.00130887527484447,0,
00:00:02.456,-0.0102675026282668,0.0105655118823051,-0.0175332855433226,0,
00:00:02.46,0.0098904725164175,0.00148034607991576,-0.0123884370550513,0,
00:00:02.464,0.0202013403177261,-0.00030978987342678,0.0027570105157792603,0,
00:00:02.468,-0.00746626732870936,-0.00477161025628448,0.0149179026484489,0,
00:00:02.472,-0.0288792140781879,-0.00736078852787614,-0.00888961832970381,0,
00:00:02.476,0.00231166044250131,0.00365205621346831,0.0162253230810165,0,
00:00:02.48,0.00375532498583198,0.00696624396368861,0.0173265840858221,0,
00:00:02.484,0.0108826356008649,-0.0038150725886225705,-0.0344485752284527,0,
00:00:02.488,0.0106081049889326,0.00601526442915201,-0.0118063520640135,0,
00:00:02.492,-0.00398309901356697,-0.00474297255277634,0.015395013615488999,0,
00:00:02.496,-0.00307007017545402,-0.00186311604920775,0.00328651862218976,0,
00:00:02.5,-0.0169948898255825,0.00390075752511621,-0.0034901984035968802,0,
00:00:02.504,0.00576856592670083,-0.0034603332169354,0.0149284359067678,0,
00:00:02.508,0.0142544582486153,-0.00887836795300245,-0.00396378943696618,0,
00:00:02.512,-0.00677359336987138,0.0101662529632449,-0.009717111475765709,0,
00:00:02.516,-0.0126193985342979,0.00697025656700134,-0.00669117271900177,0,
00:00:02.52,0.0115501051768661,-0.0109373526647687,0.0032750167883932603,0,
00:00:02.524,0.00651195971295238,0.000866994319949299,0.0098753534257412,0,
00:00:02.528,-0.0023852651938796,0.00320173683576286,0.00193773955106735,0,
00:00:02.532,-0.0124079445376992,0.00378905236721039,0.00167925411369652,0,
00:00:02.536,0.0136877689510584,-0.0022441674955189198,-0.0073639699257910295,0,
00:00:02.54,-0.00372759392485023,-0.00295722368173301,-0.009658254683017729,0,
00:00:02.544,-0.0069516422227025,-0.00353274750523269,0.00106502615381032,0,
00:00:02.548,0.007045245729386809,0.00010679840488592199,0.0222901608794928,0,
00:00:02.552,0.00798538886010647,0.00678277295082808,-0.0127085270360112,0,
00:00:02.556,-0.0181732345372438,0.00509500503540039,-0.0110103813931346,0,
00:00:02.56,0.00223748059943318,-0.00565863354131579,0.00569856539368629,0,
00:00:02.564,0.0039349943399429295,-0.009454634971916679,-0.00168496777769178,0,
00:00:02.568,0.00942627526819706,0.00245165848173201,0.0060966280288994295,0,
00:00:02.572,-0.017007403075695,0.00280646258033812,0.00904561299830675,0,
00:00:02.576,-0.00582341616973281,0.00495966151356697,0.00730731012299657,0,
00:00:02.58,0.0387073494493961,0.00400215294212103,-0.0195332821458578,0,
00:00:02.584,-0.00133896188344806,-0.005290931556373829,-0.0056799347512424,0,
00:00:02.588,-0.022380018606782,-0.00224326574243605,0.00603418936952949,0,
00:00:02.592,-0.0185513645410538,-0.00067509850487113,-0.0017273478442803,0,
00:00:02.596,0.00745290610939264,0.00430924305692315,-0.00406934693455696,0,
00:00:02.6,0.011341629549861001,-0.0034427682403475,-0.00176067603752017,0,
00:00:02.604,0.00416450621560216,-0.0048427814617753,0.028727313503623,0,
00:00:02.608,-0.00200820830650628,-0.00219424651004374,0.0072366138920188,0,
00:00:02.612,0.00233634933829308,0.009466598741710191,-0.0327005423605442,0,
00:00:02.616,-0.00428100163117051,0.00349058629944921,-0.0140112964436412,0,
00:00:02.62,-0.00481302570551634,0.00109016720671207,0.0209514293819666,0,
00:00:02.624,0.0104971062391996,-0.0048029529862105794,0.00481943413615227,0,
00:00:02.628,-0.0023514169733971396,-0.0062100337818265,-0.0104635506868362,0,
00:00:02.632,-0.00451865047216415,0.000670315697789192,-0.00376847386360168,0,
00:00:02.636,-0.00645693670958281,0.00890904664993286,0.0146400947123766,0,
00:00:02.64,0.0147075010463595,-0.00381809403188527,0.0011225511552766,0,
00:00:02.644,-0.0151771511882544,-0.0125083969905972,0.000749893428292125,0,
00:00:02.648,-0.00036061502760276204,0.0048987399786710704,-0.00518642924726009,0,
00:00:02.652,0.0146630126982927,0.0123055232688785,-0.00267558800987899,0,
00:00:02.656,0.0106605719774961,0.006899842992424961,-0.0058683417737484,0,
00:00:02.66,-0.0221347063779831,-0.00720200967043638,0.0032808214891701898,0,
00:00:02.664,0.000515581341460347,-0.0101742083206773,-0.00256390823051333,0,
00:00:02.668,0.0170972254127264,-0.0037979262415319703,0.00729981111362576,0,
00:00:02.672,-0.0199388526380062,0.00233956216834486,0.00018127978546544899,0,
00:00:02.676,-0.0046647684648633,0.019305432215333002,-0.000981020741164684,0,
00:00:02.68,0.009340769611299041,-0.0120628839358687,-0.006673015188425779,0,
00:00:02.684,0.00156963767949492,-0.016419742256403,0.0205309353768826,0,
00:00:02.688,0.00782078318297863,0.0137592991814017,-0.00664334883913398,0,
00:00:02.692,0.00444572884589434,0.00908145122230053,-0.0170740224421024,0,
00:00:02.696,-0.0136025696992874,-0.005543617531657221,0.0025073364377021803,0,
00:00:02.7,-0.00315377372317016,0.0014526245649904,0.00792335718870163,0,
00:00:02.704,0.0127383954823017,0.00394910201430321,-0.000872409495059401,0,
00:00:02.708,-0.0042361309751868205,-0.0104984035715461,-0.014245786704123001,0,
00:00:02.712,-0.0141330882906914,-0.0123812379315495,0.0156592186540365,0,
00:00:02.716,0.0141435796394944,0.0176305957138538,0.0150723904371262,0,
00:00:02.72,-0.0101877795532346,0.0045164623297751,-0.0214529912918806,0,
00:00:02.724,0.0110822208225727,-0.0107676219195127,0.0088489418849349,0,
00:00:02.728,0.000421752716647461,0.00373257580213249,-0.00113157369196415,0,
00:00:02.732,0.0121346758678555,0.0017045543063432,-0.006249487865716221,0,
00:00:02.736,-0.0157261807471514,0.00420348579064012,0.00318296812474728,0,
00:00:02.74,-0.0141766229644418,-0.006796859204769129,-0.0151571296155453,0,
00:00:02.744,0.00313671119511127,-0.0062919105403125295,0.0081677408888936,0,
00:00:02.748,0.00825393013656139,0.0026945595163852,0.0105963265523314,0,
00:00:02.752,-0.00411870423704386,0.0070846606977284,-0.00146488833706826,0,
00:00:02.756,0.0097432928159833,0.00344557501375675,0.00662763649597764,0,
00:00:02.76,0.021134365350008,0.00524944672361016,0.0048074652440846,0,
00:00:02.764,-0.00594819104298949,-0.00908659026026726,-0.0152795184403658,0,
00:00:02.768,-0.0325644239783287,-0.0140635604038835,-0.0077890455722808795,0,
00:00:02.772,-0.0010563193354755599,0.0061119473539292795,-0.00360664119943976,0,
00:00:02.776,0.00678446097299457,0.0057114246301353,0.0172031503170729,0,
00:00:02.78,0.0036010027397424,0.00308967218734324,0.00251080421730876,0,
00:00:02.784,0.00872125290334225,0.00036800070665776697,0.0069505488499999,0,
00:00:02.788,0.0125282667577267,-0.0012726815184578302,-0.0200429148972034,0,
00:00:02.792,-0.0092334533110261,-0.00161933421622962,-0.0105666201561689,0,
00:00:02.796,-0.0231837891042233,-0.00109194125980139,0.0120747871696949,0,
00:00:02.8,0.0176104996353388,-0.00237429607659578,0.0047641727142036,0,
00:00:02.804,0.0013977414928376699,0.0043513015843927895,0.008876394480466841,0,
00:00:02.808,-0.00913166161626577,0.000190305363503285,-0.000510805170051754,0,
00:00:02.812,0.0100828893482685,0.005192159209400421,-0.00487818522378802,0,
00:00:02.816,0.00303451018407941,-0.00883120764046907,0.00349358096718788,0,
00:00:02.82,-0.0155321201309562,-0.00939470715820789,-0.0124128591269255,0,
00:00:02.824,0.00489936443045735,0.00521017517894506,-0.0065495716407895106,0,
00:00:02.828,0.0127041330561042,0.0120788170024753,0.00244269799441099,0,
00:00:02.832,-0.0100834965705872,0.00688248779624701,0.00896994303911924,0,
00:00:02.836,-0.00496205687522888,-0.0049105682410299795,-0.00829707272350788,0,
00:00:02.84,-0.00305534107610583,-0.0181215424090624,0.027379160746932002,0,
00:00:02.844,0.0119998995214701,0.008931205607950691,-0.00081808352842927,0,
00:00:02.848,0.00689530884847045,-0.0028966008685529197,-0.0141082797199488,0,
00:00:02.852,-0.0034868021029979,0.005600456148385999,-0.0131805986166,0,
00:00:02.856,-0.0038231580983847397,0.0033476760145276802,-0.00110849307384342,0,
00:00:02.86,-0.00382172525860369,-0.00689996173605323,0.00484670978039503,0,
00:00:02.864,-0.0106504978612065,-0.00100564211606979,-0.000637217191979289,0,
00:00:02.868,0.00137214385904372,0.0042270631529390795,0.0176215674728155,0,
00:00:02.872,0.0178640149533749,0.00467124208807945,-0.00030782195972278703,0,
00:00:02.876,0.00547743542119861,0.00190494128037244,-0.0238435976207256,0,
00:00:02.88,-0.0192056521773338,-0.0074888477101922,0.0154162850230932,0,
00:00:02.884,0.0017318516038358199,-0.00952292792499065,0.012734548188746002,0,
00:00:02.888,0.0014138111146166901,0.007616203743964429,-0.0209237597882748,0,
00:00:02.892,0.0275491811335087,4.46297162852716e-05,-0.00129365734755993,0,
00:00:02.896,-0.017016327008605,0.000356819509761408,-0.0018460031133145103,0,
00:00:02.9,-0.0265958402305841,0.00371035817079246,0.0054621733725071,0,
00:00:02.904,-0.0038447277620434796,-0.000252232915954664,0.008028557524085041,0,
00:00:02.908,0.015863249078393,0.0012260755756869901,0.00303568737581372,0,
00:00:02.912,0.0230822153389454,0.00583219295367599,0.00217565079219639,0,
00:00:02.916,0.00610400177538395,-0.00967949349433184,-0.0142539124935865,0,
00:00:02.92,-0.0191665515303612,-0.0046671717427671,0.0117046916857362,0,
00:00:02.924,-0.0116977887228131,-0.00393700739368796,-0.0128181194886565,0,
00:00:02.928,-0.00145493564195931,0.0108717931434512,-0.0032073718030005698,0,
00:00:02.932,0.0110671995207667,0.00223431270569563,-0.0009874686365947132,0,
00:00:02.936,-0.0020370762795209898,-0.0033821954857558,0.00269277323968709,0,
00:00:02.94,-0.00132059480529279,0.0021333172917366,0.0168917924165726,0,
00:00:02.944,0.0119735458865762,0.000536866136826575,0.0023061272222548697,0,
00:00:02.948,-0.0030775615014135803,-0.0099215405061841,-0.00546821998432279,0,
00:00:02.952,-0.0187429115176201,-0.000515444902703166,0.0015653227455914,0,
00:00:02.956,0.0121060600504279,0.0132051073014736,-0.0182789284735918,0,
00:00:02.96,0.00966657046228647,0.00563444988802075,-0.00961942411959171,0,
00:00:02.964,0.0102293761447072,-0.00980044901371002,0.0221336614340544,0,
00:00:02.968,-0.02850098349154,-0.00759788230061531,0.0028799525462091,0,
00:00:02.972,-0.0110545950010419,0.007232405245304109,-0.006773343775421379,0,
00:00:02.976,0.007518580649048091,-0.0065868585370481,0.0118608977645636,0,
00:00:02.98,0.0204170159995556,-0.000330686540110037,0.00704874657094479,0,
00:00:02.984,0.00439595337957144,0.00981050357222557,-0.0276160463690758,0,
00:00:02.988,-0.0108817061409354,0.00214397138915956,-0.0074839927256107296,0,
00:00:02.992,-0.0029467181302607103,-0.006841186434030529,0.00419777678325772,0,
00:00:02.996,0.00022631188039667902,-0.00193939241580665,0.0143769923597574,0,
00:00:03,-0.0011265657376498,-0.0034416469279676697,0.00704439962282777,0,
00:00:03.004,-0.0015214092563837801,0.00956897530704737,0.0046750595793128,0,
00:00:03.008,0.0161297880113125,0.000413851492339745,-0.00515621714293957,0,
00:00:03.012,-0.0190392639487982,-0.0067590931430459,-0.009326440282166,0,
00:00:03.016,0.00497846631333232,-0.000439830269897357,0.0014258751180023,0,
00:00:03.02,0.0144936656579375,0.0023084995336830603,-0.00530978525057435,0,
00:00:03.024,-0.0276382807642221,0.00434727128595114,-0.0138937616720796,0,
00:00:03.028,0.0185799896717072,0.00935062859207392,0.0314062908291817,0,
00:00:03.032,0.0020861488301307,-0.0118981413543224,0.00877561327069998,0,
00:00:03.036,0.008792462758719921,-0.0052839745767414605,-0.0168270971626043,0,
00:00:03.04,-0.0195491462945938,-0.007075345609337091,-0.0180009193718433,0,
00:00:03.044,-0.0030822679400444,0.007531546521931891,-0.0031503010541200603,0,
00:00:03.048,-0.00937065295875072,0.00513341603800654,0.00407588435336947,0,
00:00:03.052,0.00739228539168835,-0.00404490763321519,0.0292675048112869,0,
00:00:03.056,0.0159573722630739,0.009842248633503909,0.00253123883157969,0,
00:00:03.06,0.0121458964422345,0.00157457892782986,-0.0202061682939529,0,
00:00:03.064,-0.012022971175611,-0.00836392492055893,-0.00915840268135071,0,
00:00:03.068,-0.00434896862134337,-0.00349593278951943,0.0165819842368364,0,
00:00:03.072,0.006107029505074021,-0.00012363462883513402,0.005629919935017821,0,
00:00:03.076,-0.0112449573352933,0.0098127955570817,-0.0131344022229314,0,
00:00:03.08,-0.009116429835557941,-0.0103667201474309,-0.0189415980130434,0,
00:00:03.084,0.0115393735468388,-0.007807896006852391,0.0125217884778976,0,
00:00:03.088,-0.000311677140416577,0.00664226757362485,0.0225325599312782,0,
00:00:03.092,0.0035928923171013602,0.0165071859955788,0.00169889640528709,0,
00:00:03.096,-0.0025947685353457897,-0.0059980875812470896,-0.00497054634615779,0,
00:00:03.1,-0.011620051227510001,-0.0032513493206352,-0.0305416267365217,0,
00:00:03.104,0.0211928579956293,-0.00432942993938923,0.00100160541478544,0,
00:00:03.108,0.0124909058213234,0.0047835442237556,0.0105985710397363,0,
00:00:03.112,-0.0242724884301424,-0.0026637029368430398,0.0215322114527225,0,
00:00:03.116,-0.0130973411723971,-0.000619719095993787,-0.0058966432698071,0,
00:00:03.12,0.0165557712316513,-0.00450520031154156,0.0020916394423693397,0,
00:00:03.124,-0.0020411431323736897,-0.0024980092421174,-0.00261558475904167,0,
00:00:03.128,0.00186646287329495,0.007198130246251821,-0.0187350306659937,0,
00:00:03.132,0.00980648770928383,0.00967462826520205,0.0103692598640919,0,
00:00:03.136,-0.00788501184433699,-0.00102858815807849,-0.0046975533477962,0,
00:00:03.14,-0.0117260944098234,-0.007737162057310341,0.00055636273464188,0,
00:00:03.144,5.82017537453794e-06,-0.00940814428031445,0.0037656642962247103,0,
00:00:03.148,0.0120722223073244,0.00327872834168375,0.0141025623306632,0,
00:00:03.152,-0.00210072216577828,0.00982237700372934,-0.0164338517934084,0,
00:00:03.156,0.00407201936468482,-0.00471576023846865,0.007585407234728341,0,
00:00:03.16,0.000897407997399569,-0.00111259566619992,0.000298027618555352,0,
00:00:03.164,-0.00681912899017334,0.00328116165474057,-0.0156210763379931,0,
00:00:03.168,-0.00593102863058448,0.00171128043439239,0.0191434901207685,0,
00:00:03.172,0.00265202741138637,0.0013641770929098099,-0.00543385650962591,0,
00:00:03.176,0.0129781328141689,-0.00179517886135727,-0.0109077543020248,0,
00:00:03.18,-0.000724869547411799,-0.00528284860774875,0.00470023881644011,0,
00:00:03.184,-0.0100770257413387,-0.0108245424926281,0.0104905171319842,0,
00:00:03.188,-0.00119816476944834,0.0129578206688166,0.000861200678627938,0,
00:00:03.192,-0.000701189041137695,0.0093696229159832,-0.0062158703804016105,0,
00:00:03.196,-0.0049429871141910605,-0.00414362736046314,-0.010880995541810998,0,
00:00:03.2,0.0019346078624948898,-0.0100289629772305,0.005058404058218,0,
00:00:03.204,0.010600121691823,-0.0010593904880806802,0.0150462230667472,0,
00:00:03.208,0.0206021852791309,0.00767365237697959,-0.00694890459999442,0,
00:00:03.212,0.0040850737132132105,0.00829263590276241,-0.0116459466516972,0,
00:00:03.216,-0.0402197800576687,-0.011185378767549999,-0.00617777183651924,0,
00:00:03.22,-0.0212154053151608,-0.007132299244403841,0.0179826617240906,0,
00:00:03.224,0.00619274098426104,0.005241984035819771,0.0379407331347466,0,
00:00:03.228,0.0322066023945808,0.00987839326262474,-0.0417339950799942,0,
00:00:03.232,0.0204289462417364,-0.00183057854883373,-0.0283904410898685,0,
00:00:03.236,0.000546901836059988,-0.0065240073017776,0.016967698931694,0,
00:00:03.24,-0.0287274420261383,-0.0008774483576416969,0.0078796474263072,0,
00:00:03.244,-0.0148965092375875,0.00333379115909338,0.00761132966727018,0,
00:00:03.248,0.0014516586670652,-0.004721719771623611,0.0118657285347581,0,
00:00:03.252,0.0140875708311796,0.000966698513366282,-0.0086152870208025,0,
00:00:03.256,0.0162347108125687,0.0113248322159052,-0.0179775878787041,0,
00:00:03.26,-0.00412422651425004,-0.0034739803522825198,0.00808206479996443,0,
00:00:03.264,-0.0129869217053056,-0.00791383627802134,0.0164533350616694,0,
00:00:03.268,-0.0102345570921898,-0.00523018836975098,-0.00864487886428833,0,
00:00:03.272,0.0245750937610865,0.0058799954131245604,-0.014411254785954999,0,
00:00:03.276,-0.006854005157947539,0.0117912339046597,0.000287349539576098,0,
00:00:03.28,-0.0116292890161276,-0.00633303541690111,-0.000481657771160826,0,
00:00:03.284,0.00107534299604595,-0.0086422273889184,0.0215590391308069,0,
00:00:03.288,0.00879513192921877,0.0107161710038781,-0.00679922103881836,0,
00:00:03.292,-0.00461600720882416,-0.00600385526195169,-0.0125337308272719,0,
00:00:03.296,0.005779508501291279,-0.00682654604315758,0.0100080985575914,0,
00:00:03.3,9.53353228396736e-05,0.000369788700481877,-0.0019379464210942398,0,
00:00:03.304,-0.00691611086949706,0.0134490793570876,0.0122773600742221,0,
00:00:03.308,-0.00090943620307371,0.0036351645831018704,-0.0178467053920031,0,
00:00:03.312,-0.000190245875273831,-0.0057569076307117896,-0.00803329329937696,0,
00:00:03.316,-0.0020629281643778103,-0.0100889913737774,0.020048601552844,0,
00:00:03.32,0.00877851992845535,0.00346474419347942,0.00291835074312985,0,
00:00:03.324,0.0072217877022922,-6.1989929236006e-05,-0.0120492167770863,0,
00:00:03.328,0.0115663157775998,0.005037765949964521,-0.00916031468659639,0,
00:00:03.332,-0.0219081081449986,0.00201830733567476,0.0030715533066541,0,
00:00:03.336,-0.0180931035429239,-0.0035731582902371896,0.0071236714720726,0,
00:00:03.34,-0.0010674832155928,-0.0029350568074733,0.0137331029400229,0,
00:00:03.344,0.00832059141248465,-0.0026668959762901102,-0.0062892735004425,0,
00:00:03.348,0.0160411614924669,-0.00311866519041359,-0.0101733887568116,0,
00:00:03.352,0.0128538180142641,0.0133038433268666,0.0026274344418197896,0,
00:00:03.356,0.00966358836740255,0.010537444613874,-0.00336793740279973,0,
00:00:03.36,-0.0256360284984112,-0.0195374302566051,0.008115211501717571,0,
00:00:03.364,-0.0208503436297178,-0.0029408037662506104,0.0013122670352459,0,
00:00:03.368,0.0124506913125515,0.00116463331505656,-0.0131638515740633,0,
00:00:03.372,-0.007244084030389791,0.00565797323361039,0.00854817591607571,0,
00:00:03.376,0.0136405546218157,0.00764067936688662,-0.008105530403554441,0,
00:00:03.38,0.0184825453907251,-0.00385004188865423,0.0194534379988909,0,
00:00:03.384,-0.015328804962337001,-0.00523055624216795,0.0050769974477589104,0,
00:00:03.388,-0.0102221332490444,-0.00461730547249317,-0.0287455320358276,0,
00:00:03.392,0.0158071331679821,0.00238428101874888,0.00202582566998899,0,
00:00:03.396,-0.00681281229481101,0.0035750768147409,0.0128364460542798,0,
00:00:03.4,-0.017911683768034,0.00208361330442131,-0.0005972227663733071,0,
00:00:03.404,0.0041021886281669105,-0.003994455561041829,-0.0028887726366519898,0,
00:00:03.408,0.0215255953371525,0.00914554763585329,-0.00541930366307497,0,
00:00:03.412,0.0130409691482782,-0.0018107601208612301,0.0024409219622612,0,
00:00:03.416,-0.0218946002423763,-0.00942262634634972,0.0044964007101953,0,
00:00:03.42,-0.0131253330036998,-0.00413283240050077,0.00708220480009913,0,
00:00:03.424,5.07664735778235e-05,4.0341226849705e-05,0.0005461195250973111,0,
00:00:03.428,0.0158084854483604,0.0088633494451642,-0.0211831741034985,0,
00:00:03.432,0.00621981313452125,0.00986108556389809,0.0228253677487373,0,
00:00:03.436,-0.0104555748403072,0.00029922733665444,-0.00399358524009585,0,
00:00:03.44,0.00232337624765933,-0.0147709045559168,-0.00874451547861099,0,
00:00:03.444,0.0060432804748415895,-0.00557716377079487,-0.00651423586532474,0,
00:00:03.448,-0.0071273660287261,0.00641309935599566,-0.00544438697397709,0,
00:00:03.452,-0.00800492987036705,0.0035086323041468898,0.021514531224965997,0,
00:00:03.456,-0.0029991758055985,-0.000815903360489756,0.0127880992367864,0,
00:00:03.46,0.0105304690077901,-0.00238117086701095,-0.0251353066414595,0,
00:00:03.464,0.005163318011909721,0.00890485383570194,-0.00974628515541554,0,
00:00:03.468,0.00649530813097954,0.0007680510170757769,0.0127446809783578,0,
00:00:03.472,-0.0145555157214403,-0.00828012637794018,0.0102512137964368,0,
00:00:03.476,-0.0100641651079059,-0.00071558722993359,0.0035884145181626103,0,
00:00:03.48,0.0209739357233047,-0.00754502974450588,-0.021032502874732,0,
00:00:03.484,0.00566343823447824,0.014571176841855,0.00854526646435261,0,
00:00:03.488,-0.0246833451092243,-0.00346865598112345,0.00372899835929275,0,
00:00:03.492,0.0127900829538703,-0.00653898902237415,0.004031633958220479,0,
00:00:03.496,-0.0055496250279247795,0.005388696212321521,-0.00783592369407415,0,
00:00:03.5,-0.00101314170751721,-0.00023318271269090498,-0.0030019828118383897,0,
00:00:03.504,0.00272168009541929,0.00569571414962411,-0.00150835863314569,0,
00:00:03.508,0.0159450694918633,-0.0035838645417243203,0.00200460525229573,0,
00:00:03.512,-0.0077011524699628405,-0.00626881467178464,0.0159461665898561,0,
00:00:03.516,-0.0200458653271198,-0.0017530375625938199,-0.0154042830690742,0,
00:00:03.52,0.0143006127327681,0.00647650519385934,-0.007261874154210091,0,
00:00:03.524,-3.36954835802317e-05,0.00168321537785232,0.0111786937341094,0,
00:00:03.528,-0.00579002173617482,-0.00279927044175565,0.0117415674030781,0,
00:00:03.532,0.0020308343227952697,0.0006157449097372589,-0.00641826493665576,0,
00:00:03.536,0.0129144517704844,0.000653789436910301,-0.0167665686458349,0,
00:00:03.54,-0.00672173127532005,-0.00220675952732563,0.00802514888346195,0,
00:00:03.544,0.0104641867801547,0.0034290582407265897,0.00131123582832515,0,
00:00:03.548,-0.00409080041572452,0.00114001345355064,0.00884413160383701,0,
00:00:03.552,-0.0242334026843309,-0.00371736125089228,-0.00487262848764658,0,
00:00:03.556,0.0043315580114722295,-0.0025891049299389102,-0.00761883845552802,0,
00:00:03.56,0.00533535983413458,-0.00216803536750376,0.00426684599369764,0,
00:00:03.564,0.007362197618931529,0.00349619355984032,-0.00711404765024781,0,
00:00:03.568,0.0014554557856172302,0.00546676805242896,0.005461831111460921,0,
00:00:03.572,-0.0132013661786914,-0.0048996820114553,0.00372298480942845,0,
00:00:03.576,0.008548143319785591,-0.00047780928434804104,0.00596890365704894,0,
00:00:03.58,0.0129324914887547,0.0056351195089519,-0.006026169285178179,0,
00:00:03.584,0.0209838710725307,-0.000433722016168758,0.00168995757121593,0,
00:00:03.588,-0.0305306892842054,-0.000616880599409342,-0.0020171224605292104,0,
00:00:03.592,-0.0278442520648241,-0.0022200704552233197,-0.00236660940572619,0,
00:00:03.596,0.00560750020667911,-0.0024170377291739,-0.00109260273166001,0,
00:00:03.6,0.0112085593864322,-0.00751505373045802,-0.007983227260410791,0,
00:00:03.604,0.0239265076816082,0.00400826660916209,0.0214374642819166,0,
00:00:03.608,-0.00509434100240469,0.0038465454708784797,-0.0021250897552818103,0,
00:00:03.612,-0.00910705793648958,0.0032381948549300398,-0.0167262833565474,0,
00:00:03.616,0.00382137880660594,0.00990174617618322,-0.00214440631680191,0,
00:00:03.62,-0.00744509231299162,-0.0101846344769001,0.00739752221852541,0,
00:00:03.624,0.000317367695970461,0.00236794841475785,0.00837088469415903,0,
00:00:03.628,-0.00635777693241835,-0.0105860773473978,-0.000104672675661277,0,
00:00:03.632,0.0298824179917574,-0.0021059766877442603,-0.009561292827129359,0,
00:00:03.636,-0.0234123039990664,0.0038468516431748897,0.0048651038669049705,0,
00:00:03.64,-0.00422203028574586,0.0031638459768146302,-0.0068211560137569896,0,
00:00:03.644,0.0150990802794695,0.0178239326924086,0.0131911234930158,0,
00:00:03.648,-0.0105338469147682,-0.009620805270969871,0.00313383084721863,0,
00:00:03.652,-0.0226221475750208,-0.0132020711898804,-0.007247446570545441,0,
00:00:03.656,0.0144929988309741,5.4386386182159206e-05,-0.0114737814292312,0,
00:00:03.66,0.0196065753698349,0.0124762402847409,0.0009393260697834189,0,
00:00:03.664,0.00338298478163779,-0.0105919949710369,-0.00586058059707284,0,
00:00:03.668,-0.000332160358084366,0.000697241048328578,0.00937868189066648,0,
00:00:03.672,-0.00800906680524349,0.00163023883942515,0.007341661490499971,0,
00:00:03.676,-0.007425669580698009,0.00457940343767405,0.0262683369219303,0,
00:00:03.68,-0.00946820992976427,0.0020908475853502802,-0.0242561548948288,0,
00:00:03.684,0.0005136629915796219,-0.0029676475096494,-0.0229808986186981,0,
00:00:03.688,0.0261897780001163,0.0079690907150507,0.008884205482900141,0,
00:00:03.692,0.00267908512614667,-0.00831414014101028,0.00694953417405486,0,
00:00:03.696,-0.0182658657431602,-0.00939597189426422,0.00591906066983938,0,
00:00:03.7,-0.0198499374091625,-0.00145923998206854,-0.0073037198744714295,0,
00:00:03.704,0.0144624123349786,0.00468579586595297,0.0116176512092352,0,
00:00:03.708,0.0204026382416487,0.0122563354671001,-0.008853103965520859,0,
00:00:03.712,-0.008349026553332809,-3.51539674738888e-05,-0.0045104278251528705,0,
00:00:03.716,-0.0179159883409739,-0.00840814597904682,0.00466357776895165,0,
00:00:03.72,0.00726797571405768,0.00219326023943722,0.00110012758523226,0,
00:00:03.724,0.019983833655715,0.00173099886160344,0.00375550822354853,0,
00:00:03.728,-0.0123551916331053,-0.00499220751225948,-0.0129241086542606,0,
00:00:03.732,-0.00424958718940616,-0.00228773732669652,0.00629597902297974,0,
00:00:03.736,0.00174474192317575,0.00557398004457355,5.3866100643063e-05,0,
00:00:03.74,-0.00920105259865522,-0.00510904705151916,0.0111201060935855,0,
00:00:03.744,0.0032262017484754302,0.00512107601389289,-0.0142841367051005,0,
00:00:03.748,0.0296312086284161,0.00588029390200973,0.00551873864606023,0,
00:00:03.752,-0.0190995316952467,0.00410907063633204,0.023473022505641,0,
00:00:03.756,-0.0193852968513966,-0.012264003045857,-0.0328449383378029,0,
00:00:03.76,0.0140767581760883,-0.008005121722817421,-0.0129783395677805,0,
00:00:03.764,0.00210084766149521,0.00447923550382257,0.0121082747355103,0,
00:00:03.768,-0.00936644058674574,-0.0007484296802431349,0.0157641526311636,0,
00:00:03.772,0.0112692080438137,0.008402112871408459,-0.0020667049102485197,0,
00:00:03.776,0.0069124368019402,0.000314567208988592,0.0069762971252203,0,
00:00:03.78,-0.0142013849690557,0.0026760557666420898,-0.00229998165741563,0,
00:00:03.784,0.00766940461471677,-0.0029555025976151198,-0.0150256836786866,0,
00:00:03.788,0.00635069003328681,-0.00146412441972643,-5.39834181836341e-05,0,
00:00:03.792,-0.0235175471752882,-0.0079579520970583,0.0061632497236132604,0,
00:00:03.796,0.00404712185263634,0.0044884849339723604,0.00542192300781608,0,
00:00:03.8,0.0161236897110939,0.000261046981904656,-0.014915032312273998,0,
00:00:03.804,0.0021848592441529,0.004916095640510321,0.0058071827515959705,0,
00:00:03.808,-0.0127301486209035,-0.00245704711414874,0.0137355290353298,0,
00:00:03.812,-0.0014112842036411199,5.6268494518008103e-05,-0.00117121927905828,0,
00:00:03.816,0.0139143420383334,0.000149669838720001,-0.00458298716694117,0,
00:00:03.82,-0.0102836294099689,-0.000291118602035567,-0.0138543387874961,0,
00:00:03.824,-0.004604503978043789,-0.0005044132703915241,-0.0060571529902517796,0,
00:00:03.828,0.0102024776861072,-0.000387361389584839,0.007601817138493059,0,
00:00:03.832,0.00704596051946282,0.00196384056471288,0.0144150238484144,0,
00:00:03.836,-0.00868224073201418,-0.00599908037111163,0.0188390761613846,0,
00:00:03.84,-0.009717976674437521,0.00253989384509623,-0.0185779798775911,0,
00:00:03.844,-0.00182163680437952,0.00538464309647679,-0.014731764793396001,0,
00:00:03.848,0.0064458502456545795,-0.00275214528664947,-0.008026909083127979,0,
00:00:03.852,0.00179514149203897,-0.000322881707688794,0.0144313769415021,0,
00:00:03.856,0.00411431258544326,-1.6941896319622198e-05,0.0103552853688598,0,
00:00:03.86,0.0104048373177648,0.00184909300878644,-0.009708474390208721,0,
00:00:03.864,0.00183665216900408,-0.0022986950352788,0.000374807917978615,0,
00:00:03.868,-0.0248731561005116,-0.0039334474131465,0.0040929410606622705,0,
00:00:03.872,-0.00314200343564153,0.0017770448466762898,-0.00126624619588256,0,
00:00:03.876,0.00207787426188588,0.0026152364443987604,-0.00440884986892343,0,
00:00:03.88,0.0110973995178938,0.0034606687258929,0.0006057741702534259,0,
00:00:03.884,0.0155701851472259,-0.00204683863557875,-0.00047182143316604197,0,
00:00:03.888,-0.0114149497821927,-0.00460272142663598,0.000862236542161554,0,
00:00:03.892,-0.00628579733893275,-0.0012191836722195099,0.0036897375248372602,0,
00:00:03.896,0.0022632782347500303,0.0059984051622450395,0.00552104460075498,0,
00:00:03.9,-0.00307174655608833,0.000821854104287922,-0.000976987183094025,0,
00:00:03.904,-0.00557263568043709,-0.0014090238837525199,-0.0156237194314599,0,
00:00:03.908,-0.0010830822866410002,-0.0016217612428590699,0.00269079091958702,0,
00:00:03.912,0.0136466529220343,-0.00294949044473469,-0.00664392206817865,0,
00:00:03.916,0.0135380998253822,0.00611341651529074,0.0274606291204691,0,
00:00:03.92,-0.0141227142885327,-0.0038861685898155,-0.0083057964220643,0,
00:00:03.924,-0.011906168423593,-0.00263223657384515,-0.00879376567900181,0,
00:00:03.928,0.0145697882398963,0.006937402766197921,-0.00526379467919469,0,
00:00:03.932,-0.0191814303398132,-0.00554495584219694,0.0139810983091593,0,
00:00:03.936,0.0011463297996670001,-0.00284972391091287,-0.0027415466029197,0,
00:00:03.94,0.0257346611469984,0.0122257573530078,-0.00941723305732012,0,
00:00:03.944,-0.00783902034163475,-0.0019454954890534301,-0.00675992108881474,0,
00:00:03.948,-0.0060621057637035795,-0.00931992474943399,0.0202692002058029,0,
00:00:03.952,-0.000828490126878023,0.00481237517669797,0.00337086617946625,0,
00:00:03.956,-0.00628163758665323,-0.0051701003685593605,-0.0116422465071082,0,
00:00:03.96,0.0036296595353633204,0.0025710496120154897,-0.0112309670075774,0,
00:00:03.964,0.008775525726377959,0.0094024920836091,0.0129359643906355,0,
00:00:03.968,-0.00804567988961935,-0.008836314082145691,0.00856884382665157,0,
00:00:03.972,-0.00199106894433498,-0.0057400050573051,-0.0031484984792769,0,
00:00:03.976,0.021279850974679004,0.009459349326789379,-0.0189339444041252,0,
00:00:03.98,-0.0141644459217787,0.00103853142354637,0.0218345709145069,0,
00:00:03.984,-0.00643234001472592,5.96092468185816e-05,-0.01325230486691,0,
00:00:03.988,-0.00546396477147937,-0.0019365469925105602,-0.0111841205507517,0,
00:00:03.992,-0.00285144243389368,-0.0128127466887236,0.0148485498502851,0,
00:00:03.996,0.00935795623809099,0.008367724716663359,0.00870920345187187,0,
00:00:04,0.00646186759695411,0.006003178656101229,-0.00613488955423236,0,
00:00:04.004,0.0152473235502839,0.0016455850563943401,0.00108990899752825,0,
00:00:04.008,-0.00410801358520985,0.00262445397675037,-0.00651848176494241,0,
00:00:04.012,-0.0139913577586412,-0.00651431689038873,0.0098298778757453,0,
00:00:04.016,-0.022469213232398002,-0.00730160856619477,-0.00978962425142527,0,
00:00:04.02,0.0181125849485397,-0.0011218159925192599,-0.0143404696136713,0,
00:00:04.024,-0.00457354541867971,0.00363164348527789,0.0221144538372755,0,
00:00:04.028,0.0058828298933804,0.00464992458000779,0.0129382899031043,0,
00:00:04.032,0.0189226046204567,0.0132988011464477,-0.0179314687848091,0,
00:00:04.036,-0.0029469041619449897,-0.00947040226310492,-0.0060804346576333,0,
00:00:04.04,-0.0170005802065134,-0.007520118262618779,0.000797042564954609,0,
00:00:04.044,-0.0112136295065284,-0.00477475114166737,0.0054006129503250105,0,
00:00:04.048,0.00146818545181304,0.00321177206933498,-0.0011048601008951699,0,
00:00:04.052,0.00659508258104324,0.00866029504686594,-0.00870986841619015,0,
00:00:04.056,0.0146488081663847,-0.00545185385271907,0.0152995055541396,0,
00:00:04.06,0.0121820820495486,-0.00114261580165476,0.0125930206850171,0,
00:00:04.064,-0.005362443625926971,0.00782651174813509,-0.0111281722784042,0,
00:00:04.068,-0.0228278208523989,-0.0038761419709771898,-0.0183402113616467,0,
00:00:04.072,0.0018555615097284302,-0.00177295180037618,-0.0009305363637395199,0,
00:00:04.076,-0.007697998080402609,0.00147843407467008,0.009052569977939129,0,
00:00:04.08,0.00725002074614167,-0.00399697525426745,-0.0030065628234297,0,
00:00:04.084,0.0210321396589279,0.000667521730065346,0.0141437007114291,0,
00:00:04.088,-0.0118266772478819,0.00389182986691594,0.0188813786953688,0,
00:00:04.092,-0.0189119800925255,-0.00280684186145663,-0.0199785679578781,0,
00:00:04.096,0.00684782164171338,-0.00148991763126105,-0.020645571872591997,0,
00:00:04.1,0.0326841063797474,0.005074885673820971,-0.0112649695947766,0,
00:00:04.104,-0.000418002804508433,0.0062792552635073705,0.0196648463606834,0,
00:00:04.108,-0.0324472077190876,-0.0118110813200474,0.0225965455174446,0,
00:00:04.112,-0.0140380570665002,-0.00253089633770287,-0.0064062220044434105,0,
00:00:04.116,0.0139197083190084,0.00213206233456731,-0.0108853876590729,0,
00:00:04.12,0.00412584422156215,-0.0010396454017609401,-0.00578662380576134,0,
00:00:04.124,0.0134670110419393,0.00597329065203667,0.00020724661590065802,0,
00:00:04.128,0.00989313703030348,0.0036972644738853,0.009635997004806999,0,
00:00:04.132,-0.00106724712532014,0.00585662527009845,-0.0024196864105761103,0,
00:00:04.136,-0.0166406892240047,-0.0107600446790457,-0.00517353089526296,0,
00:00:04.14,-0.0157747231423855,-0.007887570187449459,0.00137140869628638,0,
00:00:04.144,0.00657682679593563,-0.000546683266293257,0.007099807728081941,0,
00:00:04.148,-0.0035666860640049,0.00629287678748369,0.00206067878752947,0,
00:00:04.152,0.00156609446275979,0.00499095115810633,-0.007100942078977821,0,
00:00:04.156,0.0294549316167831,-0.00490735797211528,-0.006738937459886071,0,
00:00:04.16,0.0122785689309239,0.00858489610254765,0.00410341797396541,0,
00:00:04.164,-0.0211759377270937,0.00686645181849599,0.00045922677963972097,0,
00:00:04.168,-0.0244686659425497,-0.0124706001952291,0.0139546636492014,0,
00:00:04.172,-0.00954291503876448,-0.012145858258008999,-0.0159060060977936,0,
00:00:04.176,0.00525684701278806,-0.0038965605199337,0.007960650138556959,0,
00:00:04.18,0.0119873033836484,0.0037266975268721602,0.004565730225294829,0,
00:00:04.184,0.0189311597496271,0.0173280108720064,-0.0112893311306834,0,
00:00:04.188,0.0158428959548473,0.0126509228721261,-0.0128319608047605,0,
00:00:04.192,0.00834826938807964,-0.008798715658485891,0.0136379906907678,0,
00:00:04.196,-0.0382844842970371,-0.009574120864272121,-0.0014561080606654302,0,
00:00:04.2,-0.0257723871618509,-0.0144714284688234,0.0048610051162540895,0,
00:00:04.204,0.0034835853148251802,0.00227350695058703,0.0291512906551361,0,
00:00:04.208,0.0110936751589179,0.0125230774283409,-0.0269028283655643,0,
00:00:04.212,0.0136388707906008,0.005175258032977579,-0.0134685467928648,0,
00:00:04.216,0.0115492669865489,-0.00047624105354770996,-0.0056893415749073,0,
00:00:04.22,0.00675899721682072,-0.00308384629897773,0.00694566546007991,0,
00:00:04.224,0.0121634984388947,0.00111204001586884,0.00525558833032846,0,
00:00:04.228,-0.0363384038209915,-0.0055511104874312895,0.011901312507689,0,
00:00:04.232,-0.0162664111703634,-0.00539031997323036,0.0105037661269307,0,
00:00:04.236,0.000719098665285856,-0.00161714083515108,-0.00343357282690704,0,
00:00:04.24,0.0138526009395719,0.00627698609605432,-0.0156832169741392,0,
00:00:04.244,0.0170329697430134,0.0102737657725811,-0.0191501248627901,0,
00:00:04.248,0.005854011978954079,0.000625234039034694,-0.00818426441401243,0,
00:00:04.252,-0.0065598338842392,0.0020134213846176897,0.0315961390733719,0,
00:00:04.256,-0.0106400297954679,-0.0126487966626883,0.0149818919599056,0,
00:00:04.26,-0.0136030158028007,-0.00972387287765741,-0.00440134294331074,0,
00:00:04.264,0.0148896872997284,0.00487109180539846,-0.0191124491393566,0,
00:00:04.268,0.0107283825054765,0.00942203681915998,-0.000648105051368475,0,
00:00:04.272,-0.008462768048048021,0.00438580103218555,-0.00475563202053308,0,
00:00:04.276,0.00540798902511597,-0.0053535164333879896,0.0019868437666446,0,
00:00:04.28,-0.00426610419526696,0.00221738801337779,0.0148383341729641,0,
00:00:04.284,-0.005975554697215561,-0.0103920977562666,0.0127208763733506,0,
00:00:04.288,-0.0135676963254809,0.00515085412189364,-0.0053181815892458,0,
00:00:04.292,-0.00215438939630985,0.00514579005539417,-0.0250501688569784,0,
00:00:04.296,0.024765120819211003,-0.00529356021434069,-0.0127604901790619,0,
00:00:04.3,0.00750359101220965,0.00583572825416923,0.00585914729163051,0,
00:00:04.304,-0.0010798854054883099,-0.00816099531948566,0.0373617857694626,0,
00:00:04.308,-0.0150531446561217,0.00300366175360978,0.00508442707359791,0,
00:00:04.312,0.0028250715695321603,0.00776463840156794,-0.0230718273669481,0,
00:00:04.316,0.000541806977707893,-0.000932557275518775,-0.0136323627084494,0,
00:00:04.32,-0.007426206022500991,-0.0107104359194636,-0.00505468714982271,0,
00:00:04.324,-0.00163813796825707,-0.00208711251616478,0.020941412076354003,0,
00:00:04.328,0.0103738512843847,0.0074716336093843,-0.00316539569757879,0,
00:00:04.332,0.00800603814423084,0.00466405740007758,0.00052949320524931,0,
00:00:04.336,-0.0133896395564079,-0.0044299988076090795,0.00113201711792499,0,
00:00:04.34,0.00352398958057165,-0.007392084691673521,0.008563973009586329,0,
00:00:04.344,0.009792439639568329,0.0122889149934053,-0.0106965554878116,0,
00:00:04.348,-0.0124929407611489,-0.000581446220166981,0.00464783748611808,0,
00:00:04.352,-0.00796888582408428,-0.00411573797464371,-0.0119698392227292,0,
00:00:04.356,0.0180354099720716,-0.0050741438753902895,-0.00313658430241048,0,
00:00:04.36,-0.000959427852649242,0.00549219688400626,-9.16995923034847e-05,0,
00:00:04.364,-0.0190149452537298,0.00292146182619035,0.00599026679992676,0,
00:00:04.368,-0.00541584379971027,-0.015862513333558998,0.0260917935520411,0,
00:00:04.372,0.0166504979133606,0.00653190212324262,-0.000836590421386063,0,
00:00:04.376,0.0168752260506153,0.0130212195217609,-0.0243122614920139,0,
00:00:04.38,0.00216680718585849,-0.00230548856779933,-0.0161791555583477,0,
00:00:04.384,-0.0129008954390883,-0.000747439451515675,0.0116978688165545,0,
00:00:04.388,-0.0131782814860344,-0.0024870969355106397,0.00578674953430891,0,
00:00:04.392,-0.0016846067737788,-0.005160703789442779,0.00783595815300941,0,
00:00:04.396,0.00421398738399148,-0.00419591879472137,-0.00408125156536698,0,
00:00:04.4,0.00727373966947198,0.00113821029663086,-0.00527431117370725,0,
00:00:04.404,-0.00489922845736146,0.0021974896080792,0.0145367635414004,0,
00:00:04.408,0.0049961577169597106,0.0143319573253393,-0.00417381385341287,0,
00:00:04.412,0.0036359983496367897,-0.00645917095243931,-0.0119274947792292,0,
00:00:04.416,0.00590962544083595,0.00138201401568949,0.0036268413532525297,0,
00:00:04.42,-0.0149465147405863,-0.007560629397630691,-0.000692236761096865,0,
00:00:04.424,-0.0102526592090726,-0.00421588635072112,-0.00027453814982436603,0,
00:00:04.428,0.0231266003102064,0.00514537049457431,-0.00318212388083339,0,
00:00:04.432,0.00396395986899734,-0.000247893272899091,-0.0070318258367478795,0,
00:00:04.436,-0.0176948327571154,0.00431869737803936,0.0203940998762846,0,
00:00:04.44,-0.0074952756986022,-0.00064640014898032,0.0190601386129856,0,
00:00:04.444,0.00691413879394531,-0.00392236653715372,-0.0139807248488069,0,
00:00:04.448,-0.009233123622834679,0.000719299539923668,-0.0219502653926611,0,
00:00:04.452,0.0208640769124031,0.00347154983319342,-0.0111369686201215,0,
00:00:04.456,0.0267003737390041,0.00280241155996919,0.006241623312234879,0,
00:00:04.46,-0.025081554427742996,-0.00995299685746431,0.0138118863105774,0,
00:00:04.464,-0.0248907469213009,-0.00216974876821041,0.000593981822021306,0,
00:00:04.468,-0.007404986303299671,0.00109190738294274,0.0111893145367503,0,
00:00:04.472,0.0262163691222668,0.008455123752355579,0.0110534224659204,0,
00:00:04.476,0.0117272986099124,0.0128455143421888,-0.0242299102246761,0,
00:00:04.48,-0.0184760019183159,-0.00887757353484631,-0.00734343193471432,0,
00:00:04.484,0.0118612283840775,-0.0146138183772564,0.0014710177201777699,0,
00:00:04.488,-0.00652748206630349,-0.00257103703916073,0.000275838683592156,0,
00:00:04.492,0.00275295274332166,0.006784007884562021,0.024361465126276002,0,
00:00:04.496,0.00031407189089804904,0.0104419765993953,-0.0190646816045046,0,
00:00:04.5,-0.0110962651669979,-0.0036474012304097397,-0.00917039625346661,0,
00:00:04.504,0.000463376869447529,-0.00237454660236835,0.00629260903224349,0,
00:00:04.508,0.00258733332157135,-0.00124827993568033,0.00335162878036499,0,
00:00:04.512,0.0019502604845911301,-0.0024124444462359,0.00929300766438246,0,
00:00:04.516,0.0135079994797707,0.00220711738802493,0.00446346262469888,0,
00:00:04.52,-0.0030197473242878897,0.00207289168611169,-0.0124063016846776,0,
00:00:04.524,-0.00704563688486815,0.00260940520092845,-0.006046072114259,0,
00:00:04.528,-0.00478547206148505,-0.00473124068230391,0.00235478766262531,0,
00:00:04.532,-0.0030432776547968396,0.00344010372646153,0.00566416559740901,0,
00:00:04.536,0.0036921731662005203,-0.00530421361327171,1.68562073667999e-05,0,
00:00:04.54,0.0124273048713803,-0.0025645599234849197,-0.0119105810299516,0,
00:00:04.544,-0.0142318913713098,0.00160334154497832,0.0149814300239086,0,
00:00:04.548,0.0031431769020855396,0.0117075424641371,0.0103763537481427,0,
00:00:04.552,0.00244817603379488,-0.00311307096853852,-0.0198108088225126,0,
00:00:04.556,0.000984194804914296,-0.00974112376570702,-0.00280953920446336,0,
00:00:04.56,0.00184041727334261,0.0030323823448270603,0.00574162974953651,0,
00:00:04.564,0.00138310098554939,0.0014931105542928,-0.00408300152048469,0,
00:00:04.568,-0.0167150627821684,-0.00351109262555838,0.0105328736826777,0,
00:00:04.572,0.0039638108573854,0.004092181567102671,0.00489702448248863,0,
00:00:04.576,0.0210628416389227,0.009390708059072491,-0.0112432427704334,0,
00:00:04.58,-0.0106286136433482,-0.00785111542791128,-0.00251307827420533,0,
00:00:04.584,-0.00129206466954201,-0.0068800481967628,-0.00275328033603728,0,
00:00:04.588,-0.00032505631679669,0.000948480039369315,0.00407719844952226,0,
00:00:04.592,-0.00937596056610346,-0.00106828520074487,0.0108610717579722,0,
00:00:04.596,0.00669099297374487,0.0062459078617394,-0.00161537423264235,0,
00:00:04.6,0.0039049708284437704,0.00395505782216787,-0.007305294275283809,0,
00:00:04.604,0.00291268387809396,0.00809181202203035,0.0021996337454766,0,
00:00:04.608,0.00109258177690208,-0.012666561640798999,-0.0034156411420553897,0,
00:00:04.612,-0.009255290031433109,-0.0115922363474965,0.00213094195351005,0,
00:00:04.616,-0.008827101439237591,0.00746994651854038,-0.00741886207833886,0,
00:00:04.62,0.00151198683306575,0.0007660969276912509,-0.0054774428717792,0,
00:00:04.624,0.0244238749146461,0.00116673926822841,0.0211673360317945,0,
00:00:04.628,4.14540227211546e-05,0.00212287623435259,-0.00038101457175798703,0,
00:00:04.632,-0.0134923132136464,0.00804272294044495,-0.00986253842711449,0,
00:00:04.636,-0.00257547851651907,-0.00322942668572068,-0.00221718102693558,0,
00:00:04.64,-0.008518724702298641,-0.00954182725399733,0.0146891288459301,0,
00:00:04.644,-0.000435039924923331,0.00279478612355888,-0.0067064408212900205,0,
00:00:04.648,0.0104084927588701,0.00103090435732156,-0.00178795494139194,0,
00:00:04.652,0.00956836529076099,0.000302546861348674,-0.0065104276873171295,0,
00:00:04.656,0.0032867174595594397,-0.00406308239325881,-0.00892144069075584,0,
00:00:04.66,-0.00476485537365079,0.0102405976504087,0.0015034384559839999,0,
00:00:04.664,-0.0138492211699486,-0.00257560866884887,0.0208797790110111,0,
00:00:04.668,-0.0120538044720888,-0.00659800972789526,0.0068926909007132105,0,
00:00:04.672,0.0070342356339097,-0.00229970715008676,-0.0116070955991745,0,
00:00:04.676,0.0243248920887709,0.00200188276357949,-0.0120284548029304,0,
00:00:04.68,-0.00394874904304743,0.00558860599994659,0.00145818921737373,0,
00:00:04.684,-0.004283118061721321,0.00683008087798953,-0.00145494670141488,0,
00:00:04.688,0.00830260943621397,0.0014153101947158599,0.0113602681085467,0,
00:00:04.692,-0.0249885488301516,-0.0180259719491005,0.00584129896014929,0,
00:00:04.696,0.00126716250088066,-0.00378609425388277,0.00631792331114411,0,
00:00:04.7,0.0100123416632414,0.00697054900228977,-0.0198732018470764,0,
00:00:04.704,-0.008697285316884521,0.009036781266331671,-0.013981631025671999,0,
00:00:04.708,0.0136930830776691,-0.0011434201151132599,0.0100607061758637,0,
00:00:04.712,0.008143197745084759,-0.0005787179106846451,0.0092201316729188,0,
00:00:04.716,-0.0125112170353532,0.0008460046374239031,0.00241283653303981,0,
00:00:04.72,-0.00385729968547821,-0.00551314139738679,0.00182550551835448,0,
00:00:04.724,0.00725547783076763,-0.0027745969127863602,-0.0010425118962302802,0,
00:00:04.728,-0.0034256351646035897,0.00105714879464358,-0.00274809985421598,0,
00:00:04.732,0.00731021026149392,0.0111536867916584,-0.00882582645863295,0,
00:00:04.736,-0.0119714271277189,-0.0054542263969779,0.00876012537628412,0,
00:00:04.74,0.0019695658702403303,0.000614104326814413,-0.005177505780011421,0,
00:00:04.744,-0.0071856756694614905,-0.0112453699111938,0.0123835001140833,0,
00:00:04.748,0.0107636619359255,0.005385920405387879,-0.0152032189071178,0,
00:00:04.752,-0.0010396402794867802,0.00388185167685151,0.0114219393581152,0,
00:00:04.756,-0.0029263074975460802,-0.0046204999089241,-0.0025803386233747,0,
00:00:04.76,0.0156675968319178,0.0119143901392817,-0.00663611479103565,0,
00:00:04.764,-0.0062633641064167,-0.0062721562571823606,-0.00205355999059975,0,
00:00:04.768,-0.00855070073157549,0.000521782087162137,0.00449279043823481,0,
00:00:04.772,0.0066648558713495705,-0.000282068853266537,0.0019053060095757198,0,
00:00:04.776,-0.0107754906639457,-0.00593950133770704,0.00734980264678597,0,
00:00:04.78,-0.00284930597990751,-0.0062611894682049795,-0.011653252877295002,0,
00:00:04.784,-0.00248312577605248,0.0144307287409902,0.000855986727401614,0,
00:00:04.788,0.0240650605410337,0.00326896319165826,0.0204129628837109,0,
00:00:04.792,0.00116315018385649,-0.0032412712462246396,-0.0175914727151394,0,
00:00:04.796,-0.0206742137670517,-0.0129991555586457,-0.0133044822141528,0,
00:00:04.8,0.007877695374190809,0.00283341994509101,0.0147787509486079,0,
00:00:04.804,0.0125154787674546,0.00809704419225454,-0.00111535971518606,0,
00:00:04.808,-0.0259596835821867,-0.000452635082183406,-0.000233453072723933,0,
00:00:04.812,0.00323622371070087,0.0067705437541008,-0.0100178802385926,0,
00:00:04.816,0.00507467100396752,-0.0125477304682136,0.0165304355323315,0,
00:00:04.82,0.00738391699269414,-0.0022289443295449,0.006608701776713129,0,
00:00:04.824,0.0117292637005448,0.00937116052955389,-0.0122612603008747,0,
00:00:04.828,-0.025468772277236,-0.00193877925630659,-0.00227668066509068,0,
00:00:04.832,0.0205948818475008,0.00151080195792019,-0.0102234538644552,0,
00:00:04.836,-0.0044136201031506105,-0.0043906043283641295,0.0143031468614936,0,
00:00:04.84,-0.0103226630017161,3.21508991873998e-06,0.00436973199248314,0,
00:00:04.844,-0.00392684200778604,0.00330320978537202,-0.0209402795881033,0,
00:00:04.848,0.00272728758864105,-0.0031013109255582103,0.0238689109683037,0,
00:00:04.852,0.0011717278975993401,-0.00147694151382893,0.0101164346560836,0,
00:00:04.856,0.024724779650569,0.0052707311697304205,-0.0298199914395809,0,
00:00:04.86,-0.0111343264579773,0.000276290811598301,-0.00223594391718507,0,
00:00:04.864,-0.0158930718898773,-0.00573728093877435,0.011522987857461002,0,
00:00:04.868,0.00299155828543007,0.00451211025938392,0.007208825554698709,0,
00:00:04.872,0.0005982276052236559,0.0027253138832747897,-0.012582247145473999,0,
00:00:04.876,-0.0027989235240966103,-0.007253281772136691,0.00139665335882455,0,
00:00:04.88,-0.00240158243104815,0.00309093412943184,0.00940002035349607,0,
00:00:04.884,0.00861289538443089,-0.00160489743575454,-0.000338838843163103,0,
00:00:04.888,0.0364032872021198,0.00366758788004518,-0.00280258245766163,0,
00:00:04.892,-0.0216849613934755,0.005539014469832179,-2.14674582821317e-05,0,
00:00:04.896,-0.0379861518740654,-0.011602034792303999,-0.0026124797295779,0,
00:00:04.9,-0.00844657514244318,-0.00597686599940062,0.00499459356069565,0,
00:00:04.904,0.0371269807219505,0.00882491562515497,-0.0178177021443844,0,
00:00:04.908,0.00869505014270544,0.00267150183208287,0.0269901342689991,0,
00:00:04.912,-0.00443300371989608,0.00267615262418985,0.0030962908640503896,0,
00:00:04.916,-0.00946353375911713,0.0061777094379067395,-0.0226783342659473,0,
00:00:04.92,-0.00100284477230161,-0.007952531799674029,-0.0120862424373627,0,
00:00:04.924,-0.00999575015157461,-0.0155469011515379,0.00550091592594981,0,
00:00:04.928,0.00983913242816925,0.00803975481539965,0.0112245995551348,0,
00:00:04.932,0.009965040720999241,0.011081650853156998,0.00846622511744499,0,
00:00:04.936,0.00705642579123378,-0.00322523061186075,0.0046403072774410204,0,
00:00:04.94,-0.0322483852505684,-0.00207248027436435,-0.00010535755427554201,0,
00:00:04.944,9.98668328975327e-05,0.00100385292898864,-0.0139949163421988,0,
00:00:04.948,0.0243683904409409,-0.00433677760884166,0.00102799269370735,0,
00:00:04.952,0.0194189734756947,0.000525473151355982,0.00227853795513511,0,
00:00:04.956,-0.0277641341090202,0.0038948126602917897,0.00014081381959840701,0,
00:00:04.96,-0.0216893535107374,-0.00274249096401036,-0.00748827354982495,0,
00:00:04.964,0.00623788125813007,0.00479734595865011,-0.00564771890640259,0,
00:00:04.968,0.0159892328083515,-0.00912893656641245,0.0103362947702408,0,
00:00:04.972,0.0183277055621147,0.003018420888110999,0.0277728177607059,0,
00:00:04.976,-0.00700310105457902,0.00635343370959163,-0.0174749791622162,0,
00:00:04.98,-0.0156538188457489,-0.00031950676930137,-0.0137668363749981,0,
00:00:04.984,-0.00485635455697775,-0.0046407412737608,-0.0067819757387042,0,
00:00:04.988,-0.00146434514317662,-0.000192335457541049,0.00243624905124307,0,
00:00:04.992,0.0133008267730474,0.0029150929767638397,0.00693496037274599,0,
00:00:04.996,0.0157491769641638,0.000660693622194231,0.004149047192186121,0,
00:00:05,-0.0114250304177403,-0.00147923012264073,0.00890435092151165,0,
00:00:05.004,-0.0231276415288448,-0.0102438116446137,0.005324456375092271,0,
00:00:05.008,0.00292125646956265,0.00263194344006479,-0.0197663772851229,0,
00:00:05.012,0.0147332046180964,0.0043317372910678395,0.008019414730370041,0,
00:00:05.016,0.0165106784552336,0.0169630516320467,-0.0168264023959637,0,
00:00:05.02,-0.0149689828976989,-0.00511111179366708,0.0113995634019375,0,
00:00:05.024,-0.0104885268956423,-0.00960821378976107,0.00302137969993055,0,
00:00:05.028,0.00253309053368866,-0.0058688004501164,-0.0124219879508018,0,
00:00:05.032,-0.0039105401374399705,-0.0047097560018301,0.0216409154236317,0,
00:00:05.036,0.0143012218177319,0.008847276680171491,0.0016457703895866901,0,
00:00:05.04,0.00664757750928402,0.00893985014408827,-0.0133915804326534,0,
00:00:05.044,-0.0140404645353556,-0.00712207611650229,-0.00359082850627601,0,
00:00:05.048,-0.00854124035686255,-0.000677887815982103,0.00121655245311558,0,
00:00:05.052,-0.00077285134466365,-0.00112338166218251,-0.00158930837642401,0,
00:00:05.056,0.0188930910080671,0.00880383141338825,-0.000315015873638913,0,
00:00:05.06,0.010380432009696999,-0.00855073425918818,0.0037066109944135,0,
00:00:05.064,-0.0150895761325955,0.00076849345350638,0.0337542034685612,0,
00:00:05.068,-0.0143856629729271,0.00152561662252992,-0.0228290241211653,0,
00:00:05.072,-0.0022688852623105,-0.00406428659334779,-0.029185326769947995,0,
00:00:05.076,0.0045225853100419,-0.0011047369334846698,0.00818564277142286,0,
00:00:05.08,0.029083289206028,0.004239335656166079,0.00254627037793398,0,
00:00:05.084,-0.0150614799931645,-0.00304133212193847,0.0201286599040031,0,
00:00:05.088,-0.0058515490964055105,0.00639080023393035,0.00319830374792218,0,
00:00:05.092,0.00262586888857186,0.00970018468797207,-0.0171521995216608,0,
00:00:05.096,-0.0015340771060437,-0.0072932536713779,-0.0131562137976289,0,
00:00:05.1,-0.000194963926333003,-0.0107979839667678,0.0231754966080189,0,
00:00:05.104,-0.0134308207780123,-0.0060892188921570795,0.0038914994802326,0,
00:00:05.108,0.00866539496928453,0.0128852669149637,-0.0136873889714479,0,
00:00:05.112,0.00517226802185178,0.00313561968505383,-0.0111870709806681,0,
00:00:05.116,-0.00546919228509068,-0.0102725774049759,0.0271961577236652,0,
00:00:05.12,0.0231077168136835,0.00274836667813361,-0.00341007462702692,0,
00:00:05.124,0.00426667835563421,0.00662430049851537,-0.0204341448843479,0,
00:00:05.128,-0.0304769054055214,5.67049537494313e-05,0.0120852729305625,0,
00:00:05.132,-0.0161982011049986,-0.00027813549968414,9.52799309743568e-05,0,
00:00:05.136,0.0190956387668848,-0.0041560786776244606,-0.0106176249682903,0,
00:00:05.14,0.00925257429480553,-0.00467738974839449,0.0047526694834232296,0,
00:00:05.144,0.00625865301117301,-0.00215162662789226,0.0173949878662825,0,
00:00:05.148,-0.00790468323975801,0.005143671296536921,-0.00635115196928382,0,
00:00:05.152,-0.00638771476224065,0.0134623842313886,-0.00464243534952402,0,
00:00:05.156,-0.00315031502395868,-0.0016468750545755,-0.013888300396501999,0,
00:00:05.16,0.00660574808716774,-0.0114056579768658,0.0143572669476271,0,
00:00:05.164,0.0133004980161786,-0.0021707946434617,0.000298024533549324,0,
00:00:05.168,-0.00730329286307096,-0.00310742482542992,-0.0132544012740254,0,
00:00:05.172,-0.0214185807853937,-0.00069557671668008,0.0102727338671684,0,
00:00:05.176,0.00194796058349311,0.0103291235864162,0.0126602984964848,0,
00:00:05.18,0.035972822457552005,0.00783902779221535,-0.00962424278259277,0,
00:00:05.184,-0.0121231880038977,-0.007253227289766071,-0.00211196066811681,0,
00:00:05.188,-0.00371153419837356,-0.00243974989280105,-0.0050322730094194395,0,
00:00:05.192,-0.0217334851622581,-0.00969883799552917,-0.00108535413164645,0,
00:00:05.196,-0.00208678795024753,0.00282833981327713,0.00873575918376446,0,
00:00:05.2,0.00953683536499739,0.0102482121437788,-0.00452387146651745,0,
00:00:05.204,0.0296957902610302,0.0105914799496531,-0.000633284682407975,0,
00:00:05.208,-0.0094772819429636,-0.0123713407665491,0.0160886943340302,0,
00:00:05.212,-0.0144752115011215,-0.0102173164486885,-0.0183105543255806,0,
00:00:05.216,-0.00474692927673459,0.00256662582978606,-0.004765577148646121,0,
00:00:05.22,-0.0026922358665615303,-0.00152941537089646,0.007573244161903859,0,
00:00:05.224,-0.0026983865536749398,0.00445662811398506,-0.00045843422412872304,0,
00:00:05.228,0.0246082190424204,0.0111478846520185,0.00455282116308808,0,
00:00:05.232,0.0165317319333553,0.0006377871031872929,0.00426877802237868,0,
00:00:05.236,-0.0277468226850033,-0.00930979661643505,-0.0113760251551867,0,
00:00:05.24,-0.0199316404759884,-0.007957549765706059,0.016049288213253,0,
00:00:05.244,0.005440030712634329,0.00402907468378544,-0.00778115075081587,0,
00:00:05.248,0.0115113286301494,0.0072377766482532,-0.0196731369942427,0,
00:00:05.252,0.00161878403741866,0.000328968249959871,0.0046947062946856,0,
00:00:05.256,0.00560185918584466,-0.0022288719192147303,0.0231181923300028,0,
00:00:05.26,0.0209355056285858,-0.00211470411159098,-0.000569236988667399,0,
00:00:05.264,-0.009198056533932691,0.00530501734465361,-0.0125715201720595,0,
00:00:05.268,-0.0386995561420918,-0.0119350338354707,-0.0051568499766290205,0,
00:00:05.272,-0.0051724067889154,0.0017845393158495398,-0.00335351284593344,0,
00:00:05.276,0.00921182800084352,0.0010056218598038,0.00947322975844145,0,
00:00:05.28,0.038766872137785006,0.0115697346627712,0.004519851412624121,0,
00:00:05.284,-0.0029324151109904103,0.00198157597333193,-0.00390674499794841,0,
00:00:05.288,-0.0134721519425511,-0.00839495286345482,0.00398135324940085,0,
00:00:05.292,-0.00553035363554955,-0.00154671550262719,-0.00104217755142599,0,
00:00:05.296,-0.0105210598558187,-0.00428586639463902,-0.00274066207930446,0,
00:00:05.3,0.00131300964858383,0.0059221084229648105,-0.00214065774343908,0,
00:00:05.304,0.0174381751567125,-0.0029138731770217397,-0.000676909170579165,0,
00:00:05.308,0.0071161100640893,-0.00341954012401402,0.00054888630984351,0,
00:00:05.312,-0.013052225112915003,0.0077117825858295,0.0031327938195318,0,
00:00:05.316,-0.0118405763059855,0.00242883898317814,-0.00522038945928216,0,
00:00:05.32,0.00305688357912004,0.000934566196519881,0.00273727183230221,0,
00:00:05.324,0.0127683123573661,-0.00437786523252726,0.00307033862918615,0,
00:00:05.328,-0.00570341246202588,-0.00772816082462668,0.00920530781149864,0,
00:00:05.332,0.0019641460385173603,0.00302307470701635,-0.0130305429920554,0,
00:00:05.336,-0.00494520226493478,0.0044229063205421,-0.00631573563441634,0,
00:00:05.34,-0.0012091635726392302,9.744122507981959e-05,-0.00289715547114611,0,
00:00:05.344,0.0192979164421558,0.00789125729352236,0.0129719534888864,0,
00:00:05.348,-0.00803834944963455,-0.00586183555424213,0.0120755713433027,0,
00:00:05.352,-0.0170149933546782,-0.00836551003158093,-0.0005912082269787791,0,
00:00:05.356,0.0014375161845237,-0.000178019210579805,-0.0212234891951084,0,
00:00:05.36,0.0067698634229600395,-0.00303751789033413,-0.0055840355344116705,0,
00:00:05.364,-0.00518651911988854,0.0111657977104187,0.00899186357855797,0,
00:00:05.368,0.0238640196621418,0.00867090839892626,-0.00235523050650954,0,
00:00:05.372,0.0033454957883805,-0.0030810143798589698,0.0164798423647881,0,
00:00:05.376,-0.0254428759217262,-0.0110687613487244,-0.00187697866931558,0,
00:00:05.38,-0.014014258980751001,-0.00338136148639023,0.0022158059291541602,0,
00:00:05.384,0.0155530273914337,0.0036800825037062203,-0.0037088943645358103,0,
00:00:05.388,0.0041094650514423795,0.00135951419360936,-0.0194685813039541,0,
00:00:05.392,0.00121840089559555,-0.0010297119151800901,-0.00408232165500522,0,
00:00:05.396,0.000638611963950098,0.00286307348869741,0.0118463039398193,0,
00:00:05.4,-0.0018443075241521,-0.00203854311257601,0.0149642843753099,0,
00:00:05.404,0.0058370316401124,0.00617262069135904,-9.924349433276801e-05,0,
00:00:05.408,-0.00091363798128441,0.00424384232610464,-0.00757881021127105,0,
00:00:05.412,-0.00169452652335167,-0.0129507491365075,-0.00519288657233119,0,
00:00:05.416,0.00094587286002934,0.00189034373033792,0.007500642910599709,0,
00:00:05.42,-0.0109554752707481,0.00117149332072586,-0.0100493533536792,0,
00:00:05.424,-0.00255521456710994,0.00275651598349214,0.004050838761031629,0,
00:00:05.428,0.0013763158349320301,-0.0037056617438793204,0.0105255004018545,0,
00:00:05.432,0.00713196024298668,0.0046063708141446105,-0.0134331211447716,0,
00:00:05.436,0.00321439560502768,-0.00664611300453544,0.00325794843956828,0,
00:00:05.44,0.0093926265835762,-0.000450890889624134,-0.00239894678816199,0,
00:00:05.444,-0.012418020516634,0.00710616679862142,0.00417408859357238,0,
00:00:05.448,-0.0017204687464982302,0.00335258641280234,-0.00762279983609915,0,
00:00:05.452,0.0034394480753690004,-0.00362246576696634,0.0117557169869542,0,
00:00:05.456,0.00341245881281793,0.00032765616197139,0.008489307016134259,0,
00:00:05.46,-0.00943451281636953,-0.0117273721843958,-0.00870031025260687,0,
00:00:05.464,0.00429222639650106,0.0053108828142285295,-0.0108005572110415,0,
00:00:05.468,-0.00482681719586253,0.00415055407211185,-0.00308110774494708,0,
00:00:05.472,-0.00279030599631369,-0.00011974609515163999,0.00357985706068575,0,
00:00:05.476,0.00569928763434291,0.00196155766025186,0.0140056973323226,0,
00:00:05.48,0.0270020999014378,0.0005594704998657111,-0.00587782682850957,0,
00:00:05.484,-0.0169311668723822,0.00104456581175327,-0.0138710588216782,0,
00:00:05.488,-0.0131620615720749,-0.0035675119142979396,0.0323393307626247,0,
00:00:05.492,-0.00861296243965626,-0.00282474770210683,-0.00391062349081039,0,
00:00:05.496,0.00640190951526165,-0.00677508814260364,-0.0319847390055656,0,
00:00:05.5,0.0105289556086063,0.009153409861028191,-0.0062753497622907205,0,
00:00:05.504,0.0006190178683027629,0.0066540581174194795,0.0283574461936951,0,
00:00:05.508,0.0108527634292841,-0.00193027697969228,-0.00260902382433414,0,
00:00:05.512,-0.010953901335597002,-0.00400361604988575,-0.008452245965600009,0,
00:00:05.516,-0.0163433607667685,-0.0027205364312976603,-0.00194861029740423,0,
00:00:05.52,-0.0007412347476929429,-0.00473702792078257,0.00580016896128654,0,
00:00:05.524,0.0102796368300915,0.0069593917578458795,0.0154274832457304,0,
00:00:05.528,0.0152282305061817,0.00684825703501701,-0.00647790171205997,0,
00:00:05.532,0.00137799745425582,-0.00628953194245696,-0.00990340206772089,0,
00:00:05.536,-0.00462896982207894,-0.000745365803595632,-0.00742676248773932,0,
00:00:05.54,-0.0118372868746519,-0.0021071403753012397,-0.00614885054528713,0,
00:00:05.544,-0.0124973738566041,-0.0025390770751982897,0.0232483483850956,0,
00:00:05.548,0.00900508090853691,0.00307643413543701,-0.00368208438158035,0,
00:00:05.552,-0.00247723306529224,-0.00510283233597875,0.0101551963016391,0,
00:00:05.556,0.0199392344802618,0.0195360854268074,-0.0177655927836895,0,
00:00:05.56,0.00427884282544255,-0.00388864194974303,-0.0112182991579175,0,
00:00:05.564,-0.0124011011794209,-0.0109804878011346,0.00571692129597068,0,
00:00:05.568,0.009629533626139159,-0.0055999103933572795,0.00883134081959724,0,
00:00:05.572,-0.0210615936666727,0.00313772214576602,0.0115013709291816,0,
00:00:05.576,-0.00887116231024265,0.00451005576178432,-0.007513504941016441,0,
00:00:05.58,0.011104797013103998,0.00467524817213416,-0.00758292153477669,0,
00:00:05.584,0.0026563138235360397,-0.00176466174889356,-0.00216145627200603,0,
00:00:05.588,0.0119574759155512,-0.000806738913524896,6.94446862326004e-05,0,
00:00:05.592,0.0066246930509805705,-0.00571707729250193,0.0116340722888708,0,
00:00:05.596,-0.00991278234869242,-0.00184247468132526,0.0126316882669926,0,
00:00:05.6,-0.00481831654906273,0.006356662604957821,-0.0284263025969267,0,
00:00:05.604,-0.00460997829213738,0.0037442420143634103,-0.00597438309341669,0,
00:00:05.608,0.00118164776358753,-0.0047267214395105795,0.0235594604164362,0,
00:00:05.612,-0.0019325480097904801,-0.0009830587077885868,0.00629646889865398,0,
00:00:05.616,0.0054229442030191395,0.00463295122608542,-0.0251978859305382,0,
00:00:05.62,-0.00455851526930928,-0.00949696358293295,-0.0045515745878219604,0,
00:00:05.624,0.0018403356662020102,0.007155057508498429,0.0160763878375292,0,
00:00:05.628,0.0249662715941668,0.00476551288738847,0.00623840093612671,0,
00:00:05.632,-0.0188029780983925,-0.0114573054015636,0.00160820747260004,0,
00:00:05.636,-0.0118817128241062,0.0015879693673923599,-0.0136994095519185,0,
00:00:05.64,0.000523971859365702,0.00223187543451786,0.0194833893328905,0,
00:00:05.644,0.000805530580691993,0.0045095626264810606,-0.0133017357438803,0,
00:00:05.648,0.0104705030098557,0.00165058660786599,-0.0117887761443853,0,
00:00:05.652,-0.00504646031185985,-0.0054631712846458,0.00286894896999002,0,
00:00:05.656,0.012455316260456999,0.00768582755699754,-0.00406627636402845,0,
00:00:05.66,0.0117576746270061,-0.0025576546322554398,0.00382360140793025,0,
00:00:05.664,-0.0311681181192398,-0.007280449848622079,0.0315732732415199,0,
00:00:05.668,-0.00658893724903464,-0.00554527249187231,0.00425415812060237,0,
00:00:05.672,0.007876420393586159,0.00526417419314384,-0.0313793607056141,0,
00:00:05.676,0.00440976908430457,-0.000969649816397578,-0.0146993948146701,0,
00:00:05.68,0.0100813014432788,0.0036201644688844702,0.00402134377509356,0,
00:00:05.684,-0.00327447918243706,0.00989896059036255,0.00397043768316507,0,
00:00:05.688,-0.00210401695221663,-0.00237292796373367,0.0182665921747684,0,
00:00:05.692,-0.00550209637731314,-0.00352597329765558,0.00197411025874317,0,
00:00:05.696,0.0157002247869968,-0.00596242398023605,-0.00211293692700565,0,
00:00:05.7,-0.0170429758727551,-0.00680370861664414,0.0058056665584445,0,
00:00:05.704,-0.00350602017715573,0.00497733103111386,-0.0162135604768991,0,
00:00:05.708,0.00815588049590588,0.00607089698314667,-0.0126052889972925,0,
00:00:05.712,0.0036097199190408,0.00703318044543266,0.00471055135130882,0,
00:00:05.716,0.0022526283282786603,-0.00651463959366083,0.0111115593463182,0,
00:00:05.72,-0.0117971356958151,-0.00559723284095526,0.000129826570628211,0,
00:00:05.724,0.008724624291062359,0.00316106900572777,0.00798000209033489,0,
00:00:05.728,-0.000629109272267669,0.00038167228922247903,0.00342312478460371,0,
00:00:05.732,0.0042519667185843,-0.000258722982835025,-0.0152744790539145,0,
00:00:05.736,-0.00250945636071265,-0.0021740908268839104,-0.00230513326823711,0,
00:00:05.74,-0.0042337756603956205,0.00628439942374825,-0.0102501874789596,0,
00:00:05.744,-0.008943933062255379,-0.00620913226157427,0.0206657256931067,0,
00:00:05.748,-0.000591722433455288,0.0010248401667922698,0.0115992240607738,0,
00:00:05.752,0.0122784990817308,0.0042081605643034,-0.0220186617225409,0,
00:00:05.756,0.0135731194168329,-0.00102914858143777,0.0008719604229554531,0,
00:00:05.76,-0.006551180034875871,-0.00201179436407983,0.009254377335309979,0,
00:00:05.764,-0.0245815142989159,-0.00114357669372112,-0.0034808011259883603,0,
00:00:05.768,0.008080568164587021,3.41674854098528e-06,-0.010214046575129,0,
00:00:05.772,0.0217003766447306,0.0027504127938300397,0.0071451230905950095,0,
00:00:05.776,-0.0240908898413181,-0.0012295668711885801,0.00874817930161953,0,
00:00:05.78,0.0157302469015121,-0.00327948946505785,-0.004849364049732689,0,
00:00:05.784,0.00117288844194263,-0.00437728827819228,-0.00250382162630558,0,
00:00:05.788,-0.0150639256462455,0.0123557029291987,0.00347938481718302,0,
00:00:05.792,0.00114522071089596,-0.00224518519826233,-0.0056623257696628605,0,
00:00:05.796,0.00610315380617976,0.00701533537358046,-0.00272124423645437,0,
00:00:05.8,0.010906033217906999,-0.00446314970031381,0.0016793829854577801,0,
00:00:05.804,0.00775151839479804,-0.00676474999636412,0.0035633903462439797,0,
00:00:05.808,-0.020341657102108,-0.0102308876812458,0.0152772562578321,0,
00:00:05.812,-0.0170780383050442,0.00161684863269329,-0.00680927280336618,0,
00:00:05.816,0.0154145127162337,0.009146627970039841,-0.0166849382221699,0,
00:00:05.82,0.0108039854094386,0.00864374917000532,0.00022708435426466202,0,
00:00:05.824,-0.00448865769430995,-0.000679577642586082,0.00309787294827402,0,
00:00:05.828,-0.00440448988229036,-0.00206507812254131,0.0020722325425595,0,
00:00:05.832,-0.000558652507606894,-0.0119501380249858,-0.00323766330257058,0,
00:00:05.836,-4.27763334300835e-05,0.008791583590209479,0.0147789558395743,0,
00:00:05.84,0.01054079644382,-0.00509946141391993,0.00631299056112766,0,
00:00:05.844,0.0072829141281545206,0.0037235587369650602,-0.00256386282853782,0,
00:00:05.848,-0.0189859699457884,-0.00358899543061852,-0.0173436757177114,0,
00:00:05.852,-0.006687121000140911,0.00555197708308697,-0.0049776001833379295,0,
00:00:05.856,0.00897440873086452,0.00496152602136135,-0.0059994850307703,0,
00:00:05.86,0.00243029580451548,-0.00336088216863573,0.0168580636382103,0,
00:00:05.864,-0.00182823813520372,-0.0112057914957404,0.00245529250241816,0,
00:00:05.868,-0.006545876152813429,-0.00115817540790886,0.0031541653443127897,0,
00:00:05.872,0.0155878467485309,0.0066801211796701,-0.00483850575983524,0,
00:00:05.876,0.00279584107920527,0.0054155616089701705,-0.00148877094034106,0,
00:00:05.88,-0.00710570067167282,0.00351080088876188,-0.00444814935326576,0,
00:00:05.884,-0.0024945402983576103,-0.00363083300180733,-0.000191853352589533,0,
00:00:05.888,-0.008493906818330291,-0.0043184747919440295,0.0176507104188204,0,
00:00:05.892,0.00202538864687085,-0.000124859012430534,-0.0103667657822371,0,
00:00:05.896,-0.00198119156993926,-0.00598416989669204,-0.0055654994212091,0,
00:00:05.9,0.00250015477649868,0.00167742278426886,0.00284688780084252,0,
00:00:05.904,0.0197765845805407,0.008701208978891371,0.0014948173193261,0,
00:00:05.908,-0.00119961926247925,0.00591668719425797,-0.0134740686044097,0,
00:00:05.912,-0.0179824009537697,-0.00803290773183107,0.00581952044740319,0,
00:00:05.916,-0.00910195056349039,-0.0124614285305142,0.0167739484459162,0,
00:00:05.92,0.008856736123561859,0.0135104386135936,-0.0140832653269172,0,
00:00:05.924,0.0023117326200008397,0.00204601464793086,0.0109347691759467,0,
00:00:05.928,0.00235135573893785,-0.00239968881942332,-0.0015780235407874,0,
00:00:05.932,0.008687206543982029,-0.00269913347437978,-0.0158422347158194,0,
00:00:05.936,0.0016519877826795,-0.00128735927864909,0.0016233206260949401,0,
00:00:05.94,-0.00900488533079624,0.000187171943252906,0.0173739194869995,0,
00:00:05.944,0.0036814401391893604,0.0009585246443748471,0.00172901735641062,0,
00:00:05.948,-0.0172408428043127,0.00304262898862362,-0.014722160063683999,0,
00:00:05.952,-0.0016168603906408,-0.0014442597748711699,0.0007968121208250519,0,
00:00:05.956,0.0242051277309656,-0.00368538429029286,-0.0012486273190006599,0,
00:00:05.96,-0.000854946440085769,-0.000558870262466371,-0.00746900541707873,0,
00:00:05.964,-0.016265818849206002,0.00618797913193703,0.014471672475338001,0,
00:00:05.968,-0.00221332325600088,0.0006324342102743691,0.0091056302189827,0,
00:00:05.972,0.0132649810984731,0.00447701476514339,-0.00537830172106624,0,
00:00:05.976,-0.00212386017665267,-0.0119881583377719,-0.0071776467375457296,0,
00:00:05.98,-0.00346229574643075,-0.0019854826387018,-0.00788112729787827,0,
00:00:05.984,0.00333849037997425,0.00067448359914124,0.0020476912613958103,0,
00:00:05.988,-0.00264786113984883,0.00752357067540288,0.0158777497708797,0,
00:00:05.992,-0.0036231174599379297,0.00173939869273454,0.000697562529239804,0,
00:00:05.996,-0.0057040369138121605,-0.00120151694864035,-0.0189472027122974,0,
00:00:06,0.025689959526062,-0.008169975131750109,-0.00095722934929654,0,
00:00:06.004,-0.00370658165775239,0.00452988734468818,0.0147846713662148,0,
00:00:06.008,-0.00492363655939698,0.0107025019824505,-0.0015510673401877301,0,
00:00:06.012,-0.0114677790552378,-0.00303332880139351,0.00455109123140574,0,
00:00:06.016,-0.0124021889641881,-0.010926079005003001,-0.009339145384728909,0,
00:00:06.02,0.0027311451267451,-0.00486505636945367,0.00046383123844862,0,
00:00:06.024,0.00973323732614517,0.00429944833740592,-0.00299334269948304,0,
00:00:06.028,0.000486106786411256,0.00546622881665826,-0.00866509974002838,0,
00:00:06.032,0.0138244275003672,-0.0032410870771855103,0.0142656154930592,0,
00:00:06.036,0.0159966014325619,0.012207405641675,0.005413644015789029,0,
00:00:06.04,0.000177054651430808,0.00147333915811032,-0.0049644415266811796,0,
00:00:06.044,-0.0349531024694443,-0.0123422984033823,0.00254200585186481,0,
00:00:06.048,-0.0280154049396515,-0.00763822719454765,0.000101575482403859,0,
00:00:06.052,0.0174762774258852,0.00247952318750322,-0.00284367403946817,0,
00:00:06.056,0.0226606335490942,0.0072201220318675,-0.0095966998487711,0,
00:00:06.06,0.0093673262745142,-0.00243142084218562,-0.000145190962939523,0,
00:00:06.064,0.00311829941347241,0.00542525760829449,0.0213666185736656,0,
00:00:06.068,-0.0120420400053263,0.00015623409126419598,-0.0191457606852055,0,
00:00:06.072,-0.0115342317149043,-0.0042222049087286,-0.0089199785143137,0,
00:00:06.076,0.008061700500547891,-0.00437138322740793,0.0275006275624037,0,
00:00:06.08,-0.00528814271092415,0.0106845991685987,0.00307235866785049,0,
00:00:06.084,-0.00405835174024105,-0.000371903384802863,-0.0239057242870331,0,
00:00:06.088,0.0134047120809555,-0.00669867079705,-0.00702545046806335,0,
00:00:06.092,0.0131272962316871,-0.008252432569861409,0.0180420596152544,0,
00:00:06.096,-0.0189598109573126,0.00203844672068954,0.00172635237686336,0,
00:00:06.1,-0.0084006804972887,0.012106642127037,-0.00713306711986661,0,
00:00:06.104,0.0013088189298287,0.0009393945802003151,0.00140259531326592,0,
00:00:06.108,0.00989282410591841,-0.00316148065030575,0.000455167202744633,0,
00:00:06.112,0.011701681651175,-0.00315338768996298,0.009146797470748421,0,
00:00:06.116,-0.008726757019758221,-0.00357158482074738,-0.000823131413199008,0,
00:00:06.12,-0.0173291806131601,-0.00410552183166146,-0.0204368736594915,0,
00:00:06.124,-0.00326790194958448,0.0127235734835267,0.0165688432753086,0,
00:00:06.128,0.0189294163137674,0.004259945824742321,-0.00707248551771045,0,
00:00:06.132,0.0178533382713795,-0.00499538099393249,-0.0027639043983072,0,
00:00:06.136,-0.006871378980576989,-0.0096581494435668,0.00848924461752176,0,
00:00:06.14,-0.0213369689881802,0.00352909904904664,-0.00184198608621955,0,
00:00:06.144,0.0011833927128464,0.00809301249682903,0.00219381460919976,0,
00:00:06.148,0.00285810069181025,-0.0072001856751740005,-0.007940959185361859,0,
00:00:06.152,-0.00381198874674737,-0.00901507958769798,0.0186497289687395,0,
00:00:06.156,-0.00103374710306525,0.0089654577895999,-0.0137140993028879,0,
00:00:06.16,0.0152869271114469,0.0054356581531465106,-0.00874528754502535,0,
00:00:06.164,0.0028734579682350198,0.00097096839454025,0.0022247964516282103,0,
00:00:06.168,-0.00181834830436856,0.00225543486885726,0.00540215754881501,0,
00:00:06.172,-0.00729866046458483,-0.00862625613808632,0.00193137349560857,0,
00:00:06.176,-0.00721465749666095,-0.00517381448298693,0.00727785471826792,0,
00:00:06.18,-0.00106124707963318,0.000699244206771255,0.000754187523853034,0,
00:00:06.184,0.0118700172752142,0.0101422006264329,-0.0152111118659377,0,
00:00:06.188,0.0029031108133494897,-3.11519179376774e-05,0.006105222273617979,0,
00:00:06.192,-0.0157956425100565,-0.00506048463284969,0.0007134503684937951,0,
00:00:06.196,0.00701295770704746,0.00168665067758411,-0.0114052789285779,0,
00:00:06.2,0.000574576901271939,-0.0010393309639766801,0.00701280031353235,0,
00:00:06.204,-0.0037230334710329797,0.0011880664387717802,0.0247464589774609,0,
00:00:06.208,0.00926160998642445,-0.008196534588932991,-0.0189863853156567,0,
