Elapsed Time,EMG1,EMG2,EMG3,BioRadio Event,Unnamed: 5
00:00:00,0.554233253002167,1.2371649742126498,6.60305643081665,0,
00:00:00.004,-0.533638417720795,-1.17521643638611,-6.28350067138672,0,
00:00:00.008,-0.43457528948783897,-0.9827086925506591,-5.22956609725952,0,
00:00:00.012,-0.0424435958266258,-0.107257418334484,-0.551006019115448,0,
00:00:00.016,0.2333103120327,0.505710422992706,2.6776647567749,0,
00:00:00.02,0.267642468214035,0.615131080150604,3.26025342941284,0,
00:00:00.024,0.16122750937938699,0.37825399637222296,2.0144851207733203,0,
00:00:00.028,0.029609477147459998,0.0454584956169128,0.264532595872879,0,
00:00:00.032,-0.0887396261096001,-0.182607665657997,-0.965875089168549,0,
00:00:00.036,-0.116339683532715,-0.244893044233322,-1.3042743206024199,0,
00:00:00.04,-0.0750089585781097,-0.181629493832588,-0.9572493433952328,0,
00:00:00.044,-0.0210107509046793,-0.0636466667056084,-0.36373469233512895,0,
00:00:00.048,0.0136927925050259,0.0282777696847916,0.147480115294456,0,
00:00:00.052,0.0275267921388149,0.0735841765999794,0.384397566318512,0,
00:00:00.056,0.0287556946277618,0.0686137154698372,0.35307040810585,0,
00:00:00.06,0.0154577288776636,0.0334526263177395,0.18684403598308605,0,
00:00:00.064,0.000512475962750614,-0.00607178173959255,0.00964656658470631,0,
00:00:00.068,-0.0064694327302277106,-0.0196745730936527,-0.10287958383560199,0,
00:00:00.072,-0.0121149886399508,-0.0223577059805393,-0.118424348533154,0,
00:00:00.076,-0.0166112575680017,-0.0104138180613518,-0.0888356119394302,0,
00:00:00.08,0.00599094899371266,0.0031760749407112603,-0.0227919444441795,0,
00:00:00.084,0.009329495951533321,-0.00167160609271377,0.0378165580332279,0,
00:00:00.088,0.011204905807972001,0.004204151220619679,0.0302385333925486,0,
00:00:00.092,0.000189401398529299,0.00516798999160528,0.0214433297514915,0,
00:00:00.096,-0.0199655294418335,0.00111678044777364,0.0145946191623807,0,
00:00:00.1,-0.000494994630571455,0.0045820116065442605,0.011157438158989,0,
00:00:00.104,0.00329430750571191,0.00044003647053614297,-0.0140626141801476,0,
00:00:00.108,0.00446762749925256,-0.00526864593848586,-0.0158502981066704,0,
00:00:00.112,0.00532582867890596,-0.00816463120281696,-0.008062273263931271,0,
00:00:00.116,-0.000903572130482644,0.00309916748665273,0.00228154100477695,0,
00:00:00.12,-0.00652227411046624,0.00682657677680254,0.00482078408822417,0,
00:00:00.124,-0.0018898268463090101,0.0005051878979429599,0.00560325337573886,0,
00:00:00.128,0.0108847804367542,-0.0018108901567757101,-0.0007816996658220889,0,
00:00:00.132,3.48809990100563e-05,-0.00178235990460962,-0.00222234264947474,0,
00:00:00.136,-0.0019137823255732699,0.0012564253993332401,-0.00559044675901532,0,
00:00:00.14,-0.00559778371825814,-0.00393017614260316,0.012049961835146002,0,
00:00:00.144,-0.007271938957273959,0.0009339299867860971,-0.00609624665230513,0,
00:00:00.148,0.008442562073469159,-9.5201739895856e-06,-0.00347426091320813,0,
00:00:00.152,0.00164977333042771,0.00124716584105045,-0.00440617091953754,0,
00:00:00.156,-0.0025922788772732,0.00589627539739013,0.00554702989757061,0,
00:00:00.16,0.00129061250481755,0.00342311942949891,0.00303162937052548,0,
00:00:00.164,0.0034456728026270897,-0.00909802876412869,-0.000769198057241738,0,
00:00:00.168,-0.00379181862808764,-0.00596129661425948,0.0143674332648516,0,
00:00:00.172,-0.000307473936118186,0.00229593063704669,-0.000723970646504313,0,
00:00:00.176,-0.00149892666377127,0.0039614224806428,-0.0227184314280748,0,
00:00:00.18,0.0044542076066136395,0.004571184050291779,-0.0131021812558174,0,
00:00:00.184,-0.000311271578539163,-0.0015784250572323801,0.00839410442858934,0,
00:00:00.188,-0.00167051563039422,-0.0047035738825798,0.0132664749398828,0,
00:00:00.192,-0.005393390078097579,0.000478937552543357,0.0127578675746918,0,
00:00:00.196,0.00157775357365608,0.00365550955757499,0.00376499653793871,0,
00:00:00.2,0.0077476822771132,-0.00309392949566245,-0.012737519107758999,0,
00:00:00.204,0.00273706018924713,-0.0016972456360235802,-0.00610844045877457,0,
00:00:00.208,-0.000490947277285159,0.00501887639984488,-0.0023172588553279604,0,
00:00:00.212,-0.002268175361678,-0.0019502502400428102,-0.00395834585651755,0,
00:00:00.216,-0.0171509943902493,0.00244707986712456,0.00136055541224778,0,
00:00:00.22,-0.000562374654691666,-0.00177546602208167,0.00699284765869379,0,
00:00:00.224,0.01212019007653,-0.00410335604101419,0.00695045338943601,0,
00:00:00.228,0.0065144207328558,0.00118779751937836,-0.00120782211888582,0,
00:00:00.232,-0.0009329158929176631,0.00205181236378849,-0.00583145814016461,0,
00:00:00.236,-0.0022759912535548197,0.00318997842259705,-0.00105153012555093,0,
00:00:00.24,0.000557250459678471,-0.00200228975154459,-0.00157706183381379,0,
00:00:00.244,-0.00248175696469843,-0.0043761669658124395,0.0005298681207932531,0,
00:00:00.248,0.000535185565240681,-0.0009747677249833939,0.0018593404674902602,0,
00:00:00.252,0.0022512953728437398,0.00615230295807123,0.00173727027140558,0,
00:00:00.256,0.00368642038665712,-0.0012174453586339998,0.0194383878260851,0,
00:00:00.26,-0.0103800687938929,0.00259476643987,-0.0180431921035051,0,
00:00:00.264,-0.00560324871912599,-0.00203091325238347,-0.0176761839538813,0,
00:00:00.268,0.004000807646662,-0.00239871442317963,-0.00460174307227135,0,
00:00:00.272,0.005756445694714779,-0.0010582242393866199,0.0126795182004571,0,
00:00:00.276,0.0014054934727028,0.00031950807897374,0.0250692553818226,0,
00:00:00.28,0.004448217805475001,0.000994083005934954,-0.00648667477071285,0,
00:00:00.284,-0.0019543457310646803,0.00508723687380552,-0.0115685062482953,0,
00:00:00.288,-0.00355111504904926,-0.00970289390534163,-0.0104105034843087,0,
00:00:00.292,-0.00453077303245664,0.000551697099581361,0.0102873342111707,0,
00:00:00.296,0.00137201719917357,0.00831984262913466,0.0009122490300796929,0,
00:00:00.3,0.0024066215846687603,-0.000538728258106858,0.0012086950009688698,0,
00:00:00.304,0.00140108505729586,0.00396447908133268,0.00398846250027418,0,
00:00:00.308,-0.00404392927885056,-0.00728340912610292,0.00115136650856584,0,
00:00:00.312,0.00744454609230161,-0.00298030581325293,-0.0186922941356897,0,
00:00:00.316,0.00271898228675127,0.00010364316403865799,-8.41640430735424e-05,0,
00:00:00.32,-0.013566117733717,0.00155629043001682,0.0159484539180994,0,
00:00:00.324,0.0026217871345579602,0.0016241829143837099,-0.0047870469279587295,0,
00:00:00.328,0.0024425562005490104,-0.00114162196405232,0.00680754240602255,0,
00:00:00.332,0.00165651831775904,0.00210150657221675,-0.00211299629881978,0,
00:00:00.336,0.000656545860692859,0.00124589097686112,-0.00402994733303785,0,
00:00:00.34,-0.00636751158162951,0.0017259879969060401,-0.00255794217810035,0,
00:00:00.344,0.011631453409791,-0.0052676466293633,-0.0024428712204098697,0,
00:00:00.348,0.0026364994700998103,-0.002892114687711,-0.00109195569530129,0,
00:00:00.352,-0.00863602291792631,0.0028883258346468197,0.00909483898431063,0,
00:00:00.356,-0.00637912098318338,0.00481841107830405,0.0045359437353909,0,
00:00:00.36,-0.00493311090394855,0.000905293098185211,-0.0059162718243897,0,
00:00:00.364,0.00491856783628464,-0.0043793055228889,-0.00283424276858568,0,
00:00:00.368,0.00492792157456279,-0.0030965630430728197,0.00121500587556511,0,
00:00:00.372,0.0146217653527856,-0.00650651613250375,-0.00582066457718611,0,
00:00:00.376,0.00253947754390538,0.009587337262928491,0.00308265257626772,0,
00:00:00.38,-0.0185201857239008,0.006942477542907,0.007979892194271091,0,
00:00:00.384,-0.00898850616067648,-0.0018927452620118898,-0.00234904768876731,0,
00:00:00.388,0.0033051064237952198,-0.008305347524583341,-0.00180010998155922,0,
00:00:00.392,0.00642395112663507,0.00102190370671451,-0.00597771210595965,0,
00:00:00.396,0.00247727613896132,0.00461588380858302,0.0027123740874230896,0,
00:00:00.4,0.0032398987095803,-0.0007519533392041919,0.0009360648109577599,0,
00:00:00.404,0.00458933878690004,-0.00192119379062206,-0.00129100307822227,0,
00:00:00.408,-0.00792869087308645,-0.00114911969285458,0.0006166842649690809,0,
00:00:00.412,-0.005878613330423829,-1.1604974133661e-05,0.00194043153896928,0,
00:00:00.416,-0.0005018620868213469,0.000688459549564868,-0.000370204244973138,0,
00:00:00.42,0.0133699821308255,0.0028612578753382,0.00877501536160707,0,
00:00:00.424,-0.004305199254304171,-0.00149211171083152,0.0034873611293733103,0,
00:00:00.428,-0.0102283889427781,-0.00571027211844921,-0.0116391656920314,0,
00:00:00.432,-0.00249523180536926,0.00150248291902244,-0.00881944969296455,0,
00:00:00.436,0.0169012732803822,0.00997473672032356,-0.00751039618626237,0,
00:00:00.44,-0.005584064405411479,-0.00113697408232838,0.0120509099215269,0,
00:00:00.444,-0.00373256136663258,-0.00424230471253395,0.0123917292803526,0,
00:00:00.448,-0.00041454279562458396,-0.00314062763936818,-0.0015271210577338901,0,
00:00:00.452,0.00980956386774778,-0.00912604480981827,-0.0051540695130825,0,
00:00:00.456,-0.004161410965025429,0.010906127281487,-0.00171180698089302,0,
00:00:00.46,-0.00566637748852372,0.0102644134312868,-0.0051435180939734,0,
00:00:00.464,-0.000364129227818921,-0.00371241895481944,-0.00083593325689435,0,
00:00:00.468,-0.00523631228134036,-0.00847111735492945,0.0029486820567399302,0,
00:00:00.472,0.00474100885912776,-0.00184377178084105,0.007932153530418871,0,
00:00:00.476,0.007362188305705791,-0.000734280969481915,-0.00161410262808204,0,
00:00:00.48,-0.00185196474194527,0.00820712838321924,0.00318361655808985,0,
00:00:00.484,-0.000499372195918113,0.00123043055646122,-0.00544551480561495,0,
00:00:00.488,-0.00285471766255796,-0.0108513254672289,-0.00479509495198727,0,
00:00:00.492,0.00303253764286637,0.000706304737832397,0.0029107576701790103,0,
00:00:00.496,-0.00113192747812718,0.008859946392476559,-0.004416550509631629,0,
00:00:00.5,0.0023828730918467,0.00196793326176703,-0.0029121774714440103,0,
00:00:00.504,-0.00689171673730016,7.3431983764749e-05,0.00507796462625265,0,
00:00:00.508,0.000967107655014843,-0.00493784295395017,0.007774748839437959,0,
00:00:00.512,-0.00407020747661591,-0.00780101399868727,0.013179324567317999,0,
00:00:00.516,0.000781508511863649,0.00329210818745196,-0.0120271984487772,0,
00:00:00.52,0.0128372786566615,0.00685919914394617,-0.0165102016180754,0,
00:00:00.524,0.00286238407716155,0.000457603979157284,-0.00030386558501049903,0,
00:00:00.528,-0.0104054324328899,-0.00394114106893539,-4.22268713009544e-05,0,
00:00:00.532,-0.00626594386994839,-0.0019066373351961398,0.0161238051950932,0,
00:00:00.536,0.0110302325338125,0.0028080146294087198,0.0101326545700431,0,
00:00:00.54,0.00485845096409321,0.00404379656538367,-0.0110097229480743,0,
00:00:00.544,-0.00974426884204149,-0.00201288587413728,-0.009910948574543001,0,
00:00:00.548,-0.0111496187746525,-0.00497126160189509,-0.00252210767939687,0,
00:00:00.552,0.00160856964066625,-0.00160575681366026,0.00521462876349688,0,
00:00:00.556,0.009338784962892529,0.0058351028710603705,0.000718726252671331,0,
00:00:00.56,0.00457454426214099,0.0009064995101653039,0.0140332691371441,0,
00:00:00.564,0.0032003517262637602,-0.0011888094013556801,-0.0034540724009275397,0,
00:00:00.568,-0.00307764392346144,-0.00140344374813139,-0.0102123077958822,0,
00:00:00.572,0.004681435879319911,-0.000744364049751312,-0.00782318878918886,0,
00:00:00.576,-0.00982564501464367,-0.00206522946245968,-0.00176661426667124,0,
00:00:00.58,-0.006669141352176671,0.0045021059922874,0.0074057900346815595,0,
00:00:00.584,0.000200786103960127,-0.00190227199345827,0.0198746379464865,0,
00:00:00.588,0.0189204458147287,-0.00332751916721463,-0.0127206975594163,0,
00:00:00.592,-0.0112047716975212,0.00670942291617393,-0.0068159019574523,0,
00:00:00.596,-0.0069451881572604205,0.00326041178777814,0.00951219256967306,0,
00:00:00.6,-0.00164560414850712,-0.00388024002313614,-0.00544149009510875,0,
00:00:00.604,0.0106168612837791,-0.00203801319003105,-0.0136416871100664,0,
00:00:00.608,0.0042133959941566,-0.009890970773994921,0.013252317905426,0,
00:00:00.612,0.00115835561882704,0.000785380078013986,0.00316945626400411,0,
00:00:00.616,-0.0113941105082631,0.0125148072838783,0.00533958477899432,0,
00:00:00.62,0.0054865307174623,0.0084149232134223,-0.0159468688070774,0,
00:00:00.624,0.00143891479820013,-0.008047103881835941,0.00182635500095785,0,
00:00:00.628,-0.00584639050066471,-0.0077630071900785,0.0161145627498627,0,
00:00:00.632,-0.00260528433136642,-0.00237178942188621,-0.0125962728634477,0,
00:00:00.636,0.0099861016497016,0.0061865346506238,-0.0021340886596590302,0,
00:00:00.64,-0.00441942969337106,0.0037232360336929603,0.00628700433298945,0,
00:00:00.644,-0.005880041513591999,-0.0025253782514482698,-0.0055479034781456,0,
00:00:00.648,0.008403147570788859,-0.00272590410895646,0.00195463676936924,0,
00:00:00.652,-0.00994265358895063,-0.00298552098684013,0.000740120362024754,0,
00:00:00.656,0.012032394297421001,0.00474188942462206,0.00520193763077259,0,
00:00:00.66,0.0150203220546246,-0.0011188198113814,-0.0009022617014124991,0,
00:00:00.664,-0.0189616214483976,-0.000547691946849227,-0.00695577170699835,0,
00:00:00.668,-0.0121898464858532,0.005042117089033129,0.0079925898462534,0,
00:00:00.672,-0.0027118872385472103,-0.00261752610094845,-0.00126885797362775,0,
00:00:00.676,0.0125365294516087,-0.00247475621290505,-0.0101887453347445,0,
00:00:00.68,0.00287573668174446,0.00376891903579235,0.0073180734179914,0,
00:00:00.684,0.00304212118498981,0.0012630791170522599,0.000573815894313157,0,
00:00:00.688,0.00902538187801838,-0.0059459274634718895,-0.00765324058011174,0,
00:00:00.692,-0.00312235532328486,-0.00292797875590622,-0.0034387509804219,0,
00:00:00.696,-0.0127139193937182,0.00544545752927661,0.0189917162060738,0,
00:00:00.7,-0.0115554081276059,-0.0007261774153448639,0.0018081795424222898,0,
00:00:00.704,0.00234208954498172,0.0035813718568533702,-0.0059725008904933895,0,
00:00:00.708,0.00824026577174664,-0.00121062982361764,-0.008554743602871891,0,
00:00:00.712,0.0135015761479735,-0.00828544050455093,-0.007609477732330559,0,
00:00:00.716,0.00545502733439207,0.00891349837183952,0.00356068159453571,0,
00:00:00.72,-0.0158569738268852,0.000962829682976007,0.0195531602948904,0,
00:00:00.724,-0.0019125499529764102,-1.01432251540245e-05,-0.00454536126926541,0,
00:00:00.728,-0.00751043297350407,-0.00618347246199846,-0.00832290761172771,0,
00:00:00.732,-7.792102405801421e-05,-0.00476477202028036,-0.00422561727464199,0,
00:00:00.736,0.0121888183057308,0.00564533332362771,-0.00153374834917486,0,
00:00:00.74,0.0049559511244297,0.00719958171248436,0.0008030995377339419,0,
00:00:00.744,0.0010852444684132901,0.00143618881702423,0.00641113519668579,0,
00:00:00.748,-0.0056606302969157704,-0.007349422201514241,0.006858206819742921,0,
00:00:00.752,-0.00924551300704479,-0.00658247247338295,0.00722228223457932,0,
00:00:00.756,-0.0020889192819595302,0.0064555830322206,-0.00538136484101415,0,
00:00:00.76,0.0123288733884692,0.004877027589827779,-0.0198031459003687,0,
00:00:00.764,0.00185528071597219,-0.00193077453877777,-0.000996074173599482,0,
00:00:00.768,-0.000641773862298578,-0.00701953796669841,0.0147407073527575,0,
00:00:00.772,-0.00311308121308684,0.00044631221680901907,-0.0014388250419870002,0,
00:00:00.776,-0.0115939797833562,0.00961400382220745,-0.007510383613407609,0,
00:00:00.78,0.0061474842950701705,0.00117846380453557,0.00308221881277859,0,
00:00:00.784,0.0108370129019022,-0.00986786559224129,0.0046245786361396295,0,
00:00:00.788,-0.00608864659443498,-0.00246547418646514,0.0105638979002833,0,
00:00:00.792,-0.00533686904236674,0.00447720801457763,-0.0083871828392148,0,
00:00:00.796,0.00172443513292819,0.00168421177659184,-0.008514754474163059,0,
00:00:00.8,0.0030191070400178398,0.00702887494117022,-0.0005648774094879629,0,
00:00:00.804,0.0017100410768762198,-0.0056340424343943605,-0.00173138827085495,0,
00:00:00.808,-5.67876622881158e-06,-0.000924613617826253,0.0023148611653596197,0,
00:00:00.812,-0.00102596625220031,-0.00492139998823404,0.00653406325727701,0,
00:00:00.816,0.00300088152289391,0.000818561355117708,0.00576476007699966,0,
00:00:00.82,-0.006723482161760329,0.00453200144693255,-0.0085655078291893,0,
00:00:00.824,-0.0055708778090775,-0.00425635231658816,0.00362983299419284,0,
00:00:00.828,0.00137918489053845,0.00498066237196326,0.00610353238880634,0,
00:00:00.832,0.0157327204942703,0.00072208367055282,-0.00579559430480003,0,
00:00:00.836,0.0013037769822403802,-0.00331819802522659,-0.0108419070020318,0,
00:00:00.84,-0.0141140427440405,0.0025579854846000697,0.0010665240697562699,0,
00:00:00.844,0.0015736850909888699,0.000881404732353985,0.0043600294739008,0,
00:00:00.848,0.0011818634811788802,-0.00559717183932662,0.0033983401954174,0,
00:00:00.852,-0.00546520249918103,-0.00442282529547811,-0.00295849633403122,0,
00:00:00.856,0.0146275889128447,0.00575346779078245,-0.0007450425764545799,0,
00:00:00.86,0.00130650622304529,0.007132635917514559,0.0060076410882175,0,
00:00:00.864,-0.0141660068184137,-0.000785534968599677,0.00884010922163725,0,
00:00:00.868,-0.00680432934314013,-0.0055101690813899,-0.0139079261571169,0,
00:00:00.872,0.00917310640215874,-0.000865416310261935,-0.00675930874422193,0,
00:00:00.876,0.00345993065275252,0.000594631652347744,0.00128921202849597,0,
00:00:00.88,0.00541583728045225,0.0027555748820304897,0.0154985040426254,0,
00:00:00.884,-0.00381151121109724,-0.00162957154680043,-0.00729722250252962,0,
00:00:00.888,0.000323213986121118,-0.0036824028939008704,-0.00215389649383724,0,
00:00:00.892,0.00108511932194233,0.0016876365989446599,0.00437853578478098,0,
00:00:00.896,-0.004143758676946161,0.0002981256111525,-0.0010418463498354,0,
00:00:00.9,-0.00973181426525116,0.0031388576608151197,-0.00469548953697085,0,
00:00:00.904,0.000958475458901376,0.00353435287252069,-0.0019140111980959801,0,
00:00:00.908,0.0123505610972643,-0.00268187606707215,-0.00496743666008115,0,
00:00:00.912,-0.00014162551087793,-0.00543479202315211,0.0126467579975724,0,
00:00:00.916,-0.000247951684286818,0.0023862721864134104,0.0071900780312717,0,
00:00:00.92,-0.00316437776200473,-0.00012074245023541201,-0.00804762262851,0,
00:00:00.924,-0.00153502612374723,-0.0043900185264647,-0.00464738812297583,0,
00:00:00.928,0.000432628061389551,0.00419156206771731,-0.00319189880974591,0,
00:00:00.932,0.00957321748137474,0.00380806927569211,0.00100498646497726,0,
00:00:00.936,-0.00272925570607185,0.00496456352993846,0.00536081707105041,0,
00:00:00.94,-0.0102270906791091,-0.00751699320971966,0.00932038389146328,0,
00:00:00.944,-0.0043373582884669295,-0.00343177653849125,-0.0041054552420973795,0,
00:00:00.948,0.00655540078878403,-0.00433237897232175,-0.0152862248942256,0,
00:00:00.952,0.0033949394710362,0.00751708028838038,-0.000557892373763025,0,
00:00:00.956,-0.00301491864956915,0.0009241469670087099,0.0121926805004478,0,
00:00:00.96,0.007802319247275591,0.00586803909391165,0.00835565850138664,0,
00:00:00.964,-0.00158117699902505,-0.0039876629598438705,-0.0120673514902592,0,
00:00:00.968,-0.00796043686568737,-0.0109396260231733,-0.0014336114982143,0,
00:00:00.972,0.00348682352341712,0.00393590284511447,-0.000688224972691387,0,
00:00:00.976,0.0008572002989239991,0.0077116759493947,0.00314307026565075,0,
00:00:00.98,-0.00445911148563027,0.0025887463707476898,-0.00220576510764658,0,
00:00:00.984,0.007594125345349309,-0.00853189453482628,-0.00027795642381533997,0,
00:00:00.988,0.00114647764712572,-0.00219850521534681,0.0039672926068306,0,
00:00:00.992,-0.004861277528107171,0.00599323492497206,0.00027141795726492996,0,
00:00:00.996,-0.007616036105901,0.00308176456019282,0.00577672105282545,0,
00:00:01,0.0077802911400795,-0.0053222966380417295,-0.004208137281239029,0,
00:00:01.004,0.00317600998096168,-0.0012203680817037801,-0.000887437432538718,0,
00:00:01.008,-0.0069155222736299,-0.00145406334195286,-0.00826515816152096,0,
00:00:01.012,0.00368148554116488,0.00300209340639412,-0.00481867743656039,0,
00:00:01.016,0.0009807700989767911,0.00442196568474174,0.00521185947582126,0,
00:00:01.02,0.0018539762822911102,0.00047592111513949904,0.0152765670791268,0,
00:00:01.024,-0.0045964103192091,-0.00670478912070394,-0.0017464489210397,0,
00:00:01.028,-0.00424415804445744,-0.0032428759150207,-0.00624328665435314,0,
00:00:01.032,0.0073207076638937,0.00342040602117777,-0.00453277630731463,0,
00:00:01.036,0.00651730317622423,0.00351870059967041,-0.0011642405297607199,0,
00:00:01.04,-0.00907604489475489,0.00132934900466353,0.00130855396855623,0,
00:00:01.044,-0.0035501129459589702,-0.000654373783618212,0.00625177239999175,0,
00:00:01.048,0.0011248196242377199,-0.00356180127710104,-0.0065242862328887,0,
00:00:01.052,0.0112618589773774,0.00278915092349052,0.00328357215039432,0,
00:00:01.056,-0.00134335190523416,-0.0008683796622790401,0.000628136622253805,0,
00:00:01.06,-0.00969138089567423,-0.00338919111527503,-0.00031016545835882404,0,
00:00:01.064,-0.0107897790148854,-0.000615889031905681,0.00371186668053269,0,
00:00:01.068,0.0160472355782986,0.00600962759926915,-0.0104482965543866,0,
00:00:01.072,0.0142008103430271,0.0026038174983114,-0.00573052186518908,0,
00:00:01.076,-0.0200875699520111,-0.0057704052887857,0.0229049883782864,0,
00:00:01.08,-0.0055823833681643,0.0006222103256732231,0.00314175128005445,0,
00:00:01.084,0.007575105875730509,-0.0013820977183058901,-0.009797564707696441,0,
00:00:01.088,-9.204859816236421e-05,-0.0026075893547385896,-0.0154824573546648,0,
00:00:01.092,0.000743230746593326,0.000526628049556166,0.000303374195937067,0,
00:00:01.096,0.0145814632996917,0.00679380213841796,0.0106781842187047,0,
00:00:01.1,-0.00785805284976959,0.000709267391357571,0.0021873249206692,0,
00:00:01.104,-0.00707041379064322,-0.00407710392028093,-0.0025314090307802,0,
00:00:01.108,-0.00322935869917274,0.0018158981110900601,-0.000898819009307772,0,
00:00:01.112,0.004565972369164229,-0.0036412850022316,0.00312651647254825,0,
00:00:01.116,-0.00165139930322766,0.00044368836097419294,-0.00251205125823617,0,
00:00:01.12,-0.00300910347141325,0.00334568344987929,0.00325647857971489,0,
00:00:01.124,-0.00120024511124939,-0.00120366376359016,0.007634544279426341,0,
00:00:01.128,0.0115690771490335,-0.0015736243221908801,-0.00934264529496431,0,
00:00:01.132,0.0030138485599309197,-0.00259870220907032,-0.0054104751907289,0,
00:00:01.136,-0.007373967673629521,0.000344313564710319,-0.00286134192720056,0,
00:00:01.14,-0.007293944712728259,0.008570335805416109,0.00616729538887739,0,
00:00:01.144,0.00570246111601591,-0.0035868512932211204,0.00659679062664509,0,
00:00:01.148,0.00234198267571628,-0.00176260725129396,-0.0014481577090919,0,
00:00:01.152,-0.004214131273329261,0.0013530103024095301,-0.00576239125803113,0,
00:00:01.156,0.0111586907878518,-0.00414453959092498,-0.00686275865882635,0,
00:00:01.16,-0.0035877700429409703,0.00264203525148332,0.00493258284404874,0,
00:00:01.164,-0.0169763267040253,-0.00434598373249173,0.00389511859975755,0,
00:00:01.168,-0.0043499348685145395,-0.000583133252803236,0.00881353951990604,0,
00:00:01.172,0.0222313348203897,0.009422874078154559,-0.0009634603629820051,0,
00:00:01.176,0.0158303249627352,0.00832427851855755,-0.00335334776900709,0,
00:00:01.18,-0.0117624839767814,-0.006414829287678001,-0.0132417995482683,0,
00:00:01.184,-0.0228281132876873,-0.0147946812212467,-0.0021049119532108303,0,
00:00:01.188,-0.0031834961846470802,-0.000763492018450052,0.007201042491942641,0,
00:00:01.192,0.00970498938113451,0.00088731333380565,0.006632253993302579,0,
00:00:01.196,0.0073544522747397405,0.0111745353788137,0.0107983211055398,0,
00:00:01.2,-0.00021878043480683102,0.00600016955286264,-0.0111695434898138,0,
00:00:01.204,0.0106255440041423,-0.0033440159168094397,-0.009465808980166909,0,
00:00:01.208,0.0017353561706841,-0.00927433092147112,-0.0036967913620173896,0,
00:00:01.212,-0.0109275626018643,0.00491522997617722,0.00800319481641054,0,
00:00:01.216,-0.00893433950841427,-0.00116629514377564,0.0068878876045346295,0,
00:00:01.22,-0.00236775469966233,-0.00165185984224081,0.00395023170858622,0,
00:00:01.224,0.0028263668064028,-0.000320032180752605,-0.0019971220754087,0,
00:00:01.228,0.0045987768098712,-0.00332453777082264,-0.00703088287264109,0,
00:00:01.232,0.00353840342722833,0.0030194616410881303,-0.00438837707042694,0,
00:00:01.236,0.0013013370335102099,0.008123688399791721,-0.004349887836724521,0,
00:00:01.24,0.00145054049789906,0.00229287310503423,0.00223701959475875,0,
00:00:01.244,-0.0055656060576438895,-0.0033134992700070104,0.0183891728520393,0,
00:00:01.248,-0.0072925258427858405,-0.00712742190808058,0.00581315625458956,0,
00:00:01.252,0.008730960078537459,-0.007772718090564009,-0.0196381453424692,0,
00:00:01.256,0.0122395055368543,0.00468994583934546,-0.0098542757332325,0,
00:00:01.26,-0.0146643184125423,0.00632740696892142,0.0015045135514810699,0,
00:00:01.264,-0.0032735257409513,0.0074831317178905,0.0113274911418557,0,
00:00:01.268,-0.00240666093304753,-0.00616265973076224,0.00492887059226632,0,
00:00:01.272,0.00669570406898856,-0.00754218595102429,0.0020871714223176198,0,
00:00:01.276,0.0112903313711286,0.00715016713365912,-0.0065165045671165,0,
00:00:01.28,-0.00726324133574963,-0.00010341781307943199,-0.00444866484031081,0,
00:00:01.284,-0.00105554144829512,-0.0018644820665940601,0.00802499242126942,0,
00:00:01.288,-0.00989343877881765,-0.00326832477003336,-0.00772691331803799,0,
00:00:01.292,-0.00473356060683727,0.00401981920003891,-1.83226220542565e-05,0,
00:00:01.296,0.0169590450823307,-0.00172195583581924,0.000300865474855527,0,
00:00:01.3,0.008869859389960771,0.00336359674111009,0.006002134643495079,0,
00:00:01.304,-0.011315343901515,-0.0029691485688090303,-0.0038624776061624297,0,
00:00:01.308,-0.00901568029075861,0.00037678636726923303,0.00410487549379468,0,
00:00:01.312,-0.0012234023306518802,-0.00127999600954354,0.0056484960950911,0,
00:00:01.316,0.008228933438658709,0.00429690117016435,-0.00602981308475137,0,
00:00:01.32,0.00316623481921852,0.0014661222230643,-0.00865542609244585,0,
00:00:01.324,-0.002212940948084,-0.00388612993992865,-0.00897237192839384,0,
00:00:01.328,-0.00584053806960583,-0.00505421403795481,0.0087069533765316,0,
00:00:01.332,0.0101120714098215,-0.000538494612555951,0.0159274451434612,0,
00:00:01.336,0.00441275164484978,0.007047786377370359,0.00032986741280183196,0,
00:00:01.34,-0.00763634033501148,0.00575821148231626,-0.0123619670048356,0,
00:00:01.344,-0.00886106956750155,-0.00509277824312449,-0.0063108834438026,0,
00:00:01.348,-0.00196531880646944,-0.009224694222211841,0.00800167676061392,0,
00:00:01.352,0.00158682931214571,0.000288726296275854,0.0120706157758832,0,
00:00:01.356,0.017548693343996998,0.00661095743998885,-0.0140798408538103,0,
00:00:01.36,-0.00263511575758457,0.00646293070167303,-0.000389331195037812,0,
00:00:01.364,-0.0113089382648468,-0.0016482665669173,-0.00591440591961145,0,
00:00:01.368,0.00351311126723886,-0.0059934169985353895,0.0133599657565355,0,
00:00:01.372,0.00289443717338145,0.00117252895142883,0.00244493200443685,0,
00:00:01.376,-0.0090430211275816,0.0009207792463712391,-0.00964394956827164,0,
00:00:01.38,-0.0009346238803118471,-0.0026700922753661897,-0.0005707936943508679,0,
00:00:01.384,0.00616404274478555,-0.00130707072094083,-0.0019353791140019898,0,
00:00:01.388,0.0048152282834053,-0.0034209445584565397,0.012052676640451001,0,
00:00:01.392,0.00104592822026461,0.00356836267746985,0.00624292669817805,0,
00:00:01.396,0.00237148115411401,0.0108631793409586,-0.0212285239249468,0,
00:00:01.4,-0.00864316336810589,-0.00135510577820241,-0.00378158828243613,0,
00:00:01.404,-0.00735761085525155,-0.00501047819852829,0.0138920182362199,0,
00:00:01.408,0.0046411557123065,-0.00596506241708994,-0.0006929239025339481,0,
00:00:01.412,0.00560412742197514,0.000746002944651991,-0.00225962256081402,0,
00:00:01.416,0.0045400415547192105,0.0025451781693846,-0.00443942844867706,0,
00:00:01.42,-0.00264886277727783,0.0019078124314546602,0.011378575116396002,0,
00:00:01.424,0.00244072265923023,0.00474102701991796,0.00282237958163023,0,
00:00:01.428,-0.0080652441829443,-0.00643953075632453,-0.0100484685972333,0,
00:00:01.432,-0.009156046435236929,-0.0020830407738685604,-0.0059149111621081794,0,
00:00:01.436,0.00250933482311666,0.000672792957630008,0.0154041759669781,0,
00:00:01.44,0.007068498991429809,0.00162759190425277,0.0010013794526457802,0,
00:00:01.444,0.00790696125477552,-0.000762861745897681,-0.0171701647341251,0,
00:00:01.448,0.00427121808752418,0.00246773869730532,-0.0075776451267302,0,
00:00:01.452,-0.000613540585618466,0.0014174908865243199,0.0107052829116583,0,
00:00:01.456,-0.0121706239879131,-0.0024526808410883,0.00571232009679079,0,
00:00:01.46,-0.0090447785332799,0.00269965827465057,0.00492241652682424,0,
00:00:01.464,0.00699746701866388,0.000452527194283903,0.0047846967354416795,0,
00:00:01.468,0.00494388910010457,-0.006150969769805671,-0.0045083393342793,0,
00:00:01.472,0.0042195222340524205,0.00145689724013209,-0.0128721734508872,0,
00:00:01.476,-0.00209933496080339,-0.000218807632336393,0.00163789070211351,0,
00:00:01.48,-0.007049077656120059,0.000299268460366875,0.00837481487542391,0,
00:00:01.484,0.00453241774812341,0.000890135765075684,-0.009870217181742191,0,
00:00:01.488,0.00138681952375919,-0.00116666790563613,0.0026221093721687802,0,
00:00:01.492,-0.00451868725940585,0.00453685643151402,0.00290191336534917,0,
00:00:01.496,0.00719475233927369,0.00172019668389112,0.00266814674250782,0,
00:00:01.5,0.000714839668944478,-0.00586233660578728,0.007623636629432441,0,
00:00:01.504,-0.00720201758667827,-0.00109426979906857,-0.00190310319885612,0,
00:00:01.508,-0.00361733278259635,-0.00107469386421144,-0.00793075375258923,0,
00:00:01.512,-0.000760583730880171,0.00330368895083666,-0.0071265134029090405,0,
00:00:01.516,0.0139055587351322,0.00451081246137619,0.00166744424495846,0,
00:00:01.52,0.00516935111954808,0.000382669211830944,0.00228323857299984,0,
00:00:01.524,-0.0151409655809402,-0.00687341764569283,0.00745305698364973,0,
00:00:01.528,-0.00879729725420475,-0.0033867412712425,-0.00122579152230173,0,
00:00:01.532,0.0100039103999734,0.00335162761621177,-0.00014045246643945602,0,
00:00:01.536,-0.0028180459048599,0.00559890223667026,0.00750085525214672,0,
00:00:01.54,0.0062011447735130796,-0.000600602477788925,-0.0112264938652515,0,
00:00:01.544,0.00819650664925575,-0.000170712955878116,-0.00977460667490959,0,
00:00:01.548,-0.00645689154043794,-0.0077587263658642795,0.00446622585877776,0,
00:00:01.552,-0.0106446873396635,-0.000179482492967509,0.00907643046230078,0,
00:00:01.556,0.0122906304895878,0.00971621554344893,4.4992033508606296e-05,0,
00:00:01.56,-0.000789972546044737,0.0017302782507613301,-0.00146409717854112,0,
00:00:01.564,-0.00474832579493523,-0.007242314517498021,0.0034317318350076697,0,
00:00:01.568,-0.00970778521150351,-0.00416859239339828,0.000262988818576559,0,
00:00:01.572,0.00322971376590431,0.00279848859645426,-0.00900908280164003,0,
00:00:01.576,0.0105052357539535,0.00543976342305541,0.0026214073877781604,0,
00:00:01.58,0.000296813697787002,-0.00047099270159378604,-0.00111722073052078,0,
00:00:01.584,-0.00663189589977264,-0.00201774528250098,0.00863330159336329,0,
00:00:01.588,0.00196613604202867,-0.00145366985816509,-0.00815718993544579,0,
00:00:01.592,0.00263617723248899,-0.00449783122166991,0.00353485369123518,0,
00:00:01.596,-0.00137363490648568,0.00647772941738367,0.00010581036622170401,0,
00:00:01.6,0.0009699957445263859,0.00407503871247172,-0.00758571363985538,0,
00:00:01.604,9.32843104237691e-05,-0.00275960308499634,0.00263699772767723,0,
00:00:01.608,0.00528575805947185,-0.0012700536753982301,0.00445973081514239,0,
00:00:01.612,-0.009162444621324541,-0.00556239252910018,-0.0016707939794287099,0,
00:00:01.616,-0.009876260533928871,-0.00137173826806247,0.0101078907027841,0,
00:00:01.62,0.00907140225172043,0.00680451886728406,-0.00628805253654718,0,
00:00:01.624,0.00607309490442276,-0.00017488602316007,-0.0064064012840390205,0,
00:00:01.628,0.00789347477257252,0.00752625521272421,0.000359894591383636,0,
00:00:01.632,-0.00945162493735552,-0.0119688743725419,0.0042096069082617794,0,
00:00:01.636,-0.007507866714149709,2.8225924324942797e-05,-0.0045276409946382,0,
00:00:01.64,-0.0029736477881670003,0.00518021266907454,0.000703844183590263,0,
00:00:01.644,0.00968082901090384,0.00227892701514065,0.00472394982352853,0,
00:00:01.648,0.00407088501378894,-0.00535032479092479,0.0063590332865715,0,
00:00:01.652,-0.00252617220394313,-0.00280426489189267,-0.0028308918699622198,0,
00:00:01.656,-0.00263027613982558,0.007286679465323691,-0.00352833746001124,0,
00:00:01.66,0.00532682845368981,-0.00307756569236517,-0.00803892314434052,0,
00:00:01.664,-0.00128724088426679,-0.000456407782621682,-0.0026419146452099102,0,
00:00:01.668,0.000357419688953087,0.000425070931669325,0.000779010995756835,0,
00:00:01.672,-0.0110647808760405,0.00041957272333093,0.00478776171803474,0,
00:00:01.676,-0.004274162463843821,0.00012470540241338302,0.00321232713758945,0,
00:00:01.68,0.0037698268424719602,0.00402693543583155,0.00494684278964996,0,
00:00:01.684,0.00896537397056818,-0.00416328897699714,0.00163288554176688,0,
00:00:01.688,0.00745837623253465,-0.00552358850836754,0.0085714478045702,0,
00:00:01.692,-0.00394944893196225,0.00156358955428004,-0.00691146682947874,0,
00:00:01.696,-0.0028536282479763,0.00336098205298185,-0.0210148356854916,0,
00:00:01.7,-0.00637083407491446,0.00023116981901694103,-0.000992039102129638,0,
00:00:01.704,0.00681547587737441,0.0024614236317575,0.00730265444144607,0,
00:00:01.708,-0.00300336838699877,0.0008127351175062361,0.01163200289011,0,
00:00:01.712,-0.00048017955850809807,-0.00105453247670084,-8.663087646709759e-05,0,
00:00:01.716,-0.00173509889282286,0.000314272940158844,-0.00537768984213471,0,
00:00:01.72,0.000310137373162434,-0.00125378766097128,-0.0027163513004779803,0,
00:00:01.724,0.0059265187010169,-0.0061549860984087,0.000665118044707924,0,
00:00:01.728,0.008198484778404241,-0.0016107533592730802,0.00424482952803373,0,
00:00:01.732,-0.0102567402645946,0.0070143090561032295,0.0039770589210093,0,
00:00:01.736,-0.012831381522118998,0.0043808110058307604,-0.00294493278488517,0,
00:00:01.74,-0.0038343861233443,-0.00439504813402891,-0.00597197515890002,0,
00:00:01.744,0.0149765722453594,-0.0030678091570735,0.00404693931341171,0,
00:00:01.748,0.0165962018072605,0.000163165314006619,-0.0042969062924385105,0,
00:00:01.752,-0.0115048307925463,0.00612030411139131,-0.0018582586199045199,0,
00:00:01.756,-0.00247008306905627,0.0021115317940712,-0.00231848563998938,0,
00:00:01.76,-0.0143724652007222,-0.00433962000533938,0.0176119450479746,0,
00:00:01.764,0.0033614577259868396,-0.0038593995850533204,0.0062457388266921,0,
00:00:01.768,0.0142568470910192,-0.0052940440364182,-0.0212130695581436,0,
00:00:01.772,0.00171334075275809,0.00919659342616796,-0.0097337681800127,0,
00:00:01.776,-0.00161950441543013,0.00123108690604568,0.00924441032111645,0,
00:00:01.78,-0.00613940227776766,0.00270733376964927,0.011140201240777999,0,
00:00:01.784,-0.00390256638638675,-0.009586602449417109,-0.00110520864836872,0,
00:00:01.788,-0.00233087316155434,-0.00203766115009785,-0.00803948100656271,0,
00:00:01.792,0.0019742453005164896,0.00713563011959195,-0.0007059070630930361,0,
00:00:01.796,0.00609192019328475,0.0063605192117393,0.0048019764944911,0,
00:00:01.8,0.00545686669647694,-0.00667276326566935,0.00291581731289625,0,
00:00:01.804,-0.0023420937359333,-0.00707696564495564,0.00178640836384147,0,
00:00:01.808,-0.00203820015303791,0.00390625931322575,-0.0103155076503754,0,
00:00:01.812,-0.00469704158604145,0.00667410204187036,0.00213806750252843,0,
00:00:01.816,-0.00426702108234167,-0.000257702311500907,0.00778612401336432,0,
00:00:01.82,0.00277559878304601,-0.0005287087988108401,-0.000446867197751999,0,
00:00:01.824,0.00598613964393735,-0.00212800619192421,-0.00807290989905596,0,
00:00:01.828,-0.0017975977389141898,-0.00238993624225259,-0.007827062159776691,0,
00:00:01.832,-0.005746413487941029,-0.0138106308877468,0.011991186067462,0,
00:00:01.836,0.0103886276483536,0.0118807461112738,0.0036598143633455,0,
00:00:01.84,0.000607985421083868,0.010818880982696998,0.0073355287313461295,0,
00:00:01.844,-0.0034657283686101398,0.00224295095540583,-0.0165897365659475,0,
00:00:01.848,-0.0034853492397815,-0.00629282603040338,-0.00469262804836035,0,
00:00:01.852,0.00042726736865006403,-0.00804478861391544,0.0075180483981967,0,
00:00:01.856,0.000351134222000837,0.0016688093310222,0.00594476703554392,0,
00:00:01.86,-0.0023383807856589603,0.0026371453423053,-0.00108077528420836,0,
00:00:01.864,-0.0067191575653851,-0.00521337520331144,-0.00458671106025577,0,
00:00:01.868,0.0052922461181879,0.0013594381744042,0.00040816210093907996,0,
00:00:01.872,0.0109610799700022,0.008002905175089841,-0.0006477566203102469,0,
00:00:01.876,0.00775601947680116,0.0032355627045035397,0.00485378224402666,0,
00:00:01.88,-0.0117295999079943,-0.00221018632873893,-0.00454740365967155,0,
00:00:01.884,-0.00967448018491268,-0.00647954642772675,-0.00013306450273376002,0,
00:00:01.888,0.00225995061919093,-0.00564839597791433,0.0036827458534389704,0,
00:00:01.892,0.0018696647603064801,0.000284170964732766,0.0035915744956582798,0,
00:00:01.896,0.00194544799160212,0.00620641186833382,0.00314460508525372,0,
00:00:01.9,-0.0026435973122716,0.0065477215684950395,-0.0118049280717969,0,
00:00:01.904,0.0129248788580298,-0.0012039892608299901,-0.0068898000754416,0,
00:00:01.908,-0.00681962445378304,-0.005555460229516029,0.00546508049592376,0,
00:00:01.912,-0.00688629783689976,-0.0007047926192171871,0.00385454669594765,0,
00:00:01.916,-0.00146341731306165,0.00283245625905693,-0.00393046718090773,0,
00:00:01.92,0.000571743992622942,-0.00123976613394916,0.00871497299522161,0,
00:00:01.924,0.0118310367688537,-0.00134887977037579,0.00455351267009974,0,
00:00:01.928,0.00010978357022395401,0.00182938005309552,-0.00823086500167847,0,
00:00:01.932,-0.0084706163033843,-0.007566062267869709,0.00492343213409185,0,
00:00:01.936,0.0020073235500603897,0.00514958519488573,-0.007628378458321091,0,
00:00:01.94,0.0016345918411389,0.00741043267771602,-0.00682424893602729,0,
00:00:01.944,0.00131214398425072,0.0016099566128104901,0.00500721810385585,0,
00:00:01.948,-0.0100914323702455,-0.00740083632990718,0.005829595495015379,0,
00:00:01.952,-0.0054670432582497605,-0.00262601324357092,0.00461137620732188,0,
00:00:01.956,0.0123505815863609,0.0023081859108060603,-0.00685337604954839,0,
00:00:01.96,0.0127688087522984,-0.0005896406364627179,-0.00202339352108538,0,
00:00:01.964,-0.0036919082049280396,-0.00238759163767099,0.00301510142162442,0,
00:00:01.968,-0.0123932827264071,0.00457441341131926,0.00600897101685405,0,
00:00:01.972,-0.00607058079913259,0.00262343627400696,-0.00637983111664653,0,
00:00:01.976,0.00582072092220187,-0.006917539052665229,-0.000752273947000504,0,
00:00:01.98,0.00351409800350666,0.00357396388426423,-0.00831962376832962,0,
00:00:01.984,-0.00041282965685240897,-0.00132174545433372,0.00969725102186203,0,
00:00:01.988,0.000111669884063303,0.0036340719088912,0.006377337500453,0,
00:00:01.992,0.0029721823520958398,-0.0009447543998248881,-0.009131720289587971,0,
00:00:01.996,0.000945218256674707,-0.00390588073059917,-0.0010102080414071699,0,
00:00:02,0.00075535400537774,0.0029840802308172,-0.000219709327211604,0,
00:00:02.004,-0.00826167687773705,-0.000366060121450573,0.00795619934797287,0,
00:00:02.008,0.00486740004271269,-0.00295024388469756,-0.0015678787603974301,0,
00:00:02.012,-0.00133199151605368,0.00163169228471816,-0.00544945476576686,0,
00:00:02.016,-0.0037264251150190796,0.0018693619640544102,5.5021402658894706e-05,0,
00:00:02.02,0.0038679642602801297,0.0027153382543474397,0.0016476446762681,0,
00:00:02.024,-0.00350299035198987,-0.00244302744977176,0.0012920572189614198,0,
00:00:02.028,0.0037180234212428297,-0.00045443509588949404,-0.00377888604998589,0,
00:00:02.032,0.00720598781481385,-0.0049317991361022,0.0036162741016596603,0,
00:00:02.036,-0.00571620976552367,0.00299607869237661,0.00270677078515291,0,
00:00:02.04,-0.0050042946822941295,0.000656142074149102,-0.00216697691939771,0,
00:00:02.044,0.0012743626721203301,-0.0038215343374759,0.00635768752545118,0,
00:00:02.048,0.00848153606057167,0.0043360898271203,-0.0124808456748724,0,
00:00:02.052,-0.0005910921026952559,0.0056604389101266896,-0.0019631192553788398,0,
00:00:02.056,-0.0131001025438309,-0.0056951963342726205,0.0200740993022919,0,
00:00:02.06,-0.000595014600548893,0.00671398499980569,-0.00945874862372875,0,
00:00:02.064,0.0026473880279809197,-0.00511228013783693,-0.0147243812680244,0,
00:00:02.068,0.00257391668856144,-0.00728141190484166,-0.00300241610966623,0,
00:00:02.072,0.0120348446071148,0.000503754825331271,0.008848965167999271,0,
00:00:02.076,-0.000772292725741863,0.0033311948645859996,0.0133805740624666,0,
00:00:02.08,-0.00755178043618798,0.0050232750363647894,0.00239738961681724,0,
00:00:02.084,-0.00289324298501015,-0.00279583618976176,-0.0061868648044765,0,
00:00:02.088,-0.000434112269431353,-0.00205974816344678,-0.0057085822336375705,0,
00:00:02.092,0.00278394087217748,0.0023461312521249104,-0.000184701959369704,0,
00:00:02.096,-0.00307033327408135,0.00575037579983473,0.00497910240665078,0,
00:00:02.1,0.00107931951060891,-0.0020886214915663,-0.00556726288050413,0,
00:00:02.104,0.00387385999783874,-0.00861078687012196,-0.00543674221262336,0,
00:00:02.108,0.00110259745270014,-0.0012979948660358802,0.00511306105181575,0,
00:00:02.112,-0.0140063595026731,-0.00164569716434926,0.00302050239406526,0,
00:00:02.116,0.00953167304396629,0.00708765769377351,0.0036280949134379604,0,
00:00:02.12,0.0124614685773849,0.007288716267794371,0.00450945179909468,0,
00:00:02.124,-0.00936095602810383,0.00075948447920382,-0.00613386463373899,0,
00:00:02.128,-0.0037630421575158795,-0.00818193610757589,-0.00805009715259075,0,
00:00:02.132,0.0034974340815097102,-0.00508584873750806,-0.00421766983345151,0,
00:00:02.136,-0.00109781825449318,0.00636179326102138,0.0111728124320507,0,
00:00:02.14,-0.00417464738711715,0.00136616604868323,0.000254010257776827,0,
00:00:02.144,-0.00329732871614397,-0.0076690218411386,0.00468749552965164,0,
00:00:02.148,0.00169083289802074,0.0040282988920807795,-0.00440212804824114,0,
00:00:02.152,0.00641461694613099,0.00392544083297253,-0.010620036162436,0,
00:00:02.156,-0.000307843496557325,-0.0034830784425139397,0.00867000315338373,0,
00:00:02.16,0.00591847440227866,0.0022519035264849697,4.5289350964594605e-05,0,
00:00:02.164,0.00088051927741617,-0.00303739495575428,0.00545553537085652,0,
00:00:02.168,-0.0018793414346873801,0.000918946403544396,-0.00563546968623996,0,
00:00:02.172,-0.0111788734793663,0.0013941099168732801,-0.0060915919020772,0,
00:00:02.176,-0.00499734003096819,-0.00150992639828473,0.00631556706503034,0,
00:00:02.18,0.0046145836822688606,0.0037615294568240604,0.000346357439411804,0,
00:00:02.184,0.008081415668129921,0.00107695918995887,-0.00249198754318058,0,
00:00:02.188,-0.000610560644418001,-0.0060868980363011395,0.00830432679504156,0,
00:00:02.192,0.000588463328313082,-0.000931000395212322,0.00235759513452649,0,
00:00:02.196,-0.00440918141975999,0.0034237008076161103,-0.012460945174098,0,
00:00:02.2,0.000797217828221619,-0.000328212598105893,-0.000207758304895833,0,
00:00:02.204,0.0061430609785020395,-0.00067761744139716,0.000442397140432149,0,
00:00:02.208,0.00551192229613662,-0.00420943554490805,-0.0025442021433264,0,
00:00:02.212,-0.00712234899401665,0.00852403696626425,0.009982435964047909,0,
00:00:02.216,-0.0117364460602403,-0.000182861200300977,-0.00147778471000493,0,
00:00:02.22,-0.005343431141227479,-0.00474796490743756,0.0035236033145338297,0,
00:00:02.224,0.00229615648277104,-8.92866009962745e-05,-0.008899965323507791,0,
00:00:02.228,0.0229059420526028,0.005220530554652211,-0.00228177988901734,0,
00:00:02.232,0.000616119359619915,-0.005287442822009329,0.000138987103127874,0,
00:00:02.236,-0.00936463102698326,-0.0012084967456758,0.0115900309756398,0,
00:00:02.24,-0.00477283680811524,0.0009804677683860061,0.0062653347849845895,0,
00:00:02.244,-0.00129054521676153,0.00148540711961687,-0.0164063777774572,0,
00:00:02.248,0.000814382918179035,-0.0010882129427045599,-0.00495924521237612,0,
00:00:02.252,0.00361954816617072,0.0021887412294745398,0.0109799252822995,0,
00:00:02.256,-0.00277005787938833,0.0033692354336381,-0.00694629875943065,0,
00:00:02.26,0.0009212204022333029,-0.00232828827574849,0.00326847657561302,0,
00:00:02.264,-0.000665182480588555,-0.00289146858267486,0.00589931663125753,0,
00:00:02.268,0.00467562396079302,0.000713347923010588,-0.007043950259685521,0,
00:00:02.272,0.0035850920248776705,-0.0037818453274667298,0.00516315083950758,0,
00:00:02.276,-0.0060611455701291604,0.00351410266011953,0.00490150647237897,0,
00:00:02.28,-0.0111210457980633,0.0005720618646591901,-0.00783327128738165,0,
00:00:02.284,0.00925448816269636,-5.02969014632981e-05,-0.0055752913467586,0,
00:00:02.288,0.0010123796528205302,1.5147435078688401e-05,-6.52834278298542e-05,0,
00:00:02.292,0.00411069393157959,-0.0019672515336424104,0.0033602665644139103,0,
00:00:02.296,0.00280656851828098,0.00413083005696535,0.00782411172986031,0,
00:00:02.3,-0.0105516882613301,-0.0024271577131003102,0.00429371790960431,0,
00:00:02.304,-0.00294226361438632,0.000409327360102907,-0.0112804230302572,0,
00:00:02.308,0.0026070240419358,0.0004968246794305741,-0.00457765534520149,0,
00:00:02.312,0.00213359971530735,0.00404808390885592,0.005425448063760999,0,
00:00:02.316,0.00903508439660072,-0.00651354575529695,0.00600130762904882,0,
00:00:02.32,0.00455038854852319,-0.0017811632715165602,-0.00809891149401665,0,
00:00:02.324,-0.008069357834756371,0.00107109057717025,3.85630446544383e-05,0,
00:00:02.328,-0.0077427155338227706,0.00399658409878612,-0.00178111041896045,0,
00:00:02.332,-0.00485479226335883,-0.0047009810805320705,0.009911187924444679,0,
00:00:02.336,0.0057060238905251,0.0006885302136652169,-0.000230263656703755,0,
00:00:02.34,0.009406706318259241,0.0109788486734033,-0.0118215270340443,0,
00:00:02.344,-0.0106258802115917,-0.00581719586625695,0.0153350885957479,0,
00:00:02.348,0.00130102504044771,-0.00606947997584939,-0.000194740612641908,0,
00:00:02.352,0.00808661989867687,0.0026294009294360898,-0.0191801488399506,0,
00:00:02.356,0.00046402614680118897,0.00226430362090468,-0.00254081748425961,0,
00:00:02.36,-0.0115261152386665,-0.0021118165459483897,0.0134189603850245,0,
00:00:02.364,-0.0037782387807965296,-0.00356383481994271,0.0130337392911315,0,
00:00:02.368,0.0127875301986933,9.05924753169529e-05,-0.00993366353213787,0,
00:00:02.372,0.013694123364985001,0.00479885470122099,-0.00445839576423168,0,
00:00:02.376,-0.0093940757215023,0.00715269660577178,-0.00316357286646962,0,
00:00:02.38,-0.0132036227732897,-0.00610142201185226,0.00262127374298871,0,
00:00:02.384,-0.00694074109196663,-0.00324695138260722,0.000712552398908883,0,
00:00:02.388,0.00925043132156134,-0.000827786745503545,0.0030466627795249198,0,
00:00:02.392,0.010183191858232,0.000644465268123895,0.0011686311336234199,0,
00:00:02.396,-0.00609750440344214,0.00110762007534504,0.00322221661917865,0,
00:00:02.4,-0.0044114668853581,0.000861743872519583,-0.00779245421290398,0,
00:00:02.404,0.00479194475337863,0.000338452053256333,-0.00477722054347396,0,
00:00:02.408,0.00975313130766153,-0.0021878615953028198,-0.00136941845994443,0,
00:00:02.412,-0.0101782744750381,0.0037265699356794396,0.00985097512602806,0,
00:00:02.416,-0.00126951176207513,-0.000640276819467545,0.0075344112701714,0,
00:00:02.42,0.006539734546095129,0.000447378377430141,-0.00937969516962767,0,
00:00:02.424,-0.0163476411253214,-0.00507932296022773,-0.006519949529319999,0,
00:00:02.428,0.00671024806797504,0.00023454928305000097,0.008517999202013021,0,
00:00:02.432,0.00347105273976922,0.00196671322919428,0.00659493170678616,0,
00:00:02.436,-0.00437049847096205,0.0016392192337662,-0.0143487695604563,0,
00:00:02.44,0.00658805295825005,0.000587873859331012,-0.00080254435306415,0,
00:00:02.444,0.0046947174705565,-0.000306943198665977,0.0039125541225075704,0,
00:00:02.448,-0.000166529323905706,-0.00276364618912339,0.00154865416698158,0,
00:00:02.452,0.00504560489207506,0.00345152732916176,-0.00277231796644628,0,
00:00:02.456,-0.0135372206568718,0.00353943929076195,0.00916638784110546,0,
00:00:02.46,-0.0149374241009355,-0.00745611311867833,-0.000330440234392881,0,
00:00:02.464,0.00868362840265036,-0.00419696234166622,0.00290108541958034,0,
00:00:02.468,0.0132847642526031,0.00329886609688401,-0.00044208116014488,0,
00:00:02.472,0.00338979344815016,0.00403568893671036,-0.0118658812716603,0,
00:00:02.476,0.0016162362881004802,0.00196461542509496,-0.0087236762046814,0,
00:00:02.48,-0.0102877579629421,-0.000274741789326072,0.00118117744568735,0,
00:00:02.484,-0.00238939025439322,-0.00145789294037968,0.0071847531944513295,0,
00:00:02.488,0.000341208244208246,-0.00147455360274762,0.00727849174290895,0,
00:00:02.492,-0.0052384869195520895,-0.0008090130286291241,0.00790095049887896,0,
00:00:02.496,0.0068082413636148,0.0020298780873417898,-0.00628551375120878,0,
00:00:02.5,-0.000733609369490296,-0.00154109252616763,-0.00399616407230496,0,
00:00:02.504,0.0046478034928441,-0.0011068610474467301,0.00653865141794086,0,
00:00:02.508,0.00650963746011257,0.00019008311210200201,-0.0059624221175909,0,
00:00:02.512,-0.00292380806058645,-0.00112092227209359,-0.0120248096063733,0,
00:00:02.516,-0.0100936824455857,0.00499381590634584,-0.0017803952796384699,0,
00:00:02.52,-0.00665788631886244,0.000133607551106252,0.0254285987466574,0,
00:00:02.524,0.00803486164659262,-0.0035986031871289,-0.0113784745335579,0,
00:00:02.528,-0.00162530189845711,-0.00148669176269323,0.006852600257843729,0,
00:00:02.532,0.0112044727429748,0.00510525470599532,-0.007149056065827609,0,
00:00:02.536,0.0040472378022968795,0.00205934164114296,-0.006304063834249971,0,
00:00:02.54,-0.008448295295238491,-0.00379804102703929,-0.00326500902883708,0,
00:00:02.544,-0.0116271814331412,-0.0053066504187881895,0.000502423674333841,0,
00:00:02.548,0.00173731660470366,0.00121566955931485,0.0134303504601121,0,
00:00:02.552,0.00745136057958007,0.00279362965375185,0.00410295650362968,0,
00:00:02.556,0.0020026902202516803,-0.000168553000548854,-0.0113567374646664,0,
00:00:02.56,-0.00257952767424285,0.004462562035769221,-0.0016955476021394099,0,
00:00:02.564,0.00285639404319227,-0.000977384275756776,0.00227908627130091,0,
00:00:02.568,-0.00541849480941892,-0.004493562038987879,0.0087439576163888,0,
00:00:02.572,0.00626723514869809,0.00233676470816135,-0.0068755098618567,0,
00:00:02.576,-0.00366880930960178,0.00133151793852448,0.000879181665368378,0,
00:00:02.58,-0.00499183451756835,-0.0028878056909889,-0.0018279410433024198,0,
00:00:02.584,0.0104522788897157,-0.00179608387406915,-0.00566735491156578,0,
00:00:02.588,-7.67511082813144e-05,-0.0017778038745746,0.00372987310402095,0,
00:00:02.592,-0.006224535405635829,0.0034588270355016,0.00200182176195085,0,
00:00:02.596,-0.00169755809474736,0.00725853862240911,0.00964347366243601,0,
00:00:02.6,-0.00175254594068974,-0.0030354792252183,-0.00517795933410525,0,
00:00:02.604,-0.00117202720139176,-0.00626720674335957,-0.0127621060237288,0,
00:00:02.608,-0.0038331069517880704,5.26779440406244e-05,0.0010555952321738,0,
00:00:02.612,0.0118411993607879,1.6747169865993803e-05,0.00789135973900557,0,
00:00:02.616,0.0160984918475151,0.00373640400357544,0.009068256244063379,0,
00:00:02.62,-0.0124355237931013,0.006413494236767289,-0.00590703915804625,0,
00:00:02.624,-0.0100648049265146,-0.00826857890933752,-0.00200842157937586,0,
00:00:02.628,0.00502060214057565,-0.0029947115108370803,0.00244278786703944,0,
00:00:02.632,-0.005862101912498471,0.00324186077341437,-0.015795161947607998,0,
00:00:02.636,-0.00258300267159939,0.00484202848747373,0.00594392884522676,0,
00:00:02.64,0.0045320475473999994,0.0006174237933009861,0.00400280579924583,0,
00:00:02.644,0.00256556109525263,-0.00679812394082546,0.00532924849539995,0,
00:00:02.648,0.0039622234180569605,-0.00132179912179708,0.00197166134603322,0,
00:00:02.652,0.00520139234140515,0.00343127641826868,-0.0055031175725162,0,
00:00:02.656,-0.0035355661530047703,-8.89068032847717e-05,-0.0008823116659186779,0,
00:00:02.66,-0.00575659889727831,-0.000413499219575897,0.00501762889325619,0,
00:00:02.664,-0.0100351246073842,9.978118032449859e-05,-0.000965494604315609,0,
00:00:02.668,-0.0051016495563089796,-0.00163120904471725,-0.00288169318810105,0,
00:00:02.672,0.0205999687314034,0.00239037303254008,-0.00215821480378509,0,
00:00:02.676,0.007135129999369379,0.00595750892534852,0.0015461985021829599,0,
00:00:02.68,-0.0135407876223326,-0.008019146509468559,-0.0032885407563298897,0,
00:00:02.684,0.000821125868242234,0.00167142774444073,-0.000514307233970612,0,
00:00:02.688,0.0149609548971057,-0.000293658376904204,0.0106488466262817,0,
00:00:02.692,-0.0135375075042248,0.00171574938576669,-0.00700154295191169,0,
00:00:02.696,-0.0113438945263624,-0.00395975261926651,-0.000711716536898166,0,
00:00:02.7,0.000839655345771462,-0.0013421458425000301,0.0011552536161616401,0,
00:00:02.704,0.00589905166998506,0.00384913175366819,-0.00320329004898667,0,
00:00:02.708,0.0013680543052032599,0.00288072740659118,0.0103577794507146,0,
00:00:02.712,0.008618738502264021,0.000358646095264703,-0.00509824557229877,0,
00:00:02.716,-0.00111779349390417,-0.00138258433435112,-0.00519339926540852,0,
00:00:02.72,0.00288787670433521,0.000330292008584365,-0.00102522398810834,0,
00:00:02.724,-0.00829583220183849,-0.0031030646059662104,0.00418785354122519,0,
00:00:02.728,-0.00979105941951275,-0.00601786561310291,0.000847098883241415,0,
00:00:02.732,0.00800886936485767,0.00420760735869408,0.00843421835452318,0,
00:00:02.736,0.0109608545899391,0.00892788637429476,-0.0057811769656837,0,
00:00:02.74,-0.00717009836807847,-0.00206479779444635,-0.008582793176174159,0,
00:00:02.744,-0.0086369663476944,-0.00620923936367035,0.00163024163339287,0,
00:00:02.748,0.0113385850563645,-0.000408804247854277,-0.00101746257860214,0,
00:00:02.752,-0.00320842256769538,0.0015801450936123698,-0.000662073260173202,0,
00:00:02.756,-0.00628396682441235,0.0014790076529607198,0.00707507552579045,0,
00:00:02.76,-0.00110529409721494,0.0026928554289043,0.00847383216023445,0,
00:00:02.764,0.0053061703220009795,-0.00214512296952307,-0.0043601901270449205,0,
00:00:02.768,0.0042589483782649,-0.00425300188362598,-0.00646069040521979,0,
00:00:02.772,0.000989610329270363,0.00337860989384353,-0.0057322359643876605,0,
00:00:02.776,-0.0035954313352704,0.00234191934578121,-0.00021854366059415,0,
00:00:02.78,0.00382503774017096,-0.006546528078615671,0.0077047171071171795,0,
00:00:02.784,-0.00608710804954171,1.08690564957215e-05,9.575200965628029e-05,0,
00:00:02.788,-0.0016994245816022199,0.00723974034190178,-0.000955792667809874,0,
00:00:02.792,0.00289324810728431,0.0010760581353679302,0.0039230617694556704,0,
00:00:02.796,-0.0024373298510909102,0.000119597549200989,0.000553583435248584,0,
00:00:02.8,-0.00047060096403583895,-0.00437677418813109,-0.00270038121379912,0,
00:00:02.804,0.00601263763383031,-0.0030696787871420396,-0.0075071696192026095,0,
00:00:02.808,0.000516054104082286,-0.00450229272246361,-0.0042602312751114394,0,
00:00:02.812,-0.0038368357345461798,0.00752136437222362,0.007065739016979929,0,
00:00:02.816,-0.00404331926256418,0.00319146155379713,0.00849841628223658,0,
00:00:02.82,0.00669946800917387,0.004096535500139001,0.00204971013590693,0,
00:00:02.824,0.00772113678976893,-0.00553924310952425,-0.00743991835042834,0,
00:00:02.828,-0.0116361444815993,-0.00700589129701257,-0.0049928198568522895,0,
00:00:02.832,-0.00529660191386938,-0.00136369373649359,0.00396016705781221,0,
00:00:02.836,0.0095135485753417,0.00523640681058168,0.00291337305679917,0,
00:00:02.84,-0.00163639790844172,0.00433402322232723,-0.00632870895788074,0,
00:00:02.844,-0.00272812647745013,0.0011647641658783,0.00203278660774231,0,
00:00:02.848,-0.00273626414127648,-0.0013196982908994,0.00512345833703876,0,
00:00:02.852,-0.00103767984546721,-0.00214692996814847,-0.00273612141609192,0,
00:00:02.856,0.0113738216459751,0.00044927158160135193,-0.000162387514137663,0,
00:00:02.86,-0.0014818179188296199,-0.00253883097320795,0.000144716002978384,0,
00:00:02.864,-0.0036772999446839103,-0.0013067162362858699,-0.000144213117891923,0,
00:00:02.868,0.00423260405659676,-0.00151801097672433,-0.00655604572966695,0,
00:00:02.872,-0.0038205422461032898,0.00555468210950494,0.0056528733111918,0,
00:00:02.876,-0.0037732105702161798,0.00103124196175486,0.00899179559201002,0,
00:00:02.88,-0.00312375673092902,-0.00290648662485182,0.000820864574052393,0,
00:00:02.884,0.00323139992542565,0.000844698981381953,-0.0075173866935074295,0,
00:00:02.888,0.00577169517055154,0.000931503484025598,-0.010619267821312,0,
00:00:02.892,0.0018480921862646898,1.8166301742894602e-05,-0.00222146906889975,0,
00:00:02.896,-0.00598066812381148,0.00144101656042039,0.004866413772106171,0,
00:00:02.9,-0.00326094846241176,-0.000615632219705731,-0.0015623577637597901,0,
00:00:02.904,0.000869839219376445,-0.00817510951310396,0.0207094494253397,0,
00:00:02.908,0.00494065042585135,0.00211936654523015,0.0120348241180182,0,
00:00:02.912,0.0026028286665678,0.004196190275251871,-0.0195051189512014,0,
00:00:02.916,-0.00680955778807402,-0.00162342959083617,-0.0166492033749819,0,
00:00:02.92,0.0140696251764894,0.00828711315989494,-0.00602086121216416,0,
00:00:02.924,-0.00499507365748286,0.00013589834270533201,0.0118637224659324,0,
00:00:02.928,-0.0106792338192463,-0.008504386991262441,0.008325931616127491,0,
00:00:02.932,-0.00492166774347425,-0.0005937964888289571,0.0030646782834082803,0,
00:00:02.936,-0.00032526341965422,-0.00106845144182444,-0.00313298823311925,0,
00:00:02.94,0.00277606421150267,-0.0036154731642454897,-0.00295819900929928,0,
00:00:02.944,0.00799244083464146,0.00559609476476908,0.00723963556811213,0,
00:00:02.948,0.0116523513570428,0.00490945298224688,-0.0074862921610474595,0,
00:00:02.952,-0.00316727091558278,0.00328883435577154,-0.00773722119629383,0,
00:00:02.956,-0.00545466458424926,-0.00367797142826021,0.00606915913522244,0,
00:00:02.96,-0.00765395816415548,-0.0042594722472131296,0.0074167652055621095,0,
00:00:02.964,-0.007568815723061559,-0.00417577102780342,-0.007281078025698659,0,
00:00:02.968,0.00304526672698557,0.00013209856115281598,-0.004125000908970829,0,
00:00:02.972,0.0128317773342133,0.0113403424620628,0.00788875762373209,0,
00:00:02.976,0.0012310944730415901,-0.00255377707071602,0.0046283286064863205,0,
00:00:02.98,-0.0032017515040934103,-0.00885815732181072,0.00306135532446206,0,
00:00:02.984,-0.00333833042532206,-0.00043419242138042997,-0.0204472225159407,0,
00:00:02.988,-0.0016677192179486199,0.0077823889441788205,0.0028031829278916103,0,
00:00:02.992,0.00214083166792989,0.0018432827200740602,0.0202779360115528,0,
00:00:02.996,-0.0051124840974807705,0.000647896667942405,-0.00701262755319476,0,
00:00:03,0.00340138282626867,-0.00214869575574994,-0.01568971760571,0,
00:00:03.004,-0.0004038646875415,-0.00932875741273165,0.00042572151869535403,0,
00:00:03.008,0.0093837883323431,0.00171891250647604,0.0112330717965961,0,
00:00:03.012,0.0025423325132578603,0.00648136343806982,0.0004939440987072889,0,
00:00:03.016,-0.0128391236066818,-0.00105728744529188,0.00140403630211949,0,
00:00:03.02,-0.0111319171264768,0.000925017928238958,0.00654786778613925,0,
00:00:03.024,0.0119768111035228,0.00038391014095395803,-0.00272069103084505,0,
00:00:03.028,0.0180489867925644,-0.000522239890415221,-0.0145235089585185,0,
00:00:03.032,-0.00871289800852537,0.0011619416764006,-0.00111850467510521,0,
00:00:03.036,-0.0132676893845201,-0.00270679080858827,0.0090123675763607,0,
00:00:03.04,-0.004812382627278571,-0.00399223994463682,0.0095154233276844,0,
00:00:03.044,0.007460337597876791,0.00193712336476892,-0.008524882607162,0,
00:00:03.048,0.00660812482237816,0.00282259751111269,-0.00495519489049912,0,
00:00:03.052,-0.000146814942127094,0.0015225523384288,-0.00479693617671728,0,
00:00:03.056,-0.00184896076098084,0.0020373328588903,0.00590763986110687,0,
00:00:03.06,-0.00763204135000706,-0.00290486123412848,0.005726848728954789,0,
00:00:03.064,0.00339315738528967,-0.00473144976422191,0.0039767702110111705,0,
00:00:03.068,0.00920084398239851,0.00120341358706355,-0.00545071391388774,0,
00:00:03.072,0.00686935242265463,0.00241088634356856,-0.004407680593431,0,
00:00:03.076,-0.00959380157291889,0.00147823605220765,0.00751940486952662,0,
00:00:03.08,-0.013096796348691002,0.000152314794831909,-0.00410138536244631,0,
00:00:03.084,0.00330871762707829,0.0013930946588516198,-0.0062993629835546,0,
00:00:03.088,0.0038058981299400295,-0.00489087961614132,0.0011141794966533802,0,
00:00:03.092,0.00102101417724043,-0.000205033022211865,0.00553354807198048,0,
00:00:03.096,0.0056226002052426295,0.005506359972059729,0.000742452335543931,0,
00:00:03.1,-0.00442722998559475,-0.0068838968873024,-0.00281793158501387,0,
00:00:03.104,0.0037069579120725398,0.0011504930444061802,-0.00295672146603465,0,
00:00:03.108,0.00340598355978727,-0.0013870771508663901,0.0114404363557696,0,
00:00:03.112,-0.0102823926135898,0.00761045841500163,-0.0045591494999826,0,
00:00:03.116,-0.0010184618877247,0.00334435305558145,-0.0012154612923041,0,
00:00:03.12,0.00242235604673624,-0.00425152061507106,-0.0055097700096666796,0,
00:00:03.124,0.000419652118580416,-0.00665521714836359,0.000409147673053667,0,
00:00:03.128,0.00110681995283812,-0.00211173808202147,0.00233211880549788,0,
00:00:03.132,0.00767531571909785,0.0062406430952251,-0.000127474020700902,0,
00:00:03.136,-0.00291331158950925,0.00579786719754338,0.0006408437620848419,0,
00:00:03.14,-0.0026869000867009198,-0.00246933056041598,0.00539412768557668,0,
00:00:03.144,-0.0005057494272477919,-0.0084998095408082,-0.00299250870011747,0,
00:00:03.148,-0.00768058327957988,-0.00707249902188778,-0.0010159997036680599,0,
00:00:03.152,-0.00198963820002973,0.0109266666695476,-0.00281231408007443,0,
00:00:03.156,0.00587695837020874,0.0083249295130372,0.00758922239765525,0,
00:00:03.16,0.00560826156288385,-0.00125904043670744,-0.00250907754525542,0,
00:00:03.164,-0.00195733131840825,-0.0063551953062415106,-0.0108050834387541,0,
00:00:03.168,0.0009006606414914131,0.000603199121542275,-0.00290033803321421,0,
00:00:03.172,0.00698836054652929,-0.0015955378767103,0.017224395647645,0,
00:00:03.176,0.00208298512734473,-0.0008829036960378289,-0.0027880261186510303,0,
00:00:03.18,-0.0180207323282957,0.00036314720637165,-0.00299288472160697,0,
00:00:03.184,-0.00841547641903162,-0.0010336340637877599,-0.0037429279182106296,0,
00:00:03.188,0.0145859057083726,0.00503627210855484,0.00169879349414259,0,
00:00:03.192,0.012320751324296003,-0.00191005005035549,0.00217150803655386,0,
00:00:03.196,-0.00791375152766705,0.000485612137708813,0.0008605610346421599,0,
00:00:03.2,-0.00769990077242255,0.00236197956837714,-0.000414608104620129,0,
00:00:03.204,0.00237100315280259,-0.00236536609008908,-0.0009588737739250061,0,
00:00:03.208,-0.0033065828029066303,-0.0064882053993642295,-0.000813141232356429,0,
00:00:03.212,0.00671089021489024,0.00530493119731545,-0.004488879814744,0,
00:00:03.216,0.00402364740148187,0.00404845550656319,0.00198586727492511,0,
00:00:03.22,-0.0049416404217481604,-0.00209130975417793,0.007673867046833041,0,
00:00:03.224,0.00268361391499639,-0.00465927412733436,0.0024290247820317698,0,
00:00:03.228,-0.008046247996389871,-0.00114739290438592,-0.00493731582537293,0,
00:00:03.232,-0.00298732984811068,0.00406164303421974,-0.00261713610962033,0,
00:00:03.236,0.00522337853908539,0.0029113236814737303,-0.00575628504157066,0,
00:00:03.24,0.0157798174768686,0.00235019531100988,-0.000775050779338926,0,
00:00:03.244,-0.00348427379503846,-0.00344616430811584,0.00969241093844175,0,
00:00:03.248,-0.0130378399044275,-0.00341722648590803,-0.0057115382514894,0,
00:00:03.252,-0.0044788569211959795,-0.00334877124987543,0.0038132106419652705,0,
00:00:03.256,-0.0003445940092206,0.00265563977882266,0.00940994173288345,0,
00:00:03.26,0.00195227400399745,0.0031601975206285698,-0.00802353955805302,0,
00:00:03.264,0.0153007721528411,-0.000588016700930893,-0.007197187282145021,0,
00:00:03.268,0.00315715046599507,0.0037970703560859,0.000668207358103246,0,
00:00:03.272,-0.0139133995398879,0.00060496962396428,0.000880043022334576,0,
00:00:03.276,-0.005993833765387539,-0.00663039833307266,0.00637605879455805,0,
00:00:03.28,0.0034243268892169,0.000807190546765924,0.000455719797173515,0,
00:00:03.284,0.00467581488192081,-0.00069188978523016,-0.00190612953156233,0,
00:00:03.288,0.00248913001269102,-0.00194414798170328,0.000129154723254032,0,
00:00:03.292,0.00203125551342964,0.000872383418027312,-0.00501090846955776,0,
00:00:03.296,-0.00344334356486797,0.00679581658914685,-0.00375051749870181,0,
00:00:03.3,-0.00531102530658245,0.0025805830955505397,0.0102016553282738,0,
00:00:03.304,-0.0011998312547802901,-0.0062917903997004,-0.00311821280047297,0,
00:00:03.308,0.00436235498636961,-0.00413539074361324,0.00368538964539766,0,
00:00:03.312,0.0032919619698077397,0.00216571032069623,0.0010104685788974198,0,
00:00:03.316,0.000545058574061841,0.00678997207432985,-0.008501035161316391,0,
00:00:03.32,0.000700462725944817,-0.0028663172852248,-0.0035256608389318,0,
00:00:03.324,-0.00587085215374827,-0.00368325435556471,0.0108162565156817,0,
00:00:03.328,-0.0008682588813826441,-0.00346539402380586,0.00525862909853458,0,
00:00:03.332,0.00328327110037208,-0.0013757802080363,-0.00456133438274264,0,
00:00:03.336,-0.000512804137542844,0.009363004937767979,-0.01010134909302,0,
00:00:03.34,0.00129932991694659,0.00703189661726356,-0.007524502929300071,0,
00:00:03.344,-0.00408958783373237,-0.0055364677682519,0.00930883549153805,0,
00:00:03.348,-0.00330064119771123,-0.0126334065571427,0.00901739485561848,0,
00:00:03.352,0.008082642219960691,0.00311835063621402,0.00299632688984275,0,
00:00:03.356,0.00888566486537457,0.0119430432096124,-0.00427179085090756,0,
00:00:03.36,-0.0132596381008625,-0.00288978009484708,-0.000136010537971742,0,
00:00:03.364,0.0026721651665866397,-0.007206201087683441,0.00044302971218712595,0,
00:00:03.368,-0.00573236448690295,-0.00465626129880548,-0.0129578774794936,0,
00:00:03.372,0.000852273835334927,0.0082037877291441,0.00215819501318038,0,
00:00:03.376,0.007837308570742609,0.00559208216145635,0.00789322424679995,0,
00:00:03.38,0.0034197550266981103,-0.00219759368337691,0.00407218793407083,0,
00:00:03.384,-0.00600794004276395,-0.00361728575080633,-0.00280121760442853,0,
00:00:03.388,-0.000130414453451522,-0.00421850476413965,-0.0031947561074048302,0,
00:00:03.392,-1.2750635505653901e-05,0.00179258617572486,-0.00338958227075636,0,
00:00:03.396,-0.00493709184229374,0.00267323828302324,0.008667519316077229,0,
00:00:03.4,-0.00109742255881429,0.00350144831463695,-0.0071943704970181,0,
00:00:03.404,0.00477652763947845,-0.0020204363390803302,-0.00594694493338466,0,
00:00:03.408,0.00586835294961929,-0.00458040973171592,0.0166000742465258,0,
00:00:03.412,-0.00113674241583794,0.0008779419586062429,0.000821960857138038,0,
00:00:03.416,-0.00302755110897124,0.00819256156682968,-0.0118380496278405,0,
00:00:03.42,-0.0063726669177413,-0.00891102105379105,-0.00783965736627579,0,
00:00:03.424,0.00123907963279635,0.00116033235099167,0.0125047825276852,0,
00:00:03.428,0.00790446158498526,-0.00397732807323337,0.0036977631971240005,0,
00:00:03.432,0.0051702214404940605,0.00242243497632444,-0.00134984997566789,0,
00:00:03.436,-0.00423478614538908,0.0102172307670116,-0.00706205936148763,0,
00:00:03.44,-0.010099571198225,-0.00132795621175319,0.0121004665270448,0,
00:00:03.444,-0.00365647976286709,-0.00666430126875639,-0.00941692385822535,0,
00:00:03.448,0.00504126725718379,-0.0014541483251377901,-0.00955989770591259,0,
00:00:03.452,0.00556472921743989,0.000683746649883688,0.00400777626782656,0,
00:00:03.456,0.000582772772759199,0.00111504283268005,0.0044005368836224105,0,
00:00:03.46,-0.00255353352986276,0.000764509430155158,0.00784723274409771,0,
00:00:03.464,0.0077651422470808,0.00023882139066699903,-9.05947599676438e-05,0,
00:00:03.468,0.00165033747907728,-0.000136444097734056,-0.00549574568867683,0,
00:00:03.472,-0.0129959126934409,-0.00026799607439898,0.00277304113842547,0,
00:00:03.476,-0.0024905214086175,0.0018643112853169398,-0.00605974392965436,0,
00:00:03.48,0.00457242550328374,-0.00412889011204243,0.0010253201471641699,0,
00:00:03.484,-0.000584259221795946,0.000371695816284046,-0.00252758665010333,0,
00:00:03.488,0.000523304974194616,-0.000518987071700394,-0.0017935587093234101,0,
00:00:03.492,0.0143567388877273,0.00307934242300689,0.00880889967083931,0,
00:00:03.496,-0.00997883081436157,0.00602231826633215,0.00470429752022028,0,
00:00:03.5,-0.00903219543397427,-0.00416932441294193,-0.00350680411793292,0,
00:00:03.504,-0.00348871713504195,-0.0046998215839266794,-0.00871901586651802,0,
00:00:03.508,0.0060180956497788395,-0.00386881618760526,-0.00680455798283219,0,
00:00:03.512,0.0088482154533267,0.0008274908177554611,0.013287266716360999,0,
00:00:03.516,0.00965181179344654,0.00569225009530783,0.0188593212515116,0,
00:00:03.52,-0.0121153984218836,0.00357611500658095,-0.0107747903093696,0,
00:00:03.524,-0.00117470021359622,0.0021498617716133603,-0.0206039790064096,0,
00:00:03.528,-0.00899371691048145,-0.00614091195166111,-0.00520206242799759,0,
00:00:03.532,0.00205124961212277,4.03980120609049e-05,0.0101508609950542,0,
00:00:03.536,0.00483626173809171,-0.00192623247858137,0.00529261166229844,0,
00:00:03.54,0.0013220333494246,-0.000804960320238024,0.00116739224176854,0,
00:00:03.544,0.00281730736605823,0.000663299462758005,0.009573996067047121,0,
00:00:03.548,0.00269847130402923,-0.000746997364331037,-0.00464364187791944,0,
00:00:03.552,-0.0013395517598837599,0.00102357333526015,-0.004095202777534721,0,
00:00:03.556,-0.0056836497969925395,0.00824904162436724,0.0012740150559693599,0,
00:00:03.56,-0.00743478583171964,-0.000190190825378522,-0.00512080965563655,0,
00:00:03.564,0.0021383513230830396,-0.00845596380531788,-0.00920133665204048,0,
00:00:03.568,0.0158785283565521,-0.00234814826399088,0.00457424065098166,0,
00:00:03.572,-0.00346687179990113,0.0012259662616998,0.0117633547633886,0,
00:00:03.576,-0.0108606424182653,0.0023205887991935,0.009146043099462991,0,
00:00:03.58,0.000432326050940901,0.0038474977482110297,-0.0126706222072244,0,
00:00:03.584,0.005706136580556629,-0.00135172146838158,-0.0030610114336013803,0,
00:00:03.588,-0.00130067195277661,-0.00820084102451801,-0.00223572505638003,0,
00:00:03.592,0.00104931520763785,0.00707789976149797,0.000318618898745626,0,
00:00:03.596,0.000649632187560201,0.00520466454327106,-0.00218353746458888,0,
00:00:03.6,0.00178056361619383,-0.00238609709776938,-0.0022542600054293897,0,
00:00:03.604,-0.00693578645586967,-0.0057798414491117,0.020705496892333,0,
00:00:03.608,0.0036412768531590704,-0.00222862418740988,0.00537463696673512,0,
00:00:03.612,0.00285862642340362,0.00145201536361128,-0.0182231031358242,0,
00:00:03.616,-0.004436378832906479,0.00702233286574483,-0.009971591643989091,0,
00:00:03.62,-0.000211143924389035,0.006575979758054021,0.00423720991238952,0,
00:00:03.624,0.00326823140494525,-0.0104885268956423,0.0016998932696878901,0,
00:00:03.628,-0.0009156755404546859,-0.007535040378570559,0.00480593834072351,0,
00:00:03.632,-0.00332450959831476,-0.00019963612430729,0.0092662712559104,0,
00:00:03.636,-0.0025384321343153698,0.00647220388054848,-0.00778044015169144,0,
00:00:03.64,0.008079619146883491,0.00703495647758245,-0.00663380557671189,0,
00:00:03.644,0.00213860673829913,-0.000825586728751659,0.00113136181607842,0,
00:00:03.648,-0.0037454930134117603,-0.00333027075976133,0.0010002673370763699,0,
00:00:03.652,0.0033480955753475397,-0.000648988701868802,0.0020265351049602,0,
00:00:03.656,-0.000164440294611268,-0.0029954204801470002,0.0019918535836041,0,
00:00:03.66,-0.0117913307622075,-0.0032859698403626698,0.00720867048949003,0,
00:00:03.664,2.0253024558769502e-05,0.00286825629882514,-0.00613045645877719,0,
00:00:03.668,0.00665858760476112,0.00136597664095461,0.000366587075404823,0,
00:00:03.672,-0.00390535988844931,0.00364183099009097,-0.007489393930882221,0,
00:00:03.676,0.00829026568681002,0.00346944993361831,-0.0030803496483713397,0,
00:00:03.68,0.000320934894261882,-0.005136907566338779,0.00442662090063095,0,
00:00:03.684,0.000138010072987527,-0.0017880783416330801,0.00468097906559706,0,
00:00:03.688,0.00461672293022275,-0.0023454295005649302,0.004163186531513929,0,
00:00:03.692,-0.0082441084086895,0.00646738894283772,-0.00245166197419167,0,
00:00:03.696,-0.00871824286878109,-0.0018371059559285602,-0.00960998516529799,0,
00:00:03.7,0.000919612357392907,-0.000668126565869898,0.0061534596607089,0,
00:00:03.704,0.00673085078597069,-0.007146299816668029,0.007079960312694309,0,
00:00:03.708,0.00220624054782093,0.0029850655701011398,-0.0019514192827045898,0,
00:00:03.712,0.000217372551560402,0.00654100906103849,-0.0109568852931261,0,
00:00:03.716,-0.00677588535472751,0.000321367813739926,0.00248565920628607,0,
00:00:03.72,0.0031661239918321397,-0.00396062480285764,0.00413066521286964,0,
00:00:03.724,0.0105416439473629,0.0022473973222076897,-0.0023571799974888602,0,
00:00:03.728,-0.00202289852313697,-0.0011663738405332,0.00133035401813686,0,
00:00:03.732,-0.00773491011932492,-0.003442348446697,0.0016680755652487302,0,
00:00:03.736,-0.00636289874091744,-0.000547307077795267,0.0006541498587466781,0,
00:00:03.74,0.00862028915435076,0.00608619069680572,-0.000380963232601061,0,
00:00:03.744,0.0028333275113254803,0.0026319834869355,-0.00500673986971378,0,
00:00:03.748,-0.00365410069935024,-0.00579306250438094,0.00319273094646633,0,
00:00:03.752,-0.00304491352289915,-0.00150098034646362,0.00499819731339812,0,
00:00:03.756,0.00157466833479702,-0.00152598577551544,0.000490647507831454,0,
00:00:03.76,-0.0027017085812985897,0.00721403723582625,-0.00919471681118011,0,
00:00:03.764,-0.00203253584913909,-0.0035816554445773398,0.0024343079421669197,0,
00:00:03.768,0.008672912605106829,-0.000861898995935917,-0.00326250027865171,0,
00:00:03.772,0.0005057476810179651,0.00029772726702503903,0.00440829293802381,0,
00:00:03.776,0.00458555016666651,0.000520696048624814,0.0140026593580842,0,
00:00:03.78,-0.00524258054792881,0.00239127222448587,-0.007218775339424609,0,
00:00:03.784,-0.0033245757222175602,-0.00401741173118353,-0.0200917292386293,0,
00:00:03.788,-0.004011913202703,0.00018943157920148202,0.0032731920946389398,0,
00:00:03.792,-0.0005733204307034611,0.00128658371977508,0.0113079538568854,0,
00:00:03.796,-0.00192357692867517,0.0009040511795319619,0.0023646375630050898,0,
00:00:03.8,0.00686906930059195,0.00223525683395565,0.00375411310233176,0,
00:00:03.804,0.00316262664273381,-0.00440776953473687,-0.00485470937564969,0,
00:00:03.808,0.00277626677416265,-0.00222886982373893,0.00010875333828153101,0,
00:00:03.812,0.00341416336596012,0.00310668954625726,-0.00689192488789558,0,
00:00:03.816,-0.006928591523319479,0.0067256730981171105,0.00422303192317486,0,
00:00:03.82,-0.00627016508951783,-0.00348746054805815,-0.00284110894426703,0,
00:00:03.824,-0.0019285563612356801,-0.00435196794569492,0.0059048878028988795,0,
00:00:03.828,-0.00034871170646511,-0.0038653900846839,0.0028580401558429,0,
00:00:03.832,0.007147142197936771,0.0027105170302093,-0.00780023261904716,0,
00:00:03.836,0.00629598321393132,0.00349816703237593,0.00451028440147638,0,
00:00:03.84,-0.00858885701745749,0.0038736308924853797,0.000154527311678976,0,
00:00:03.844,-0.0069448552094399894,-0.00833301432430744,-0.00616688840091228,0,
00:00:03.848,0.0138812363147736,0.00308584072627127,-5.754234371124771e-05,0,
00:00:03.852,0.00046338667743839296,0.007632650434970859,0.000388308631954715,0,
00:00:03.856,-0.00401065172627568,-0.005382060538977379,0.00851050205528736,0,
00:00:03.86,-0.00559623865410686,-0.0008127109031192959,0.0029542651027441,0,
00:00:03.864,-0.00346608576364815,-0.00279264454729855,-0.0134631739929318,0,
00:00:03.868,0.00831116642802954,-0.00321247265674174,-0.00357761746272445,0,
00:00:03.872,0.0029515044298023,0.00278741586953402,0.0103556551039219,0,
00:00:03.876,-0.000857729406561702,0.00539679685607553,0.0023480707313865397,0,
00:00:03.88,0.0039179595187306395,-0.000376440730178729,0.0013166880235076,0,
00:00:03.884,-0.007861782796680929,-0.00187949661631137,-0.00343266385607421,0,
00:00:03.888,-0.00569783756509423,-0.0013767870841547801,0.00762331625446677,0,
00:00:03.892,0.0018352527404204,-0.0024395503569394398,-0.00847787223756313,0,
00:00:03.896,-0.0007168950396589929,0.00442068092525005,-0.0135079827159643,0,
00:00:03.9,0.00210730219259858,0.000263989815721288,-0.00148689793422818,0,
00:00:03.904,0.00159588514361531,-0.0031013572588563,0.0162715669721365,0,
00:00:03.908,0.00896410923451185,0.0010927019175142,0.0162374302744865,0,
00:00:03.912,0.0026355383452028,0.00134741887450218,-0.0126989772543311,0,
00:00:03.916,-0.00598859274759889,-0.00171386543661356,-0.00355124799534678,0,
00:00:03.92,-0.010317369364202,0.00357415247708559,-0.00861165951937437,0,
00:00:03.924,0.00115630612708628,-0.00106644397601485,-0.000340207043336704,0,
00:00:03.928,0.00803507212549448,-0.00405840808525682,0.00367862451821566,0,
00:00:03.932,-0.0012579270405694801,0.000824741553515196,-0.00226017157547176,0,
00:00:03.936,-0.00265759485773742,0.00578325940296054,0.0102206356823444,0,
00:00:03.94,-0.00321961264126003,-0.00101074809208512,0.00103661313187331,0,
00:00:03.944,0.00040892508695833396,-0.00946643203496933,0.0038798996247351204,0,
00:00:03.948,0.006929493043571711,-0.00273405970074236,-0.00434901658445597,0,
00:00:03.952,0.0050446474924683606,0.00820653233677149,-0.0124376611784101,0,
00:00:03.956,-0.00791263114660978,0.0104203931987286,0.0020382401999086103,0,
00:00:03.96,-0.0035250489600002796,-0.0008896243525668981,0.00241107563488185,0,
00:00:03.964,-0.00206734775565565,-0.0100817317143083,-0.00382264913059771,0,
00:00:03.968,0.0016295377863571,-0.00778862042352557,0.0117194205522537,0,
00:00:03.972,0.0054293503053486295,0.00677331537008286,0.0036037096288055203,0,
00:00:03.976,0.0028152400627732303,0.0038419521879404796,-0.00505664711818099,0,
00:00:03.98,0.00561738945543766,0.0010071805445477401,-0.00109481916297227,0,
00:00:03.984,-0.00832689367234707,-0.00076340464875102,-0.00825913622975349,0,
00:00:03.988,-0.00515718059614301,-0.00130458280909806,0.00142518617212772,0,
00:00:03.992,-0.007809271104633809,-0.0009841257706284519,-0.000741883763112128,0,
00:00:03.996,0.00492897210642695,0.00173271913081408,0.00199200888164341,0,
00:00:04,0.00285877380520105,-0.00386151019483805,0.00557372393086553,0,
00:00:04.004,0.00795284193009138,0.000755253073293716,-0.00132293393835425,0,
00:00:04.008,0.009682929143309591,-0.00023442947713192598,0.00321128242649138,0,
00:00:04.012,-0.00983143877238035,0.005258115474134679,0.004810212180018429,0,
00:00:04.016,-0.0113685745745897,-0.00015278639330063002,-0.0061334683559835,0,
00:00:04.02,0.00134914717637002,-0.00197704881429672,-0.008357405662536621,0,
00:00:04.024,0.00643137935549021,-0.0037749069742858397,-0.000406115228543058,0,
00:00:04.028,0.00308854808099568,0.00132420076988637,0.000825063034426421,0,
00:00:04.032,-0.00296600768342614,0.0019109133863821602,0.005009642802178861,0,
00:00:04.036,-0.00483370712026954,0.00500945234671235,-0.000854013545904309,0,
00:00:04.04,0.0012826839229092,-0.0041796457953751105,0.00425345404073596,0,
00:00:04.044,0.000499551184475422,-0.00401242030784488,0.00786942522972822,0,
00:00:04.048,0.00772400898858905,-0.00308038434013724,-0.0117241675034165,0,
00:00:04.052,-6.435466639231889e-05,0.00130176439415663,0.0043708272278308894,0,
00:00:04.056,-0.007908490486443041,0.00782661605626345,-0.007447537966072559,0,
00:00:04.06,-0.00595183204859495,-0.0007021070923656231,-0.00653019780293107,0,
00:00:04.064,0.00338236521929502,0.000101496938441414,0.00530410185456276,0,
00:00:04.068,0.00963519420474768,-0.000849642558023334,-0.00011692455154843601,0,
00:00:04.072,0.0036641964688897103,-0.001431530341506,0.0107720419764519,0,
00:00:04.076,-0.00265844259411097,0.000880169158335775,-0.0017701290780678398,0,
00:00:04.08,-0.0113279763609171,-0.0024659933988004897,-0.0014220722950995,0,
00:00:04.084,-0.00425496371462941,-0.0035290569067001295,-0.00158779299817979,0,
00:00:04.088,0.0116610629484057,0.000265893322648481,-0.00136098510120064,0,
00:00:04.092,0.0066035590134561105,0.007074808236211541,-0.000743055017665029,0,
00:00:04.096,-0.00356072094291449,0.005338392220437529,-0.00422208104282618,0,
00:00:04.1,-0.007695944514125591,-0.00557395070791245,0.0022431511897593698,0,
00:00:04.104,-0.007650678046047691,-0.00952188856899738,0.0078172879293561,0,
00:00:04.108,0.0031501783523708604,0.0023099111858755398,0.00244847103022039,0,
00:00:04.112,0.00668786279857159,0.0047499630600214,-0.00291967601515353,0,
00:00:04.116,0.00707620196044445,0.0049864542670548,-0.0108963698148727,0,
00:00:04.12,0.00772529933601618,-0.0017003096872940699,0.006777323782444,0,
00:00:04.124,-0.0110723692923784,-0.00717871636152267,-0.00394373247399926,0,
00:00:04.128,-0.00526775140315294,0.0020817823242396103,0.00243470771238208,0,
00:00:04.132,-0.00189095991663635,0.00512006040662527,0.00030642535421066,0,
00:00:04.136,-0.00592788169160485,-0.000815088336821646,-0.0036831472534686297,0,
00:00:04.14,0.00528265768662095,-0.00022238872770685697,0.00469431607052684,0,
00:00:04.144,0.00434671621769667,-0.00560121238231659,0.00386385759338737,0,
00:00:04.148,0.00308817927725613,7.880584598751741e-05,0.000498150126077235,0,
00:00:04.152,0.00530982203781605,3.20841681968886e-05,0.000137810580781661,0,
00:00:04.156,-0.0024846305605024104,0.00594614911824465,-0.00860900897532701,0,
00:00:04.16,-0.004722003359347579,0.000465522840386257,0.0048260875046253204,0,
00:00:04.164,-0.00134840735699981,-0.00375589169561863,-0.0053527839481830606,0,
00:00:04.168,-0.000859987980220467,0.00024889735504984904,0.00452928431332111,0,
00:00:04.172,-0.0047214045189321,0.0028570785652846102,0.00121262902393937,0,
00:00:04.176,-0.00436907960101962,-0.0038333907723426797,0.00177291722502559,0,
00:00:04.18,0.013781345449388001,0.00210536061786115,-0.000580356398131698,0,
00:00:04.184,0.00571043649688363,0.0031967128161341,-0.00617752270773053,0,
00:00:04.188,-0.0019514212617650602,-0.0110840136185288,-0.00413025356829166,0,
00:00:04.192,-0.0052320621907711,0.0005451429751701651,0.0063812895677983796,0,
00:00:04.196,-0.0106972334906459,0.00922458805143833,0.00969398487359285,0,
00:00:04.2,-2.4187491362681602e-05,0.00672226259484887,-0.000541412329766899,0,
00:00:04.204,0.00128519663121551,-0.0117126740515232,-0.00719907926395535,0,
00:00:04.208,0.0157539565116167,-0.0022421078756451602,-0.0049289432354271395,0,
00:00:04.212,0.006383604370057579,0.010645680129527999,-0.006840514950454239,0,
00:00:04.216,-0.0107789356261492,-0.00279563572257757,0.010262225754559,0,
00:00:04.22,-0.00299743888899684,-0.00478781154379249,0.005801873747259379,0,
00:00:04.224,-0.00827651284635067,-0.00641241809353232,0.000735141569748521,0,
00:00:04.228,-0.0020253777038306,0.00454838946461678,-0.000249607663135976,0,
00:00:04.232,0.00601729284971952,0.00737025495618582,-0.00490432698279619,0,
00:00:04.236,0.00789915397763252,0.000257384410360828,-0.0035477264318615202,0,
00:00:04.24,0.00460314471274614,-0.00241663190536201,-0.00267809256911278,0,
00:00:04.244,-0.0125992968678474,-0.0023321963381022198,0.0034712273627519603,0,
00:00:04.248,0.000162828888278455,-0.00109547353349626,0.0036854995414614703,0,
00:00:04.252,-0.000884877168573439,-0.0019490990089252602,-0.000472177838673815,0,
00:00:04.256,0.0102567663416266,0.004821642767637971,0.0056924736127257295,0,
00:00:04.26,0.0015925713814795,0.000461735355202109,-0.00580112636089325,0,
00:00:04.264,-0.00596345541998744,-0.00101229746360332,0.0016872844425961401,0,
00:00:04.268,-0.00908264238387346,-0.00304625742137432,-0.00417672656476498,0,
00:00:04.272,0.0026529412716627104,-0.00049758079694584,-0.00242136558517814,0,
00:00:04.276,0.00690789613872766,0.00581422820687294,-0.00348630244843662,0,
00:00:04.28,-0.00328474072739482,0.00434871949255466,0.0062827714718878295,0,
00:00:04.284,0.0108056049793959,-0.0017888606525957602,0.00341558083891869,0,
00:00:04.288,-0.004124429076910021,-0.0132862366735935,0.0054706446826458,0,
00:00:04.292,-0.0152235804125667,-0.0088290935382247,-0.00631599593907595,0,
00:00:04.296,-0.0022456368897110198,0.0168672930449247,-0.0024862231221050002,0,
00:00:04.3,0.0104854945093393,0.009515351615846159,0.00829485058784485,0,
00:00:04.304,0.0163217671215534,-0.00427875481545925,-0.00277406629174948,0,
00:00:04.308,-0.00638883374631405,-0.00362643343396485,-0.00754288677126169,0,
00:00:04.312,-0.0138902748003602,-0.00262684328481555,-0.007675525732338429,0,
00:00:04.316,-0.0073716212064027795,-0.0012267765123397099,0.0073617403395474,0,
00:00:04.32,0.0116378972306848,0.0021269021090120103,0.00292206113226712,0,
00:00:04.324,0.0107826981693506,-0.0032647408079356,0.006096420809626579,0,
00:00:04.328,-0.0032860599458217604,0.00123592838644981,-0.0006535530555993321,0,
00:00:04.332,-0.0040592309087514895,0.00206721923314035,-0.00294697750359774,0,
00:00:04.336,-0.00573726184666157,0.00327519048005342,-0.006674904841929671,0,
00:00:04.34,-0.00619118381291628,-0.0019288879120722398,0.00497117219492793,0,
00:00:04.344,0.00344454287551343,-0.00230125640518963,-0.000500903639476746,0,
00:00:04.348,0.0145040787756443,-0.00302241672761738,0.00158970430493355,0,
00:00:04.352,0.00267098867334425,0.000258359214058146,-0.00143139983993024,0,
00:00:04.356,-0.0177317578345537,0.00870082806795836,0.00969973858445883,0,
00:00:04.36,0.0028664383571595,-0.0033969576470553897,-0.0114732244983315,0,
00:00:04.364,0.00342141860164702,-0.0016254284419119401,-0.0032560343388468,0,
00:00:04.368,-0.00211780378594995,-0.0027538756839931,0.00148172827903181,0,
00:00:04.372,0.00431702751666307,0.00600369879975915,0.0070808241143822705,0,
00:00:04.376,0.00673999963328242,-0.00213651056401432,-0.00586779089644551,0,
00:00:04.38,-0.00455556716769934,-0.00491996994242072,0.00351234618574381,0,
00:00:04.384,-0.00563386827707291,0.000992899294942617,-0.0015622685896232698,0,
00:00:04.388,-0.00259639229625463,0.000329998059896752,-0.000662275124341249,0,
00:00:04.392,0.000605954905040562,0.0056579140946269,0.00504163838922977,0,
00:00:04.396,0.000139169511385262,0.002027707407251,0.00155902653932571,0,
00:00:04.4,-4.4834621803602204e-05,-0.00198810221627355,-0.00848036631941795,0,
00:00:04.404,0.006695198826491829,-0.009650837630033491,0.00039569599903188597,0,
00:00:04.408,0.0117503078654408,-0.000735087844077498,0.00245505780912936,0,
00:00:04.412,-0.0132246166467667,0.0061433240771293605,0.0036868089810013797,0,
00:00:04.416,-0.00404647318646312,0.00872420240193605,-0.00592224020510912,0,
00:00:04.42,-0.00675628194585443,-0.0010515273315832,-0.0025221100077033,0,
00:00:04.424,-0.00167531729675829,-0.00916691496968269,0.0186815448105335,0,
00:00:04.428,0.0241934582591057,-0.00667200842872262,-0.00579829094931483,0,
00:00:04.432,0.000146851540193893,0.00539657939225435,-0.0184172280132771,0,
00:00:04.436,-0.019770160317421,0.00800552126020193,0.00243321200832725,0,
00:00:04.44,-0.007086570374667641,-0.0017057745717465901,0.0090743750333786,0,
00:00:04.444,0.0146738355979323,-0.000682800018694252,-0.00369196501560509,0,
00:00:04.448,-0.0014394662575796199,-0.00100687786471099,0.0008111786446534099,0,
00:00:04.452,-0.0017794253071770102,0.0009578086901456119,0.00901383068412542,0,
00:00:04.456,0.007269224617630241,-0.00272054877132177,-0.0037200322840362796,0,
00:00:04.46,0.00265432661399245,-0.0038831869605928703,-0.00234298198483884,0,
00:00:04.464,-0.00707820896059275,0.00208994094282389,-0.0034565646201372103,0,
00:00:04.468,-0.003086720360443,0.00502667250111699,0.00144033133983612,0,
00:00:04.472,0.00368179637007415,-0.00246006995439529,-0.000329887610860169,0,
00:00:04.476,-0.007191407028585671,0.00237980531528592,0.000502789102029055,0,
00:00:04.48,0.00191432749852538,0.0006088886875659231,0.00321962893940508,0,
00:00:04.484,0.00592311657965183,-0.00987418089061975,0.00314548122696579,0,
00:00:04.488,0.00249543506652117,0.0036719134077429797,0.0071775037795305295,0,
00:00:04.492,-0.00542843900620937,0.007188679650425909,-0.0176989007741213,0,
00:00:04.496,-0.0009543405030854051,0.00430780462920666,-0.0100725376978517,0,
00:00:04.5,-0.00116317684296519,-0.008545751683413979,0.00471213366836309,0,
00:00:04.504,0.00102635647635907,-0.00784325692802668,0.0175618622452021,0,
00:00:04.508,0.00836437288671732,0.00624890206381679,0.00306231621652842,0,
00:00:04.512,-0.00629903702065349,0.00338578736409545,-0.0106801325455308,0,
00:00:04.516,0.00586041156202555,0.0007936226902529599,-0.00609353464096785,0,
00:00:04.52,-0.007348656654357909,-0.00283960509113967,0.009347851388156409,0,
00:00:04.524,-0.00696726003661752,0.000775339780375361,0.00292924605309963,0,
00:00:04.528,0.00467783305794001,0.0007659258553758259,-0.00627482496201992,0,
00:00:04.532,0.0117411036044359,0.00196614325977862,-0.0039044898003339798,0,
00:00:04.536,-0.00565517414361238,-0.00262999488040805,0.00046841360745020194,0,
00:00:04.54,-0.00372169143520296,0.0018676103791222,0.00700689014047384,0,
00:00:04.544,0.000983954989351332,-0.00649921735748649,0.0008825062541291119,0,
00:00:04.548,-0.007479725405573841,-0.0045389598235487895,-0.0019136980408802602,0,
00:00:04.552,0.0097599308937788,0.008631756529212,-0.00427616620436311,0,
00:00:04.556,0.0018157260492444,0.00617940258234739,-0.00339104048907757,0,
00:00:04.56,-0.00363214174285531,-0.00593563122674823,0.0117707094177604,0,
00:00:04.564,-0.0021627435926348,-0.00373344775289297,0.00650498596951365,0,
00:00:04.568,0.004470756277441979,0.011134522035718,-0.0166718810796738,0,
00:00:04.572,0.0017570361960679301,-0.00275901355780661,-0.00948984082788229,0,
00:00:04.576,-0.0058490056544542295,-0.00754074472934008,0.0065037566237151605,0,
00:00:04.58,0.00102041207719594,-0.0011611933587119,0.00859606824815273,0,
00:00:04.584,-0.00295735453255475,0.00165754917543381,0.00455131102353334,0,
00:00:04.588,0.00386116513982415,0.00207289308309555,0.00190497550647706,0,
00:00:04.592,0.0024699375499039897,0.00127765978686512,-0.00276246853172779,0,
00:00:04.596,-0.0045003523118794,0.0023249469231814103,-0.0108895525336266,0,
00:00:04.6,-0.00205391878262162,-0.00241445866413414,-0.0017965607112273602,0,
00:00:04.604,0.00342980516143143,-0.00434952741488814,0.00566072203218937,0,
00:00:04.608,0.00281041534617543,0.00133981392718852,0.0067476169206202,0,
00:00:04.612,-0.00157458428293467,0.0023327060043811802,0.0034241909161210103,0,
00:00:04.616,0.0028556447941809897,0.00545268645510077,-0.0069751609116792705,0,
00:00:04.62,-0.00195780186913908,-0.00603647576645017,-0.009832974523305891,0,
00:00:04.624,-0.00464459322392941,-0.00207697274163365,0.00279875006526709,0,
00:00:04.628,0.00276094325818121,0.00044376254663802694,0.0054799527861177895,0,
00:00:04.632,-0.00430428795516491,-0.0007068542763590809,0.00552253099158406,0,
00:00:04.636,0.007631101179867979,0.00313188834115863,0.000552533834706992,0,
00:00:04.64,0.0034973821602761698,0.00211059395223856,-0.00512031838297844,0,
00:00:04.644,-0.00854646414518356,-0.0020564435981214,-0.007906639017164709,0,
00:00:04.648,-0.00495561212301254,0.000671263318508863,0.00539440382272005,0,
00:00:04.652,0.00109398737549782,0.0022499852348119,0.0028510845731943802,0,
00:00:04.656,0.0125235812738538,-0.0026659932918846603,0.000771487771999091,0,
00:00:04.66,-0.00402307417243719,-0.00258164084516466,-0.00256038596853614,0,
00:00:04.664,-0.00488870032131672,-0.000781725917477161,-0.00306935352273285,0,
00:00:04.668,0.00289898528717458,0.00077128637349233,0.00903554446995258,0,
00:00:04.672,-0.0023094022180885103,0.00135075149592012,-0.0007770623778924349,0,
00:00:04.676,0.0032410081475973103,-0.0010011529084295,-0.00161567982286215,0,
00:00:04.68,-0.00695348111912608,0.00239521195180714,-0.00478332163766027,0,
00:00:04.684,0.00665949191898108,0.007705568801611659,0.00175869220402092,0,
00:00:04.688,0.00230295117944479,-0.0124222096055746,-0.009507298469543459,0,
00:00:04.692,0.00111499615013599,-0.00441917683929205,0.0048929532058537,0,
00:00:04.696,-0.006210197694599629,0.0112374518066645,0.00255391164682806,0,
00:00:04.7,0.0006809321348555389,0.0038173682987690002,0.009306970983743671,0,
00:00:04.704,-0.00112862454261631,-0.006396356038749221,0.00491050630807877,0,
00:00:04.708,-0.00234459131024778,-0.0024553663097322,-0.00572881521657109,0,
00:00:04.712,0.00692970724776387,-4.48559112555813e-05,-0.0117573514580727,0,
00:00:04.716,-0.0032175334636122,0.0030744969844818102,-0.0026127020828425897,0,
00:00:04.72,-0.00235768011771142,-0.0009258410427719349,0.000794703024439514,0,
00:00:04.724,0.00682736514136195,-0.00311926566064358,0.00629797484725714,0,
00:00:04.728,-0.00378457317128778,-0.000196991240954958,0.000562101835384965,0,
00:00:04.732,0.00108567893039435,0.0042122364975512,0.0029724158812314302,0,
00:00:04.736,-0.0038352829869836604,0.0045966366305947295,0.0140281124040484,0,
00:00:04.74,-0.0012613165890798,-0.00223725568503141,-0.0124172084033489,0,
00:00:04.744,0.0058279293589294,-0.00349970115348697,-0.0075048073194921,0,
00:00:04.748,0.0028140142094343896,-0.00208208267576993,-0.00682758493348956,0,
00:00:04.752,-0.00337567622773349,-0.000175034860149026,-0.00134739757049829,0,
00:00:04.756,-0.00321987341158092,0.00310828676447272,0.00972955208271742,0,
00:00:04.76,-0.0030954889953136396,-0.00278200581669807,0.00975452549755573,0,
00:00:04.764,-0.00134650303516537,-0.0009073296678252519,-0.0022453840356320104,0,
00:00:04.768,0.007095551118254659,0.00779616646468639,-0.00232028309255838,0,
00:00:04.772,0.0067133028060197796,-0.00155155884567648,-0.00464510265737772,0,
00:00:04.776,-0.00619027065113187,-0.00750176841393113,0.0020959977991879,0,
00:00:04.78,0.005593926645815371,0.0020136842504143698,-0.0011257731821388,0,
00:00:04.784,-0.0018827859312295899,0.00117040483746678,-0.00326804537326097,0,
00:00:04.788,-0.0157354734838009,0.00755376275628805,-0.00236915168352425,0,
00:00:04.792,0.00756397563964128,-0.00487691909074783,0.00208500819280744,0,
00:00:04.796,-0.00132577959448099,-0.002493861829862,0.016604483127593998,0,
00:00:04.8,-0.0038017206825316,-0.0007488270639441911,0.00176388397812843,0,
00:00:04.804,0.0109479120001197,0.000324463821016252,-0.0146465059369802,0,
00:00:04.808,0.0066364319063723105,0.0007347078644670549,-0.0101541690528393,0,
00:00:04.812,-0.00106659380253404,0.00272564054466784,-0.00500928051769733,0,
00:00:04.816,-0.00949255283921957,-0.0016448466340079901,0.009203216060996059,0,
00:00:04.82,-0.00750174047425389,-0.0016298622358590401,0.00960679817944765,0,
00:00:04.824,0.0045598456636071205,-0.0024248033296316897,0.00844893231987953,0,
00:00:04.828,0.00549115985631943,0.0026163337752223,-0.004981002770364279,0,
00:00:04.832,0.004457470029592511,0.00253923865966499,-0.00908042769879103,0,
00:00:04.836,-0.000578799867071211,0.000775775813963264,-0.00615638913586736,0,
00:00:04.84,-0.00985081680119038,-0.0007212142227217559,0.0053309272043407,0,
00:00:04.844,-0.0018172551644966,-0.0033396431244909802,0.007506486959755421,0,
00:00:04.848,0.0113050183281302,0.00306316302157938,-0.0063665839843452,0,
00:00:04.852,-0.00396089814603329,0.00138011353556067,0.00925188977271318,0,
00:00:04.856,-0.00207449705339968,-0.00325699290260673,-0.00359101593494415,0,
00:00:04.86,-0.00032414711313322203,-0.00430119363591075,-0.007532168179750441,0,
00:00:04.864,-0.00143102020956576,0.00409197574481368,-0.00696490844711661,0,
00:00:04.868,0.00486723892390728,-0.0030325155239552303,0.0101081663742661,0,
00:00:04.872,0.000170526749570854,0.00407292414456606,0.0135823246091604,0,
00:00:04.876,-0.00346476933918893,0.00524163199588656,-0.0118591329082847,0,
00:00:04.88,-0.0013387494254857302,-0.0038276766426861295,-0.00519348261877894,0,
00:00:04.884,0.00728314090520144,0.000622045539785177,-0.00233359797857702,0,
00:00:04.888,0.000120549862913322,-0.00471734721213579,0.00824802182614803,0,
00:00:04.892,-0.00753095978870988,3.66450694855303e-05,9.203847184835471e-06,0,
00:00:04.896,-0.00562193896621466,0.00560259120538831,-0.010086914524435999,0,
00:00:04.9,0.0056412965059280396,-0.00274302484467626,0.00683973450213671,0,
00:00:04.904,0.0118500525131822,-0.00906037539243698,0.0169790517538786,0,
00:00:04.908,9.74815120571293e-05,0.0054021617397666,-0.00854471884667873,0,
00:00:04.912,-0.0143955210223794,0.0103385671973228,-0.0130338817834854,0,
00:00:04.916,-0.0024561278987675897,0.000348288187524304,-0.00480390852317214,0,
00:00:04.92,0.00131617544684559,-0.00668071024119854,0.00524377217516303,0,
00:00:04.924,0.0063221398741006895,-0.009024037979543209,0.0063644708134234,0,
00:00:04.928,0.008424187079072,0.00310966791585088,-0.000739194569177926,0,
00:00:04.932,-0.00756517145782709,0.0052623744122684,0.00395404594019055,0,
00:00:04.936,-0.00548082729801536,0.0030225918162614103,0.0054470794275403,0,
00:00:04.94,0.00223810342140496,0.0021964963525533698,-0.00792008824646473,0,
00:00:04.944,0.0138777736574411,-0.0035870051942765704,-0.006458442192524671,0,
00:00:04.948,-0.00389653537422419,-0.00556947570294142,-0.00320411333814263,0,
00:00:04.952,-0.0144623899832368,-0.00140560197178274,0.0108721880242229,0,
00:00:04.956,-0.0035811732523143296,0.008434260264039041,0.00755516486242414,0,
00:00:04.96,0.0019700457341969,-0.00270194606855512,-0.00828063301742077,0,
00:00:04.964,0.010207231156528,-0.00067736126948148,-0.0115693472325802,0,
00:00:04.968,0.0122308451682329,-0.0020813832525163898,0.00018392338824924098,0,
00:00:04.972,-0.00211181701160967,0.00206243875436485,0.010059479624033,0,
00:00:04.976,-0.0149737428873777,0.00373239116743207,0.00400199927389622,0,
00:00:04.98,-0.008177918381989,0.000231699057621881,-0.000359241588739678,0,
00:00:04.984,0.0034123221412301103,-0.00658762129023671,-0.0023357537575066103,0,
00:00:04.988,0.0023106667213141896,-0.00504466192796826,-0.00024043489247560498,0,
00:00:04.992,0.0085518741980195,0.0077166734263300904,-0.00530173908919096,0,
00:00:04.996,0.00870555639266968,0.0074583734385669205,-0.0018186088418588,0,
00:00:05,-0.0069385813549161,-0.00409022718667984,0.004083106294274329,0,
00:00:05.004,-0.00517764640972018,-0.00503410818055272,-0.0007064498495310549,0,
00:00:05.008,-0.00251992605626583,-0.0062620472162962,0.0048383488319814205,0,
00:00:05.012,0.00195049378089607,0.00264102080836892,0.0063431216403842,0,
00:00:05.016,-0.00280409515835345,0.0135429203510284,-0.0053115249611437295,0,
00:00:05.02,-0.0023230614606291103,-0.0041933059692382795,-0.008305128663778309,0,
00:00:05.024,0.014718646183609999,-0.00573231372982264,0.00747540220618248,0,
00:00:05.028,-0.00538673624396324,-0.00207323976792395,-0.00967063289135695,0,
00:00:05.032,-0.0063786879181861895,0.00539808766916394,6.361460691550749e-05,0,
00:00:05.036,-0.00170139758847654,0.000563965470064431,0.0020506409928202603,0,
00:00:05.04,0.0083374222740531,0.000724652141798288,0.0100627616047859,0,
00:00:05.044,-0.00275168754160404,-0.00336076412349939,-0.0025989192072302103,0,
00:00:05.048,0.00134999991860241,-0.00433682138100266,-0.0035789182875305397,0,
00:00:05.052,-0.0020253136754036,-0.000125202670460567,-0.00116824789438397,0,
00:00:05.056,-0.00573440128937364,0.0070817926898598706,0.00291577749885619,0,
00:00:05.06,0.0037814124953001703,0.00140725029632449,0.00151470524724573,0,
00:00:05.064,0.00409023044630885,0.000691472028847784,-0.000634552503470331,0,
00:00:05.068,-0.0007304947939701379,-0.0101483408361673,-0.0016543198144063401,0,
00:00:05.072,0.0050630685873329605,0.00509233865886927,-0.00141877646092325,0,
00:00:05.076,-0.00426301918923855,0.0066443397663533705,-0.0005552687216550111,0,
00:00:05.08,-0.00463714823126793,-0.00587606709450483,0.000264824746409431,0,
00:00:05.084,0.000334816373651847,-0.0044227065518498395,-0.00140289380215108,0,
00:00:05.088,-0.00100313569419086,0.0042154616676271,-0.003609070321545,0,
00:00:05.092,-0.00573841156437993,0.000929106958210468,0.0120775960385799,0,
00:00:05.096,0.00964764412492514,0.00183136283885688,0.00742069026455283,0,
00:00:05.1,0.0128958895802498,-0.00860959012061358,-0.0034556468017399302,0,
00:00:05.104,-0.00816556718200445,0.0061481948941946,-0.0211995113641024,0,
00:00:05.108,-0.0176429729908705,0.0048521803691983206,-0.00170785596128553,0,
00:00:05.112,0.00432553980499506,-0.00628634029999375,0.00280467793345451,0,
00:00:05.116,0.0104342037811875,0.00281274621374905,0.0114403078332543,0,
00:00:05.12,0.000677333038765937,0.00164462951943278,0.009345026686787609,0,
00:00:05.124,0.00655961222946644,-0.00736924866214395,0.000491093785967678,0,
00:00:05.128,-0.009277195669710641,0.00151064759120345,-0.00969932973384857,0,
00:00:05.132,-0.0049436343833804105,0.0051287398673594,-0.000436633097706363,0,
00:00:05.136,-0.00252705649472773,0.00174083525780588,-0.00878597889095545,0,
00:00:05.14,-4.2359286453574896e-05,-0.00372774316929281,6.25780448899604e-05,0,
00:00:05.144,0.0102241784334183,-0.004952347837388521,0.00894253049045801,0,
00:00:05.148,0.00516442535445094,-0.000516137515660375,0.00100667425431311,0,
00:00:05.152,-0.00380078284069896,0.00699372077360749,0.00340398889966309,0,
00:00:05.156,-0.007216105237603191,0.00358935398980975,-0.00657463073730469,0,
00:00:05.16,0.00114065990783274,-0.00320445816032588,0.00270682433620095,0,
00:00:05.164,-0.00255735823884606,-0.0076346853747963905,-0.00472479546442628,0,
00:00:05.168,-0.00418189121410251,0.0046052704565227,0.0046532275155186705,0,
00:00:05.172,0.0145929008722305,0.00183290301356465,0.0025353692471981,0,
00:00:05.176,0.00845785159617662,-0.00197601085528731,0.0008730040863156321,0,
00:00:05.18,-0.0207904204726219,0.00133678363636136,-0.00692143430933356,0,
00:00:05.184,0.00154713878873736,0.0030538011342287103,-0.0102631244808435,0,
00:00:05.188,0.000489650992676616,-0.004221485927701,0.00660454062744975,0,
00:00:05.192,-0.004697033669799571,0.00156489701475948,0.0123701598495245,0,
00:00:05.196,0.00380392768420279,-0.00341225229203701,-0.00224715564399958,0,
00:00:05.2,0.012470711953938,0.00302920816466212,-0.00218511349521577,0,
00:00:05.204,0.0106477392837405,-0.00233626132830977,-0.0019068787805736102,0,
00:00:05.208,-0.00794164836406708,0.00336555205285549,0.0008828541031107311,0,
00:00:05.212,-0.022470248863101002,-0.00258986558765173,-0.00439643766731024,0,
00:00:05.216,-0.006030045915395021,0.000799893750809133,0.00269451015628874,0,
00:00:05.22,0.0110386032611132,0.0010463391663506599,-0.00204764306545258,0,
00:00:05.224,0.0109542720019817,0.000276270293397829,-0.000258616404607892,0,
00:00:05.228,0.0107275834307075,-0.00039431769982911603,-0.00029854977037757597,0,
00:00:05.232,-0.0116035873070359,0.00354837812483311,0.0062109152786433705,0,
00:00:05.236,-0.00319667183794081,-0.0043815691024065,0.009187996387481691,0,
00:00:05.24,-0.0010590794263407599,-0.00340076605789363,-0.00734853139147162,0,
00:00:05.244,-0.00677355658262968,-0.00644678389653564,-0.00839401502162218,0,
00:00:05.248,0.00370868272148073,0.00784437451511621,-0.00144019909203053,0,
00:00:05.252,0.00305832084268332,0.009251805022358891,-0.0027529071085155,0,
00:00:05.256,0.00880406890064478,-9.2711481556762e-05,0.0038680233992636204,0,
00:00:05.26,-0.000411031389376149,-0.0040157432667911105,0.00674462551251054,0,
00:00:05.264,-0.0130767934024334,-0.0039248238317668395,-0.00565165095031261,0,
00:00:05.268,0.00329010700806975,0.000141503667691723,0.00637517170980573,0,
00:00:05.272,0.006509578321129079,-0.00391445029526949,0.0033265622332692103,0,
00:00:05.276,-0.00497894734144211,0.00163357669953257,-0.00608624238520861,0,
00:00:05.28,-0.00336136622354388,0.0028802107553929104,-0.004558321088552479,0,
00:00:05.284,-0.0013582609826698901,-0.000190344551810995,0.00571144139394164,0,
00:00:05.288,0.0028073079884052303,0.0023263413459062602,-0.00378744537010789,0,
00:00:05.292,0.0228839069604874,0.0009269817965105179,-0.000284807931166142,0,
00:00:05.296,-0.00873403064906597,0.00123756122775376,-0.00306909298524261,0,
00:00:05.3,-0.0223743319511414,-0.00355434021912515,0.0009012049413286151,0,
00:00:05.304,-0.00598230073228478,-0.0029137025121599397,0.0140018640086055,0,
00:00:05.308,0.012880046851933,-0.00272738863714039,-0.00232749455608428,0,
00:00:05.312,0.006514610256999729,0.00306296534836292,-0.006613203790038821,0,
00:00:05.316,0.00656970497220755,0.0074098892509937295,-0.004650099202990529,0,
00:00:05.32,-0.00220600725151598,-0.0025921850465238103,-0.00516159646213055,0,
00:00:05.324,-0.00491440482437611,-0.00789839681237936,0.009729788638651371,0,
00:00:05.328,0.0003546817752067,0.0022927934769541,0.00591161381453276,0,
00:00:05.332,-0.00734382262453437,0.0058608329854905605,-0.0113129578530788,0,
00:00:05.336,-0.0026447968557477,0.00194378569722176,-0.00293509406037629,0,
00:00:05.34,0.00280546909198165,-0.00605449825525284,0.00986495055258274,0,
00:00:05.344,0.0069008325226604895,-0.0033950870856642697,0.00767985451966524,0,
00:00:05.348,0.00371464318595827,0.0028699662070721397,-0.00324458698742092,0,
00:00:05.352,-0.00048163844621740303,0.00506282690912485,-0.0126856155693531,0,
00:00:05.356,0.00550501933321357,-0.000925945059861988,0.00130692473612726,0,
00:00:05.36,-0.0190511718392372,-0.00230135978199542,-0.000342279585311189,0,
00:00:05.364,-0.00436223391443491,-0.00150104216299951,0.00399955688044429,0,
00:00:05.368,0.018068689852953,-0.00437884917482734,0.0032129990868270397,0,
00:00:05.372,0.00242967181839049,0.006646698806434871,-0.0012247452978044698,0,
00:00:05.376,-0.0105242254212499,0.00212651584297419,0.0030511869117617603,0,
00:00:05.38,-0.0050932760350406205,-0.00281125935725868,0.00011416961933719,0,
00:00:05.384,0.0105478819459677,0.000253656966378912,-0.00676714861765504,0,
00:00:05.388,-0.000401144468924031,0.00233439658768475,-0.00114452303387225,0,
00:00:05.392,-1.4406566151592401e-05,0.0018349214224144801,0.00150363077409565,0,
00:00:05.396,-0.000745816621929407,-0.0103510543704033,-0.0021977061405777897,0,
00:00:05.4,0.0030233226716518398,-0.00203165784478188,0.0031033463310450302,0,
00:00:05.404,-0.00277075567282736,0.00565220834687352,0.00550445588305593,0,
00:00:05.408,-0.009749795310199259,0.0049033509567379995,0.0057178088463842895,0,
00:00:05.412,-0.00202561519108713,0.00148300663568079,-0.0060870191082358395,0,
00:00:05.416,0.0050143701955676105,-0.00130309432279319,-0.00664666341617703,0,
00:00:05.42,0.0212688464671373,-0.00023256082204170498,-0.000730775122065097,0,
00:00:05.424,-0.00333349942229688,-0.0037890090607106703,-0.00514973886311054,0,
00:00:05.428,-0.0169014427810907,-0.00232059671543539,0.0030043986625969397,0,
00:00:05.432,-0.00212104036472738,-0.0019368886714801199,0.00971502158790827,0,
00:00:05.436,-0.00145843042992055,0.0035998204257339204,0.0021304897964000698,0,
00:00:05.44,0.000588330964092165,0.00339705985970795,-0.00634845998138189,0,
00:00:05.444,0.00653303787112236,-0.0029572788625955603,0.00480820052325726,0,
00:00:05.448,0.00936104916036129,0.005287822801619771,-0.00505584292113781,0,
00:00:05.452,-0.000508068478666246,0.00393173331394792,0.00252526765689254,0,
00:00:05.456,-0.0007928535342216491,-0.00444651488214731,-0.0058267368003726,0,
00:00:05.46,-0.0108303790912032,-0.00974702835083008,-0.0024934823159128397,0,
00:00:05.464,-0.0036728121340274798,-0.00316885625943542,0.00826559215784073,0,
00:00:05.468,0.00356729095801711,0.00538822449743748,-0.0041257431730628,0,
00:00:05.472,0.00570203550159931,0.0077568413689732595,0.0021268061827868197,0,
00:00:05.476,-0.00671666860580444,0.000617616169620305,0.0021447087638080103,0,
00:00:05.48,-0.00022768814233131699,-8.49583593662828e-05,-0.0017646964406594602,0,
00:00:05.484,0.00551712699234486,-0.00633070664480329,-0.0032817306928336603,0,
00:00:05.488,0.00571436993777752,-0.00297059235163033,0.0062290788628161,0,
00:00:05.492,-0.0019013354321941699,0.0033512762747705,-0.00154134654439986,0,
00:00:05.496,-0.005920968484133479,0.00324216112494469,0.0058682831004262,0,
00:00:05.5,-0.000730416853912175,0.00105399556923658,-0.00266816560178995,0,
00:00:05.504,0.00301725976169109,-0.000799024477601051,-0.0141482790932059,0,
00:00:05.508,-0.0010081824148073801,-0.00148245354648679,-0.00474207103252411,0,
00:00:05.512,-0.00118679215665907,0.0009085197816602891,0.0114082666113973,0,
00:00:05.516,-0.00226871646009386,-0.00239995052106678,0.006853220518678429,0,
00:00:05.52,-0.00157178787048906,-0.00141672056633979,-0.000517690554261208,0,
00:00:05.524,0.00223879143595696,-0.0038030759897083,0.0020954655483365102,0,
00:00:05.528,0.018316650763154,0.00527632189914584,-0.00334887835197151,0,
00:00:05.532,-0.00489876326173544,0.00664107128977776,-0.003723603207618,0,
00:00:05.536,-0.014826113358139999,0.0010965591063723,-0.00182752788532525,0,
00:00:05.54,-0.007310390472412109,-0.00743182748556137,-0.0018574289279058602,0,
00:00:05.544,-0.000140320989885367,-0.00443837512284517,0.0012402131687849801,0,
00:00:05.548,0.0126001685857773,0.0045797792263329,0.007097608409821991,0,
00:00:05.552,0.0119220344349742,0.00121747818775475,-0.00141285744030029,0,
00:00:05.556,-0.00416026916354895,0.0019436697475612198,0.00393063575029373,0,
00:00:05.56,-0.0164507944136858,-0.00447197910398245,-0.0026382035575807103,0,
00:00:05.564,0.000315695651806891,-0.0020117687527090302,-0.00845622643828392,0,
00:00:05.568,0.0032868667040020197,0.00547601794824004,-0.00504959467798471,0,
00:00:05.572,0.0125094437971711,0.00286417524330318,0.00887650903314352,0,
00:00:05.576,-0.00500129582360387,-0.005203904584050179,-0.00161980197299272,0,
00:00:05.58,-0.00584478070959449,-0.00100638263393193,0.010708374902605998,0,
00:00:05.584,0.00036662892671302004,-0.00133593240752816,0.0034676615614444,0,
00:00:05.588,0.0018038081470876897,0.00297124404460192,-0.012979875318706001,0,
00:00:05.592,0.00118082331027836,0.00429304270073771,-0.00362484459765255,0,
00:00:05.596,-0.00192270544357598,-0.00174287345726043,0.00117794773541391,0,
00:00:05.6,0.0035529299639165397,-0.00274888146668673,0.000552270270418376,0,
00:00:05.604,0.0011265124194324,-0.00152878265362233,0.00613783625885844,0,
00:00:05.608,-0.00589608680456877,-0.00207348517142236,-0.00157591444440186,0,
00:00:05.612,-0.0007402719347737731,0.00702594174072146,-0.0038767696823924797,0,
00:00:05.616,0.00145341583993286,0.000770373269915581,0.00384266674518585,0,
00:00:05.62,-0.0066484226845204795,-0.0107075376436114,0.00881862640380859,0,
00:00:05.624,0.0171141866594553,0.00110030686482787,-0.00636962149292231,0,
00:00:05.628,-0.0012824449222534901,0.0112735433503985,-0.0112419100478292,0,
00:00:05.632,-0.00632851757109165,0.000132011962705292,0.00962810777127743,0,
00:00:05.636,-0.000486581702716649,-0.00576745951548219,-0.007233332376927141,0,
00:00:05.64,-0.0050526624545455,-0.00130541040562093,-0.00106717890594155,0,
00:00:05.644,-0.0038575818762183202,0.00241565215401351,0.007695325184613471,0,
00:00:05.648,0.00393247231841087,-0.00132913875859231,-0.00165358441881835,0,
00:00:05.652,0.00296764494851232,-0.0012063173344358802,0.00539073254913092,0,
00:00:05.656,0.00271048885770142,0.0041147549636662,-0.000508244207594544,0,
00:00:05.66,0.00782283954322338,-0.00731388479471207,-0.00289791612885892,0,
00:00:05.664,-0.00169416109565645,-0.000495491432957351,-0.00471589015796781,0,
00:00:05.668,-0.00992095191031694,0.005455144681036471,-0.00127863115631044,0,
00:00:05.672,-0.0114377643913031,0.00374659011140466,0.0059417774900794,0,
00:00:05.676,0.00909375306218863,0.00443003419786692,0.000838871230371296,0,
00:00:05.68,0.0176235884428024,-0.00802284572273493,0.000774297513999045,0,
00:00:05.684,-0.0069736614823341396,-0.0057737473398447,-0.00136883789673448,0,
00:00:05.688,-0.00283397734165192,0.00177077075932175,-0.00435606203973293,0,
00:00:05.692,-0.00527854589745402,0.00324893766082823,-0.0017548918258398802,0,
00:00:05.696,-0.00714278686791658,0.004084130283445121,-0.0029721122700721,0,
00:00:05.7,-0.00413263961672783,-0.0037752417847514205,0.0042948666960001,0,
00:00:05.704,0.0113121392205358,-0.00049167696852237,0.009320530109107491,0,
00:00:05.708,0.009283207356929779,0.000410682667279616,0.000784368894528598,0,
00:00:05.712,0.0041912836022675,0.00240666256286204,-0.00350475660525262,0,
00:00:05.716,-0.00742013473063707,-0.00194151536561549,-0.0039723408408463,0,
00:00:05.72,-0.0046901716850698,-0.00387190817855299,-0.00437130499631166,0,
00:00:05.724,0.00404020398855209,0.00370098790153861,-0.000331946735968813,0,
00:00:05.728,-0.0102012977004051,0.0024973803665489,0.0047244392335414895,0,
00:00:05.732,-0.00196924735791981,-0.0044746813364327,0.00116434961091727,0,
00:00:05.736,0.004003170877695079,1.90021419257391e-05,0.00437843101099133,0,
00:00:05.74,0.0157677680253983,-0.0027076501864939898,0.00226145586930215,0,
00:00:05.744,-0.00848435144871473,0.00304331840015948,-0.0010670808842405699,0,
00:00:05.748,-0.001512999413535,0.00974914710968733,-0.0134572833776474,0,
00:00:05.752,-0.00264781038276851,-0.000210791375138797,-0.00987713970243931,0,
00:00:05.756,-0.0009730483288876711,-0.0073467455804348,0.0117235518991947,0,
00:00:05.76,-0.00133465393446386,-0.00743342796340585,0.00898345839232206,0,
00:00:05.764,0.00341306813061237,0.0010073883458972,0.0012320945970714099,0,
00:00:05.768,0.0007336520939134059,0.0038063400425016897,-0.0035481832455843704,0,
00:00:05.772,0.00467941397801042,0.00109270762186497,0.0063268169760704,0,
00:00:05.776,-0.00345013197511435,0.00529801426455379,-0.00148189417086542,0,
00:00:05.78,-0.0031064280774444303,-0.0007692079525440929,-0.009323510341346259,0,
00:00:05.784,0.00355596537701786,-0.00475235236808658,-0.008875538595020771,0,
00:00:05.788,0.00138656701892614,-0.00224070902913809,0.0115291466936469,0,
00:00:05.792,0.00261775264516473,0.00701501267030835,0.00587799632921815,0,
00:00:05.796,-0.0126822022721171,-0.00172695773653686,-0.0045317104086279895,0,
00:00:05.8,-0.00527348602190614,-0.00513039017096162,0.000459760951343924,0,
00:00:05.804,0.00819402746856213,0.000531285884790123,-8.54550671647303e-05,0,
00:00:05.808,0.0120779061689973,0.00203503994271159,-0.00534163741394877,0,
00:00:05.812,-0.00318640470504761,0.00147901545278728,-0.0036005799192935202,0,
00:00:05.816,-0.00298416032455862,0.0024485532194376,0.00233533699065447,0,
00:00:05.82,-0.00847906153649092,-0.0044892090372741205,0.0113984914496541,0,
00:00:05.824,0.000650357455015183,-0.0024372183252126,0.00240311585366726,0,
00:00:05.828,0.0171092469245195,0.00499686365947127,0.000760799448471516,0,
00:00:05.832,0.00269791577011347,0.00258630071766675,-0.0108627295121551,0,
00:00:05.836,-0.0160566549748182,-0.00314544187858701,-0.00459103845059872,0,
00:00:05.84,-0.0121033564209938,-0.00282427854835987,-0.00157328404020518,0,
00:00:05.844,0.00463846372440457,0.00137362652458251,0.00908806454390287,0,
00:00:05.848,0.00641988217830658,-0.011392479762435,0.00066977902315557,0,
00:00:05.852,0.00970627926290035,0.0117779597640038,-0.00561384623870254,0,
00:00:05.856,0.0029024456162005698,0.0112668462097645,0.00496397307142615,0,
00:00:05.86,-0.00544337509199977,-0.0035567793529480704,-0.000922780542168766,0,
00:00:05.864,-0.0055950987152755295,-0.00901796948164701,0.00109275034628808,0,
00:00:05.868,-0.00459414208307862,-0.00465683685615659,0.000258075422607362,0,
00:00:05.872,0.00040460459422320095,0.00695509370416403,0.00336768850684166,0,
00:00:05.876,0.005629173479974271,-0.000370226072845981,-0.00920667964965105,0,
00:00:05.88,0.0058519225567579295,-0.00149390508886427,-0.00216986308805645,0,
00:00:05.884,0.00046507603838108496,-0.000474631175165996,0.00680990517139435,0,
00:00:05.888,-0.00962567608803511,-0.00150209036655724,0.00407132506370544,0,
00:00:05.892,-0.000129992869915441,0.0008287148666568099,-0.00261237029917538,0,
00:00:05.896,0.0066765658557415,0.00844097230583429,-0.0030840432737022604,0,
00:00:05.9,9.55670620896854e-05,-0.00195490499027073,-0.005444418173283339,0,
00:00:05.904,-0.00885946117341518,-0.00624998472630978,0.00440236972644925,0,
00:00:05.908,0.0035236803814768796,-0.000630712602287531,0.000369924324331805,0,
00:00:05.912,-0.0021786410361528397,0.00135073543060571,0.00955350697040558,0,
00:00:05.916,0.00493641663342714,0.0034472220577299604,0.000215971391298808,0,
00:00:05.92,0.00559333059936762,-0.00547588523477316,-0.0132918236777186,0,
00:00:05.924,-0.00395468808710575,0.0022561214864254,-0.00151632307097316,0,
00:00:05.928,0.000277314975392073,0.00477153481915593,0.0140582947060466,0,
00:00:05.932,-0.0029523060657084,-0.00119556905701756,-0.00167239061556756,0,
00:00:05.936,-0.00208596442826092,-0.00044767424697056396,-0.012147999368608,0,
00:00:05.94,-0.00224918522872031,-0.005657579284161329,-0.00437693390995264,0,
00:00:05.944,0.00934283994138241,-0.00194931821897626,0.0102485725656152,0,
00:00:05.948,-0.00702395522966981,0.0041584512218833,0.00316339894197881,0,
00:00:05.952,-0.00401959754526615,0.0035890501458197797,0.0065369852818548705,0,
00:00:05.956,0.004006164614111189,0.00098836631514132,-0.00875008385628462,0,
00:00:05.96,0.008883349597454071,-0.0010752705857157699,-0.00185258395504206,0,
00:00:05.964,0.00444637797772884,0.00031347080948762596,0.00248873652890325,0,
00:00:05.968,-0.00566518120467663,-0.00537986122071743,-0.00334879267029464,0,
00:00:05.972,-0.0112948715686798,-0.00011423084652051298,0.0007139912922866639,0,
00:00:05.976,-0.00624149013310671,0.0017583065200597,-0.0026331483386457,0,
00:00:05.98,0.00922686886042356,0.00163717812392861,0.0048737651668489,0,
00:00:05.984,0.0036221761256456397,-0.00134157121647149,0.00545381847769022,0,
00:00:05.988,0.00571147631853819,0.00393053237348795,4.084367537871e-05,0,
00:00:05.992,0.0047663236036896706,0.00119272863958031,-0.0058009373024106,0,
00:00:05.996,-0.00951576698571444,-0.00606130342930555,-0.00418077129870653,0,
00:00:06,-0.0138997808098793,-0.000981729128398001,0.00143400719389319,0,
00:00:06.004,0.00240993336774409,0.0012651962460950002,0.00194167450536042,0,
00:00:06.008,0.010009084828198001,0.0015758707886561801,-0.00324692903086543,0,
00:00:06.012,0.00851705577224493,0.0030035779345780602,-0.00025147054111585,0,
00:00:06.016,0.00480344751849771,-0.00600958708673716,-0.0015076702693477301,0,
00:00:06.02,-0.0149393081665039,0.00190648657735437,0.0111848823726177,0,
00:00:06.024,-0.007117303553968671,0.0025857579894363898,0.00931242108345032,0,
00:00:06.028,0.00726971356198192,0.000839219021145254,-0.010974308475851999,0,
00:00:06.032,-0.000928080815356225,0.00131547800265253,-0.00577181205153465,0,
00:00:06.036,-0.000209956167964265,-0.0033062300644815,-0.00655484898015857,0,
00:00:06.04,0.0037530199624598,-0.00472758989781141,-0.000154803405166604,0,
00:00:06.044,-0.0019122069934383,0.00147572951391339,0.0066087567247450395,0,
00:00:06.048,0.00573495822027326,0.00481837475672364,0.0053021595813334,0,
00:00:06.052,0.00993037689477205,-0.00233907136134803,0.00150680588558316,0,
00:00:06.056,-0.0150451986119151,0.00264190603047609,-0.00148756732232869,0,
00:00:06.06,-0.0132323745638132,-0.00331074022687972,-0.0025439632590860102,0,
00:00:06.064,0.0013923019869253,-0.0016575191402807801,-0.00199046800844371,0,
00:00:06.068,0.0120677994564176,0.00507756415754557,-0.00282995938323438,0,
00:00:06.072,0.00755558162927628,0.00221218890510499,0.000226085947360843,0,
00:00:06.076,-0.00184186431579292,-0.0036055177915841298,0.00652864156290889,0,
00:00:06.08,-0.00427807820960879,-0.0031171899754554,-0.0014500122051686,0,
00:00:06.084,-0.00935130100697279,-0.004909696988761429,8.5452753410209e-05,0,
00:00:06.088,0.00497009139508009,0.00917803216725588,-0.00453052762895823,0,
00:00:06.092,0.00561698246747255,0.00512081012129784,-0.00105304003227502,0,
00:00:06.096,0.00805314350873232,-0.0119213778525591,0.0168239194899797,0,
00:00:06.1,-0.007411094382405279,-0.00318977469578385,-0.0045186495408415794,0,
00:00:06.104,-0.00759050808846951,0.00991774350404739,-0.0134842544794083,0,
00:00:06.108,-0.00256459671072662,0.00580936297774315,-0.00392054207623005,0,
00:00:06.112,-0.0022839587181806603,-0.001065140706487,0.0006744316197000441,0,
00:00:06.116,0.0054606688208878,-0.00677713938057423,0.00487403851002455,0,
00:00:06.12,0.0123092699795961,-0.00660521537065506,0.00744982529431582,0,
00:00:06.124,0.0012528335209935901,0.00150511867832392,0.00109987275209278,0,
00:00:06.128,-0.0113797821104527,0.0017829025164246603,0.00471150502562523,0,
00:00:06.132,-0.00425085844472051,0.0049073360860347704,-0.00586950127035379,0,
