,Elapsed Time,EMG
0,00:00:00,1.0565721653401845
1,00:00:00.004,-1.0428031980991357
2,00:00:00.008,-0.7794862324371925
3,00:00:00.012,-0.007656716741621772
4,00:00:00.016,0.30299075879156595
5,00:00:00.02,0.4714538549596866
6,00:00:00.024,0.35695162415504456
7,00:00:00.028,0.0843351185321808
8,00:00:00.032,-0.09341706987470394
9,00:00:00.036,-0.2934570126235491
10,00:00:00.04,-0.08210491389036234
11,00:00:00.044,-0.07308264356106542
12,00:00:00.048,-0.02897354681044812
13,00:00:00.052,-0.012619661167264526
14,00:00:00.056,0.13474960252642665
15,00:00:00.06,0.045426142401993407
16,00:00:00.064,-0.030413931875955348
17,00:00:00.068,0.15625360328704152
18,00:00:00.072,-0.0254231858998537
19,00:00:00.076,-0.2513217860832809
20,00:00:00.08,-0.0407301150262355
21,00:00:00.084,0.0836608726531268
22,00:00:00.088,0.1008331114426258
23,00:00:00.092,0.0868984889239073
24,00:00:00.096,-0.0987984109669924
25,00:00:00.1,-0.05790831707417961
26,00:00:00.104,-0.014788436703383898
27,00:00:00.108,0.07064666366204617
28,00:00:00.112,0.027557348832488098
29,00:00:00.116,-0.05893132556229884
30,00:00:00.12,0.016528909560292973
31,00:00:00.124,0.019730083644390103
32,00:00:00.128,-0.010705791413784098
33,00:00:00.132,-0.0936213359236718
34,00:00:00.136,0.0321771204471587
35,00:00:00.14,0.0675321314483881
36,00:00:00.144,0.06327184429392216
37,00:00:00.148,-0.013315252959728296
38,00:00:00.152,-0.1263420470058918
39,00:00:00.156,-0.02344687306322151
40,00:00:00.16,0.07458213996142146
41,00:00:00.164,0.12584122596308545
42,00:00:00.168,-0.10340920183807611
43,00:00:00.172,-0.029269322752952603
44,00:00:00.176,-0.09222235344350344
45,00:00:00.18,0.010383896529674488
46,00:00:00.184,0.2524161860346798
47,00:00:00.188,-0.062340971082449
48,00:00:00.192,-0.144716123118997
49,00:00:00.196,0.05603170685208168
50,00:00:00.2,-0.04528473084792496
51,00:00:00.204,-0.031130610033869792
52,00:00:00.208,-0.010875344276428198
53,00:00:00.212,0.10226437821984291
54,00:00:00.216,0.0782632678747178
55,00:00:00.22,-0.046975446864962606
56,00:00:00.224,-0.06551052816212169
57,00:00:00.228,0.0353855947032571
58,00:00:00.232,-0.0718780960887671
59,00:00:00.236,0.10993334394879689
60,00:00:00.24,-0.027498800307512252
61,00:00:00.244,-0.10382085130549976
62,00:00:00.248,-0.004264608956873403
63,00:00:00.252,0.09666917717549955
64,00:00:00.256,-0.017045967280864698
65,00:00:00.26,0.031936751212924774
66,00:00:00.264,-0.0158824753016233
67,00:00:00.268,-0.04684462631121278
68,00:00:00.272,0.043560227677517105
69,00:00:00.276,-0.009264390915632224
70,00:00:00.28,-0.02790266252122822
71,00:00:00.284,0.004310708492994322
72,00:00:00.288,0.018174972850829352
73,00:00:00.292,0.006602119654417083
74,00:00:00.296,0.0016269162297248008
75,00:00:00.3,-0.0491442098282278
76,00:00:00.304,0.03818653710186479
77,00:00:00.308,0.11516754049807787
78,00:00:00.312,-0.11180413747206336
79,00:00:00.316,-0.0352941192686557
80,00:00:00.32,-0.020008461549878103
81,00:00:00.324,0.02723836619406938
82,00:00:00.328,0.0008735200390219012
83,00:00:00.332,0.01534228282980621
84,00:00:00.336,0.047538004466332495
85,00:00:00.34,-0.016815077513456303
86,00:00:00.344,-0.025002374313771718
87,00:00:00.348,0.09173425519838932
88,00:00:00.352,-0.0407805573195219
89,00:00:00.356,-0.056032845284789884
90,00:00:00.36,-0.1036767195910216
91,00:00:00.364,0.004600916057825005
92,00:00:00.368,0.08717439509928229
93,00:00:00.372,0.019547468051314396
94,00:00:00.376,0.0877082971855998
95,00:00:00.38,0.01613857224583621
96,00:00:00.384,-0.06031701760366559
97,00:00:00.388,-0.1038306467235089
98,00:00:00.392,0.038560068234801195
99,00:00:00.396,0.083899000659585
100,00:00:00.4,-0.09077922161668539
101,00:00:00.404,-0.0911300461739301
102,00:00:00.408,0.07638213038444519
103,00:00:00.412,0.08654212718829517
104,00:00:00.416,-0.0019991924054921506
105,00:00:00.42,0.0016874261200428772
106,00:00:00.424,0.048188328742981006
107,00:00:00.428,-0.0564365787431598
108,00:00:00.432,-0.10936332494020469
109,00:00:00.436,-0.03900155471637845
110,00:00:00.44,0.010831894411239763
111,00:00:00.444,0.10514040850102899
112,00:00:00.448,0.11703033279627544
113,00:00:00.452,0.011946364771574711
114,00:00:00.456,-0.052112365141510894
115,00:00:00.46,-0.1382078714668751
116,00:00:00.464,-0.05203478538896884
117,00:00:00.468,0.05579486279748377
118,00:00:00.472,0.0569551689550281
119,00:00:00.476,0.04120843112468721
120,00:00:00.48,-0.06131427967920904
121,00:00:00.484,-0.03142615221440788
122,00:00:00.488,0.17293527885340165
123,00:00:00.492,-0.031527753919363
124,00:00:00.496,-0.05087514920160205
125,00:00:00.5,-0.1454100403934713
126,00:00:00.504,-0.05232201796025031
127,00:00:00.508,0.07101253978908059
128,00:00:00.512,0.17004058882594109
129,00:00:00.516,0.0628793488722294
130,00:00:00.52,-0.1094690579921007
131,00:00:00.524,-0.07519753649830815
132,00:00:00.528,0.061937868595123305
133,00:00:00.532,-0.0278368815779686
134,00:00:00.536,-0.0577605403959751
135,00:00:00.54,-0.006606313691008815
136,00:00:00.544,0.11895954608917242
137,00:00:00.548,0.004661204293370202
138,00:00:00.552,-0.09502099640667436
139,00:00:00.556,0.05055823037400839
140,00:00:00.56,0.0008541392162442971
141,00:00:00.564,-0.045934601686895
142,00:00:00.568,0.029058165848255102
143,00:00:00.572,0.10907414555549638
144,00:00:00.576,-0.1007086485624313
145,00:00:00.58,-0.017211634665727598
146,00:00:00.584,-0.000742234289646107
147,00:00:00.588,-0.0339207788929343
148,00:00:00.592,-0.028881979174912004
149,00:00:00.596,0.015377685194835074
150,00:00:00.6,0.0914632407948375
151,00:00:00.604,0.13259562849998469
152,00:00:00.608,-0.086514376103878
153,00:00:00.612,-0.07373428018763661
154,00:00:00.616,-0.03906906396150581
155,00:00:00.62,-0.02937872894108299
156,00:00:00.624,0.011144375428557396
157,00:00:00.628,-0.016574701294302906
158,00:00:00.632,0.0895912945270539
159,00:00:00.636,0.09170813951641342
160,00:00:00.64,-0.035181064158678096
161,00:00:00.644,-0.010929800570011097
162,00:00:00.648,-0.0595447216182947
163,00:00:00.652,-0.10823156684637067
164,00:00:00.656,-0.0474508833140135
165,00:00:00.66,0.1151121128350496
166,00:00:00.664,0.080283222720027
167,00:00:00.668,0.0146714244037866
168,00:00:00.672,0.061536272987723406
169,00:00:00.676,-0.004844195660552962
170,00:00:00.68,-0.1534884087741373
171,00:00:00.684,-0.1118860431015494
172,00:00:00.688,0.004248469136655299
173,00:00:00.692,0.2219376638531689
174,00:00:00.696,0.0992282927036285
175,00:00:00.7,-0.11064164061099294
176,00:00:00.704,-0.1345883421599866
177,00:00:00.708,-0.04840597184374934
178,00:00:00.712,0.03040941132348966
179,00:00:00.716,0.10222158022224906
180,00:00:00.72,0.1311547048389913
181,00:00:00.724,-0.020220076665282215
182,00:00:00.728,-0.1530293636023995
183,00:00:00.732,-0.09157758858054882
184,00:00:00.736,0.03418355062603949
185,00:00:00.74,0.0448101405054331
186,00:00:00.744,0.12678329646587377
187,00:00:00.748,0.014626528311055237
188,00:00:00.752,-0.0650462778285145
189,00:00:00.756,-0.0315914424136281
190,00:00:00.76,-0.06640466256067153
191,00:00:00.764,-0.05800686078146104
192,00:00:00.768,0.1513157524168492
193,00:00:00.772,0.08876266609877351
194,00:00:00.776,-0.07123947376385326
195,00:00:00.78,-0.11072222122311312
196,00:00:00.784,0.024507638067006995
197,00:00:00.788,0.026863910257816304
198,00:00:00.792,0.04472957737743846
199,00:00:00.796,-0.019583871588110893
200,00:00:00.8,-0.04658374865539378
201,00:00:00.804,-0.027891866629943227
202,00:00:00.808,0.0531176533550024
203,00:00:00.812,0.03289651032537223
204,00:00:00.816,0.057653181254863704
205,00:00:00.82,-0.0384106710553169
206,00:00:00.824,-0.05195216648280611
207,00:00:00.828,-0.013578031212091411
208,00:00:00.832,-0.007138303481042385
209,00:00:00.836,-0.0023721825564280196
210,00:00:00.84,-0.00587373459711673
211,00:00:00.844,-0.10487011400982736
212,00:00:00.848,0.0856958348304034
213,00:00:00.852,0.5678301826119423
214,00:00:00.856,-0.304835712420754
215,00:00:00.86,-0.4518568702042107
216,00:00:00.864,-0.055677508004009696
217,00:00:00.868,0.12465577432885766
218,00:00:00.872,0.16695139929652192
219,00:00:00.876,0.13455705344676971
220,00:00:00.88,0.03979213954880827
221,00:00:00.884,-0.08116145897656679
222,00:00:00.888,-0.0877400417812168
223,00:00:00.892,-0.0375856552273036
224,00:00:00.896,-0.002817761152982698
225,00:00:00.9,0.05115607031621044
226,00:00:00.904,0.0153188426047563
227,00:00:00.908,-0.035185541957616806
228,00:00:00.912,-0.0640418818220497
229,00:00:00.916,0.021902171894907903
230,00:00:00.92,0.039857853204011875
231,00:00:00.924,0.13698288705199976
232,00:00:00.928,0.0106472009792924
233,00:00:00.932,-0.17519603483378843
234,00:00:00.936,-0.03575769066810612
235,00:00:00.94,-0.001070000231266105
236,00:00:00.944,0.03727592341601844
237,00:00:00.948,0.10870646964758636
238,00:00:00.952,0.002207424025982641
239,00:00:00.956,-0.0335353603586555
240,00:00:00.96,-0.09017315693199637
241,00:00:00.964,0.009771937038749462
242,00:00:00.968,0.1367327645421028
243,00:00:00.972,-0.1527852779254316
244,00:00:00.976,0.04009292041882875
245,00:00:00.98,0.09558191010728476
246,00:00:00.984,-0.0674979519098998
247,00:00:00.988,-0.05731247272342439
248,00:00:00.992,0.0016977533232421394
249,00:00:00.996,-0.014486270025372462
250,00:00:01,0.06824558228254309
251,00:00:01.004,0.16289518028497701
252,00:00:01.008,-0.06512653164099903
253,00:00:01.012,-0.1622361447662115
254,00:00:01.016,-0.08145083393901587
255,00:00:01.02,0.04502252768725161
256,00:00:01.024,0.13632943481206888
257,00:00:01.028,-0.012094734236597994
258,00:00:01.032,0.023333691060543102
259,00:00:01.036,0.04626673925668003
260,00:00:01.04,-0.027512963861227
261,00:00:01.044,-0.10096318181604153
262,00:00:01.048,-0.1167838154360652
263,00:00:01.052,0.01875092927366497
264,00:00:01.056,0.13038242328912059
265,00:00:01.06,0.1399276321753859
266,00:00:01.064,-0.0147940861061215
267,00:00:01.068,-0.1594126466661691
268,00:00:01.072,-0.00977730331942436
269,00:00:01.076,0.04222424793988462
270,00:00:01.08,-0.055647145025432096
271,00:00:01.084,-0.03310934500768784
272,00:00:01.088,0.0316304881125689
273,00:00:01.092,0.10780808655545113
274,00:00:01.096,0.1356954313814639
275,00:00:01.1,-0.11567696928977962
276,00:00:01.104,-0.14513752982020375
277,00:00:01.108,-0.027557769557461136
278,00:00:01.112,0.06927179917693144
279,00:00:01.116,0.03827646235004063
280,00:00:01.12,0.054235793650150306
281,00:00:01.124,0.0299284122884273
282,00:00:01.128,-0.09871365048456944
283,00:00:01.132,-0.07047413662075999
284,00:00:01.136,-0.025153730064630498
285,00:00:01.14,0.07805039221420884
286,00:00:01.144,0.12877446459606243
287,00:00:01.148,-0.035676930099725696
288,00:00:01.152,-0.009234489873051695
289,00:00:01.156,-0.0889860708266496
290,00:00:01.16,-0.0025648530572653025
291,00:00:01.164,-0.020329323597252445
292,00:00:01.168,0.012990622781217112
293,00:00:01.172,0.03017171053215863
294,00:00:01.176,0.055521385278552764
295,00:00:01.18,-0.02448461297899488
296,00:00:01.184,-0.024650933220982597
297,00:00:01.188,0.04237280087545515
298,00:00:01.192,0.0870471261441707
299,00:00:01.196,-0.1648920550942421
300,00:00:01.2,-0.1108791828155517
301,00:00:01.204,0.08720645215362313
302,00:00:01.208,0.16971609368920332
303,00:00:01.212,-0.0419998243451119
304,00:00:01.216,-0.10197311546653509
305,00:00:01.22,-0.06626334553584462
306,00:00:01.224,0.11726368917152286
307,00:00:01.228,0.10324354842305183
308,00:00:01.232,-0.07197115011513233
309,00:00:01.236,-0.100098954513669
310,00:00:01.24,-0.00507046096026899
311,00:00:01.244,0.006504568271338874
312,00:00:01.248,0.10742613393813377
313,00:00:01.252,0.0719803050160407
314,00:00:01.256,-0.11107965896371749
315,00:00:01.26,-0.09839227516204122
316,00:00:01.264,0.02445521624758841
317,00:00:01.268,0.06434332393109805
318,00:00:01.272,-0.004660651087760982
319,00:00:01.276,0.04311489081010223
320,00:00:01.28,-0.01581029547378418
321,00:00:01.284,-0.0678675193339586
322,00:00:01.288,0.005403641611337662
323,00:00:01.292,0.0661237183958292
324,00:00:01.296,0.04748965194448835
325,00:00:01.3,-0.0943744890391826
326,00:00:01.304,-0.0429355092346668
327,00:00:01.308,0.0707279108464717
328,00:00:01.312,0.06082966737449161
329,00:00:01.316,-0.02682963409461079
330,00:00:01.32,-0.0976956617087125
331,00:00:01.324,-0.0709072072058916
332,00:00:01.328,0.0264436360448599
333,00:00:01.332,0.18243137001991278
334,00:00:01.336,0.02912683470640335
335,00:00:01.34,-0.1030797455459833
336,00:00:01.344,-0.04042695462703699
337,00:00:01.348,-5.703605711462195e-05
338,00:00:01.352,-0.012223986908793498
339,00:00:01.356,0.0151292737573386
340,00:00:01.36,0.24975529778748756
341,00:00:01.364,-0.2004529032856226
342,00:00:01.368,-0.15761722507886564
343,00:00:01.372,0.052935085259378
344,00:00:01.376,0.04501217324286696
345,00:00:01.38,0.08044601511210202
346,00:00:01.384,-0.0469156419858337
347,00:00:01.388,-0.01674241665750744
348,00:00:01.392,0.0904484149068594
349,00:00:01.396,0.0463371444493532
350,00:00:01.4,-0.14709262736141682
351,00:00:01.404,-0.04174460470676419
352,00:00:01.408,0.05199011682998386
353,00:00:01.412,-0.05405564181273809
354,00:00:01.416,0.0500760432332754
355,00:00:01.42,0.1279153088107705
356,00:00:01.424,-0.016351127997040804
357,00:00:01.428,-0.16051319707185
358,00:00:01.432,0.03975490340963022
359,00:00:01.436,0.06304505141451956
360,00:00:01.44,-0.0654418952763081
361,00:00:01.444,0.024184446781873703
362,00:00:01.448,0.046025098301470294
363,00:00:01.452,-0.07204457186162469
364,00:00:01.456,0.025607790332287605
365,00:00:01.46,0.07266818359494209
366,00:00:01.464,-0.00018190406262880848
367,00:00:01.468,-0.0195814184844494
368,00:00:01.472,-0.1336693912744522
369,00:00:01.476,-0.033648932119831415
370,00:00:01.48,0.1349816080182791
371,00:00:01.484,0.062094476073980304
372,00:00:01.488,-0.0284265633672476
373,00:00:01.492,0.03293826058506964
374,00:00:01.496,-0.09845665888860869
375,00:00:01.5,-0.0644262828864157
376,00:00:01.504,0.0435927775688469
377,00:00:01.508,0.0497770169749857
378,00:00:01.512,-0.019921986386179938
379,00:00:01.516,0.005591616034507706
380,00:00:01.52,0.118717116303742
381,00:00:01.524,-0.0653401771560311
382,00:00:01.528,-0.032052770256996196
383,00:00:01.532,-0.029602702707052207
384,00:00:01.536,-0.08081590756773992
385,00:00:01.54,0.09253628551959989
386,00:00:01.544,0.045451888814568506
387,00:00:01.548,-0.0785422492772341
388,00:00:01.552,0.01904065441340204
389,00:00:01.556,-0.01714532263576988
390,00:00:01.56,0.0533428210765123
391,00:00:01.564,0.022857032716274206
392,00:00:01.568,0.08003209717571722
393,00:00:01.572,-0.08118296787142759
394,00:00:01.576,-0.1097891833633189
395,00:00:01.58,-0.03651730890851459
396,00:00:01.584,0.05334680341184136
397,00:00:01.588,0.05772777693346142
398,00:00:01.592,-0.012801598757505403
399,00:00:01.596,0.08836990408599377
400,00:00:01.6,0.10781234689056869
401,00:00:01.604,-0.1380513422191147
402,00:00:01.608,-0.1738821528851986
403,00:00:01.612,-0.08316853595897551
404,00:00:01.616,0.0691935494542122
405,00:00:01.62,0.3098906222730872
406,00:00:01.624,0.0769903864711522
407,00:00:01.628,-0.2358617857098576
408,00:00:01.632,-0.1549396347254515
409,00:00:01.636,-0.0005384185351431231
410,00:00:01.64,0.13524401537142694
411,00:00:01.644,0.07991173770278692
412,00:00:01.648,0.0238401293754578
413,00:00:01.652,-0.087940945290029
414,00:00:01.656,0.0157942287623883
415,00:00:01.66,-0.0757026858627796
416,00:00:01.664,0.011669228551909282
417,00:00:01.668,0.0336617603898048
418,00:00:01.672,0.013132894062437141
419,00:00:01.676,-0.0512855993583798
420,00:00:01.68,0.0906838718801737
421,00:00:01.684,0.04111454612575469
422,00:00:01.688,-0.1724016442894936
423,00:00:01.692,0.03078069118782877
424,00:00:01.696,0.10812128055840733
425,00:00:01.7,-0.027418796438723768
426,00:00:01.704,0.03642730461433534
427,00:00:01.708,-0.033052444458007806
428,00:00:01.712,-0.0916071766987443
429,00:00:01.716,-0.030310271307826004
430,00:00:01.72,0.00747431162744761
431,00:00:01.724,0.1636456809937953
432,00:00:01.728,0.09806228964589546
433,00:00:01.732,-0.1654185820370912
434,00:00:01.736,-0.12254222296178341
435,00:00:01.74,0.007116369437426249
436,00:00:01.744,0.07094548502936958
437,00:00:01.748,0.116239883005619
438,00:00:01.752,0.0025208247825503904
439,00:00:01.756,-0.0671690702438354
440,00:00:01.76,-0.05231988918967549
441,00:00:01.764,-0.04453787161037327
442,00:00:01.768,0.1079266648739576
443,00:00:01.772,0.05720801558345549
444,00:00:01.776,-0.1282338928431273
445,00:00:01.78,-0.041088744066655705
446,00:00:01.784,0.1514266729354858
447,00:00:01.788,-0.0416803397238255
448,00:00:01.792,-0.06609406333882362
449,00:00:01.796,0.04243881162255955
450,00:00:01.8,-0.005800613900646551
451,00:00:01.804,0.0214879773557187
452,00:00:01.808,-0.07983280252665281
453,00:00:01.812,-0.003578599542379348
454,00:00:01.816,0.13859940925613046
455,00:00:01.82,0.0010191723704338074
456,00:00:01.824,-0.048271244391798994
457,00:00:01.828,-0.0146722923964262
458,00:00:01.832,-0.022951975697651495
459,00:00:01.836,-0.0454403692856431
460,00:00:01.84,-0.0455521112307906
461,00:00:01.844,0.10720614250749351
462,00:00:01.848,0.07999398000538355
463,00:00:01.852,-0.04041608329862355
464,00:00:01.856,-0.10702667944133282
465,00:00:01.86,-0.0734880678355693
466,00:00:01.864,0.25560018792748446
467,00:00:01.868,0.04909981042146691
468,00:00:01.872,-0.1395886782556773
469,00:00:01.876,-0.1791499955579641
470,00:00:01.88,0.07132382970303291
471,00:00:01.884,0.036548338830471
472,00:00:01.888,0.052120804088190184
473,00:00:01.892,0.0648767314851284
474,00:00:01.896,-0.0165495686233043
475,00:00:01.9,-0.02816186030395329
476,00:00:01.904,-0.05803509184625044
477,00:00:01.908,-0.0013199765235186005
478,00:00:01.912,-0.031915020663291216
479,00:00:01.916,-0.0382191054522991
480,00:00:01.92,0.21543791145086277
481,00:00:01.924,0.1257098671048879
482,00:00:01.928,-0.3227478638291358
483,00:00:01.932,-0.07970556989312169
484,00:00:01.936,0.069393115118146
485,00:00:01.94,0.0572247114032507
486,00:00:01.944,0.11277522984892127
487,00:00:01.948,0.030569138005375897
488,00:00:01.952,-0.13436232780804852
489,00:00:01.956,-0.0764589477330446
490,00:00:01.96,0.2182361483573912
491,00:00:01.964,0.003345409408211694
492,00:00:01.968,-0.1237803660333156
493,00:00:01.972,-0.1287064626812936
494,00:00:01.976,-0.0036628334783018104
495,00:00:01.98,0.0865883976221085
496,00:00:01.984,0.1661327658221129
497,00:00:01.988,0.02884805854409935
498,00:00:01.992,-0.1807319633662702
499,00:00:01.996,-0.02452519861981269
500,00:00:02,0.015552042052149703
501,00:00:02.004,0.00031696166843178577
502,00:00:02.008,0.1426775511354207
503,00:00:02.012,-0.04580834088847048
504,00:00:02.016,-0.024214392527937945
505,00:00:02.02,-0.08197239600121978
506,00:00:02.024,0.013027470558881697
507,00:00:02.028,-0.06358904018998145
508,00:00:02.032,0.0961677980376408
509,00:00:02.036,0.1420468948781491
510,00:00:02.04,-0.1638824315741659
511,00:00:02.044,-0.023812837898731204
512,00:00:02.048,0.1418841816484928
513,00:00:02.052,-0.07813984528183918
514,00:00:02.056,-0.030262650921940762
515,00:00:02.06,0.0009552333503961077
516,00:00:02.064,-0.005522899329662309
517,00:00:02.068,0.023357097990810913
518,00:00:02.072,-0.014054868370294633
519,00:00:02.076,0.01092693582177172
520,00:00:02.08,0.0465137325227261
521,00:00:02.084,0.029943950474262203
522,00:00:02.088,-0.09903784096241
523,00:00:02.092,-0.054925453921896406
524,00:00:02.096,0.018701112829148756
525,00:00:02.1,0.06841286271810534
526,00:00:02.104,0.05500083358492704
527,00:00:02.108,0.025132955051958505
528,00:00:02.112,-0.061024535447359106
529,00:00:02.116,-0.033476684242487134
530,00:00:02.12,-0.05792476981878272
531,00:00:02.124,-0.039552757516503306
532,00:00:02.128,0.0718567771837115
533,00:00:02.132,0.07741112960502504
534,00:00:02.136,0.027813061606138906
535,00:00:02.14,0.0464058946818113
536,00:00:02.144,-0.14585115853697062
537,00:00:02.148,-0.0758254714310169
538,00:00:02.152,0.12311987616703832
539,00:00:02.156,-0.0252146683633327
540,00:00:02.16,0.0073643182404339105
541,00:00:02.164,0.0661305002868175
542,00:00:02.168,-0.04896927159279592
543,00:00:02.172,-0.12376568559557244
544,00:00:02.176,0.0368994735181331
545,00:00:02.18,0.1319641470909117
546,00:00:02.184,-0.027114400640130043
547,00:00:02.188,-0.1288747191429138
548,00:00:02.192,0.11891081463545561
549,00:00:02.196,0.1330522056668998
550,00:00:02.2,-0.087322449311614
551,00:00:02.204,-0.15407857717946172
552,00:00:02.208,-0.049731197766959605
553,00:00:02.212,0.0587015636265278
554,00:00:02.216,0.09240073431283237
555,00:00:02.22,0.0334740839898586
556,00:00:02.224,0.025592961814254467
557,00:00:02.228,0.03873434290289888
558,00:00:02.232,-0.15719589591026312
559,00:00:02.236,-0.08503760397434229
560,00:00:02.24,0.028099849820136996
561,00:00:02.244,0.030037654039915634
562,00:00:02.248,0.21303153038024925
563,00:00:02.252,-0.0009219404309986981
564,00:00:02.256,-0.10666886204853682
565,00:00:02.26,-0.0748307295143604
566,00:00:02.264,-0.07485375273972751
567,00:00:02.268,-0.007514157332479999
568,00:00:02.272,0.023998002987355015
569,00:00:02.276,0.19902647659182549
570,00:00:02.28,0.1619608774781226
571,00:00:02.284,-0.2475251778960227
572,00:00:02.288,-0.15872473455965508
573,00:00:02.292,0.01746877725236122
574,00:00:02.296,0.09443716175155709
575,00:00:02.3,0.13609753130003777
576,00:00:02.304,-0.05778135685250167
577,00:00:02.308,-0.077397745102644
578,00:00:02.312,0.010795633308589455
579,00:00:02.316,-0.045848465524613885
580,00:00:02.32,0.07611684594303376
581,00:00:02.324,0.0950125269591808
582,00:00:02.328,-0.1094855647534132
583,00:00:02.332,-0.061741006560623646
584,00:00:02.336,0.0336326900869609
585,00:00:02.34,0.0221561398357153
586,00:00:02.344,0.007670651189982839
587,00:00:02.348,-0.046694736927747706
588,00:00:02.352,0.1522237174212933
589,00:00:02.356,0.03971458598971364
590,00:00:02.36,-0.1825879570096732
591,00:00:02.364,-0.1039463989436626
592,00:00:02.368,0.007771389791741988
593,00:00:02.372,0.10909081809222701
594,00:00:02.376,0.1103437468409536
595,00:00:02.38,0.024116249755024997
596,00:00:02.384,-0.0881782714277503
597,00:00:02.388,-0.032673452049493804
598,00:00:02.392,-0.057942552492022396
599,00:00:02.396,-0.039347285404801396
600,00:00:02.4,0.1761519834399221
601,00:00:02.404,0.0601391959935427
602,00:00:02.408,-0.1185375750064851
603,00:00:02.412,-0.0507305888459086
604,00:00:02.416,0.0012625432573258781
605,00:00:02.42,0.0721572051988911
606,00:00:02.424,-0.07372672110795973
607,00:00:02.428,-0.00017272308468820052
608,00:00:02.432,0.042271291371434885
609,00:00:02.436,-0.030100738629698698
610,00:00:02.44,-0.0282264165580272
611,00:00:02.444,0.1282794252038002
612,00:00:02.448,0.038617799524217886
613,00:00:02.452,-0.12546179338823998
614,00:00:02.456,-0.08288015285506845
615,00:00:02.46,0.0850055404007434
616,00:00:02.464,0.19861150532960892
617,00:00:02.468,-0.1301798215135932
618,00:00:02.472,-0.21045462042093283
619,00:00:02.476,0.013074768707156206
620,00:00:02.48,0.0725780669599772
621,00:00:02.484,0.2531404197216034
622,00:00:02.488,-0.04217333905398839
623,00:00:02.492,-0.16542700491845608
624,00:00:02.496,-0.1100395750254393
625,00:00:02.5,0.07314239669358354
626,00:00:02.504,0.05009345849975949
627,00:00:02.508,0.0198264215141535
628,00:00:02.512,0.05951038154307749
629,00:00:02.516,-0.042810845654457835
630,00:00:02.52,0.02127152448520061
631,00:00:02.524,0.008614164544269477
632,00:00:02.528,-0.17288201674818998
633,00:00:02.532,0.054986262694001226
634,00:00:02.536,0.09870789246633646
635,00:00:02.54,0.0018797405064105953
636,00:00:02.544,-0.031204235026962165
637,00:00:02.548,-0.07834372809156775
638,00:00:02.552,-0.021124426275491645
639,00:00:02.556,0.2569510899484155
640,00:00:02.56,0.028548555448651387
641,00:00:02.564,-0.3379511907696722
642,00:00:02.568,-0.0386686101555824
643,00:00:02.572,0.1912992279976606
644,00:00:02.576,0.12846488226205072
645,00:00:02.58,-0.1455161031335594
646,00:00:02.584,-0.04985815752297639
647,00:00:02.588,0.07929510844405743
648,00:00:02.592,0.0030865338630974297
649,00:00:02.596,-0.10767702665179961
650,00:00:02.6,0.00011849217116832213
651,00:00:02.604,0.2860200218856333
652,00:00:02.608,0.013198187574744252
653,00:00:02.612,-0.27997858822345767
654,00:00:02.616,-0.16438328102230976
655,00:00:02.62,0.04781313613057139
656,00:00:02.624,0.22556174406781748
657,00:00:02.628,0.10163286700844787
658,00:00:02.632,-0.06308816000819199
659,00:00:02.636,-0.0922526791691783
660,00:00:02.64,0.001953801140189197
661,00:00:02.644,0.005301250144839308
662,00:00:02.648,0.022265519946813493
663,00:00:02.652,-0.0874800495803356
664,00:00:02.656,-0.004581814864650369
665,00:00:02.66,0.035607581958174706
666,00:00:02.664,0.0743464604020118
667,00:00:02.668,0.0967196114361282
668,00:00:02.672,-0.043196063488721896
669,00:00:02.676,-0.105196040123701
670,00:00:02.68,-0.0845683030784129
671,00:00:02.684,-0.0924401339143515
672,00:00:02.688,0.20945141464471856
673,00:00:02.692,0.1878668735735119
674,00:00:02.696,-0.2240427322685715
675,00:00:02.7,-0.0912558082491159
676,00:00:02.704,0.1188646303489804
677,00:00:02.708,0.04130295198410754
678,00:00:02.712,-0.0724295221734792
679,00:00:02.716,0.07363316323608152
680,00:00:02.72,-0.0706702508032322
681,00:00:02.724,-0.04149956756737084
682,00:00:02.728,0.08739370200783012
683,00:00:02.732,-0.06901365611702209
684,00:00:02.736,0.10419372469186791
685,00:00:02.74,0.0905616469681259
686,00:00:02.744,-0.22343556210398652
687,00:00:02.748,-0.0730431824922558
688,00:00:02.752,0.09692944586277011
689,00:00:02.756,0.13179908378515398
690,00:00:02.76,-0.12102087587118143
691,00:00:02.764,0.059790350496768896
692,00:00:02.768,0.0018919063732027001
693,00:00:02.772,-0.05430600279942155
694,00:00:02.776,-0.05823349719867102
695,00:00:02.78,0.1487074084579944
696,00:00:02.784,0.08266719244420531
697,00:00:02.788,-0.1222074963152408
698,00:00:02.792,-0.08551408862695095
699,00:00:02.796,-0.00047226250171632234
700,00:00:02.8,0.04794975835829973
701,00:00:02.804,-0.06381954252719971
702,00:00:02.808,0.10529298731125886
703,00:00:02.812,0.06358814146369694
704,00:00:02.816,-0.0742553675081581
705,00:00:02.82,-0.0850207135081291
706,00:00:02.824,0.04208671394735577
707,00:00:02.828,0.047628087690100046
708,00:00:02.832,0.031801556469872545
709,00:00:02.836,-0.04280184302479031
710,00:00:02.84,0.02663041511550543
711,00:00:02.844,-0.0452065486460924
712,00:00:02.848,-0.04855178296565999
713,00:00:02.852,0.006128864362835877
714,00:00:02.856,0.08178021991625428
715,00:00:02.86,0.039087129407562274
716,00:00:02.864,-0.05936695844866341
717,00:00:02.868,-0.03493015840649609
718,00:00:02.872,-0.08769969083368771
719,00:00:02.876,0.0987919978797437
720,00:00:02.88,0.09735798928886652
721,00:00:02.884,-0.021636837162077403
722,00:00:02.888,-0.08289167704060657
723,00:00:02.892,-0.0460188928991556
724,00:00:02.896,0.05979084875434634
725,00:00:02.9,0.0580408368259668
726,00:00:02.904,-0.0557629726827145
727,00:00:02.908,0.026842484250664798
728,00:00:02.912,0.029165236279368414
729,00:00:02.916,-0.0970162767916917
730,00:00:02.92,-0.0663389656692743
731,00:00:02.924,0.13680828339420226
732,00:00:02.928,0.025833123363554505
733,00:00:02.932,0.017134730820544078
734,00:00:02.936,-0.019171551335603096
735,00:00:02.94,-0.12675340287387368
736,00:00:02.944,-0.0233542146161198
737,00:00:02.948,0.0832500699907541
738,00:00:02.952,0.06291980016976588
739,00:00:02.956,0.003034437075257336
740,00:00:02.96,-0.04560713842511179
741,00:00:02.964,-0.010922956280410193
742,00:00:02.968,0.05363721493631602
743,00:00:02.972,-0.030643286183476517
744,00:00:02.976,-0.05200666298333088
745,00:00:02.98,0.03067845292389354
746,00:00:02.984,0.023798211710527477
747,00:00:02.988,-0.036108850035816445
748,00:00:02.992,-0.08279251400381327
749,00:00:02.996,0.04849538207054141
750,00:00:03,0.1934518665075302
751,00:00:03.004,-0.08105084020644426
752,00:00:03.008,-0.056242349557578536
753,00:00:03.012,0.10017068218439823
754,00:00:03.016,-0.120543741621077
755,00:00:03.02,-0.1056376397609711
756,00:00:03.024,-0.02690774318762123
757,00:00:03.028,0.1440275385975837
758,00:00:03.032,0.0785268805921078
759,00:00:03.036,-0.007768052397295829
760,00:00:03.04,-0.000714203284587699
761,00:00:03.044,-0.05677107535302639
762,00:00:03.048,-0.050437272991985055
763,00:00:03.052,0.02454236015910282
764,00:00:03.056,-0.0215540584176779
765,00:00:03.06,0.1339794639497996
766,00:00:03.064,-0.11045889649540191
767,00:00:03.068,-0.0613592006266116
768,00:00:03.072,0.20202913740649786
769,00:00:03.076,-0.09616898745298391
770,00:00:03.08,-0.13550056889653203
771,00:00:03.084,0.02005233732052145
772,00:00:03.088,0.0683930777013301
773,00:00:03.092,0.02226113993674522
774,00:00:03.096,0.1067744959145785
775,00:00:03.1,-0.008049834228586409
776,00:00:03.104,-0.057352660223842
777,00:00:03.108,-0.0760118328034878
778,00:00:03.112,-0.1015663081780076
779,00:00:03.116,-0.041288905311375884
780,00:00:03.12,0.027731346614018534
781,00:00:03.124,0.5719559341669074
782,00:00:03.128,-0.13973169866949314
783,00:00:03.132,-0.39709198847413085
784,00:00:03.136,-0.11010008957237
785,00:00:03.14,0.0451039243489505
786,00:00:03.144,0.1004323819652199
787,00:00:03.148,0.09502339875325558
788,00:00:03.152,0.17155183525756004
789,00:00:03.156,-0.0644065900705755
790,00:00:03.16,-0.0961575676919892
791,00:00:03.164,-0.09985808841884142
792,00:00:03.168,-0.004945656284689896
793,00:00:03.172,0.013620017562061569
794,00:00:03.176,0.019280085340142306
795,00:00:03.18,0.1316283456981183
796,00:00:03.184,0.056529181427322314
797,00:00:03.188,-0.1257997825741767
798,00:00:03.192,-0.1305756829679012
799,00:00:03.196,0.03471482731401921
800,00:00:03.2,0.02098310459405181
801,00:00:03.204,0.0242163110524416
802,00:00:03.208,0.1175881661474705
803,00:00:03.212,0.08979304973036051
804,00:00:03.216,-0.19082134962081887
805,00:00:03.22,-0.05228421092033386
806,00:00:03.224,-0.006012736819684502
807,00:00:03.228,-0.03148327395319938
808,00:00:03.232,0.16951692383736372
809,00:00:03.236,-0.003601141506805936
810,00:00:03.24,-0.059050583280622904
811,00:00:03.244,-0.00868051219731563
812,00:00:03.248,0.0596102755516767
813,00:00:03.252,-0.04878933727741237
814,00:00:03.256,-0.04891030117869379
815,00:00:03.26,-0.028968547005206333
816,00:00:03.264,0.1466298615559934
817,00:00:03.268,-0.0746090158354491
818,00:00:03.272,0.032086931169032995
819,00:00:03.276,0.018620325252413698
820,00:00:03.28,-0.11317133903503418
821,00:00:03.284,-0.03813605196774011
822,00:00:03.288,-0.0046408874914050605
823,00:00:03.292,0.2022177055478094
824,00:00:03.296,0.025889071694109568
825,00:00:03.3,-0.06062337988987562
826,00:00:03.304,-0.1168173998594284
827,00:00:03.308,-0.044745888561010395
828,00:00:03.312,0.14322863332927227
829,00:00:03.316,0.051591007038950906
830,00:00:03.32,-0.07810863852500918
831,00:00:03.324,-0.08101088181138046
832,00:00:03.328,-0.0628498867154121
833,00:00:03.332,0.012752039358019801
834,00:00:03.336,0.2652177941054107
835,00:00:03.34,0.0848016161471605
836,00:00:03.344,-0.2010274454951289
837,00:00:03.348,-0.1711604557931427
838,00:00:03.352,0.015785115770995624
839,00:00:03.356,-0.00562804285436861
840,00:00:03.36,0.161238607019186
841,00:00:03.364,0.0870020352303982
842,00:00:03.368,-0.09409793466329573
843,00:00:03.372,-0.07040471117943528
844,00:00:03.376,0.12367639131844052
845,00:00:03.38,0.005241031758487304
846,00:00:03.384,-0.0750018749386072
847,00:00:03.388,-0.14027722479659138
848,00:00:03.392,0.0399598628282546
849,00:00:03.396,0.06495846189500298
850,00:00:03.4,-0.040419147349894005
851,00:00:03.404,0.18150463514029969
852,00:00:03.408,-0.0022348593920468937
853,00:00:03.412,0.007045207545161206
854,00:00:03.416,-0.1184954475611448
855,00:00:03.42,-0.0716967694461346
856,00:00:03.424,-0.08887574728578332
857,00:00:03.428,0.02656810916960236
858,00:00:03.432,0.08213132992386821
859,00:00:03.436,0.06335733970627186
860,00:00:03.44,0.1998997190967198
861,00:00:03.444,-0.022168906871229473
862,00:00:03.448,-0.20668675005435988
863,00:00:03.452,-0.14522058656439177
864,00:00:03.456,0.04161057155579326
865,00:00:03.46,0.0797314308583737
866,00:00:03.464,0.10406297259032726
867,00:00:03.468,0.01628116285428404
868,00:00:03.472,-0.03705650859046726
869,00:00:03.476,-0.03704461501911286
870,00:00:03.48,-0.01482325163669888
871,00:00:03.484,0.006725961342453901
872,00:00:03.488,-0.08889167290180922
873,00:00:03.492,-0.0019184052944182933
874,00:00:03.496,0.08604894776362927
875,00:00:03.5,0.09690276448964134
876,00:00:03.504,-0.02243659703526653
877,00:00:03.508,-0.098730553407222
878,00:00:03.512,0.07793937181122598
879,00:00:03.516,0.003960192203521697
880,00:00:03.52,-0.1785951666533947
881,00:00:03.524,0.057890677824616404
882,00:00:03.528,0.13936441717669393
883,00:00:03.532,-0.0008501559495925973
884,00:00:03.536,-0.12733393348753408
885,00:00:03.54,0.03520435700193052
886,00:00:03.544,0.11117616947740325
887,00:00:03.548,-0.11929404269903895
888,00:00:03.552,-0.0415497878566385
889,00:00:03.556,-0.030061178840696798
890,00:00:03.56,0.021136343479156505
891,00:00:03.564,0.19602824375033367
892,00:00:03.568,0.1286837942898274
893,00:00:03.572,-0.1745120529085401
894,00:00:03.576,-0.13043772609671583
895,00:00:03.58,-0.0348865818232298
896,00:00:03.584,-0.06566897407174109
897,00:00:03.588,0.05823578196577732
898,00:00:03.592,0.1699199248105291
899,00:00:03.596,0.15872890502214432
900,00:00:03.6,-0.1743937395513056
901,00:00:03.604,-0.1610267900396142
902,00:00:03.608,-0.002315769903361759
903,00:00:03.612,0.0825845524668694
904,00:00:03.616,0.1368263866752385
905,00:00:03.62,-0.010195668786764096
906,00:00:03.624,-0.12078449130058312
907,00:00:03.628,-0.05357281956821682
908,00:00:03.632,0.08257440151646736
909,00:00:03.636,-0.049533642362803255
910,00:00:03.64,0.08370014652609871
911,00:00:03.644,-0.026840372011065497
912,00:00:03.648,-0.1383727481588721
913,00:00:03.652,0.12446277588605892
914,00:00:03.656,0.22453407011926163
915,00:00:03.66,-0.1335058249533177
916,00:00:03.664,-0.2060733670368794
917,00:00:03.668,-0.029390111565589905
918,00:00:03.672,0.04000872373580933
919,00:00:03.676,0.15433488646522156
920,00:00:03.68,0.2362123131752013
921,00:00:03.684,-0.2717114463448525
922,00:00:03.688,-0.1724460255354643
923,00:00:03.692,0.06882947310805321
924,00:00:03.696,0.07374303229153151
925,00:00:03.7,0.006091616116464131
926,00:00:03.704,0.030025774671230514
927,00:00:03.708,0.11137587623670697
928,00:00:03.712,-0.035529902204871185
929,00:00:03.716,-0.1306717637926339
930,00:00:03.72,-0.04430971783585842
931,00:00:03.724,-0.0627744439989328
932,00:00:03.728,0.15021869167685498
933,00:00:03.732,0.0965703278779984
934,00:00:03.736,-0.10968427988700566
935,00:00:03.74,-0.025565916672349007
936,00:00:03.744,0.07465130509808662
937,00:00:03.748,0.03503952175378797
938,00:00:03.752,-0.08995944494381546
939,00:00:03.756,-0.0707873851060867
940,00:00:03.76,0.07771150302141897
941,00:00:03.764,0.07547990232706081
942,00:00:03.768,-0.1192390169017014
943,00:00:03.772,0.0646514724940062
944,00:00:03.776,-0.08486264850944289
945,00:00:03.78,-0.02457840740680689
946,00:00:03.784,0.112042298540473
947,00:00:03.788,0.10022432170808329
948,00:00:03.792,-0.0402519572526216
949,00:00:03.796,-0.10971580166369681
950,00:00:03.8,-0.04957607015967365
951,00:00:03.804,0.04129881411790843
952,00:00:03.808,0.09535915730521084
953,00:00:03.812,0.026426069438457503
954,00:00:03.816,-0.028687773272395196
955,00:00:03.82,-0.1275190245360136
956,00:00:03.824,-0.01758411340415479
957,00:00:03.828,0.027612645179033373
958,00:00:03.832,0.03238923102617271
959,00:00:03.836,0.1389178866520525
960,00:00:03.84,-0.008571300655603499
961,00:00:03.844,-0.1313125842716544
962,00:00:03.848,-0.03874732507392769
963,00:00:03.852,0.04822194483131169
964,00:00:03.856,0.0166318160481751
965,00:00:03.86,0.0048802099190652405
966,00:00:03.864,0.09900128049775958
967,00:00:03.868,0.04686120897531558
968,00:00:03.872,-0.2300251051783565
969,00:00:03.876,-0.10910603660158816
970,00:00:03.88,0.15321769914589822
971,00:00:03.884,0.10238874843344092
972,00:00:03.888,-0.0071454080753028115
973,00:00:03.892,-0.0606608130037784
974,00:00:03.896,0.04225035139825192
975,00:00:03.9,0.027664213441312323
976,00:00:03.904,-0.15900572016835215
977,00:00:03.908,0.0629379041492939
978,00:00:03.912,0.1368701010942459
979,00:00:03.916,-0.07985307183116669
980,00:00:03.92,-0.11506133992224934
981,00:00:03.924,-0.025102147832512845
982,00:00:03.928,0.10698097106069333
983,00:00:03.932,0.16094922274351142
984,00:00:03.936,-0.05658242106437676
985,00:00:03.94,-0.1135959289968014
986,00:00:03.944,-0.0581464408896864
987,00:00:03.948,-0.060460766777396195
988,00:00:03.952,0.06995274126529699
989,00:00:03.956,0.2593971788883213
990,00:00:03.96,-0.0004017092287541095
991,00:00:03.964,-0.2622738443315028
992,00:00:03.968,-0.10611036187037834
993,00:00:03.972,0.0693135596811771
994,00:00:03.976,0.1135714091360569
995,00:00:03.98,-0.0265414034947753
996,00:00:03.984,0.1409412762150168
997,00:00:03.988,0.1412438191473483
998,00:00:03.992,-0.1824240237474439
999,00:00:03.996,-0.2647233083844188
1000,00:00:04,-0.06657341867685321
1001,00:00:04.004,0.183632666245103
1002,00:00:04.008,0.10392826609313491
1003,00:00:04.012,0.023505761753767743
1004,00:00:04.016,0.06315375777194275
1005,00:00:04.02,-0.031157495453953743
1006,00:00:04.024,-0.17750783264637002
1007,00:00:04.028,0.0950564201921228
1008,00:00:04.032,0.032277898862957996
1009,00:00:04.036,-0.07560389490390662
1010,00:00:04.04,-0.0501403547823429
1011,00:00:04.044,0.013989088125526902
1012,00:00:04.048,0.0036268014227971886
1013,00:00:04.052,0.0374949444085359
1014,00:00:04.056,0.241280548274517
1015,00:00:04.06,0.12103622034192099
1016,00:00:04.064,-0.3253563977777954
1017,00:00:04.068,-0.25508677028119553
1018,00:00:04.072,-0.0326398480683565
1019,00:00:04.076,0.115839634090662
1020,00:00:04.08,0.2257609777152537
1021,00:00:04.084,0.1741159651428461
1022,00:00:04.088,-0.0451648756861686
1023,00:00:04.092,-0.13971711788326502
1024,00:00:04.096,-0.15047517139464625
1025,00:00:04.1,-0.015760017558932297
1026,00:00:04.104,0.0460014790296555
1027,00:00:04.108,0.06543162162415676
1028,00:00:04.112,0.0526367975398898
1029,00:00:04.116,-0.02028854703530674
1030,00:00:04.12,-0.04769869055598974
1031,00:00:04.124,-0.0028601884841919015
1032,00:00:04.128,0.05503459402825685
1033,00:00:04.132,0.08335069194436069
1034,00:00:04.136,-0.11547970119863747
1035,00:00:04.14,-0.09337910613976418
1036,00:00:04.144,0.0440932368510403
1037,00:00:04.148,0.026047357125207792
1038,00:00:04.152,0.005622195079922697
1039,00:00:04.156,0.02902138698846106
1040,00:00:04.16,-0.017288763541728258
1041,00:00:04.164,-0.006940884515643106
1042,00:00:04.168,0.1184713393449782
1043,00:00:04.172,0.011850716546177897
1044,00:00:04.176,-0.1057437723502517
1045,00:00:04.18,-0.0783958584070206
1046,00:00:04.184,-0.07594522106228394
1047,00:00:04.188,0.02284334227442742
1048,00:00:04.192,0.06452329526655369
1049,00:00:04.196,0.14478629129007434
1050,00:00:04.2,0.19316085055470497
1051,00:00:04.204,-0.21999203041195908
1052,00:00:04.208,-0.1951110288500783
1053,00:00:04.212,-0.0160227930173278
1054,00:00:04.216,0.07707108184695241
1055,00:00:04.22,0.07821905985474589
1056,00:00:04.224,-0.045373270753771115
1057,00:00:04.228,0.1658361852169036
1058,00:00:04.232,0.04878393141552806
1059,00:00:04.236,-0.14751878753304462
1060,00:00:04.24,-0.1421267408877611
1061,00:00:04.244,-0.015555320424027758
1062,00:00:04.248,0.083145703189075
1063,00:00:04.252,0.08435095380991693
1064,00:00:04.256,-0.0423089857213199
1065,00:00:04.26,0.011903153732419004
1066,00:00:04.264,0.12622063935850764
1067,00:00:04.268,-0.0462996624410152
1068,00:00:04.272,-0.16089466586709011
1069,00:00:04.276,-0.06407791282981634
1070,00:00:04.28,0.0250463373959065
1071,00:00:04.284,0.1221812237054109
1072,00:00:04.288,0.077633360400796
1073,00:00:04.292,0.040906893089413705
1074,00:00:04.296,-0.07690552994608918
1075,00:00:04.3,-0.109340462833643
1076,00:00:04.304,-0.0460141124203801
1077,00:00:04.308,0.0083535257726908
1078,00:00:04.312,0.09908637963235381
1079,00:00:04.316,0.0414305925369263
1080,00:00:04.32,0.020830418914556552
1081,00:00:04.324,0.003351989667862619
1082,00:00:04.328,-0.0038266601040959306
1083,00:00:04.332,-0.1235644593834877
1084,00:00:04.336,-0.0635125348344445
1085,00:00:04.34,-0.00974402358406223
1086,00:00:04.344,0.2333263587206601
1087,00:00:04.348,0.0493870377540589
1088,00:00:04.352,-0.1659228950738907
1089,00:00:04.356,-0.0705476980656386
1090,00:00:04.36,0.08389570959843695
1091,00:00:04.364,0.05128936935216244
1092,00:00:04.368,-0.0786559842526912
1093,00:00:04.372,-0.0457237279042602
1094,00:00:04.376,0.011789896554546472
1095,00:00:04.38,0.1230974588543176
1096,00:00:04.384,0.0119716236367822
1097,00:00:04.388,-0.043721893802285194
1098,00:00:04.392,-0.045905916020274204
1099,00:00:04.396,-0.007894894108176204
1100,00:00:04.4,-0.046288832090795096
1101,00:00:04.404,0.028638846823014347
1102,00:00:04.408,0.11472451686859131
1103,00:00:04.412,0.020453298464417506
1104,00:00:04.416,-0.0184269994497299
1105,00:00:04.42,-0.0828325944021344
1106,00:00:04.424,-0.0933232251554728
1107,00:00:04.428,0.0024075775872915792
1108,00:00:04.432,0.02309367572888733
1109,00:00:04.436,0.04510753508657215
1110,00:00:04.44,0.12423472478985789
1111,00:00:04.444,0.00648712983820586
1112,00:00:04.448,0.0035476051270962178
1113,00:00:04.452,-0.09608321730047473
1114,00:00:04.456,-0.1295268628746271
1115,00:00:04.46,0.0194288529455662
1116,00:00:04.464,0.1093020923435688
1117,00:00:04.468,0.04752088384702806
1118,00:00:04.472,-0.07586295995861292
1119,00:00:04.476,-0.0021973832044750487
1120,00:00:04.48,0.07290449552237993
1121,00:00:04.484,0.07116228237282478
1122,00:00:04.488,-0.1608284972608089
1123,00:00:04.492,-0.08142733201384539
1124,00:00:04.496,0.25437605753540943
1125,00:00:04.5,-0.115969936363399
1126,00:00:04.504,-0.1798287183046341
1127,00:00:04.508,0.1546253822743894
1128,00:00:04.512,0.08156277309171858
1129,00:00:04.516,-0.11237410455942182
1130,00:00:04.52,0.05279076471924779
1131,00:00:04.524,-0.013002437539398615
1132,00:00:04.528,-0.03155790269374849
1133,00:00:04.532,0.10466631129384041
1134,00:00:04.536,-0.008228365099057569
1135,00:00:04.54,-0.07277280418202282
1136,00:00:04.544,-0.0852259289822541
1137,00:00:04.548,0.013962890952825598
1138,00:00:04.552,0.06328761996701363
1139,00:00:04.556,0.05097154557006428
1140,00:00:04.56,0.09925391059368853
1141,00:00:04.564,-0.08575359312817456
1142,00:00:04.568,-0.009318901225924424
1143,00:00:04.572,-0.03929439559578891
1144,00:00:04.576,-0.14764545857906353
1145,00:00:04.58,0.00019626889843489537
1146,00:00:04.584,0.06429787212982775
1147,00:00:04.588,0.11648242222145197
1148,00:00:04.592,0.09825915610417729
1149,00:00:04.596,-0.03355523897334937
1150,00:00:04.6,0.001105208415538135
1151,00:00:04.604,-0.0674386732280254
1152,00:00:04.608,-0.1420063525438309
1153,00:00:04.612,0.03165334369987246
1154,00:00:04.616,0.04928734526038168
1155,00:00:04.62,-0.001447973598260432
1156,00:00:04.624,-0.010836593806743598
1157,00:00:04.628,0.066760001704097
1158,00:00:04.632,0.01623646623920649
1159,00:00:04.636,-0.079305212944746
1160,00:00:04.64,0.24532947503030328
1161,00:00:04.644,-0.049105683807283605
1162,00:00:04.648,-0.2450571730732919
1163,00:00:04.652,-0.1094957366585731
1164,00:00:04.656,-0.0014344044029711983
1165,00:00:04.66,0.1255453005433082
1166,00:00:04.664,0.0963873583823442
1167,00:00:04.668,0.13726726919412618
1168,00:00:04.672,0.04431399982422585
1169,00:00:04.676,-0.13429557858034918
1170,00:00:04.68,-0.1436767987906933
1171,00:00:04.684,0.013225831091404
1172,00:00:04.688,-0.05376307386904956
1173,00:00:04.692,-0.015416177920997155
1174,00:00:04.696,0.09670953638851651
1175,00:00:04.7,0.19513934664428229
1176,00:00:04.704,-0.022093149833381155
1177,00:00:04.708,-0.10485248453915119
1178,00:00:04.712,-0.1690641082823276
1179,00:00:04.716,0.03423466417007153
1180,00:00:04.72,0.12593314424157145
1181,00:00:04.724,0.0100074659567327
1182,00:00:04.728,-0.037846770137548405
1183,00:00:04.732,0.06449530820827935
1184,00:00:04.736,-0.0498014725744724
1185,00:00:04.74,-0.1043498739600182
1186,00:00:04.744,0.04551340220496059
1187,00:00:04.748,0.07189768785610802
1188,00:00:04.752,-0.07806565985083591
1189,00:00:04.756,0.04348056577146049
1190,00:00:04.76,0.1523338574916123
1191,00:00:04.764,-0.0752301253378391
1192,00:00:04.768,-0.1848644614219666
1193,00:00:04.772,0.026956614106893498
1194,00:00:04.776,0.1341073922812938
1195,00:00:04.78,-0.0881994706578553
1196,00:00:04.784,0.053684369660913965
1197,00:00:04.788,0.037516301497817
1198,00:00:04.792,0.04283488192595586
1199,00:00:04.796,-0.07511564018204808
1200,00:00:04.8,-0.12121558003127553
1201,00:00:04.804,0.03694452345371238
1202,00:00:04.808,-0.027032170444726902
1203,00:00:04.812,0.1756501924246548
1204,00:00:04.816,0.1098776049911975
1205,00:00:04.82,-0.22409066185355192
1206,00:00:04.824,-0.08863961370661855
1207,00:00:04.828,0.1009534085169434
1208,00:00:04.832,0.0619219094514846
1209,00:00:04.836,-0.03874316439032564
1210,00:00:04.84,-0.0176391061395407
1211,00:00:04.844,-0.02510455483570699
1212,00:00:04.848,0.033929594792425646
1213,00:00:04.852,0.026083199307322565
1214,00:00:04.856,0.06910345051437612
1215,00:00:04.86,-0.0717581603676081
1216,00:00:04.864,-0.0548957083374264
1217,00:00:04.868,0.01015209592878817
1218,00:00:04.872,-0.02429983299225563
1219,00:00:04.876,0.00388769712299108
1220,00:00:04.88,0.011844680877402472
1221,00:00:04.884,0.12337486771866699
1222,00:00:04.888,0.09391799801960593
1223,00:00:04.892,-0.1506398990750313
1224,00:00:04.896,-0.17069201916456223
1225,00:00:04.9,0.06807204661890859
1226,00:00:04.904,0.005988363176584306
1227,00:00:04.908,0.02641765307635066
1228,00:00:04.912,0.1146721020340919
1229,00:00:04.916,0.07609508652240039
1230,00:00:04.92,-0.08526568696834146
1231,00:00:04.924,-0.19327505305409437
1232,00:00:04.928,-0.034587739966809736
1233,00:00:04.932,0.1398856127634645
1234,00:00:04.936,0.11060846596956261
1235,00:00:04.94,0.01090964628383521
1236,00:00:04.944,-0.1151061244308948
1237,00:00:04.948,-0.079811241477728
1238,00:00:04.952,0.1234424505382776
1239,00:00:04.956,0.06341182952746752
1240,00:00:04.96,-0.011902396567165852
1241,00:00:04.964,-0.0942735262215138
1242,00:00:04.968,-0.08385651558637619
1243,00:00:04.972,-0.013726876524742672
1244,00:00:04.976,0.0748894028365611
1245,00:00:04.98,0.11925901845097542
1246,00:00:04.984,-0.05732544884085661
1247,00:00:04.988,-0.0711684692651034
1248,00:00:04.992,0.0868429718539119
1249,00:00:04.996,0.057436202652752455
1250,00:00:05,-0.0862789740785956
1251,00:00:05.004,-0.07027196954004468
1252,00:00:05.008,-0.007578585296869195
1253,00:00:05.012,0.03675482887774702
1254,00:00:05.016,0.016563295386731618
1255,00:00:05.02,-0.0013817553408443997
1256,00:00:05.024,-0.0201862603425979
1257,00:00:05.028,0.1063168328255414
1258,00:00:05.032,0.09186037071049209
1259,00:00:05.036,-0.0377895403653383
1260,00:00:05.04,-0.1524472329765558
1261,00:00:05.044,-0.17234188318252558
1262,00:00:05.048,-0.018427533097565188
1263,00:00:05.052,0.1778199821710586
1264,00:00:05.056,0.1422592662274838
1265,00:00:05.06,0.044824831187725026
1266,00:00:05.064,-0.10128440707921979
1267,00:00:05.068,-0.08173908398021013
1268,00:00:05.072,0.07281422801315782
1269,00:00:05.076,-0.001334480941295603
1270,00:00:05.08,-0.0898988209664822
1271,00:00:05.084,-0.047529292292892905
1272,00:00:05.088,0.038901206105947495
1273,00:00:05.092,0.0451646000146866
1274,00:00:05.096,0.0785475755110382
1275,00:00:05.1,0.05006032716482878
1276,00:00:05.104,-0.05965137132443488
1277,00:00:05.108,-0.07792309205979109
1278,00:00:05.112,-0.0479113655164838
1279,00:00:05.116,0.004565318115055511
1280,00:00:05.12,0.04863038938492534
1281,00:00:05.124,0.0432213116437197
1282,00:00:05.128,-0.026439610635861734
1283,00:00:05.132,0.20674992352724075
1284,00:00:05.136,-0.06292035896331066
1285,00:00:05.14,-0.3180967494845395
1286,00:00:05.144,-0.046629311516881024
1287,00:00:05.148,0.1481946110725402
1288,00:00:05.152,0.1384571604430676
1289,00:00:05.156,0.04098416166380046
1290,00:00:05.16,-0.1174638271331786
1291,00:00:05.164,-0.0051678558811546205
1292,00:00:05.168,0.26110851764678944
1293,00:00:05.172,-0.1300005866214634
1294,00:00:05.176,-0.2604207247495651
1295,00:00:05.18,-0.03298296290449802
1296,00:00:05.184,0.06217109085991982
1297,00:00:05.188,0.0990151278674603
1298,00:00:05.192,0.09472568146884451
1299,00:00:05.196,0.01691640494391322
1300,00:00:05.2,-0.10581452958285811
1301,00:00:05.204,0.0892511773854493
1302,00:00:05.208,0.0816353559494014
1303,00:00:05.212,-0.2067279871553182
1304,00:00:05.216,-0.05413419753313059
1305,00:00:05.22,0.012691339943557992
1306,00:00:05.224,-0.015664894133806197
1307,00:00:05.228,0.1328291483223438
1308,00:00:05.232,0.13117639720439872
1309,00:00:05.236,-0.08327989652752879
1310,00:00:05.24,-0.14428450725972675
1311,00:00:05.244,0.013555213809013408
1312,00:00:05.248,0.08652585675008595
1313,00:00:05.252,-0.024382371455431
1314,00:00:05.256,0.011270578950643505
1315,00:00:05.26,-0.0259250309318304
1316,00:00:05.264,0.030591480433940898
1317,00:00:05.268,-0.041545597137883375
1318,00:00:05.272,-0.051121525466442094
1319,00:00:05.276,0.07803047448396691
1320,00:00:05.28,0.020257790922187248
1321,00:00:05.284,-0.010125654516741675
1322,00:00:05.288,-0.029705785214900898
1323,00:00:05.292,0.04433092463295911
1324,00:00:05.296,0.08718572556972505
1325,00:00:05.3,-0.1429238105192782
1326,00:00:05.304,-0.04525503894546999
1327,00:00:05.308,0.054397832951508435
1328,00:00:05.312,-0.007411288010189289
1329,00:00:05.316,0.00919358711689713
1330,00:00:05.32,-0.012405734509229601
1331,00:00:05.324,0.0339520424604416
1332,00:00:05.328,0.013382498873397718
1333,00:00:05.332,-0.027355089085176604
1334,00:00:05.336,0.05753365135751659
1335,00:00:05.34,-0.0457986434921622
1336,00:00:05.344,0.005391485523432528
1337,00:00:05.348,-0.03035156382247804
1338,00:00:05.352,0.0069582965224981
1339,00:00:05.356,0.03473657742142671
1340,00:00:05.36,0.03388030221685765
1341,00:00:05.364,-0.0972280409187078
1342,00:00:05.368,-0.06300895195454362
1343,00:00:05.372,0.05533493729308247
1344,00:00:05.376,0.0367681793868542
1345,00:00:05.38,0.12579897115938363
1346,00:00:05.384,0.01322442188393327
1347,00:00:05.388,-0.05234942631795994
1348,00:00:05.392,-0.11895578540861612
1349,00:00:05.396,-0.09742394462227819
1350,00:00:05.4,0.026645384961739176
1351,00:00:05.404,0.0751796457916498
1352,00:00:05.408,0.0921012507751584
1353,00:00:05.412,0.0776448808610439
1354,00:00:05.416,-0.0901942048221826
1355,00:00:05.42,-0.0746228389907628
1356,00:00:05.424,0.0473553948104382
1357,00:00:05.428,0.05193272954784337
1358,00:00:05.432,-0.1435944912955166
1359,00:00:05.436,-0.02531372709199788
1360,00:00:05.44,0.1805912815034389
1361,00:00:05.444,-0.016090647215605686
1362,00:00:05.448,-0.09661691449582577
1363,00:00:05.452,-0.06515450123697518
1364,00:00:05.456,0.128510388545692
1365,00:00:05.46,0.0191533658653497
1366,00:00:05.464,-0.053043220192194006
1367,00:00:05.468,0.010868563753319935
1368,00:00:05.472,0.0038534811465069166
1369,00:00:05.476,0.05386695917695759
1370,00:00:05.48,-0.05355744669213889
1371,00:00:05.484,-0.049574993550777394
1372,00:00:05.488,0.009671491570770699
1373,00:00:05.492,0.11608910001814379
1374,00:00:05.496,-0.06084704562090336
1375,00:00:05.5,-0.0980946049094201
1376,00:00:05.504,-0.003461617161519829
1377,00:00:05.508,0.06086390465497961
1378,00:00:05.512,0.022868291474878805
1379,00:00:05.516,0.013454424217343303
1380,00:00:05.52,0.08748994767665871
1381,00:00:05.524,-0.07232664234470579
1382,00:00:05.528,-0.09834887646138674
1383,00:00:05.532,0.08977110311388967
1384,00:00:05.536,-0.039364118129015
1385,00:00:05.54,-0.06430688174441458
1386,00:00:05.544,0.0986936120316387
1387,00:00:05.548,0.030964003875851603
1388,00:00:05.552,-0.0410077469423414
1389,00:00:05.556,-0.07194555690512065
1390,00:00:05.56,0.061857017688453225
1391,00:00:05.564,0.06529316492378706
1392,00:00:05.568,-0.0767414923757314
1393,00:00:05.572,-0.0223805755376815
1394,00:00:05.576,0.02427185256965455
1395,00:00:05.58,-0.015068949200212962
1396,00:00:05.584,0.06855514645576481
1397,00:00:05.588,0.044815563596785
1398,00:00:05.592,-0.0847388710826636
1399,00:00:05.596,-0.005371434614062299
1400,00:00:05.6,-0.06138124875724318
1401,00:00:05.604,-0.04481561481952669
1402,00:00:05.608,0.065570704638958
1403,00:00:05.612,0.07404976710677139
1404,00:00:05.616,0.059979233890771894
1405,00:00:05.62,0.0021682687802240808
1406,00:00:05.624,-0.1501324325799942
1407,00:00:05.628,-0.00449339044280353
1408,00:00:05.632,0.09296779520809659
1409,00:00:05.636,-0.01868195040151471
1410,00:00:05.64,0.02264007320627564
1411,00:00:05.644,-0.0659152949228883
1412,00:00:05.648,-0.0333643443882466
1413,00:00:05.652,0.06908149784430867
1414,00:00:05.656,-0.017662267200648757
1415,00:00:05.66,-0.0521400831639766
1416,00:00:05.664,0.1502346042543649
1417,00:00:05.668,0.0715630948543549
1418,00:00:05.672,-0.1582022830843925
1419,00:00:05.676,-0.11971968389116225
1420,00:00:05.68,0.026306271553039582
1421,00:00:05.684,0.07475141063332559
1422,00:00:05.688,0.050510632339865025
1423,00:00:05.692,0.0415773224085569
1424,00:00:05.696,-0.060779073741286924
1425,00:00:05.7,0.0569379515945911
1426,00:00:05.704,-0.1316411439329385
1427,00:00:05.708,-0.01862283935770391
1428,00:00:05.712,0.10948145110160115
1429,00:00:05.716,-0.026303915772587012
1430,00:00:05.72,-0.0015894669340923186
1431,00:00:05.724,0.0004553459584712913
1432,00:00:05.728,-0.041516549885273
1433,00:00:05.732,0.0824015140533447
1434,00:00:05.736,0.027864128584042178
1435,00:00:05.74,-0.0338232666254044
1436,00:00:05.744,-0.06519245589151978
1437,00:00:05.748,-0.04368713148869574
1438,00:00:05.752,0.03988800523802638
1439,00:00:05.756,-0.00893338909372686
1440,00:00:05.76,0.0715337377041578
1441,00:00:05.764,0.03388307709246879
1442,00:00:05.768,-0.1451627463102341
1443,00:00:05.772,0.14991124346852303
1444,00:00:05.776,0.062204100191593094
1445,00:00:05.78,-0.1525608338415623
1446,00:00:05.784,-0.045717740431427914
1447,00:00:05.788,-0.01622042292729019
1448,00:00:05.792,0.004371077753603469
1449,00:00:05.796,0.09787425072863704
1450,00:00:05.8,0.09442886291071775
1451,00:00:05.804,-0.06015940615907316
1452,00:00:05.808,-0.057156201452016796
1453,00:00:05.812,-0.017933263443410452
1454,00:00:05.816,-0.003425204195082174
1455,00:00:05.82,0.0161987338215112
1456,00:00:05.824,-0.047970861196517896
1457,00:00:05.828,0.07085845991969109
1458,00:00:05.832,0.0784855636011343
1459,00:00:05.836,-0.0612985519692302
1460,00:00:05.84,-0.1792969927191734
1461,00:00:05.844,0.09039226267486808
1462,00:00:05.848,0.2308282293379311
1463,00:00:05.852,-0.04382999427616599
1464,00:00:05.856,-0.17771455692127314
1465,00:00:05.86,-0.08761268761008986
1466,00:00:05.864,0.04786852572578934
1467,00:00:05.868,0.07009196188300841
1468,00:00:05.872,0.03517172764986755
1469,00:00:05.876,0.0895040277391672
1470,00:00:05.88,-0.01971997926011684
1471,00:00:05.884,-0.08316255360841748
1472,00:00:05.888,-0.0125836129300296
1473,00:00:05.892,-0.04928043618565427
1474,00:00:05.896,-0.003240967169403995
1475,00:00:05.9,0.01880524470470841
1476,00:00:05.904,0.0698611699044704
1477,00:00:05.908,0.027314485982060502
1478,00:00:05.912,-0.06172926304861899
1479,00:00:05.916,0.0020551197230816026
1480,00:00:05.92,0.0906345406547188
1481,00:00:05.924,0.0012756530195474972
1482,00:00:05.928,-0.1089126449078321
1483,00:00:05.932,-0.12989077623933526
1484,00:00:05.936,0.0356815606355667
1485,00:00:05.94,0.0837065000087023
1486,00:00:05.944,0.1533818375319245
1487,00:00:05.948,-0.023295836523175295
1488,00:00:05.952,-0.0597650539129973
1489,00:00:05.956,-0.07224015239626172
1490,00:00:05.96,0.019158910959959002
1491,00:00:05.964,0.001978361106012013
1492,00:00:05.968,-0.009311309549957514
1493,00:00:05.972,0.0017863758839666774
1494,00:00:05.976,0.023985292995348583
1495,00:00:05.98,-0.03020556177943946
1496,00:00:05.984,0.016970399068668478
1497,00:00:05.988,0.1338354456238448
1498,00:00:05.992,-0.0226151226088404
1499,00:00:05.996,-0.1115784952417016
1500,00:00:06,-0.1570733916014433
1501,00:00:06.004,0.033181220293045044
1502,00:00:06.008,0.11310321930795914
1503,00:00:06.012,0.09142052382230761
1504,00:00:06.016,0.1501461022999141
1505,00:00:06.02,-0.1337254885584116
1506,00:00:06.024,-0.16584877087734606
1507,00:00:06.028,-0.0647919680923224
1508,00:00:06.032,0.07116842037066824
1509,00:00:06.036,0.1280469559133051
1510,00:00:06.04,-0.005583541467785794
1511,00:00:06.044,-0.033599328249693
1512,00:00:06.048,-0.005087489262223202
1513,00:00:06.052,-0.02166301850229501
1514,00:00:06.056,-0.004512519109994206
1515,00:00:06.06,-0.024947111029177828
1516,00:00:06.064,0.019809104967862326
1517,00:00:06.068,0.06093657203018671
1518,00:00:06.072,-0.03437635954469436
1519,00:00:06.076,0.010501530021429
1520,00:00:06.08,0.06554673914797607
1521,00:00:06.084,0.017729030922055296
1522,00:00:06.088,-0.1380884349346161
1523,00:00:06.092,-0.124456161633134
1524,00:00:06.096,0.03992285206913951
1525,00:00:06.1,0.1736337300390005
1526,00:00:06.104,-0.012935890117660168
1527,00:00:06.108,0.0002440852113067796
1528,00:00:06.112,-0.0401972783729433
1529,00:00:06.116,0.06066607171669604
1530,00:00:06.12,0.011301264166831962
1531,00:00:06.124,-0.1366748046129943
1532,00:00:06.128,0.0010758787393570154
1533,00:00:06.132,0.0824938025325537
1534,00:00:06.136,0.00875163613818586
1535,00:00:06.14,-0.0362902134656906
1536,00:00:06.144,0.01546504674479367
1537,00:00:06.148,0.019774034153670055
1538,00:00:06.152,-0.0237529426813125
1539,00:00:06.156,-0.0557410828769207
1540,00:00:06.16,0.05094418860971919
1541,00:00:06.164,0.061281044967472595
1542,00:00:06.168,-0.0191656416282057
1543,00:00:06.172,-0.059257409535348415
1544,00:00:06.176,-0.053146317601203905
1545,00:00:06.18,0.041558479424566044
1546,00:00:06.184,0.05821527354419233
1547,00:00:06.188,0.05251669418066747
1548,00:00:06.192,-0.043160963803529705
1549,00:00:06.196,-0.0703296167775989
1550,00:00:06.2,0.006219791481271421
1551,00:00:06.204,0.0019489303231239354
1552,00:00:06.208,0.005464814603328712
1553,00:00:06.212,0.038338494079653215
1554,00:00:06.216,0.008975641801953226
1555,00:00:06.22,-0.0087665617465973
1556,00:00:06.224,0.04875965230166901
1557,00:00:06.228,-0.0003198324702680458
1558,00:00:06.232,-0.1234105741605166
1559,00:00:06.236,-0.04476047726348039
1560,00:00:06.24,0.04590654873754825
1561,00:00:06.244,0.030135975219309302
1562,00:00:06.248,0.0518188569694757
1563,00:00:06.252,0.0862273583188653
1564,00:00:06.256,-0.040354211581870914
1565,00:00:06.26,-0.06581961084157231
1566,00:00:06.264,-0.0559026142582298
1567,00:00:06.268,-0.01753223314881324
1568,00:00:06.272,0.05822571530006827
1569,00:00:06.276,0.037606971571221934
1570,00:00:06.28,-0.06769868521951135
1571,00:00:06.284,0.010143112391233403
1572,00:00:06.288,0.1028723977506161
1573,00:00:06.292,-0.0028818845748901645
1574,00:00:06.296,-0.0435954714193941
1575,00:00:06.3,-0.0172917773015797
1576,00:00:06.304,-0.029049930162727798
1577,00:00:06.308,-0.06346511747688052
1578,00:00:06.312,-0.0220135860145092
1579,00:00:06.316,0.11569298309041184
1580,00:00:06.32,0.0511040473356842
1581,00:00:06.324,-0.003099694848060594
1582,00:00:06.328,-0.009126289747655295
1583,00:00:06.332,0.02214494394138453
1584,00:00:06.336,-0.0486977007240057
1585,00:00:06.34,-0.1389678604900838
1586,00:00:06.344,-1.974403858896051e-07
1587,00:00:06.348,0.08207960845902564
1588,00:00:06.352,0.01599163655191659
1589,00:00:06.356,0.1510527525097132
1590,00:00:06.36,-0.029455459676682873
1591,00:00:06.364,-0.12303368933498818
1592,00:00:06.368,0.0013441705377772398
1593,00:00:06.372,0.0058243721723557
1594,00:00:06.376,-0.047644570469856304
1595,00:00:06.38,-0.010113840922713278
1596,00:00:06.384,0.16690006479620928
1597,00:00:06.388,-0.02212066948413851
1598,00:00:06.392,-0.1177067160606384
1599,00:00:06.396,-0.0186285097151994
1600,00:00:06.4,0.02725427254335958
1601,00:00:06.404,0.08605863712728029
1602,00:00:06.408,-0.06396219041198493
1603,00:00:06.412,0.020714077400043638
1604,00:00:06.416,0.1181173548102379
1605,00:00:06.42,-0.0713840667158365
1606,00:00:06.424,-0.1481677703559396
1607,00:00:06.428,-0.0096875689923763
1608,00:00:06.432,0.08823170140385671
1609,00:00:06.436,-0.04288239218294619
1610,00:00:06.44,0.0688023674301803
1611,00:00:06.444,0.05151159339584408
1612,00:00:06.448,0.04571767803281547
1613,00:00:06.452,-0.0247761383652687
1614,00:00:06.456,-0.1099360464140776
1615,00:00:06.46,-0.08622267143800855
1616,00:00:06.464,0.06895530596375471
1617,00:00:06.468,0.03462693549226971
1618,00:00:06.472,0.0258668269962073
1619,00:00:06.476,-0.0326654240489006
1620,00:00:06.48,0.07990187779068951
1621,00:00:06.484,-0.02411119639873507
1622,00:00:06.488,-0.036620316328480874
1623,00:00:06.492,-0.0551197016611695
1624,00:00:06.496,0.016487074084579938
1625,00:00:06.5,0.04338753502815965
1626,00:00:06.504,0.005673026666045199
1627,00:00:06.508,-0.019070680136792383
1628,00:00:06.512,0.011325249448418702
1629,00:00:06.516,0.07780600292608135
1630,00:00:06.52,-0.047363912686705575
1631,00:00:06.524,-0.1334635466337204
1632,00:00:06.528,0.030994611821370217
1633,00:00:06.532,0.0295081380754709
1634,00:00:06.536,0.0774583145976067
1635,00:00:06.54,0.0880217328667641
1636,00:00:06.544,-0.06789819523692128
1637,00:00:06.548,-0.0804920382797718
1638,00:00:06.552,-0.1389128956943751
1639,00:00:06.556,0.0501529648900031
1640,00:00:06.56,0.2401923835277561
1641,00:00:06.564,-0.028502909466624298
1642,00:00:06.568,-0.1194126168265939
1643,00:00:06.572,-0.08757986081764105
1644,00:00:06.576,0.08208966930396851
1645,00:00:06.58,0.14636538177728653
1646,00:00:06.584,-0.10552977258339524
1647,00:00:06.588,-0.10898942640051248
1648,00:00:06.592,0.1163379531353711
1649,00:00:06.596,0.0009206828181049652
1650,00:00:06.6,-0.0720355694647878
1651,00:00:06.604,-0.029343262780457728
1652,00:00:06.608,0.13062071055173868
1653,00:00:06.612,0.0077253524214029
1654,00:00:06.616,-0.02649488300085069
1655,00:00:06.62,-0.09735931549221272
1656,00:00:06.624,0.022956373402848847
1657,00:00:06.628,0.0489072911441325
1658,00:00:06.632,0.0080453446134925
1659,00:00:06.636,-0.0677237380295992
1660,00:00:06.64,0.0228543803095818
1661,00:00:06.644,0.09667418920435006
1662,00:00:06.648,-0.028889255598187513
1663,00:00:06.652,-0.0672008534893393
1664,00:00:06.656,0.006868227384984556
1665,00:00:06.66,0.009094080887734904
1666,00:00:06.664,0.06306676613166926
1667,00:00:06.668,-0.03109994519036268
1668,00:00:06.672,-0.0823149690404534
1669,00:00:06.676,-0.02167009050026535
1670,00:00:06.68,0.039290852495469104
1671,00:00:06.684,0.0683867111802101
1672,00:00:06.688,0.009706911630928496
1673,00:00:06.692,0.056224551051855545
1674,00:00:06.696,-0.030814599711447968
1675,00:00:06.7,-0.060143638402223885
1676,00:00:06.704,-0.0610939385369421
1677,00:00:06.708,-0.043811326730065034
1678,00:00:06.712,0.035824005957692834
1679,00:00:06.716,0.06852304842323065
1680,00:00:06.72,0.1311784849967808
1681,00:00:06.724,-0.09770312532782559
1682,00:00:06.728,-0.11260913312435161
1683,00:00:06.732,0.0657299639424309
1684,00:00:06.736,0.044895876199007194
1685,00:00:06.74,-0.006778646260499999
1686,00:00:06.744,-0.01370947994291776
1687,00:00:06.748,-0.04309493605978785
1688,00:00:06.752,-0.0057405941188335505
1689,00:00:06.756,0.045323726721107904
1690,00:00:06.76,0.0403632130473852
1691,00:00:06.764,-0.0265988241881132
1692,00:00:06.768,-0.04693911550566546
1693,00:00:06.772,-0.060986797325313105
1694,00:00:06.776,0.039188696071505505
1695,00:00:06.78,0.1323889195919036
1696,00:00:06.784,-0.014819649979472105
1697,00:00:06.788,-0.0673567689955235
1698,00:00:06.792,-0.05376823665574196
1699,00:00:06.796,0.016026282683014904
1700,00:00:06.8,0.022984718903899203
1701,00:00:06.804,0.03003113484010103
1702,00:00:06.808,-0.01309195673093198
1703,00:00:06.812,-0.022663226351141978
1704,00:00:06.816,0.0002360425423831307
1705,00:00:06.82,-0.01348948199301964
1706,00:00:06.824,0.11160832084715361
1707,00:00:06.828,0.0469778906553984
1708,00:00:06.832,-0.21540102735161834
1709,00:00:06.836,0.0325555885210634
1710,00:00:06.84,-0.025171912973746633
1711,00:00:06.844,0.05625678389333191
1712,00:00:06.848,0.0037047890946269035
1713,00:00:06.852,0.2058909274637702
1714,00:00:06.856,-0.027629312127828605
1715,00:00:06.86,-0.2389612533152104
1716,00:00:06.864,-0.1306099295616149
1717,00:00:06.868,0.0802531791850924
1718,00:00:06.872,0.2070806547999382
1719,00:00:06.876,-0.008159358054399504
1720,00:00:06.88,-0.03166205156594507
1721,00:00:06.884,-0.04159701056778436
1722,00:00:06.888,0.0328649692237377
1723,00:00:06.892,0.062112158164381995
1724,00:00:06.896,-0.1028309296816587
1725,00:00:06.9,-0.05720434151589873
1726,00:00:06.904,0.058364973403513466
1727,00:00:06.908,-0.1148947331384988
1728,00:00:06.912,0.09506257809698587
1729,00:00:06.916,0.1627004761248827
1730,00:00:06.92,-0.036955503281205955
1731,00:00:06.924,-0.1156347403302788
1732,00:00:06.928,-0.029106695670634498
1733,00:00:06.932,-0.0007765679620206287
1734,00:00:06.936,0.00792225400437021
1735,00:00:06.94,0.0889904382638633
1736,00:00:06.944,-0.02420166879892348
1737,00:00:06.948,-0.04941567592322823
1738,00:00:06.952,0.08459024771582332
1739,00:00:06.956,-0.03829453507205468
1740,00:00:06.96,0.012588723417138754
1741,00:00:06.964,-0.055173343978822204
1742,00:00:06.968,-0.0776671823114157
1743,00:00:06.972,0.15254030842334032
1744,00:00:06.976,-0.0023986287415027827
1745,00:00:06.98,-0.10895297816023264
1746,00:00:06.984,-0.0019973022863268974
1747,00:00:06.988,0.047990801744163
1748,00:00:06.992,0.05856500472873453
1749,00:00:06.996,0.0007683467119932001
1750,00:00:07,-0.0435680262744427
1751,00:00:07.004,0.0816944092512131
1752,00:00:07.008,-0.0978774428367615
1753,00:00:07.012,-0.03433900256641213
1754,00:00:07.016,0.013525089714676052
1755,00:00:07.02,-0.04620972182601687
1756,00:00:07.024,0.0781838390976191
1757,00:00:07.028,0.14412048552185258
1758,00:00:07.032,-0.13788891769945621
1759,00:00:07.036,-0.0633991584181785
1760,00:00:07.04,0.08126106858253478
1761,00:00:07.044,0.042186837643385
1762,00:00:07.048,-0.10715359076857564
1763,00:00:07.052,-0.113169521093368
1764,00:00:07.056,0.1705148722976447
1765,00:00:07.06,0.14242193102836642
1766,00:00:07.064,-0.034480403410270775
1767,00:00:07.068,-0.1514077782630921
1768,00:00:07.072,-0.09122937172651291
1769,00:00:07.076,-0.018095355015248
1770,00:00:07.08,0.0606228047981858
1771,00:00:07.084,0.1787154860794544
1772,00:00:07.088,0.07376324897632008
1773,00:00:07.092,-0.0888030380010604
1774,00:00:07.096,-0.11118041398003696
1775,00:00:07.1,-0.0715189119800925
1776,00:00:07.104,0.02889399277046329
1777,00:00:07.108,0.07201908272691074
1778,00:00:07.112,0.015624002335243865
1779,00:00:07.116,0.0372506715357304
1780,00:00:07.12,-0.0348518481478095
1781,00:00:07.124,-0.1061200816184282
1782,00:00:07.128,-0.040990208100993165
1783,00:00:07.132,0.1706459773704409
1784,00:00:07.136,0.09958444535732269
1785,00:00:07.14,-0.0744331777095795
1786,00:00:07.144,-0.1118569225072861
1787,00:00:07.148,0.000774914398789503
1788,00:00:07.152,0.0822806935757398
1789,00:00:07.156,-0.1555458307266235
1790,00:00:07.16,0.0371328629553318
1791,00:00:07.164,0.29397262632846854
1792,00:00:07.168,-0.09694596845656629
1793,00:00:07.172,-0.2172037912532688
1794,00:00:07.176,-0.07860322762280711
1795,00:00:07.18,0.0995580963790417
1796,00:00:07.184,0.098111485131085
1797,00:00:07.188,0.0282970173284412
1798,00:00:07.192,0.042315761093050214
1799,00:00:07.196,-0.03255530842579899
1800,00:00:07.2,-0.07520375028252602
1801,00:00:07.204,-0.02733967872336511
1802,00:00:07.208,0.007870614761486594
1803,00:00:07.212,0.018147773109376403
1804,00:00:07.216,0.10044759325683122
1805,00:00:07.22,-0.07115472841542211
1806,00:00:07.224,-0.0851054489612579
1807,00:00:07.228,0.08689697925001422
1808,00:00:07.232,-0.01646205200813707
1809,00:00:07.236,-0.0039687957614659986
1810,00:00:07.24,0.014205576851963893
1811,00:00:07.244,0.01831242069602011
1812,00:00:07.248,-0.014499528333544703
1813,00:00:07.252,-0.043487574439495996
1814,00:00:07.256,0.008204909041524003
1815,00:00:07.26,0.018796101212501498
1816,00:00:07.264,0.018258186988532543
1817,00:00:07.268,-0.05564860999584201
1818,00:00:07.272,-0.09040023852139711
1819,00:00:07.276,0.2695562057197093
1820,00:00:07.28,0.170370763866231
1821,00:00:07.284,-0.28353539062663907
1822,00:00:07.288,-0.1964097786694767
1823,00:00:07.292,-0.03139741299673915
1824,00:00:07.296,0.107116716913879
1825,00:00:07.3,0.13391679292544723
1826,00:00:07.304,0.0015213671140372545
1827,00:00:07.308,0.049919390585273365
1828,00:00:07.312,0.0572793483734131
1829,00:00:07.316,-0.06993362167850137
1830,00:00:07.32,-0.1725253369659185
1831,00:00:07.324,-0.022366444929502884
1832,00:00:07.328,0.0913584865629673
1833,00:00:07.332,0.0236710011959076
1834,00:00:07.336,0.005837902426719728
1835,00:00:07.34,0.0614712098613381
1836,00:00:07.344,-0.019496898399665997
1837,00:00:07.348,-0.06452059512957928
1838,00:00:07.352,-0.0177890602499247
1839,00:00:07.356,0.011301425867713995
1840,00:00:07.36,0.0993316117674111
1841,00:00:07.364,-0.09677014521730594
1842,00:00:07.368,-0.004648585803806709
1843,00:00:07.372,0.029059465974569407
1844,00:00:07.376,0.0208056718111039
1845,00:00:07.38,-0.010100674815475996
1846,00:00:07.384,-0.06887282271054575
1847,00:00:07.388,0.060191107913851793
1848,00:00:07.392,0.1024998016655444
1849,00:00:07.396,-0.0780046358704567
1850,00:00:07.4,-0.06199025129899384
1851,00:00:07.404,-0.0169035326689482
1852,00:00:07.408,-0.05310539202764629
1853,00:00:07.412,0.1207588426768779
1854,00:00:07.416,0.15536306612193582
1855,00:00:07.42,-0.1240857522934676
1856,00:00:07.424,-0.1108693862333894
1857,00:00:07.428,-0.0485877441242337
1858,00:00:07.432,0.08260865043848795
1859,00:00:07.436,0.0969601087272168
1860,00:00:07.44,0.016820193268358728
1861,00:00:07.444,-0.1063034487888217
1862,00:00:07.448,-0.0342869842424989
1863,00:00:07.452,0.0553713943809271
1864,00:00:07.456,-0.020911330357193947
1865,00:00:07.46,-0.022720603272318906
1866,00:00:07.464,0.1207685708068311
1867,00:00:07.468,0.03308766707777981
1868,00:00:07.472,-0.09910060069523749
1869,00:00:07.476,-0.11248126626014711
1870,00:00:07.48,0.06796701997518538
1871,00:00:07.484,0.058990192133933285
1872,00:00:07.488,-0.02533540222793819
1873,00:00:07.492,0.025766980601474677
1874,00:00:07.496,-0.012806471437215805
1875,00:00:07.5,0.017038182122632837
1876,00:00:07.504,-0.025955553515814293
1877,00:00:07.508,-0.0585214039310813
1878,00:00:07.512,-0.030067520216107306
1879,00:00:07.516,0.10874844156205651
1880,00:00:07.52,0.10706770769320423
1881,00:00:07.524,-0.1524777729064225
1882,00:00:07.528,-0.10288770869374281
1883,00:00:07.532,0.20595567487180216
1884,00:00:07.536,0.0628162436187268
1885,00:00:07.54,-0.18860782869160203
1886,00:00:07.544,-0.047110802493989495
1887,00:00:07.548,0.06117367185652261
1888,00:00:07.552,0.0250931475311518
1889,00:00:07.556,0.042950193863362116
1890,00:00:07.56,-0.007957918802276299
1891,00:00:07.564,-0.04438771028071639
1892,00:00:07.568,0.0017778249457478697
1893,00:00:07.572,-0.013670724350959059
1894,00:00:07.576,0.040904544293880504
1895,00:00:07.58,-0.022874000685987977
1896,00:00:07.584,-0.052167609799653264
1897,00:00:07.588,0.1268339481612202
1898,00:00:07.592,0.058600760763511034
1899,00:00:07.596,0.0250718798488382
1900,00:00:07.6,-0.1538899373263121
1901,00:00:07.604,-0.1724193752743303
1902,00:00:07.608,-0.04124380066059532
1903,00:00:07.612,0.0823796784534352
1904,00:00:07.616,0.2712179273366922
1905,00:00:07.62,0.10573583288351099
1906,00:00:07.624,-0.1632296703755851
1907,00:00:07.628,-0.13053855299949652
1908,00:00:07.632,-0.025607436895370497
1909,00:00:07.636,0.0504806581884623
1910,00:00:07.64,-0.0006531709805131618
1911,00:00:07.644,-0.03073442727327342
1912,00:00:07.648,0.0932089686393738
1913,00:00:07.652,0.1656485572457318
1914,00:00:07.656,-0.1759892317713817
1915,00:00:07.66,-0.12778390757739538
1916,00:00:07.664,-0.02370766573585573
1917,00:00:07.668,0.07294134795665741
1918,00:00:07.672,0.1391018480062485
1919,00:00:07.676,-0.027571244165301302
1920,00:00:07.68,0.009069750085472998
1921,00:00:07.684,-0.045212700613774345
1922,00:00:07.688,-0.08485869970172641
1923,00:00:07.692,0.0032063017133623813
1924,00:00:07.696,0.06609115796163675
1925,00:00:07.7,0.015061996993608813
1926,00:00:07.704,-0.01699222251772879
1927,00:00:07.708,-0.02578805456869301
1928,00:00:07.712,0.07911575061734762
1929,00:00:07.716,0.0157605377025902
1930,00:00:07.72,-0.1085369447246194
1931,00:00:07.724,-0.06358392839320005
1932,00:00:07.728,0.06119155115447938
1933,00:00:07.732,0.122240960597992
1934,00:00:07.736,0.03996425960212952
1935,00:00:07.74,-0.13477051653899258
1936,00:00:07.744,-0.1479124929755926
1937,00:00:07.748,0.0621212888509035
1938,00:00:07.752,0.2308378517627715
1939,00:00:07.756,-0.021859045722521835
1940,00:00:07.76,-0.12991925515234465
1941,00:00:07.764,-0.02436875365674491
1942,00:00:07.768,0.00694062071852385
1943,00:00:07.772,0.005990698002278777
1944,00:00:07.776,0.05772657273337242
1945,00:00:07.78,0.0120637565851212
1946,00:00:07.784,-0.09444146510213611
1947,00:00:07.788,0.019678199518239188
1948,00:00:07.792,0.041721843299455906
1949,00:00:07.796,0.092055902350694
1950,00:00:07.8,0.002555812709033503
1951,00:00:07.804,-0.1570919267833232
1952,00:00:07.808,-0.07106333691626793
1953,00:00:07.812,0.06306515075266364
1954,00:00:07.816,0.1658751405775547
1955,00:00:07.82,-0.06038510333746672
1956,00:00:07.824,-0.0632812157273292
1957,00:00:07.828,-0.03185130958445373
1958,00:00:07.832,0.0922324331477284
1959,00:00:07.836,0.01713357400149107
1960,00:00:07.84,-0.0807883720844984
1961,00:00:07.844,-0.0210448759607971
1962,00:00:07.848,0.013537314829591151
1963,00:00:07.852,0.0010217018425464977
1964,00:00:07.856,0.050211573019623805
1965,00:00:07.86,0.0728191249072552
1966,00:00:07.864,0.0328666195273399
1967,00:00:07.868,-0.1231262888759375
1968,00:00:07.872,-0.09424166940152649
1969,00:00:07.876,0.029097560793161503
1970,00:00:07.88,-0.02524985140189531
1971,00:00:07.884,0.021906168432906284
1972,00:00:07.888,0.11202376289293164
1973,00:00:07.892,0.03268444258719678
1974,00:00:07.896,0.04923024680465454
1975,00:00:07.9,-0.08216548524796966
1976,00:00:07.904,-0.042654482647776604
1977,00:00:07.908,-0.07619171496480695
1978,00:00:07.912,-0.019584207795560332
1979,00:00:07.916,0.03821784397587179
1980,00:00:07.92,-0.014371603727340698
1981,00:00:07.924,0.1315206321887672
1982,00:00:07.928,0.11247655283659705
1983,00:00:07.932,-0.1215239972807467
1984,00:00:07.936,-0.10842113127000624
1985,00:00:07.94,0.008070105686783818
1986,00:00:07.944,0.0751863326877355
1987,00:00:07.948,-0.09366939286701384
1988,00:00:07.952,-0.021224274300038797
1989,00:00:07.956,0.0394290036056191
1990,00:00:07.96,0.19650053745135682
1991,00:00:07.964,0.014251668937504298
1992,00:00:07.968,-0.1496170163154603
1993,00:00:07.972,-0.09283111616969084
1994,00:00:07.976,-0.0704695992171764
1995,00:00:07.98,0.06336593581363563
1996,00:00:07.984,0.1153209395706654
1997,00:00:07.988,-0.0271867979317904
1998,00:00:07.992,0.0772314053028822
1999,00:00:07.996,0.1739166676998139
2000,00:00:08,-0.21684945374727252
2001,00:00:08.004,-0.14834419824182982
2002,00:00:08.008,-0.042191855376586304
2003,00:00:08.012,0.06272020610049363
2004,00:00:08.016,0.06469829659909004
2005,00:00:08.02,0.11977563425898546
2006,00:00:08.024,-0.0620481893420219
2007,00:00:08.028,-0.0417127013206482
2008,00:00:08.032,0.018547235056757993
2009,00:00:08.036,0.06917881721165027
2010,00:00:08.04,-0.02071062196046112
2011,00:00:08.044,-0.0834062909707427
2012,00:00:08.048,-0.0872458778321743
2013,00:00:08.052,0.07413496542721978
2014,00:00:08.056,0.15452679339796305
2015,00:00:08.06,-0.01844350644387303
2016,00:00:08.064,-0.1387221831828356
2017,00:00:08.068,-0.05808761145453905
2018,00:00:08.072,-0.012436875142157092
2019,00:00:08.076,0.0812609456479549
2020,00:00:08.08,0.14972287043929106
2021,00:00:08.084,0.04700367432087667
2022,00:00:08.088,-0.13916519470512861
2023,00:00:08.092,-0.07006401196122167
2024,00:00:08.096,-0.009221611544489895
2025,00:00:08.1,-0.02568230405449909
2026,00:00:08.104,0.05450378218665723
2027,00:00:08.108,0.0820776708424095
2028,00:00:08.112,-0.036244331451598596
2029,00:00:08.116,-0.07559539191424852
2030,00:00:08.12,-0.004066035151481497
2031,00:00:08.124,0.1166439782828092
2032,00:00:08.128,0.06957451021298769
2033,00:00:08.132,-0.0011949343606830094
2034,00:00:08.136,-0.15295459888875482
2035,00:00:08.14,-0.04162093251943587
2036,00:00:08.144,-0.07934294058941312
2037,00:00:08.148,-0.008190197870135404
2038,00:00:08.152,0.1750530619174247
2039,00:00:08.156,0.0638168416917324
2040,00:00:08.16,0.08220286574214736
2041,00:00:08.164,-0.029062893241643895
2042,00:00:08.168,-0.07195848785340819
2043,00:00:08.172,-0.2019430473446846
2044,00:00:08.176,-0.06352215353399512
2045,00:00:08.18,0.12084045261144641
2046,00:00:08.184,0.08729204162955281
2047,00:00:08.188,0.0825922470539808
2048,00:00:08.192,0.03451950568705795
2049,00:00:08.196,-0.1120504066348076
2050,00:00:08.2,-0.0427731333766133
2051,00:00:08.204,0.0435558948665858
2052,00:00:08.208,0.03426474446314392
2053,00:00:08.212,-0.0640336908400059
2054,00:00:08.216,-0.0839858278632164
2055,00:00:08.22,0.05830915179103606
2056,00:00:08.224,0.06590182875515897
2057,00:00:08.228,-0.0006209416314959387
2058,00:00:08.232,0.048201651428826126
2059,00:00:08.236,0.029597803717479033
2060,00:00:08.24,-0.08505590818822391
2061,00:00:08.244,-0.08715525176376104
2062,00:00:08.248,-0.0818662084639073
2063,00:00:08.252,0.10297121666371821
2064,00:00:08.256,0.11581623577512805
2065,00:00:08.26,-0.025750050321221404
2066,00:00:08.264,-0.008643569424748386
2067,00:00:08.268,-0.0364482495933771
2068,00:00:08.272,0.0781503012403848
2069,00:00:08.276,0.041171626886352855
2070,00:00:08.28,-0.1637846035882832
2071,00:00:08.284,-0.0755260298028588
2072,00:00:08.288,0.015264727640897074
2073,00:00:08.292,0.10114699602127081
2074,00:00:08.296,0.0834254939109087
2075,00:00:08.3,-0.005968350509647228
2076,00:00:08.304,0.0005125009920448004
2077,00:00:08.308,-0.0667755724862219
2078,00:00:08.312,-0.0994117967784405
2079,00:00:08.316,0.0637674042955041
2080,00:00:08.32,0.12024766532704229
2081,00:00:08.324,-0.09372961847111581
2082,00:00:08.328,0.027311028912662905
2083,00:00:08.332,0.01535097975283864
2084,00:00:08.336,-0.0789673766121265
2085,00:00:08.34,-0.006861815229058307
2086,00:00:08.344,-0.007580213481560341
2087,00:00:08.348,0.03709105681627989
2088,00:00:08.352,0.1157255899161101
2089,00:00:08.356,-0.0251855291426182
2090,00:00:08.36,-0.04789175838232051
2091,00:00:08.364,-0.00756633433047689
2092,00:00:08.368,-0.034889779344666805
2093,00:00:08.372,-0.0397939644753933
2094,00:00:08.376,-0.00441336911171675
2095,00:00:08.38,0.0296456981450319
2096,00:00:08.384,0.013251578435301802
2097,00:00:08.388,-0.009063415927812471
2098,00:00:08.392,0.200837794691324
2099,00:00:08.396,0.05260930582881
2100,00:00:08.4,-0.21492606261745142
2101,00:00:08.404,-0.13179371878504736
2102,00:00:08.408,-0.03999353991821411
2103,00:00:08.412,0.06252269796095783
2104,00:00:08.416,0.0563351269811392
2105,00:00:08.42,0.1316099283285434
2106,00:00:08.424,0.091320177540183
2107,00:00:08.428,-0.1129017695784565
2108,00:00:08.432,-0.1378386057913301
2109,00:00:08.436,0.044064217247068896
2110,00:00:08.44,0.06524905003607269
2111,00:00:08.444,-0.05709071736782787
2112,00:00:08.448,-0.0454135648906231
2113,00:00:08.452,-0.01320150773972277
2114,00:00:08.456,0.1569457780569792
2115,00:00:08.46,0.0126459933817386
2116,00:00:08.464,-0.1263527702540158
2117,00:00:08.468,0.037550770211964915
2118,00:00:08.472,0.039389047771692304
2119,00:00:08.476,-0.0474892491474747
2120,00:00:08.48,0.019425341859459922
2121,00:00:08.484,-0.008780190721154171
2122,00:00:08.488,-0.10025844397023326
2123,00:00:08.492,-0.028667834121733942
2124,00:00:08.496,0.1746254591271276
2125,00:00:08.5,0.1588463783264161
2126,00:00:08.504,-0.12171498965471991
2127,00:00:08.508,-0.1627577394247054
2128,00:00:08.512,-0.030759816057980116
2129,00:00:08.516,0.072861997410655
2130,00:00:08.52,-0.007130728103220399
2131,00:00:08.524,0.05821538047894136
2132,00:00:08.528,0.01700069755315785
2133,00:00:08.532,0.009991655126214
2134,00:00:08.536,0.04809892550110818
2135,00:00:08.54,-0.0055750273168087006
2136,00:00:08.544,-0.1795355454087258
2137,00:00:08.548,0.04001281072851267
2138,00:00:08.552,0.007534038275480208
2139,00:00:08.556,0.017877098405733725
2140,00:00:08.56,0.0029641930013895035
2141,00:00:08.564,0.07548528956249359
2142,00:00:08.568,0.0085522402077913
2143,00:00:08.572,-0.0841800980269909
2144,00:00:08.576,-0.02987566031515597
2145,00:00:08.58,0.09682355239056047
2146,00:00:08.584,-0.0212125955149532
2147,00:00:08.588,-0.0140383560210466
2148,00:00:08.592,0.02358067443128671
2149,00:00:08.596,-0.0693571008741855
2150,00:00:08.6,0.032567844726145295
2151,00:00:08.604,0.1275690235197545
2152,00:00:08.608,-0.16533535066992044
2153,00:00:08.612,-0.1010219808667898
2154,00:00:08.616,0.0747864753939211
2155,00:00:08.62,0.1951654939912258
2156,00:00:08.624,0.0532312728464603
2157,00:00:08.628,-0.1931262593716386
2158,00:00:08.632,-0.10791584011167292
2159,00:00:08.636,0.009440630208700899
2160,00:00:08.64,0.1326290457509458
2161,00:00:08.644,0.041674674750538515
2162,00:00:08.648,-0.03144615609198815
2163,00:00:08.652,-0.005426358431577601
2164,00:00:08.656,-0.016934637795202465
2165,00:00:08.66,-0.031953541329130565
2166,00:00:08.664,0.0652689896523953
2167,00:00:08.668,-0.0317170936614275
2168,00:00:08.672,0.007928712293505696
2169,00:00:08.676,-0.06934091146104043
2170,00:00:08.68,-0.028141128364950384
2171,00:00:08.684,0.1240386199206113
2172,00:00:08.688,0.03472973033785849
2173,00:00:08.692,-0.049804995767772156
2174,00:00:08.696,-0.11089376267045761
2175,00:00:08.7,0.004114684648811796
2176,00:00:08.704,0.11723390873521569
2177,00:00:08.708,0.0402615033090114
2178,00:00:08.712,-0.055428598076105104
2179,00:00:08.716,-0.03630842920392749
2180,00:00:08.72,-0.06416219612583521
2181,00:00:08.724,0.07981914188712852
2182,00:00:08.728,0.1235623937100172
2183,00:00:08.732,-0.07217704225331541
2184,00:00:08.736,-0.1135481847450138
2185,00:00:08.74,-0.0072600133717060054
2186,00:00:08.744,0.0737721100449562
2187,00:00:08.748,-0.0373255163431167
2188,00:00:08.752,-0.0037833796814084816
2189,00:00:08.756,-0.004872784484177901
2190,00:00:08.76,0.024492403026670162
2191,00:00:08.764,0.11714558699168265
2192,00:00:08.768,0.09189878776669541
2193,00:00:08.772,-0.1779205426573755
2194,00:00:08.776,-0.15881756879389292
2195,00:00:08.78,0.002803815528750404
2196,00:00:08.784,0.1386346854269504
2197,00:00:08.788,0.07418905105441811
2198,00:00:08.792,-0.0636536339297891
2199,00:00:08.796,0.007138389162719199
2200,00:00:08.8,0.0035133978817611933
2201,00:00:08.804,0.0008999810088425983
2202,00:00:08.808,0.0010367855429648937
2203,00:00:08.812,-0.05792241208837366
2204,00:00:08.816,0.0146097168326378
2205,00:00:08.82,0.05426866206107655
2206,00:00:08.824,-0.05046019703149794
2207,00:00:08.828,-0.028571673668921
2208,00:00:08.832,0.029281796887516972
2209,00:00:08.836,0.030687115155160448
2210,00:00:08.84,0.0222784709185362
2211,00:00:08.844,-0.05478691216558218
2212,00:00:08.848,0.0454146461561322
2213,00:00:08.852,0.05164006166160129
2214,00:00:08.856,-0.0797119773924351
2215,00:00:08.86,-0.0744899045675993
2216,00:00:08.864,0.0805471576750278
2217,00:00:08.868,-0.01400081324391067
2218,00:00:08.872,0.018049091100692798
2219,00:00:08.876,-0.024244681932031997
2220,00:00:08.88,0.005549789406359201
2221,00:00:08.884,-0.0193466804921627
2222,00:00:08.888,0.04297000705264502
2223,00:00:08.892,0.1145806908607483
2224,00:00:08.896,-0.0886392537504434
2225,00:00:08.9,-0.10526287369430071
2226,00:00:08.904,-0.005735271726734934
2227,00:00:08.908,0.00011892616748812937
2228,00:00:08.912,0.0356028228998185
2229,00:00:08.916,0.0945378774777055
2230,00:00:08.92,0.0645772479474544
2231,00:00:08.924,-0.016073167789727488
2232,00:00:08.928,-0.1427772622555494
2233,00:00:08.932,-0.1189171178266406
2234,00:00:08.936,0.07094832602888351
2235,00:00:08.94,0.11567467870190747
2236,00:00:08.944,0.0008946107700467006
2237,00:00:08.948,-0.009269414469599696
2238,00:00:08.952,0.112425372004509
2239,00:00:08.956,-0.11382354423403768
2240,00:00:08.96,-0.06357031431980438
2241,00:00:08.964,-0.024439350236207233
2242,00:00:08.968,0.006748482584953294
2243,00:00:08.972,0.05729648657143112
2244,00:00:08.976,-0.005452200770378099
2245,00:00:08.98,-0.0500757955014705
2246,00:00:08.984,0.09048644918948409
2247,00:00:08.988,0.0851771701127291
2248,00:00:08.992,-0.0680075641721487
2249,00:00:08.996,-0.0631067203357816
2250,00:00:09,-0.0426915194839239
2251,00:00:09.004,0.005867527012014757
2252,00:00:09.008,0.079286627471447
2253,00:00:09.012,0.0019631916657090014
2254,00:00:09.016,-0.05706687737256286
2255,00:00:09.02,-0.013579729013144956
2256,00:00:09.024,-0.06031449441798031
2257,00:00:09.028,0.13263185741379824
2258,00:00:09.032,0.11603405512869361
2259,00:00:09.036,-0.0706822108477359
2260,00:00:09.04,0.01684785261750219
2261,00:00:09.044,-0.1646841540932655
2262,00:00:09.048,-0.10475180519279101
2263,00:00:09.052,0.028198575600981733
2264,00:00:09.056,0.1009361688047648
2265,00:00:09.06,0.1194544956088066
2266,00:00:09.064,0.0593564305454493
2267,00:00:09.068,0.007975819986313588
2268,00:00:09.072,-0.1186743406578899
2269,00:00:09.076,-0.07138519361615181
2270,00:00:09.08,-0.0600020047277212
2271,00:00:09.084,0.03713362710550426
2272,00:00:09.088,0.05293756071478134
2273,00:00:09.092,0.01910317596048114
2274,00:00:09.096,0.04086054700746897
2275,00:00:09.1,-0.0478046461939812
2276,00:00:09.104,0.1295578163117175
2277,00:00:09.108,0.046610571444034604
2278,00:00:09.112,-0.1838499289005995
2279,00:00:09.116,-0.1555029228329659
2280,00:00:09.12,5.0662085413905045e-05
2281,00:00:09.124,0.09915353695396335
2282,00:00:09.128,0.10762587236240498
2283,00:00:09.132,0.05005398229695861
2284,00:00:09.136,-0.0326488986611366
2285,00:00:09.14,-0.03186631156131623
2286,00:00:09.144,0.055137737188488245
2287,00:00:09.148,-0.020337227208074207
2288,00:00:09.152,-0.12025345023721459
2289,00:00:09.156,-0.05566681892378256
2290,00:00:09.16,0.0572950737550854
2291,00:00:09.164,0.08696060697548091
2292,00:00:09.168,0.00959528074599803
2293,00:00:09.172,-0.0219227198977023
2294,00:00:09.176,-0.05190075444988905
2295,00:00:09.18,0.133546844124794
2296,00:00:09.184,0.014453683048486703
2297,00:00:09.188,-0.16689750691875785
2298,00:00:09.192,-0.0184511782135814
2299,00:00:09.196,-0.0189883410930633
2300,00:00:09.2,0.03696245295577687
2301,00:00:09.204,0.09539282415062189
2302,00:00:09.208,0.10867036227136839
2303,00:00:09.212,-0.044143039267510197
2304,00:00:09.216,-0.16267614043317727
2305,00:00:09.22,-0.0486821988597512
2306,00:00:09.224,0.0763170758727938
2307,00:00:09.228,0.043562745675444596
2308,00:00:09.232,0.017111387103795943
2309,00:00:09.236,-0.0184981347993017
2310,00:00:09.24,-0.08273529168218383
2311,00:00:09.244,0.08190108556300406
2312,00:00:09.248,0.15811494411900667
2313,00:00:09.252,-0.15496179275214653
2314,00:00:09.256,-0.058305865153670325
2315,00:00:09.26,-0.0366149162873626
2316,00:00:09.264,0.027317578904330703
2317,00:00:09.268,0.054587281309068245
2318,00:00:09.272,0.052986653521657004
2319,00:00:09.276,-0.0010928967967629
2320,00:00:09.28,0.007786072790622699
2321,00:00:09.284,-0.0598595002666116
2322,00:00:09.288,-0.11365193407982588
2323,00:00:09.292,0.0538943298161029
2324,00:00:09.296,0.11824992299079932
2325,00:00:09.3,0.0224774526432156
2326,00:00:09.304,-0.044036957900971146
2327,00:00:09.308,-0.11052628979086881
2328,00:00:09.312,0.026935122907161678
2329,00:00:09.316,0.08017035946249959
2330,00:00:09.32,0.027703119441866896
2331,00:00:09.324,-0.04905305244028569
2332,00:00:09.328,-0.08401846210472283
2333,00:00:09.332,0.018619891256093993
2334,00:00:09.336,0.0574457682669163
2335,00:00:09.34,0.07184064388275142
2336,00:00:09.344,-0.05963479727506629
2337,00:00:09.348,-0.03760919405613092
2338,00:00:09.352,0.11257924046367404
2339,00:00:09.356,-0.11743156798183921
2340,00:00:09.36,-0.054311279556714026
2341,00:00:09.364,0.03616091050207617
2342,00:00:09.368,0.0943790432065725
2343,00:00:09.372,0.010434515774249996
2344,00:00:09.376,-0.10870335251092919
2345,00:00:09.38,0.0077915582805872935
2346,00:00:09.384,0.168313588947058
2347,00:00:09.388,-0.12964594829827553
2348,00:00:09.392,-0.06111749354749912
2349,00:00:09.396,0.024223913904279498
2350,00:00:09.4,0.013672275410499425
2351,00:00:09.404,0.0335974767804146
2352,00:00:09.408,0.004216302651911951
2353,00:00:09.412,0.055978432297706604
2354,00:00:09.416,-0.057507928460836404
2355,00:00:09.42,0.0021598730236292996
2356,00:00:09.424,-0.010400505736470304
2357,00:00:09.428,-0.07349859410896901
2358,00:00:09.432,0.02939594257622956
2359,00:00:09.436,0.0044923410750925125
2360,00:00:09.44,0.18330422602593882
2361,00:00:09.444,-0.1169847641140222
2362,00:00:09.448,-0.0773310549557209
2363,00:00:09.452,0.058736311271786704
2364,00:00:09.456,0.0142212882637978
2365,00:00:09.46,-0.04734730941709127
2366,00:00:09.464,-0.0026887282729149403
2367,00:00:09.468,-0.0249274508096278
2368,00:00:09.472,-0.0269064679741859
2369,00:00:09.476,0.08626122679561378
2370,00:00:09.48,0.0763287059962749
2371,00:00:09.484,-0.022369375452399202
2372,00:00:09.488,-0.01157613750547172
2373,00:00:09.492,-0.0317108687013388
2374,00:00:09.496,-0.048355758190155
2375,00:00:09.5,-0.04260752908885483
2376,00:00:09.504,-0.013200484012486424
2377,00:00:09.508,0.09872978180646899
2378,00:00:09.512,0.0501235891133547
2379,00:00:09.516,-0.1191724613308907
2380,00:00:09.52,0.06015353836119168
2381,00:00:09.524,0.1488935649394988
2382,00:00:09.528,-0.08623555116355411
2383,00:00:09.532,-0.14524903148412702
2384,00:00:09.536,-0.09031838178634652
2385,00:00:09.54,0.1033698823302984
2386,00:00:09.544,0.1554011255502698
2387,00:00:09.548,0.02034943411126737
2388,00:00:09.552,-0.0853330232203007
2389,00:00:09.556,-0.1209010249003768
2390,00:00:09.56,0.006684175808913961
2391,00:00:09.564,0.1627664677798752
2392,00:00:09.568,0.011478094384074202
2393,00:00:09.572,-0.0766019187867642
2394,00:00:09.576,-0.02666698931716386
2395,00:00:09.58,-0.013175250962376699
2396,00:00:09.584,-0.014411732554435737
2397,00:00:09.588,-0.022260599303990672
2398,00:00:09.592,0.07378495298326021
2399,00:00:09.596,0.0891884937882424
2400,00:00:09.6,-0.030996039975434528
2401,00:00:09.604,-0.06745720101753254
2402,00:00:09.608,-0.056310599669814096
2403,00:00:09.612,-0.029177368618547916
2404,00:00:09.616,0.08450418524444095
2405,00:00:09.62,0.16675021382980032
2406,00:00:09.624,-0.12216780520975579
2407,00:00:09.628,-0.08055166155099912
2408,00:00:09.632,-0.08635006751865146
2409,00:00:09.636,0.09472356422338638
2410,00:00:09.64,0.11930970347020772
2411,00:00:09.644,-0.09288853406906131
2412,00:00:09.648,-0.04222311009652912
2413,00:00:09.652,0.0533784879371524
2414,00:00:09.656,0.0177602311596275
2415,00:00:09.66,-0.0308426935225725
2416,00:00:09.664,0.06145321927033359
2417,00:00:09.668,-0.0512369824573398
2418,00:00:09.672,-0.03910626424476508
2419,00:00:09.676,0.04357373900711535
2420,00:00:09.68,0.015537858474999743
2421,00:00:09.684,-0.05359518527984621
2422,00:00:09.688,-0.05349098518490794
2423,00:00:09.692,0.11180349253118041
2424,00:00:09.696,-0.0672512277960777
2425,00:00:09.7,0.07612461969256429
2426,00:00:09.704,0.13975578173995049
2427,00:00:09.708,-0.058274087496101884
2428,00:00:09.712,-0.17965157469734594
2429,00:00:09.716,-0.1073723491281272
2430,00:00:09.72,0.009575556032359503
2431,00:00:09.724,0.09278149809688332
2432,00:00:09.728,0.07884877733886239
2433,00:00:09.732,0.1409593354910613
2434,00:00:09.736,0.044638936175033506
2435,00:00:09.74,-0.147762737236917
2436,00:00:09.744,-0.13552629575133324
2437,00:00:09.748,-0.0036288768751547087
2438,00:00:09.752,0.0251975748687982
2439,00:00:09.756,0.015305876731872496
2440,00:00:09.76,0.06845151609741153
2441,00:00:09.764,-0.02761601889505982
2442,00:00:09.768,-0.0577399702742695
2443,00:00:09.772,0.20416493713855743
2444,00:00:09.776,0.05386811029165975
2445,00:00:09.78,-0.16399765573441985
2446,00:00:09.784,-0.1536275409162044
2447,00:00:09.788,-0.07833278877660634
2448,00:00:09.792,0.08671823330223555
2449,00:00:09.796,0.2399026546627284
2450,00:00:09.8,0.04362025298178201
2451,00:00:09.804,-0.08543507289141421
2452,00:00:09.808,-0.162084810435772
2453,00:00:09.812,0.0333812742028385
2454,00:00:09.816,-0.05857083201408389
2455,00:00:09.82,0.1139755789190527
2456,00:00:09.824,0.05252787424251437
2457,00:00:09.828,-0.027997803292237174
2458,00:00:09.832,-0.005309438332915299
2459,00:00:09.836,-0.0411589099094272
2460,00:00:09.84,-0.005792705342173604
2461,00:00:09.844,0.034411674365401296
2462,00:00:09.848,-0.0769701823592186
2463,00:00:09.852,0.0247851544991135
2464,00:00:09.856,0.10190077964216471
2465,00:00:09.86,-0.04074906103778628
2466,00:00:09.864,-0.0361189758405089
2467,00:00:09.868,0.06300217611715199
2468,00:00:09.872,-0.028242381289601305
2469,00:00:09.876,-0.09299414115957909
2470,00:00:09.88,0.031822959892451805
2471,00:00:09.884,0.035853176377713736
2472,00:00:09.888,-0.012697367928922197
2473,00:00:09.892,0.0509667750447989
2474,00:00:09.896,-0.0330960042774678
2475,00:00:09.9,0.0063489654567093
2476,00:00:09.904,-0.01111119496636093
2477,00:00:09.908,0.06786516681313519
2478,00:00:09.912,-0.0117879509925842
2479,00:00:09.916,-0.08601706998888407
2480,00:00:09.92,-0.09577094390988355
2481,00:00:09.924,0.1018476746976375
2482,00:00:09.928,0.05771459406241779
2483,00:00:09.932,-0.0706941392272711
2484,00:00:09.936,0.04877143958583466
2485,00:00:09.94,0.0999426450580358
2486,00:00:09.944,-0.04973158345092091
2487,00:00:09.948,-0.1346840802580118
2488,00:00:09.952,0.0639268830418587
2489,00:00:09.956,0.040476601338014014
2490,00:00:09.96,-0.040250990539789214
2491,00:00:09.964,-0.02074416843242948
2492,00:00:09.968,-0.009455153718590698
2493,00:00:09.972,-0.009682429023087
2494,00:00:09.976,0.057226658798754194
2495,00:00:09.98,0.0888736848719418
2496,00:00:09.984,0.024651151150464998
2497,00:00:09.988,-0.12733719311654573
2498,00:00:09.992,-0.11553797684609887
2499,00:00:09.996,0.03450642712414259
2500,00:00:10,0.11002267617732278
2501,00:00:10.004,0.042515616863966044
2502,00:00:10.008,-0.03182049375027415
2503,00:00:10.012,-0.0349581427872181
2504,00:00:10.016,-0.05026955204084523
2505,00:00:10.02,0.011872808914631527
2506,00:00:10.024,0.07506142277270557
2507,00:00:10.028,0.030733723193406996
2508,00:00:10.032,-0.017867365386337042
2509,00:00:10.036,-0.03188515221700067
2510,00:00:10.04,-0.05560641176998612
2511,00:00:10.044,-0.044144549872726244
2512,00:00:10.048,0.0039246524829650254
2513,00:00:10.052,0.010594197083264603
2514,00:00:10.056,0.1678474228829145
2515,00:00:10.06,0.14844496827572579
2516,00:00:10.064,-0.19449163216631882
2517,00:00:10.068,-0.18482988933101302
2518,00:00:10.072,-0.021831561345607042
2519,00:00:10.076,0.1301993597298861
2520,00:00:10.08,0.046748222783207796
2521,00:00:10.084,-0.014312829938717152
2522,00:00:10.088,0.024617705494165396
2523,00:00:10.092,0.027720157988369406
2524,00:00:10.096,-0.0578079838305712
2525,00:00:10.1,0.009437706554308551
2526,00:00:10.104,0.0217787381261587
2527,00:00:10.108,-0.06109208893030882
2528,00:00:10.112,-0.0568457711488008
2529,00:00:10.116,0.06791980355046691
2530,00:00:10.12,0.03539630211889749
2531,00:00:10.124,0.05005538614932448
2532,00:00:10.128,-0.026577331125736202
2533,00:00:10.132,-0.0946679413318634
2534,00:00:10.136,0.012007756624370758
2535,00:00:10.14,0.028339384589344287
2536,00:00:10.144,-0.042940854560583865
2537,00:00:10.148,0.1245726477354765
2538,00:00:10.152,0.026881292928010163
2539,00:00:10.156,-0.11206558346748349
2540,00:00:10.16,-0.0804531816393137
2541,00:00:10.164,-0.007740190951153688
2542,00:00:10.168,0.2362215295434001
2543,00:00:10.172,-0.0005063889548181932
2544,00:00:10.176,-0.16379323042929173
2545,00:00:10.18,-0.10514077916741371
2546,00:00:10.184,0.07348217535763982
2547,00:00:10.188,0.0894530303776264
2548,00:00:10.192,0.012108130496926642
2549,00:00:10.196,-0.01879195030778645
2550,00:00:10.2,0.0721738301217556
2551,00:00:10.204,-0.027432087808847403
2552,00:00:10.208,-0.1057810364291072
2553,00:00:10.212,-0.0739986058324576
2554,00:00:10.216,0.0434164609760046
2555,00:00:10.22,0.081719420850277
2556,00:00:10.224,0.035156569210812484
2557,00:00:10.228,-0.05346217908663677
2558,00:00:10.232,0.09361468907445666
2559,00:00:10.236,0.04750028811395168
2560,00:00:10.24,-0.27518696710467316
2561,00:00:10.244,0.05392062128521506
2562,00:00:10.248,0.1501652002334595
2563,00:00:10.252,-0.063103479333222
2564,00:00:10.256,-0.0471762213855983
2565,00:00:10.26,0.04487554309889677
2566,00:00:10.264,0.0536167211830616
2567,00:00:10.268,-0.02633532322943212
2568,00:00:10.272,0.006948418915271797
2569,00:00:10.276,-0.03822171955835076
2570,00:00:10.28,-0.039877146482467596
2571,00:00:10.284,-0.00030757021158941966
2572,00:00:10.288,0.08766111647128126
2573,00:00:10.292,0.0024307267740368635
2574,00:00:10.296,0.0415840242058039
2575,00:00:10.3,-0.09768411330878729
2576,00:00:10.304,-0.0932783735916018
2577,00:00:10.308,0.07295369217172265
2578,00:00:10.312,0.035902539268136
2579,00:00:10.316,-0.0316855734854471
2580,00:00:10.32,0.0504276230931282
2581,00:00:10.324,0.0369099006056785
2582,00:00:10.328,0.038316430058330346
2583,00:00:10.332,-0.0973959174007177
2584,00:00:10.336,-0.0381827503442764
2585,00:00:10.34,0.0017422400414943001
2586,00:00:10.344,-0.0862383954226971
2587,00:00:10.348,0.14766979217529322
2588,00:00:10.352,0.04425073228776451
2589,00:00:10.356,0.03326715342700501
2590,00:00:10.36,-0.0483682490885257
2591,00:00:10.364,-0.12233639217447487
2592,00:00:10.368,0.030983017757535
2593,00:00:10.372,0.007842289283871602
2594,00:00:10.376,0.0004224372096359903
2595,00:00:10.38,-0.035500205325661296
2596,00:00:10.384,0.13198621966876098
2597,00:00:10.388,0.019522983580827696
2598,00:00:10.392,-0.07317268894985321
2599,00:00:10.396,-0.03015478793531659
2600,00:00:10.4,-0.04534865985624493
2601,00:00:10.404,0.08964285068213944
2602,00:00:10.408,0.05183693859726193
2603,00:00:10.412,-0.09250797145068645
2604,00:00:10.416,-0.046942881308496026
2605,00:00:10.42,0.04693131521344189
2606,00:00:10.424,0.012050410732626898
2607,00:00:10.428,-0.03855896135792134
2608,00:00:10.432,0.04966471414081748
2609,00:00:10.436,0.03692181501537556
2610,00:00:10.44,0.029205683618783902
2611,00:00:10.444,0.006698912009596908
2612,00:00:10.448,-0.09037167252972758
2613,00:00:10.452,-0.09643384627997889
2614,00:00:10.456,0.024276600219309302
2615,00:00:10.46,0.04572968045249586
2616,00:00:10.464,0.0227706910809502
2617,00:00:10.468,0.04185550595866517
2618,00:00:10.472,0.0016537685878574918
2619,00:00:10.476,0.01489754067733881
2620,00:00:10.48,0.036463326978264356
2621,00:00:10.484,-0.02338932524435227
2622,00:00:10.488,-0.151372505351901
2623,00:00:10.492,0.012821258977055501
2624,00:00:10.496,0.06607533013448118
2625,00:00:10.5,0.04619311541318889
2626,00:00:10.504,0.031950760632753414
2627,00:00:10.508,-0.0817104801535607
2628,00:00:10.512,-0.0285653546452522
2629,00:00:10.516,0.009183670394122607
2630,00:00:10.52,0.02403999213129284
2631,00:00:10.524,0.05602632908266961
2632,00:00:10.528,0.010858195368200579
2633,00:00:10.532,-0.052967183291912204
2634,00:00:10.536,0.011812900658696876
2635,00:00:10.54,-0.022434614016674476
2636,00:00:10.544,-0.0877516660839319
2637,00:00:10.548,0.13310825824737577
2638,00:00:10.552,0.031149498187005534
2639,00:00:10.556,-0.11420670337975071
2640,00:00:10.56,-0.0033169926609844594
2641,00:00:10.564,0.0692415693774819
2642,00:00:10.568,-0.005716029554605501
2643,00:00:10.572,0.13683070614933962
2644,00:00:10.576,-0.1133221722557209
2645,00:00:10.58,-0.16145530389621854
2646,00:00:10.584,-0.018346122466027702
2647,00:00:10.588,0.11366038396954539
2648,00:00:10.592,0.14897690899670119
2649,00:00:10.596,-0.0384217500686645
2650,00:00:10.6,-0.16832811012864118
2651,00:00:10.604,0.030987227801233634
2652,00:00:10.608,0.16190746446954987
2653,00:00:10.612,-0.07625288027338681
2654,00:00:10.616,-0.017737034708261906
2655,00:00:10.62,-0.0037000984884798787
2656,00:00:10.624,-0.043440163135528606
2657,00:00:10.628,-0.03203468583524231
2658,00:00:10.632,0.01797986822202803
2659,00:00:10.636,0.07063192781060937
2660,00:00:10.64,-0.0302489837631584
2661,00:00:10.644,-0.02845963020808993
2662,00:00:10.648,0.1831631585955619
2663,00:00:10.652,-0.03504829108715056
2664,00:00:10.656,-0.15549762174487108
2665,00:00:10.66,0.02386681176722052
2666,00:00:10.664,-0.027627287432551405
2667,00:00:10.668,-0.0515391305088997
2668,00:00:10.672,0.05503794504329561
2669,00:00:10.676,0.07703922269865876
2670,00:00:10.68,0.0571144036948681
2671,00:00:10.684,-0.010334545746445704
2672,00:00:10.688,-0.12314930558204651
2673,00:00:10.692,-0.011860199272632599
2674,00:00:10.696,0.03538130596280098
2675,00:00:10.7,-0.0525717603159137
2676,00:00:10.704,0.0977080361917615
2677,00:00:10.708,0.1476990208029747
2678,00:00:10.712,-0.0435998588800429
2679,00:00:10.716,-0.1990866921842099
2680,00:00:10.72,-0.13347290223464403
2681,00:00:10.724,0.1912383548915382
2682,00:00:10.728,0.0889782925369218
2683,00:00:10.732,-0.08834100083913651
2684,00:00:10.736,-0.0510052805766463
2685,00:00:10.74,0.042466387909371434
2686,00:00:10.744,0.13745452463626867
2687,00:00:10.748,-0.0013698926195501865
2688,00:00:10.752,-0.1454475373029709
2689,00:00:10.756,-0.1041945107281208
2690,00:00:10.76,0.04150706075597553
2691,00:00:10.764,0.17160635907202976
2692,00:00:10.768,0.0424832133576274
2693,00:00:10.772,-0.09565978401224134
2694,00:00:10.776,-0.1080239694565535
2695,00:00:10.78,0.017446895129978622
2696,00:00:10.784,0.0400849692523479
2697,00:00:10.788,0.10052170604467389
2698,00:00:10.792,-0.012333682738244589
2699,00:00:10.796,-0.0816995957866312
2700,00:00:10.8,0.009692162275314303
2701,00:00:10.804,-0.006168319843709549
2702,00:00:10.808,-0.007679997943341739
2703,00:00:10.812,-0.015090068336576197
2704,00:00:10.816,0.03940527793020006
2705,00:00:10.82,-0.004627195186913104
2706,00:00:10.824,0.023393500596284908
2707,00:00:10.828,0.09341234900057321
2708,00:00:10.832,-0.0702036358416081
2709,00:00:10.836,-0.1080410089343786
2710,00:00:10.84,-0.07182024198118601
2711,00:00:10.844,0.07805152400396759
2712,00:00:10.848,0.1400628481060267
2713,00:00:10.852,-0.01921349531039591
2714,00:00:10.856,-0.08564157411456098
2715,00:00:10.86,0.10872843116521841
2716,00:00:10.864,-0.06195342447608709
2717,00:00:10.868,-0.1425453312695022
2718,00:00:10.872,0.12396883592009564
2719,00:00:10.876,0.0862697754055261
2720,00:00:10.88,-0.13422676827758562
2721,00:00:10.884,-0.06275029946118597
2722,00:00:10.888,0.07644607685506338
2723,00:00:10.892,0.049915125826373655
2724,00:00:10.896,0.0421174510847777
2725,00:00:10.9,0.05826613138196987
2726,00:00:10.904,-0.09529255330562589
2727,00:00:10.908,-0.0602478813380003
2728,00:00:10.912,-0.0676943603903055
2729,00:00:10.916,0.010460902005434002
2730,00:00:10.92,0.030558983795344802
2731,00:00:10.924,0.1539803436025977
2732,00:00:10.928,0.08525678422302005
2733,00:00:10.932,-0.06359257735311988
2734,00:00:10.936,-0.23310449346899992
2735,00:00:10.94,-0.029552257736213523
2736,00:00:10.944,0.10438336059451106
2737,00:00:10.948,0.0215786006301642
2738,00:00:10.952,0.08785801092744802
2739,00:00:10.956,0.011984604410827108
2740,00:00:10.96,-0.07393012940883631
2741,00:00:10.964,-0.014198940247297299
2742,00:00:10.968,0.02808259148150683
2743,00:00:10.972,-0.03179445315618065
2744,00:00:10.976,-0.024814261123538097
2745,00:00:10.98,0.04195072688162328
2746,00:00:10.984,0.0407856330275535
2747,00:00:10.988,-0.03178170323371891
2748,00:00:10.992,-0.03770343307405715
2749,00:00:10.996,-0.029672269709408297
2750,00:00:11,0.01786298165097837
2751,00:00:11.004,0.0846067881211639
2752,00:00:11.008,0.016291605425067215
2753,00:00:11.012,-0.056829019449651214
2754,00:00:11.016,0.0149952629581094
2755,00:00:11.02,-0.0560583174228669
2756,00:00:11.024,-0.09149657934904101
2757,00:00:11.028,0.12808999884873631
2758,00:00:11.032,0.09029839839786294
2759,00:00:11.036,-0.013443115167319749
2760,00:00:11.04,-0.03383309487253427
2761,00:00:11.044,-0.05303150415420531
2762,00:00:11.048,-0.0666493709431961
2763,00:00:11.052,-0.02618970279581847
2764,00:00:11.056,0.08396269800141451
2765,00:00:11.06,0.056739230407401905
2766,00:00:11.064,-0.0480566034093499
2767,00:00:11.068,0.021887543378397788
2768,00:00:11.072,0.052515184972435236
2769,00:00:11.076,-0.0566928386688233
2770,00:00:11.08,-0.025410608737729472
2771,00:00:11.084,0.0324510727077722
2772,00:00:11.088,-0.025183228775858796
2773,00:00:11.092,0.06927748769521709
2774,00:00:11.096,-0.10679479781538251
2775,00:00:11.1,-0.05273543733574109
2776,00:00:11.104,0.0382511969655753
2777,00:00:11.108,0.13261662796139725
2778,00:00:11.112,0.03492397442460061
2779,00:00:11.116,-0.1150820199400186
2780,00:00:11.12,-0.014508097432553796
2781,00:00:11.124,0.053023713640868705
2782,00:00:11.128,-0.1004623146727682
2783,00:00:11.132,0.00757296942174434
2784,00:00:11.136,0.0820299759507179
2785,00:00:11.14,0.043584708124399095
2786,00:00:11.144,-0.0405728148762137
2787,00:00:11.148,-0.010937986895441995
2788,00:00:11.152,-0.04062191024422643
2789,00:00:11.156,-0.01751815050374712
2790,00:00:11.16,0.004580398555845059
2791,00:00:11.164,0.16075942292809492
2792,00:00:11.168,-0.0383019035216421
2793,00:00:11.172,-0.1693762894719844
2794,00:00:11.176,-0.0744203310459853
2795,00:00:11.18,0.1457387935370207
2796,00:00:11.184,0.3247200027108187
2797,00:00:11.188,-0.18927235621959
2798,00:00:11.192,-0.2765676900744436
2799,00:00:11.196,-0.04946276577538809
2800,00:00:11.2,0.10511339828372
2801,00:00:11.204,0.1294699218124152
2802,00:00:11.208,0.02573478856356813
2803,00:00:11.212,0.0877618044614792
2804,00:00:11.216,-0.03341123228892688
2805,00:00:11.22,-0.1273531746119261
2806,00:00:11.224,-0.03856782428920266
2807,00:00:11.228,0.003688401833642222
2808,00:00:11.232,0.033161080442368956
2809,00:00:11.236,-1.624785363680062e-05
2810,00:00:11.24,0.075554072856903
2811,00:00:11.244,0.0017382949590683053
2812,00:00:11.248,-0.0569418866652996
2813,00:00:11.252,0.045142404735088314
2814,00:00:11.256,-0.09355074493214487
2815,00:00:11.26,-0.0476268632337451
2816,00:00:11.264,0.0656666811555623
2817,00:00:11.268,0.020616525784134858
2818,00:00:11.272,0.052023997297510574
2819,00:00:11.276,0.0245330370962619
2820,00:00:11.28,0.02419385500252248
2821,00:00:11.284,-0.06765150459250432
2822,00:00:11.288,-0.05454815458506346
2823,00:00:11.292,-0.06277120063896292
2824,00:00:11.296,-0.019884133245795972
2825,00:00:11.3,0.14489728270564223
2826,00:00:11.304,0.102601459249854
2827,00:00:11.308,-0.0556907113641501
2828,00:00:11.312,-0.0583563186228275
2829,00:00:11.316,-0.07408658973872662
2830,00:00:11.32,0.004500737413764
2831,00:00:11.324,-0.054566852748394006
2832,00:00:11.328,0.04345755558460945
2833,00:00:11.332,0.1488257609307764
2834,00:00:11.336,0.02584298280999059
2835,00:00:11.34,-0.01599356904625869
2836,00:00:11.344,-0.07757423247676344
2837,00:00:11.348,-0.1329744067043066
2838,00:00:11.352,0.010257464833557616
2839,00:00:11.356,0.08693532890174545
2840,00:00:11.36,0.001007197424769398
2841,00:00:11.364,0.14563741639722125
2842,00:00:11.368,-0.012577272951602908
2843,00:00:11.372,-0.15104806795716236
2844,00:00:11.376,-0.0312685146927833
2845,00:00:11.38,-0.0099940098589287
2846,00:00:11.384,-0.010910907760262399
2847,00:00:11.388,0.08281567227095377
2848,00:00:11.392,0.1279106831643731
2849,00:00:11.396,0.03583680978044868
2850,00:00:11.4,-0.17274493724107712
2851,00:00:11.404,-0.0670523345470429
2852,00:00:11.408,0.06330793397501108
2853,00:00:11.412,-0.052768293200642816
2854,00:00:11.416,-0.017768291756510707
2855,00:00:11.42,0.09424620587378736
2856,00:00:11.424,0.051607602275908014
2857,00:00:11.428,-0.018776569515466704
2858,00:00:11.432,0.10240484040696171
2859,00:00:11.436,-0.0847167326137424
2860,00:00:11.44,-0.1511410195380449
2861,00:00:11.444,0.00583557039499287
2862,00:00:11.448,0.01335333101451395
2863,00:00:11.452,0.044427489861846
2864,00:00:11.456,0.04313648911193012
2865,00:00:11.46,0.043199533596634795
2866,00:00:11.464,0.044120796024799305
2867,00:00:11.468,-0.0235593887045979
2868,00:00:11.472,-0.132535895332694
2869,00:00:11.476,-0.08509329752996565
2870,00:00:11.48,0.12028245441615576
2871,00:00:11.484,0.11361455544829402
2872,00:00:11.488,-0.04416234418749819
2873,00:00:11.492,-0.0366373658180236
2874,00:00:11.496,-0.04519932158291339
2875,00:00:11.5,-0.0268801776692271
2876,00:00:11.504,0.01571392524056132
2877,00:00:11.508,0.030396734364330796
2878,00:00:11.512,0.0722128646448255
2879,00:00:11.516,0.022664036601781807
2880,00:00:11.52,-0.08769491221755746
2881,00:00:11.524,-0.02772351028397688
2882,00:00:11.528,0.011237528175115499
2883,00:00:11.532,0.033615939319133814
2884,00:00:11.536,-0.013877154793590318
2885,00:00:11.54,-0.04468343406915657
2886,00:00:11.544,0.08962625765707352
2887,00:00:11.548,0.10114652663469309
2888,00:00:11.552,-0.1508541405200958
2889,00:00:11.556,-0.11829989496618507
2890,00:00:11.56,0.0737942252308131
2891,00:00:11.564,0.0301114097237588
2892,00:00:11.568,0.01497976109385489
2893,00:00:11.572,0.050618851557374
2894,00:00:11.576,0.03181915404275057
2895,00:00:11.58,-0.032749887090176344
2896,00:00:11.584,-0.013327023945748757
2897,00:00:11.588,-0.08575115725398064
2898,00:00:11.592,0.001747116897604429
2899,00:00:11.596,0.02877640398219223
2900,00:00:11.6,-0.005461044609546651
2901,00:00:11.604,0.05018566455692053
2902,00:00:11.608,0.03965801052981986
2903,00:00:11.612,-0.04209178872406477
2904,00:00:11.616,0.0322561615030281
2905,00:00:11.62,-0.029180153040215383
2906,00:00:11.624,-0.039018456824123846
2907,00:00:11.628,-0.03899181704036884
2908,00:00:11.632,0.0479449629783631
2909,00:00:11.636,-0.0497098863124847
2910,00:00:11.64,0.00038050091825423933
2911,00:00:11.644,0.1412102580070495
2912,00:00:11.648,0.05237339437007879
2913,00:00:11.652,-0.1667118882760405
2914,00:00:11.656,-0.047283626161515505
2915,00:00:11.66,0.16822723764926195
2916,00:00:11.664,-0.01702347304672
2917,00:00:11.668,-0.1044322582893074
2918,00:00:11.672,-0.0737717822194099
2919,00:00:11.676,0.0016044022049754598
2920,00:00:11.68,0.09082465618848809
2921,00:00:11.684,0.1287406284245662
2922,00:00:11.688,-0.017145023681223403
2923,00:00:11.692,-0.0892867408692837
2924,00:00:11.696,-0.0417872872203589
2925,00:00:11.7,-0.020018175477161962
2926,00:00:11.704,-0.05447934102267029
2927,00:00:11.708,0.16795933991670609
2928,00:00:11.712,0.1228589154779911
2929,00:00:11.716,-0.11427857866510743
2930,00:00:11.72,-0.13910685386508706
2931,00:00:11.724,-0.10009383410215351
2932,00:00:11.728,0.04314067150698973
2933,00:00:11.732,0.25988148897886293
2934,00:00:11.736,0.03792595304548739
2935,00:00:11.74,-0.15682417526841191
2936,00:00:11.744,-0.0958667919039726
2937,00:00:11.748,0.01111301733180882
2938,00:00:11.752,0.0487967245280743
2939,00:00:11.756,0.023052099684719045
2940,00:00:11.76,-0.002652213443070619
2941,00:00:11.764,0.026191374287009305
2942,00:00:11.768,0.13657136214897042
2943,00:00:11.772,-0.07873718906193972
2944,00:00:11.776,-0.1906269695609808
2945,00:00:11.78,-0.054869546176632866
2946,00:00:11.784,0.1694874919485299
2947,00:00:11.788,0.04582522390410307
2948,00:00:11.792,-0.0243921745568514
2949,00:00:11.796,-0.0132079981267453
2950,00:00:11.8,-0.05992710590362543
2951,00:00:11.804,0.061196617782116006
2952,00:00:11.808,0.1434982875362039
2953,00:00:11.812,-0.1358471987769007
2954,00:00:11.816,-0.08408658474218103
2955,00:00:11.82,-0.054459632374346284
2956,00:00:11.824,0.01153648085892198
2957,00:00:11.828,0.10093935998156672
2958,00:00:11.832,0.06264281645417213
2959,00:00:11.836,0.033334532752633095
2960,00:00:11.84,-0.02152698824647816
2961,00:00:11.844,-0.0926019456237554
2962,00:00:11.848,-0.05747576616704467
2963,00:00:11.852,0.12499688006937498
2964,00:00:11.856,0.0535655622370541
2965,00:00:11.86,-0.13251370843499902
2966,00:00:11.864,-0.113193752244115
2967,00:00:11.868,0.1352101620286703
2968,00:00:11.872,0.08409568760544062
2969,00:00:11.876,-0.07108093239367
2970,00:00:11.88,-0.017877949401736294
2971,00:00:11.884,0.08831973560154435
2972,00:00:11.888,-0.0272148083895445
2973,00:00:11.892,-0.08603967074304823
2974,00:00:11.896,-0.04843296948820351
2975,00:00:11.9,0.05539374612271783
2976,00:00:11.904,0.0579787874594331
2977,00:00:11.908,0.0005528228357433908
2978,00:00:11.912,0.0001139240339398705
2979,00:00:11.916,-0.016684459522366565
2980,00:00:11.92,0.04767021466977892
2981,00:00:11.924,0.0038461759686469962
2982,00:00:11.928,-0.1448839353397488
2983,00:00:11.932,0.03454506513662638
2984,00:00:11.936,0.04788162279874088
2985,00:00:11.94,0.013996507972478839
2986,00:00:11.944,0.0031967884860932896
2987,00:00:11.948,-0.034057641838444376
2988,00:00:11.952,-0.0211862437427043
2989,00:00:11.956,0.11339741200208661
2990,00:00:11.96,0.059489784762263305
2991,00:00:11.964,-0.1717396965250373
2992,00:00:11.968,-0.07092936988919972
2993,00:00:11.972,0.0614782641641795
2994,00:00:11.976,0.11851035756990308
2995,00:00:11.98,0.0011571901850402494
2996,00:00:11.984,-0.09203227143734691
2997,00:00:11.988,-0.03751725540496404
2998,00:00:11.992,0.028134759515523897
2999,00:00:11.996,0.021355243399739196
3000,00:00:12,0.047341956524178413
3001,00:00:12.004,-0.0025854576379061023
3002,00:00:12.008,-0.013060424651484943
3003,00:00:12.012,0.02884536003693937
3004,00:00:12.016,-0.07872351538389918
3005,00:00:12.02,0.010300764348357902
3006,00:00:12.024,-0.021348101086914612
3007,00:00:12.028,-0.0035491650924086206
3008,00:00:12.032,0.0359441852197052
3009,00:00:12.036,0.010210167616605804
3010,00:00:12.04,0.010793153196573303
3011,00:00:12.044,0.0692592728883028
3012,00:00:12.048,-0.003450997173786101
3013,00:00:12.052,-0.12337768357247114
3014,00:00:12.056,0.0098261870443822
3015,00:00:12.06,0.0840109251439571
3016,00:00:12.064,-0.1289115864783525
3017,00:00:12.068,-0.06480810022912913
3018,00:00:12.072,0.14005361543968314
3019,00:00:12.076,0.1241056025028229
3020,00:00:12.08,-0.0063280362810473195
3021,00:00:12.084,-0.0777535550296306
3022,00:00:12.088,-0.11877100029960272
3023,00:00:12.092,-0.007210262119770102
3024,00:00:12.096,0.06094586290419099
3025,00:00:12.1,0.045049510896205944
3026,00:00:12.104,0.027392270509153577
3027,00:00:12.108,-0.040498822461813716
3028,00:00:12.112,0.02458900725468994
3029,00:00:12.116,0.013836236670613199
3030,00:00:12.12,0.06192736094817519
3031,00:00:12.124,-0.1459865309298038
3032,00:00:12.128,-0.1169734736904502
3033,00:00:12.132,0.0426880284212529
3034,00:00:12.136,0.0995462629944087
3035,00:00:12.14,0.12148749269545081
3036,00:00:12.144,0.07487564429175109
3037,00:00:12.148,-0.1019002478569746
3038,00:00:12.152,-0.0840956345200539
3039,00:00:12.156,-0.12258738442324102
3040,00:00:12.16,0.01969046145677571
3041,00:00:12.164,0.0269118468277156
3042,00:00:12.168,0.11668561398982999
3043,00:00:12.172,0.0694694481790066
3044,00:00:12.176,-0.08735746797174221
3045,00:00:12.18,-0.02608716953545813
3046,00:00:12.184,0.1298411097377538
3047,00:00:12.188,-0.0457929885014891
3048,00:00:12.192,-0.16540869465097763
3049,00:00:12.196,-0.06849800050258639
3050,00:00:12.2,0.1072570227552205
3051,00:00:12.204,0.0937727000564337
3052,00:00:12.208,0.004240236245095723
3053,00:00:12.212,0.0015708077698946
3054,00:00:12.216,-0.04290579352527854
3055,00:00:12.22,0.02473536762408917
3056,00:00:12.224,0.007890771143138402
3057,00:00:12.228,-0.07977813156321638
3058,00:00:12.232,-0.018020731775322908
3059,00:00:12.236,0.03613367280922828
3060,00:00:12.24,-0.010224584490060709
3061,00:00:12.244,0.0708214733749628
3062,00:00:12.248,0.15510744415223637
3063,00:00:12.252,-0.13684189296327498
3064,00:00:12.256,-0.12105014361441153
3065,00:00:12.26,-0.0997697338461876
3066,00:00:12.264,0.0488446447998286
3067,00:00:12.268,0.12408136297017333
3068,00:00:12.272,0.06679415889084339
3069,00:00:12.276,0.0011608859058469777
3070,00:00:12.28,0.00530001940205697
3071,00:00:12.284,0.0010503535158931793
3072,00:00:12.288,-0.07569476170465353
3073,00:00:12.292,-0.08449248503893611
3074,00:00:12.296,-0.03146074619144202
3075,00:00:12.3,0.05049011646769945
3076,00:00:12.304,0.0554061699658632
3077,00:00:12.308,0.04022412002086641
3078,00:00:12.312,-0.023746093036606863
3079,00:00:12.316,0.1007980536669493
3080,00:00:12.32,-0.020374277490191134
3081,00:00:12.324,-0.1101065836846828
3082,00:00:12.328,-0.0188386337831616
3083,00:00:12.332,-0.10164995864033671
3084,00:00:12.336,0.019087292253971044
3085,00:00:12.34,0.288347985595465
3086,00:00:12.344,0.0196941876783968
3087,00:00:12.348,-0.23615372925996808
3088,00:00:12.352,-0.1038594758138061
3089,00:00:12.356,0.05018283508252351
3090,00:00:12.36,0.08180233277380469
3091,00:00:12.364,0.14536578208208098
3092,00:00:12.368,-0.007532469928264604
3093,00:00:12.372,-0.07838441804051406
3094,00:00:12.376,-0.0810848753899335
3095,00:00:12.38,-0.0633683732012287
3096,00:00:12.384,0.048456827411428094
3097,00:00:12.388,0.0507552269846201
3098,00:00:12.392,-0.011730294674634899
3099,00:00:12.396,0.0553730055689811
3100,00:00:12.4,0.0811798144131899
3101,00:00:12.404,-0.08440854074433442
3102,00:00:12.408,-0.024301991681568373
3103,00:00:12.412,-0.03736573643982406
3104,00:00:12.416,-0.054544879123568604
3105,00:00:12.42,0.0509035596624016
3106,00:00:12.424,0.0499958796426654
3107,00:00:12.428,-0.05608503194525841
3108,00:00:12.432,0.05177505197934808
3109,00:00:12.436,0.048720597289502704
3110,00:00:12.44,-0.05432930961251263
3111,00:00:12.444,0.002558894921094172
3112,00:00:12.448,0.0016820514574646984
3113,00:00:12.452,-0.0813291231170296
3114,00:00:12.456,-0.01107969298027458
3115,00:00:12.46,0.13637751154601568
3116,00:00:12.464,0.04493301827460526
3117,00:00:12.468,-0.05330830626189703
3118,00:00:12.472,-0.06302945362403992
3119,00:00:12.476,-0.07807681889971718
3120,00:00:12.48,-0.018820486962795306
3121,00:00:12.484,0.09824014967307454
3122,00:00:12.488,0.03157533635385338
3123,00:00:12.492,0.09310210775583991
3124,00:00:12.496,0.029231572232674825
3125,00:00:12.5,-0.1579486988484859
3126,00:00:12.504,-0.09488532878458497
3127,00:00:12.508,-0.009086455684155323
3128,00:00:12.512,0.12212128052487964
3129,00:00:12.516,0.1387165654450651
3130,00:00:12.52,-0.10352812544442713
3131,00:00:12.524,-0.08849753439426439
3132,00:00:12.528,-0.07458619656972582
3133,00:00:12.532,0.1434280164539815
3134,00:00:12.536,0.09947893582284449
3135,00:00:12.54,-0.07803640747442843
3136,00:00:12.544,-0.06533939624205232
3137,00:00:12.548,0.03147101355716584
3138,00:00:12.552,0.0068589700385928015
3139,00:00:12.556,-0.09306438034400334
3140,00:00:12.56,0.0022524904925376316
3141,00:00:12.564,0.12949831271544088
3142,00:00:12.568,0.0296353250741958
3143,00:00:12.572,-0.05169395077973599
3144,00:00:12.576,-0.0615192875266075
3145,00:00:12.58,0.018920206930488334
3146,00:00:12.584,0.032983504235744504
3147,00:00:12.588,-0.0439000446349382
3148,00:00:12.592,-0.0073731075972319066
3149,00:00:12.596,0.026794226840138508
3150,00:00:12.6,0.002787262928904938
3151,00:00:12.604,0.0705398712307214
3152,00:00:12.608,-0.031751795671880176
3153,00:00:12.612,-0.009486761176958612
3154,00:00:12.616,-0.04312792094424371
3155,00:00:12.62,-0.07179057970643048
3156,00:00:12.624,0.03707576321903612
3157,00:00:12.628,0.02206516545265915
3158,00:00:12.632,0.08210336230695241
3159,00:00:12.636,0.1161850839853285
3160,00:00:12.64,-0.071055299602449
3161,00:00:12.644,-0.21517076715827022
3162,00:00:12.648,-0.0678788223303854
3163,00:00:12.652,0.11578344833105797
3164,00:00:12.656,0.1388377025723458
3165,00:00:12.66,0.0173079613596201
3166,00:00:12.664,-0.0875113420188427
3167,00:00:12.668,0.1043588407337665
3168,00:00:12.672,-0.009662268217653008
3169,00:00:12.676,-0.1582034733146429
