,Elapsed Time,EMG
0,00:00:00,0.9922228902578398
1,00:00:00.004,-0.9504314810037633
2,00:00:00.008,-0.7540612518787345
3,00:00:00.012,-0.10340211633592854
4,00:00:00.016,0.3608203679323201
5,00:00:00.02,0.5394211299717426
6,00:00:00.024,0.31347849965095526
7,00:00:00.028,0.0068394411355256896
8,00:00:00.032,-0.16181362606585004
9,00:00:00.036,-0.2071722503751515
10,00:00:00.04,-0.12283242121338822
11,00:00:00.044,0.004523307085037412
12,00:00:00.048,0.03035518257092915
13,00:00:00.052,0.009929396212100983
14,00:00:00.056,0.029812615364789977
15,00:00:00.06,0.036874756217002834
16,00:00:00.064,0.024397586705163142
17,00:00:00.068,-0.02498135715723038
18,00:00:00.072,-0.040043573593720794
19,00:00:00.076,-0.01762923621572557
20,00:00:00.08,0.0211082771420479
21,00:00:00.084,-0.00215348531492055
22,00:00:00.088,0.0249948920682073
23,00:00:00.092,0.0449421470984816
24,00:00:00.096,-0.031092794612050043
25,00:00:00.1,-0.014531433582305901
26,00:00:00.104,-0.05064300121739504
27,00:00:00.108,-0.003430349752306919
28,00:00:00.112,0.0146220158785582
29,00:00:00.116,0.02761894976720212
30,00:00:00.12,0.012870762730017332
31,00:00:00.124,0.047586403787136064
32,00:00:00.128,-0.006182138808071612
33,00:00:00.132,-0.06896434910595416
34,00:00:00.136,-0.02791641978546976
35,00:00:00.14,0.027593637816607917
36,00:00:00.144,0.009125173557549708
37,00:00:00.148,0.015306360961403694
38,00:00:00.152,0.006600801309104983
39,00:00:00.156,-0.011163637216668576
40,00:00:00.16,-0.02009854139760134
41,00:00:00.164,0.0012224735692143197
42,00:00:00.168,0.0755844041705131
43,00:00:00.172,-0.023591521196067278
44,00:00:00.176,-0.057309358904603924
45,00:00:00.18,-0.02534128818660973
46,00:00:00.184,0.012775953582604376
47,00:00:00.188,0.014502593316137789
48,00:00:00.192,0.0416379105299711
49,00:00:00.196,0.038701120764017105
50,00:00:00.2,-0.01265722815878689
51,00:00:00.204,-0.054082037881016704
52,00:00:00.208,-0.0460648387670516
53,00:00:00.212,0.0006277221255004402
54,00:00:00.216,0.03302346961572766
55,00:00:00.22,0.039643351919949096
56,00:00:00.224,-4.504853859541025e-05
57,00:00:00.228,-0.009986569872125982
58,00:00:00.232,0.0062965224497020305
59,00:00:00.236,0.001126014976762242
60,00:00:00.24,-0.021249842830002308
61,00:00:00.244,-0.0040720021352172
62,00:00:00.248,-0.01481866091489792
63,00:00:00.252,0.010188999585807403
64,00:00:00.256,0.014563511591404659
65,00:00:00.26,-0.01659887749701734
66,00:00:00.264,0.01552464487031105
67,00:00:00.268,0.0039248240645974805
68,00:00:00.272,-0.0022463614586740697
69,00:00:00.276,0.027412097610067587
70,00:00:00.28,-0.03417111840099099
71,00:00:00.284,-0.01481706532649695
72,00:00:00.288,0.03357100021094085
73,00:00:00.292,-0.017321164719760394
74,00:00:00.296,-0.0068433077540248684
75,00:00:00.3,0.00043533369898798857
76,00:00:00.304,-0.000326223147567359
77,00:00:00.308,-0.006619420993956725
78,00:00:00.312,0.01942009819322268
79,00:00:00.316,-0.00023548526223747882
80,00:00:00.32,-0.00194655160885305
81,00:00:00.324,0.010437340708449457
82,00:00:00.328,-0.0006101571489125698
83,00:00:00.332,0.0008683402556925507
84,00:00:00.336,-0.00735662179067729
85,00:00:00.34,-0.033050831407308585
86,00:00:00.344,0.01718445029109715
87,00:00:00.348,0.005095656495541369
88,00:00:00.352,-0.00458812899887562
89,00:00:00.356,0.007317671086639159
90,00:00:00.36,0.03346713944483784
91,00:00:00.364,-0.02391267754137512
92,00:00:00.368,-0.0191851236158982
93,00:00:00.372,0.023738412186503348
94,00:00:00.376,-0.028415221720933984
95,00:00:00.38,0.00453041959553957
96,00:00:00.384,0.0598814580589533
97,00:00:00.388,-0.03766485801315862
98,00:00:00.392,-0.0597595730796457
99,00:00:00.396,0.0035953703336418386
100,00:00:00.4,0.05516398325562476
101,00:00:00.404,0.0292889224365353
102,00:00:00.408,-0.02469527116045358
103,00:00:00.412,-0.00579446437768638
104,00:00:00.416,-0.004703437909483921
105,00:00:00.42,-0.00968701345846057
106,00:00:00.424,-0.00623469532001763
107,00:00:00.428,-0.00407419598195702
108,00:00:00.432,0.0024045957252383297
109,00:00:00.436,0.03581181634217502
110,00:00:00.44,0.008439333178103012
111,00:00:00.444,-0.019267522002337476
112,00:00:00.448,-0.02107963885646312
113,00:00:00.452,-0.014108354691416025
114,00:00:00.456,0.0020408362615853505
115,00:00:00.46,0.01620861387345936
116,00:00:00.464,0.02325548185035589
117,00:00:00.468,0.010859348811209158
118,00:00:00.472,-0.018552747089415792
119,00:00:00.476,-0.002502472198102626
120,00:00:00.48,-0.01326431485358628
121,00:00:00.484,-0.007371219282504174
122,00:00:00.488,0.0015127419246709888
123,00:00:00.492,0.012853236275987001
124,00:00:00.496,-0.001236324445926583
125,00:00:00.5,-0.013672211178345647
126,00:00:00.504,0.006962223444133987
127,00:00:00.508,0.032631237059831585
128,00:00:00.512,-0.0042590880766511
129,00:00:00.516,-0.03666679142042989
130,00:00:00.52,-0.007360293180681769
131,00:00:00.524,0.01991684368113054
132,00:00:00.528,0.02622492029331622
133,00:00:00.532,0.009878419572487467
134,00:00:00.536,-0.0115128355100751
135,00:00:00.54,-0.03633468411862846
136,00:00:00.544,-0.026114076375961297
137,00:00:00.548,0.01142297743353993
138,00:00:00.552,0.021748031919742058
139,00:00:00.556,0.01201332081109286
140,00:00:00.56,0.011459788016509242
141,00:00:00.564,0.01478477381169803
142,00:00:00.568,-0.03618000820279124
143,00:00:00.572,0.0721057439222931
144,00:00:00.576,-0.05791004817001522
145,00:00:00.58,-0.0595730878412724
146,00:00:00.584,0.00014416088833968442
147,00:00:00.588,0.02199760242365301
148,00:00:00.592,0.0224137732293457
149,00:00:00.596,0.0278852777555584
150,00:00:00.6,0.02265261835418644
151,00:00:00.604,-0.02768046234268695
152,00:00:00.608,-0.02350863674655555
153,00:00:00.612,-0.0059547097189352
154,00:00:00.616,0.01476217876188457
155,00:00:00.62,0.00985071784816683
156,00:00:00.624,-0.00857417937368155
157,00:00:00.628,-0.006765337704564441
158,00:00:00.632,-0.013060381286777552
159,00:00:00.636,0.010914031532593073
160,00:00:00.64,0.00903377565555275
161,00:00:00.644,0.01190891349688176
162,00:00:00.648,-0.021424566744826706
163,00:00:00.652,-0.018672822043299668
164,00:00:00.656,0.04255106346681719
165,00:00:00.66,0.00150789273902773
166,00:00:00.664,0.025021774694323498
167,00:00:00.668,-0.05277170799672602
168,00:00:00.672,-0.023679676000028883
169,00:00:00.676,0.0016433708369731487
170,00:00:00.68,0.00862091640010482
171,00:00:00.684,0.013432297389954388
172,00:00:00.688,0.0347227854654193
173,00:00:00.692,0.017627259716391588
174,00:00:00.696,-0.030924261547625093
175,00:00:00.7,-0.02474385895766322
176,00:00:00.704,-0.0011156189157190957
177,00:00:00.708,0.010542767297010872
178,00:00:00.712,-0.006168434687424421
179,00:00:00.716,0.003544954233802863
180,00:00:00.72,0.004184811143204569
181,00:00:00.724,0.0020557301177177613
182,00:00:00.728,0.006316741928458231
183,00:00:00.732,0.00365740805864331
184,00:00:00.736,-0.003084840485826099
185,00:00:00.74,-8.024275302886876e-05
186,00:00:00.744,-0.01321064494550235
187,00:00:00.748,-0.00282300252001732
188,00:00:00.752,0.008513083244906744
189,00:00:00.756,-0.0042946888133883684
190,00:00:00.76,0.008266742341220339
191,00:00:00.764,0.004891023039817768
192,00:00:00.768,-0.030445967451669283
193,00:00:00.772,-0.0020664273761212895
194,00:00:00.776,0.025519531918689612
195,00:00:00.78,0.017083344049751738
196,00:00:00.784,-0.00338844582438464
197,00:00:00.788,-0.00571043975651265
198,00:00:00.792,-0.00790486484766006
199,00:00:00.796,-0.01265146036166695
200,00:00:00.8,0.007455573184415651
201,00:00:00.804,-7.236865349113985e-05
202,00:00:00.808,9.568058885632991e-05
203,00:00:00.812,-0.0004743483150377926
204,00:00:00.816,0.00404108472866938
205,00:00:00.82,-0.00321890017949045
206,00:00:00.824,-0.00819279998540878
207,00:00:00.828,0.01520438259467482
208,00:00:00.832,0.00789497606456281
209,00:00:00.836,-0.0074387938948348095
210,00:00:00.84,0.0018789279274643092
211,00:00:00.844,0.0487098153680562
212,00:00:00.848,-0.03924202546477315
213,00:00:00.852,-0.0804637651890516
214,00:00:00.856,0.005516539094969691
215,00:00:00.86,0.07048389408737418
216,00:00:00.864,0.0016998425126075814
217,00:00:00.868,-0.0014060596004128907
218,00:00:00.872,-0.011785527924075749
219,00:00:00.876,-0.00251796236261723
220,00:00:00.88,0.013148862868547528
221,00:00:00.884,0.00592905515804885
222,00:00:00.888,-0.01456635017530062
223,00:00:00.892,-0.02183480560779576
224,00:00:00.896,0.014070388278923932
225,00:00:00.9,0.01326732966117564
226,00:00:00.904,0.0027020125999115425
227,00:00:00.908,-0.011243671586271358
228,00:00:00.912,-0.009101018949877464
229,00:00:00.916,-0.016248956468189187
230,00:00:00.92,0.015840143198147433
231,00:00:00.924,0.04635464271996167
232,00:00:00.928,0.01274746493436392
233,00:00:00.932,-0.038502501323819244
234,00:00:00.936,-0.030798506573773917
235,00:00:00.94,-0.01944073336198933
236,00:00:00.944,0.02246149210259317
237,00:00:00.948,0.008817449561320238
238,00:00:00.952,0.021582782792393125
239,00:00:00.956,-0.0017137652030214494
240,00:00:00.96,-0.008183250902220614
241,00:00:00.964,-0.012410456663928928
242,00:00:00.968,0.01245246361941104
243,00:00:00.972,0.027657273691147545
244,00:00:00.976,-0.020581770222634032
245,00:00:00.98,-0.01322010485455401
246,00:00:00.984,-0.01276375725865365
247,00:00:00.988,-0.00286052818410093
248,00:00:00.992,0.012090678792446848
249,00:00:00.996,0.013485804200172417
250,00:00:01,0.00687414337880909
251,00:00:01.004,-0.009223212487995618
252,00:00:01.008,-0.012214859249070278
253,00:00:01.012,0.00802379008382558
254,00:00:01.016,-0.004477017821045593
255,00:00:01.02,-0.01568544027395547
256,00:00:01.024,0.04004838783293971
257,00:00:01.028,0.017106023558881103
258,00:00:01.032,-0.033797797310398864
259,00:00:01.036,-0.03412346169352533
260,00:00:01.04,0.02537017420399941
261,00:00:01.044,0.030072900000959656
262,00:00:01.048,-0.0405867719091475
263,00:00:01.052,-0.0249230023473502
264,00:00:01.056,0.03143478650599722
265,00:00:01.06,0.04136447561904785
266,00:00:01.064,-0.0039278557596845
267,00:00:01.068,-0.029367449227720534
268,00:00:01.072,-0.0143171001691371
269,00:00:01.076,0.007938136928714788
270,00:00:01.08,0.009789526084205132
271,00:00:01.084,0.004324663430452341
272,00:00:01.088,0.0010005920194089309
273,00:00:01.092,-0.001376858912408348
274,00:00:01.096,-0.010871648322790861
275,00:00:01.1,-0.01329278363846239
276,00:00:01.104,0.01441888604313139
277,00:00:01.108,2.576829865574056e-05
278,00:00:01.112,0.0039668842218816315
279,00:00:01.116,0.002428583684377379
280,00:00:01.12,0.03522984171286221
281,00:00:01.124,-0.0018601403571665391
282,00:00:01.128,-0.03618156723678107
283,00:00:01.132,-0.0372153799980879
284,00:00:01.136,-0.0073845274746417965
285,00:00:01.14,0.017048247624188672
286,00:00:01.144,0.007561632199212921
287,00:00:01.148,0.06831957213580608
288,00:00:01.152,-0.002898623351939019
289,00:00:01.156,-0.026382721029222005
290,00:00:01.16,-0.0149253644049167
291,00:00:01.164,-0.02645857259631164
292,00:00:01.168,-0.011681230695103295
293,00:00:01.172,0.004144459555391215
294,00:00:01.176,0.02994897076860067
295,00:00:01.18,0.01484585856087505
296,00:00:01.184,0.0173956202343106
297,00:00:01.188,-0.00203474021691363
298,00:00:01.192,-0.028534665005281606
299,00:00:01.196,-0.02228879556059833
300,00:00:01.2,-0.003211587900295851
301,00:00:01.204,-4.082417581230944e-05
302,00:00:01.208,0.029513291083276202
303,00:00:01.212,0.03811862180009484
304,00:00:01.216,-0.04438494332134724
305,00:00:01.22,0.0031265625730157003
306,00:00:01.224,0.014453759416937818
307,00:00:01.228,-0.034581513667944805
308,00:00:01.232,-0.010286705684848126
309,00:00:01.236,0.009926618542522199
310,00:00:01.24,0.02069720113649965
311,00:00:01.244,0.014390988275408691
312,00:00:01.248,-0.0036713969893754014
313,00:00:01.252,-0.01913841487839818
314,00:00:01.256,-0.0031486423686146797
315,00:00:01.26,0.017804191447794493
316,00:00:01.264,0.007020134944468732
317,00:00:01.268,-0.01212762366048991
318,00:00:01.272,-0.01512329973047599
319,00:00:01.276,-0.0013420823379419779
320,00:00:01.28,0.01053964905440808
321,00:00:01.284,0.0034461918985471207
322,00:00:01.288,0.0010434143478050798
323,00:00:01.292,0.01874400814995169
324,00:00:01.296,-0.02033988153561946
325,00:00:01.3,-0.030156790511682643
326,00:00:01.304,-0.00147953000850976
327,00:00:01.308,0.0590380853973329
328,00:00:01.312,0.03008848801255233
329,00:00:01.316,-0.04221319267526272
330,00:00:01.32,-0.04360275407088924
331,00:00:01.324,-0.016557550057768797
332,00:00:01.328,0.02185384312178942
333,00:00:01.332,0.01349040493369098
334,00:00:01.336,0.007155075669288669
335,00:00:01.34,0.038150536827743095
336,00:00:01.344,0.01244934031274169
337,00:00:01.348,-0.034714620560407604
338,00:00:01.352,-0.04229636816307899
339,00:00:01.356,-0.013834050856530658
340,00:00:01.36,0.02283758437260986
341,00:00:01.364,0.02920616453047845
342,00:00:01.368,0.010433346265926959
343,00:00:01.372,-0.00442604441195726
344,00:00:01.376,-0.00636169267818331
345,00:00:01.38,-0.010940754378680133
346,00:00:01.384,-0.003076417837291961
347,00:00:01.388,-0.019606931586167813
348,00:00:01.392,-0.0027795935166068414
349,00:00:01.396,0.03983053844422102
350,00:00:01.4,0.0094985504692886
351,00:00:01.404,0.006702074781060198
352,00:00:01.408,-0.0282808337360621
353,00:00:01.412,-0.02449558992520904
354,00:00:01.416,0.01628268486820161
355,00:00:01.42,-0.006814989494159811
356,00:00:01.424,-0.01372414059005675
357,00:00:01.428,0.07720897486433383
358,00:00:01.432,-0.025395689532160797
359,00:00:01.436,-0.05253177322447299
360,00:00:01.44,0.003461977932602141
361,00:00:01.444,0.019835951505228922
362,00:00:01.448,0.03386084269732241
363,00:00:01.452,-0.017744598910212538
364,00:00:01.456,-0.02137439930811518
365,00:00:01.46,0.01278060255572201
366,00:00:01.464,-0.008842176757752888
367,00:00:01.468,0.00623443187214434
368,00:00:01.472,0.002430806285701685
369,00:00:01.476,-0.0047257677651942
370,00:00:01.48,-0.01849375246092677
371,00:00:01.484,0.013417948095593556
372,00:00:01.488,0.020165029447525767
373,00:00:01.492,0.011048118758481012
374,00:00:01.496,0.01087993988767264
375,00:00:01.5,-0.015187510754913109
376,00:00:01.504,-0.0451593957841396
377,00:00:01.508,-0.030488928779959602
378,00:00:01.512,0.03231392847374079
379,00:00:01.516,0.032965089194476604
380,00:00:01.52,0.03161665750667451
381,00:00:01.524,-0.028926116414368208
382,00:00:01.528,-0.021217055618762998
383,00:00:01.532,0.003226930508390069
384,00:00:01.536,-0.003942537121474741
385,00:00:01.54,0.0064012285438366226
386,00:00:01.544,0.01116185169667005
387,00:00:01.548,0.00133712589740753
388,00:00:01.552,-0.01436682383064181
389,00:00:01.556,0.01959031145088378
390,00:00:01.56,0.001816550357034425
391,00:00:01.564,-0.02924693841487175
392,00:00:01.568,-0.004519302397966343
393,00:00:01.572,0.0040111339185386905
394,00:00:01.576,0.003795693104621029
395,00:00:01.58,0.011081503471359638
396,00:00:01.584,0.004911562427878391
397,00:00:01.588,0.02322947606444364
398,00:00:01.592,0.03010165411978964
399,00:00:01.596,-0.04931637784466146
400,00:00:01.6,-0.07043057295959443
401,00:00:01.604,0.0210247164359316
402,00:00:01.608,0.04512705327942966
403,00:00:01.612,-0.007353356457315389
404,00:00:01.616,0.0022760650463169415
405,00:00:01.62,0.0009275325573980904
406,00:00:01.624,0.008845586329698561
407,00:00:01.628,-0.00367346149869263
408,00:00:01.632,0.0015190099366009287
409,00:00:01.636,0.002145803649909795
410,00:00:01.64,-0.00036551267839968725
411,00:00:01.644,-0.01755902823060754
412,00:00:01.648,-0.019285232607217047
413,00:00:01.652,0.017177000523588472
414,00:00:01.656,0.03002865565940738
415,00:00:01.66,-0.009888299333397296
416,00:00:01.664,-0.02636954933404917
417,00:00:01.668,0.00411263911519195
418,00:00:01.672,-0.008670106384670398
419,00:00:01.676,0.05497254664078356
420,00:00:01.68,0.041854124749079305
421,00:00:01.684,-0.09964312473312023
422,00:00:01.688,-0.027386632980778758
423,00:00:01.692,0.03461271124979244
424,00:00:01.696,0.00050062080845236
425,00:00:01.7,0.02653061121236529
426,00:00:01.704,-0.009298301301896563
427,00:00:01.708,0.0358641454949975
428,00:00:01.712,-0.01741625426802782
429,00:00:01.716,-0.033618734218180193
430,00:00:01.72,-0.009577269782312162
431,00:00:01.724,0.02187490323558449
432,00:00:01.728,-0.00515491608530283
433,00:00:01.732,-0.01447507250122724
434,00:00:01.736,0.031433008145541
435,00:00:01.74,0.017708325467538068
436,00:00:01.744,-0.00735693378373981
437,00:00:01.748,-0.025335876678582316
438,00:00:01.752,-0.02240406814962626
439,00:00:01.756,0.00721313194662798
440,00:00:01.76,0.02472911798395212
441,00:00:01.764,0.00864590704441071
442,00:00:01.768,0.007743661350105012
443,00:00:01.772,-0.01902664871886374
444,00:00:01.776,-0.037273022579029244
445,00:00:01.78,0.02588698780164122
446,00:00:01.784,0.043495398946106406
447,00:00:01.788,-0.03921127109788352
448,00:00:01.792,0.032871954143047305
449,00:00:01.796,-0.020794522017240562
450,00:00:01.8,-0.031605912779923556
451,00:00:01.804,-0.012164877727627761
452,00:00:01.808,0.01476955716498199
453,00:00:01.812,0.02651592879556123
454,00:00:01.816,0.01137744286097586
455,00:00:01.82,-0.00199409178458154
456,00:00:01.824,0.0020658799912780506
457,00:00:01.828,0.002936059143394224
458,00:00:01.832,-0.02575850719586013
459,00:00:01.836,-0.0147765809670091
460,00:00:01.84,0.008819731301628091
461,00:00:01.844,0.014361580047989292
462,00:00:01.848,0.005004243503208279
463,00:00:01.852,0.00510109658353031
464,00:00:01.856,-0.01775291725061831
465,00:00:01.86,0.0019314223900437312
466,00:00:01.864,-0.0015298727666959097
467,00:00:01.868,0.009883339793304894
468,00:00:01.872,0.010305381380021541
469,00:00:01.876,-0.0359089067205786
470,00:00:01.88,0.015036082448204981
471,00:00:01.884,0.04765219148248434
472,00:00:01.888,-0.04879486025311052
473,00:00:01.892,-0.02799411330488509
474,00:00:01.896,0.030467657838016787
475,00:00:01.9,0.027999431418720595
476,00:00:01.904,-0.026694056345149854
477,00:00:01.908,0.00845923414453865
478,00:00:01.912,0.0034330408088862983
479,00:00:01.916,-0.03519713820423933
480,00:00:01.92,0.014744565181899812
481,00:00:01.924,0.03432711726054548
482,00:00:01.928,-0.0035145718720742056
483,00:00:01.932,-0.01896264427341523
484,00:00:01.936,-0.01575568330008532
485,00:00:01.94,0.00991156604140997
486,00:00:01.944,0.005886144004762128
487,00:00:01.948,-0.0035740173771046132
488,00:00:01.952,-0.0062563088722527496
489,00:00:01.956,0.01574959536083043
490,00:00:01.96,0.02983372786547988
491,00:00:01.964,-0.024215175537392476
492,00:00:01.968,-0.0436596949584782
493,00:00:01.972,0.03040632978081703
494,00:00:01.976,0.01810731101431886
495,00:00:01.98,-0.02912564319558443
496,00:00:01.984,-0.02818208187818525
497,00:00:01.988,0.03514003800228234
498,00:00:01.992,0.06757588684558871
499,00:00:01.996,-0.0420754782389849
500,00:00:02,-0.032061114907264696
501,00:00:02.004,0.0040209408489318196
502,00:00:02.008,-0.00774627947248522
503,00:00:02.012,-0.003378704102942717
504,00:00:02.016,0.010562482289969907
505,00:00:02.02,0.01711694640107454
506,00:00:02.024,0.003605940961278949
507,00:00:02.028,0.011555203469470143
508,00:00:02.032,-0.02078836038708683
509,00:00:02.036,-0.015554583165794651
510,00:00:02.04,0.01499219622928645
511,00:00:02.044,0.010434208204969769
512,00:00:02.048,-0.021899477578699596
513,00:00:02.052,-0.025388264766661492
514,00:00:02.056,0.04018607048783447
515,00:00:02.06,0.00885446101892735
516,00:00:02.064,-0.012660135456826541
517,00:00:02.068,0.0008484758436679892
518,00:00:02.072,-0.00859663216397169
519,00:00:02.076,0.029953848570585202
520,00:00:02.08,-0.02219176758080717
521,00:00:02.084,0.0253857579082251
522,00:00:02.088,-0.044469191227108275
523,00:00:02.092,-0.01177329721394927
524,00:00:02.096,-0.002459773910231889
525,00:00:02.1,0.04078141041100028
526,00:00:02.104,0.018285690573975482
527,00:00:02.108,-0.02142237033694979
528,00:00:02.112,-0.0162659715861082
529,00:00:02.116,0.008846275391988461
530,00:00:02.12,0.006075927522033458
531,00:00:02.124,-0.0012985991779714838
532,00:00:02.128,-0.00686278566718098
533,00:00:02.132,0.0085294498130679
534,00:00:02.136,0.015840626612771327
535,00:00:02.14,-0.025824316777288872
536,00:00:02.144,-0.01844990451354532
537,00:00:02.148,0.006510882405564189
538,00:00:02.152,0.02917730761691929
539,00:00:02.156,-0.0006244187243282708
540,00:00:02.16,-0.005977933527901789
541,00:00:02.164,-0.0015776681248098694
542,00:00:02.168,-0.00485539296641946
543,00:00:02.172,-0.01163518815883436
544,00:00:02.176,-0.017413900233805173
545,00:00:02.18,0.009152810089290128
546,00:00:02.184,0.11500907596200688
547,00:00:02.188,-0.06321810418739911
548,00:00:02.192,-0.06201172946020958
549,00:00:02.196,-0.011066394858062219
550,00:00:02.2,0.00825309613719585
551,00:00:02.204,0.0282283739652485
552,00:00:02.208,0.02967470698058603
553,00:00:02.212,-0.012351232755463539
554,00:00:02.216,-0.00913569913245733
555,00:00:02.22,0.0007027722895144861
556,00:00:02.224,0.01299698883667587
557,00:00:02.228,-0.017557146085891893
558,00:00:02.232,0.00412463233806193
559,00:00:02.236,-0.017638539429754047
560,00:00:02.24,-0.007281753118149949
561,00:00:02.244,0.023109718611522147
562,00:00:02.248,0.002813648898154471
563,00:00:02.252,0.011719933710992298
564,00:00:02.256,0.004653271753340977
565,00:00:02.26,-0.039880599731986904
566,00:00:02.264,0.03063020575791589
567,00:00:02.268,-0.02154315588995822
568,00:00:02.272,0.01709606079384681
569,00:00:02.276,0.00427773276169319
570,00:00:02.28,-0.02078085229732093
571,00:00:02.284,-0.007247461471706659
572,00:00:02.288,0.005842041922733189
573,00:00:02.292,0.012643575435504291
574,00:00:02.296,0.01220498187467458
575,00:00:02.3,-0.007291195390280341
576,00:00:02.304,-0.009608634747564803
577,00:00:02.308,-0.01497494860086593
578,00:00:02.312,0.031604852993041374
579,00:00:02.316,0.0110337224323303
580,00:00:02.32,-0.008695637108758161
581,00:00:02.324,-0.030115055851638317
582,00:00:02.328,-0.014215416274964811
583,00:00:02.332,0.04922665166668596
584,00:00:02.336,-0.007492917764466325
585,00:00:02.34,-0.028063562233001
586,00:00:02.344,-0.019902353262295946
587,00:00:02.348,0.03178671002388001
588,00:00:02.352,0.02475016750395292
589,00:00:02.356,-0.00311691756360232
590,00:00:02.36,-0.02240145415999001
591,00:00:02.364,0.0020186326000839502
592,00:00:02.368,0.002331675845198329
593,00:00:02.372,-0.003604372905101631
594,00:00:02.376,-0.009224109118804343
595,00:00:02.38,0.022514925338327878
596,00:00:02.384,0.018465453293174512
597,00:00:02.388,-0.02699205325916411
598,00:00:02.392,-0.018574080895632523
599,00:00:02.396,-0.01628996804356574
600,00:00:02.4,0.020881359931081492
601,00:00:02.404,0.04311511665582657
602,00:00:02.408,-0.026867238804697904
603,00:00:02.412,0.0334961228072644
604,00:00:02.416,-0.0211316458880901
605,00:00:02.42,-0.0527984406799078
606,00:00:02.424,0.004105887608602549
607,00:00:02.428,0.022435457911342473
608,00:00:02.432,0.016471770592033894
609,00:00:02.436,0.0005087535828352079
610,00:00:02.44,0.014703531283885251
611,00:00:02.444,0.0017514417413622202
612,00:00:02.448,-0.0273398355348036
613,00:00:02.452,-0.024957347661256773
614,00:00:02.456,0.006968960748054096
615,00:00:02.46,0.015785278257681053
616,00:00:02.464,0.018102114205248657
617,00:00:02.468,0.008443256374448541
618,00:00:02.472,-0.008763295394601325
619,00:00:02.476,-0.019340379629284178
620,00:00:02.48,0.013958500145236035
621,00:00:02.484,0.01057763001881543
622,00:00:02.488,-0.02632325317244981
623,00:00:02.492,0.01479437405942011
624,00:00:02.496,-0.02894308650866146
625,00:00:02.5,-0.02134142420254646
626,00:00:02.504,0.0869066771119833
627,00:00:02.508,0.012138316407799691
628,00:00:02.512,-0.0775100355967879
629,00:00:02.516,-0.02313507534563537
630,00:00:02.52,0.02076838165521624
631,00:00:02.524,0.04573994595557446
632,00:00:02.528,0.0018801726400852585
633,00:00:02.532,-0.013352445326745512
634,00:00:02.536,0.00016423081979158056
635,00:00:02.54,0.005846349085913967
636,00:00:02.544,-0.009400817740242928
637,00:00:02.548,-0.02191021107137207
638,00:00:02.552,-0.004331664298661058
639,00:00:02.556,0.010900847933953626
640,00:00:02.56,0.01440172013826668
641,00:00:02.564,0.008919270709156992
642,00:00:02.568,-0.02198861702345309
643,00:00:02.572,0.002334571152459826
644,00:00:02.576,0.01922611240297556
645,00:00:02.58,0.0021731638698838664
646,00:00:02.584,-0.02208518492989246
647,00:00:02.588,-0.01582380430772901
648,00:00:02.592,0.061401721206493655
649,00:00:02.596,0.0169573053717613
650,00:00:02.6,-0.0629171840846539
651,00:00:02.604,-0.035256039351224906
652,00:00:02.608,-0.023807968944311204
653,00:00:02.612,0.035280591226182885
654,00:00:02.616,0.057377189397811994
655,00:00:02.62,0.01365673448890444
656,00:00:02.624,-0.01790118752978745
657,00:00:02.628,-0.0132699245586991
658,00:00:02.632,-0.009763807756826287
659,00:00:02.636,0.0052415267564356
660,00:00:02.64,-0.00629125908017158
661,00:00:02.644,-0.005599375290330496
662,00:00:02.648,-0.00487459648866207
663,00:00:02.652,0.0071696904487907895
664,00:00:02.656,0.011808462848421188
665,00:00:02.66,-0.00247228692751378
666,00:00:02.664,-0.0039548961067339405
667,00:00:02.668,-0.001479801605455619
668,00:00:02.672,-0.007539631333202093
669,00:00:02.676,-0.0030329020955832684
670,00:00:02.68,0.017415632260963352
671,00:00:02.684,0.02310092328116298
672,00:00:02.688,-0.019348767877090743
673,00:00:02.692,-0.00172984879463912
674,00:00:02.696,-0.01232296274974947
675,00:00:02.7,-0.009100783616304363
676,00:00:02.704,0.013551734387874619
677,00:00:02.708,-0.0001814530696719885
678,00:00:02.712,0.0023832810111343895
679,00:00:02.716,-0.012043005786836192
680,00:00:02.72,-0.02060590358451005
681,00:00:02.724,0.0628156960010528
682,00:00:02.728,-0.007100364193320299
683,00:00:02.732,-0.024379217764362682
684,00:00:02.736,-0.01198314083740118
685,00:00:02.74,-0.0017752582352841186
686,00:00:02.744,0.02520301472395656
687,00:00:02.748,-0.01561962114647028
688,00:00:02.752,0.0006548461969941798
689,00:00:02.756,0.0147747362498194
690,00:00:02.76,-0.01969423820264639
691,00:00:02.764,-0.002710900269448753
692,00:00:02.768,0.015208550379611552
693,00:00:02.772,0.0021846673917025284
694,00:00:02.776,-0.0002300154883414507
695,00:00:02.78,0.009837681311182669
696,00:00:02.784,-0.01915802585426722
697,00:00:02.788,-0.03499617939814926
698,00:00:02.792,0.019069603411480777
699,00:00:02.796,0.1059141317382459
700,00:00:02.8,-0.042302693706005805
701,00:00:02.804,-0.0795259885489941
702,00:00:02.808,-0.02746136114001277
703,00:00:02.812,-0.0024952138774096792
704,00:00:02.816,0.075995652936399
705,00:00:02.82,0.026778918225318176
706,00:00:02.824,-0.002494711894541969
707,00:00:02.828,-0.02162571041844783
708,00:00:02.832,-0.00799973716493696
709,00:00:02.836,-0.019398966687731424
710,00:00:02.84,0.00614767812658102
711,00:00:02.844,0.0033943881280720217
712,00:00:02.848,-0.008115876698866532
713,00:00:02.852,0.01147354301065203
714,00:00:02.856,0.01746285054832697
715,00:00:02.86,-0.014991735108196739
716,00:00:02.864,-0.011310162488371129
717,00:00:02.868,0.006217774542164993
718,00:00:02.872,0.011234579840675
719,00:00:02.876,-0.01814793294761333
720,00:00:02.88,-0.00584430061280725
721,00:00:02.884,0.05640993529232225
722,00:00:02.888,-0.02013940447068311
723,00:00:02.892,-0.02901209832634777
724,00:00:02.896,-0.01271705375984308
725,00:00:02.9,-0.00410457863472403
726,00:00:02.904,0.05723943607881669
727,00:00:02.908,-0.010019628331065178
728,00:00:02.912,-0.03822539374232296
729,00:00:02.916,-0.014519773656502389
730,00:00:02.92,0.0066016407217830385
731,00:00:02.924,0.069797241827473
732,00:00:02.928,-0.006287937052547918
733,00:00:02.932,-0.04717161832377309
734,00:00:02.936,-0.02299911016598345
735,00:00:02.94,0.0007485067908419313
736,00:00:02.944,0.02026638854295015
737,00:00:02.948,0.036654269322753
738,00:00:02.952,0.012309359270147945
739,00:00:02.956,-0.0389908922370524
740,00:00:02.96,-0.01010391628369689
741,00:00:02.964,0.014405132969841312
742,00:00:02.968,-0.017224768409505445
743,00:00:02.972,0.010142419021576587
744,00:00:02.976,0.0069798198528587905
745,00:00:02.98,-0.011453842744231219
746,00:00:02.984,0.002947597182355849
747,00:00:02.988,0.008425518695730718
748,00:00:02.992,-0.0022026654332876197
749,00:00:02.996,-0.007912241620942919
750,00:00:03,0.01896312437020238
751,00:00:03.004,0.03397745260735975
752,00:00:03.008,-0.0397283136844635
753,00:00:03.012,-0.026365853846073088
754,00:00:03.016,-0.029400699771940764
755,00:00:03.02,0.004671306465752426
756,00:00:03.024,0.06285068765282636
757,00:00:03.028,0.019651658309157896
758,00:00:03.032,-0.01815789809916168
759,00:00:03.036,-0.031054258914082332
760,00:00:03.04,0.0122198479948565
761,00:00:03.044,0.007309319335035981
762,00:00:03.048,-0.012834781198762352
763,00:00:03.052,-0.007420337991789001
764,00:00:03.056,0.00424600031692534
765,00:00:03.06,0.01343499589711426
766,00:00:03.064,0.00105362012982369
767,00:00:03.068,-0.0016805584309622706
768,00:00:03.072,-0.009960487717762591
769,00:00:03.076,0.0025052794371731493
770,00:00:03.08,0.003341189818456769
771,00:00:03.084,-0.01156963943503793
772,00:00:03.088,-0.0037475344724952984
773,00:00:03.092,0.01799253281205892
774,00:00:03.096,0.0446443520486355
775,00:00:03.1,-0.04688684735447163
776,00:00:03.104,-0.010088839568197651
777,00:00:03.108,0.01937221980188042
778,00:00:03.112,-0.02581711008679121
779,00:00:03.116,-0.023857977823354352
780,00:00:03.12,0.01724090811330825
781,00:00:03.124,0.02121792722027751
782,00:00:03.128,0.025501736672595154
783,00:00:03.132,0.000729447754565622
784,00:00:03.136,-0.010385277681052688
785,00:00:03.14,-0.01583594921976332
786,00:00:03.144,-0.01609816215932369
787,00:00:03.148,0.00457535882014781
788,00:00:03.152,0.013467908094753511
789,00:00:03.156,-0.0038044717512093523
790,00:00:03.16,-0.006140502940979789
791,00:00:03.164,0.01266731263604013
792,00:00:03.168,0.020052235922776204
793,00:00:03.172,-0.0426052371039987
794,00:00:03.176,0.01521408231928948
795,00:00:03.18,0.04477616026997573
796,00:00:03.184,-0.030400190502405132
797,00:00:03.188,-0.031739421188831295
798,00:00:03.192,-0.013357015559449752
799,00:00:03.196,0.011793187033617852
800,00:00:03.2,0.03207835135981443
801,00:00:03.204,0.0065803185570984775
802,00:00:03.208,-0.01593401632271707
803,00:00:03.212,0.0016213342314586
804,00:00:03.216,-0.009998597204685222
805,00:00:03.22,0.008866018790286038
806,00:00:03.224,0.008806482874206267
807,00:00:03.228,0.00197616755031049
808,00:00:03.232,-0.01014527294319123
809,00:00:03.236,-0.008319242973811931
810,00:00:03.24,-4.48680366389461e-05
811,00:00:03.244,0.0028805047040805242
812,00:00:03.248,-0.0012661032378673606
813,00:00:03.252,-0.000611035386100407
814,00:00:03.256,0.003339980030432351
815,00:00:03.26,0.006597038009203959
816,00:00:03.264,0.015353556256741289
817,00:00:03.268,-0.0319766681641341
818,00:00:03.272,0.00020170662901364625
819,00:00:03.276,0.0476183025166393
820,00:00:03.28,-0.02743366014328786
821,00:00:03.284,-0.025361249689012773
822,00:00:03.288,0.01089961000252515
823,00:00:03.292,-0.01059340941719711
824,00:00:03.296,0.01257111236918715
825,00:00:03.3,0.00938633410260084
826,00:00:03.304,-0.003271452384069567
827,00:00:03.308,0.005924265831708899
828,00:00:03.312,-0.017666175495833193
829,00:00:03.316,0.0030760267400182727
830,00:00:03.32,0.02314660185948008
831,00:00:03.324,0.004311587079428131
832,00:00:03.328,-0.02076302841305733
833,00:00:03.332,-0.007856769021600481
834,00:00:03.336,0.012093981553334751
835,00:00:03.34,-0.01700966153293849
836,00:00:03.344,-0.008635891135781964
837,00:00:03.348,0.015832718141609813
838,00:00:03.352,0.00022305687889455882
839,00:00:03.356,0.0207494916394353
840,00:00:03.36,0.007874729111790692
841,00:00:03.364,-0.0260716825723648
842,00:00:03.368,0.029252616688609203
843,00:00:03.372,-0.002799336099997149
844,00:00:03.376,-0.03745629964396362
845,00:00:03.38,-0.04317218717187649
846,00:00:03.384,0.02848074818030002
847,00:00:03.388,0.03833853523246941
848,00:00:03.392,0.0076085510663687975
849,00:00:03.396,0.004080074140801998
850,00:00:03.4,-0.01884829881601035
851,00:00:03.404,-0.00785455311415713
852,00:00:03.408,0.01043691439554093
853,00:00:03.412,-0.00227318378165362
854,00:00:03.416,-0.004709118220489472
855,00:00:03.42,0.001665355812292546
856,00:00:03.424,-0.005598936782917
857,00:00:03.428,0.002836469095200296
858,00:00:03.432,0.0035149318864569003
859,00:00:03.436,-0.006775887166440954
860,00:00:03.44,0.00543677428504452
861,00:00:03.444,0.00731108989566564
862,00:00:03.448,-0.019483968848362558
863,00:00:03.452,0.016119057778269066
864,00:00:03.456,-0.0008200129959732693
865,00:00:03.46,0.018849629675969475
866,00:00:03.464,0.0054809171706438065
867,00:00:03.468,-0.0262540755793452
868,00:00:03.472,-0.007501112297177301
869,00:00:03.476,-0.01502321846783157
870,00:00:03.48,-0.00916110002435748
871,00:00:03.484,0.010643544839695093
872,00:00:03.488,0.02375639230012893
873,00:00:03.492,0.021793824154883592
874,00:00:03.496,-0.006183787714689918
875,00:00:03.5,-0.0024075114633888006
876,00:00:03.504,-0.014906479511410027
877,00:00:03.508,-0.013050710273091674
878,00:00:03.512,-0.0086510357214138
879,00:00:03.516,0.009499930136371423
880,00:00:03.52,0.02506868110503998
881,00:00:03.524,-0.012712262570858038
882,00:00:03.528,0.0069379438646137
883,00:00:03.532,0.0020184167660772367
884,00:00:03.536,-0.0011335352901369294
885,00:00:03.54,-0.021770517341792556
886,00:00:03.544,-0.0065529313869773995
887,00:00:03.548,0.02136936411261559
888,00:00:03.552,-0.00878580205608163
889,00:00:03.556,-0.020175285637378693
890,00:00:03.56,0.03810491319745779
891,00:00:03.564,0.01626563351601358
892,00:00:03.568,0.0024786067369859475
893,00:00:03.572,0.026272878167219467
894,00:00:03.576,-0.0779643282294273
895,00:00:03.58,-0.0443066470324993
896,00:00:03.584,0.008717458695173225
897,00:00:03.588,0.043301230296492604
898,00:00:03.592,0.03786253556609148
899,00:00:03.596,0.024991522775962942
900,00:00:03.6,-0.02317351079545917
901,00:00:03.604,-0.03428605105727917
902,00:00:03.608,-0.010906350449658929
903,00:00:03.612,0.013156921835616238
904,00:00:03.616,0.010807778686285007
905,00:00:03.62,-0.00403660489246249
906,00:00:03.624,-0.01644351624418054
907,00:00:03.628,0.024067051126621653
908,00:00:03.632,0.0044261659495532495
909,00:00:03.636,-0.018533419512095903
910,00:00:03.64,0.0018656442407518695
911,00:00:03.644,0.009189287666231349
912,00:00:03.648,0.00030304607935249025
913,00:00:03.652,0.0042025451548397185
914,00:00:03.656,-0.009914635447785192
915,00:00:03.66,-0.02694643521681423
916,00:00:03.664,0.0099034036975354
917,00:00:03.668,0.04084684420377013
918,00:00:03.672,-0.010393940377980441
919,00:00:03.676,-0.01464836612285576
920,00:00:03.68,-0.015494369901716742
921,00:00:03.684,0.0024869851768016815
922,00:00:03.688,0.01938729034736748
923,00:00:03.692,0.004180029034614561
924,00:00:03.696,0.0038264810573309703
925,00:00:03.7,-0.01615536864846944
926,00:00:03.704,0.00832049478776753
927,00:00:03.708,0.02018103189766405
928,00:00:03.712,-0.024494364857673687
929,00:00:03.716,-0.037190037044638316
930,00:00:03.72,0.0085376463830471
931,00:00:03.724,0.02887346735224134
932,00:00:03.728,0.00509153329767283
933,00:00:03.732,-0.00626250193454325
934,00:00:03.736,-0.011116978363134007
935,00:00:03.74,0.0761267310008407
936,00:00:03.744,0.0027040360728278704
937,00:00:03.748,-0.1072556478902698
938,00:00:03.752,-0.0557131515815855
939,00:00:03.756,0.056828696280717794
940,00:00:03.76,0.0807718485593796
941,00:00:03.764,0.004332519631134417
942,00:00:03.768,-0.023739144206047
943,00:00:03.772,-0.04033065680414433
944,00:00:03.776,-0.012924377340823408
945,00:00:03.78,0.007903432007879019
946,00:00:03.784,0.03024497395381323
947,00:00:03.788,0.01145874266512692
948,00:00:03.792,-0.011892195718246509
949,00:00:03.796,-0.010385635308921328
950,00:00:03.8,0.005612093256786488
951,00:00:03.804,0.01773429336026309
952,00:00:03.808,0.0028241622494533693
953,00:00:03.812,-0.03564951755106453
954,00:00:03.816,-0.0318762995302678
955,00:00:03.82,0.016844232566654675
956,00:00:03.824,0.0400381013751029
957,00:00:03.828,-0.0003932609688490612
958,00:00:03.832,-0.0073513413080946
959,00:00:03.836,0.00854786520358175
960,00:00:03.84,-0.0077434279955923505
961,00:00:03.844,-0.012395776808261878
962,00:00:03.848,0.02973899291828278
963,00:00:03.852,-0.00439220853149891
964,00:00:03.856,-0.08490380598232145
965,00:00:03.86,0.05627333931624887
966,00:00:03.864,0.06709285778924821
967,00:00:03.868,-0.04659498756518592
968,00:00:03.872,-0.043409663951024434
969,00:00:03.876,0.004619828891009089
970,00:00:03.88,0.021288337418809488
971,00:00:03.884,0.015571510419249552
972,00:00:03.888,0.00617056398186833
973,00:00:03.892,8.870847523220239e-06
974,00:00:03.896,-0.00819351442623884
975,00:00:03.9,-0.01402226532809436
976,00:00:03.904,0.010471316811162973
977,00:00:03.908,0.01387816108763219
978,00:00:03.912,-0.006977961253141989
979,00:00:03.916,-0.01943568210117517
980,00:00:03.92,-0.01540430588647727
981,00:00:03.924,0.005258055229205644
982,00:00:03.928,-5.5747572332620404e-05
983,00:00:03.932,0.030526675749570062
984,00:00:03.936,0.010654088575392951
985,00:00:03.94,0.020910244842525533
986,00:00:03.944,-0.02139821322634817
987,00:00:03.948,-0.05104263778775927
988,00:00:03.952,-0.016974003054201568
989,00:00:03.956,0.05427430151030428
990,00:00:03.96,0.0036043990403413686
991,00:00:03.964,-0.018182795029133517
992,00:00:03.968,0.040257279761135606
993,00:00:03.972,-0.02122494392096995
994,00:00:03.976,-0.03476227910141465
995,00:00:03.98,-0.0044491840526462096
996,00:00:03.984,0.020547949243336937
997,00:00:03.988,0.00719825690612196
998,00:00:03.992,0.019511857186444152
999,00:00:03.996,0.014312834478914759
1000,00:00:04,-0.026525465771555918
1001,00:00:04.004,-0.02901278156787153
1002,00:00:04.008,0.006357307254802387
1003,00:00:04.012,0.01683315417176348
1004,00:00:04.016,-0.002663059392943979
1005,00:00:04.02,-0.011057186202378938
1006,00:00:04.024,0.0008164393948391206
1007,00:00:04.028,0.02188863279297948
1008,00:00:04.032,-0.0085594310658053
1009,00:00:04.036,0.02520298585295673
1010,00:00:04.04,0.01590860309079295
1011,00:00:04.044,-0.0400171894580125
1012,00:00:04.048,-0.06551495753228669
1013,00:00:04.052,0.017132098786532837
1014,00:00:04.056,0.0746089778840541
1015,00:00:04.06,0.0005548852495849115
1016,00:00:04.064,-0.03328980982769277
1017,00:00:04.068,-0.0006368960021063694
1018,00:00:04.072,-0.00957993592601269
1019,00:00:04.076,0.005247904220595962
1020,00:00:04.08,0.011521463806275285
1021,00:00:04.084,0.00029579550027847854
1022,00:00:04.088,0.01381442090496419
1023,00:00:04.092,0.01116704859305177
1024,00:00:04.096,-0.02046062983572488
1025,00:00:04.1,-0.04755720030516394
1026,00:00:04.104,0.01568735577166079
1027,00:00:04.108,0.02959207864478233
1028,00:00:04.112,-0.0214748922735452
1029,00:00:04.116,0.0093039898201824
1030,00:00:04.12,0.0880018300376832
1031,00:00:04.124,-0.04646895278710871
1032,00:00:04.128,-0.08317302167415619
1033,00:00:04.132,-0.013002797961235088
1034,00:00:04.136,0.041240673977881656
1035,00:00:04.14,0.04739093827083703
1036,00:00:04.144,-0.03207302815280852
1037,00:00:04.148,0.026302984770154532
1038,00:00:04.152,0.036659958539530635
1039,00:00:04.156,-0.050353238824754926
1040,00:00:04.16,-0.05452489096205679
1041,00:00:04.164,-0.00618269387632608
1042,00:00:04.168,0.07259369152598083
1043,00:00:04.172,0.0036606052890419986
1044,00:00:04.176,-0.024223932065069637
1045,00:00:04.18,-0.017429900355637053
1046,00:00:04.184,0.0125958874123171
1047,00:00:04.188,0.01355833094567056
1048,00:00:04.192,0.004504763055592779
1049,00:00:04.196,0.004709823711891662
1050,00:00:04.2,-0.008381304331123858
1051,00:00:04.204,-0.022027592291124193
1052,00:00:04.208,0.004544019931927321
1053,00:00:04.212,-0.005042947130277749
1054,00:00:04.216,0.00668492633849382
1055,00:00:04.22,0.012831190717406571
1056,00:00:04.224,-0.005103477742522951
1057,00:00:04.228,0.01539975032210351
1058,00:00:04.232,-0.01839709474734265
1059,00:00:04.236,-0.01360850222408779
1060,00:00:04.24,0.047790247714146986
1061,00:00:04.244,-0.049148720689117936
1062,00:00:04.248,0.016884650103747807
1063,00:00:04.252,0.012760891462676269
1064,00:00:04.256,-0.00819194503128529
1065,00:00:04.26,-0.01644844142720099
1066,00:00:04.264,-0.01291963178664447
1067,00:00:04.268,0.010270389728248138
1068,00:00:04.272,0.0288902493193746
1069,00:00:04.276,-0.00296836660709232
1070,00:00:04.28,-0.005961428745649757
1071,00:00:04.284,-0.01247692899778484
1072,00:00:04.288,0.01665917830541726
1073,00:00:04.292,0.007163663685787467
1074,00:00:04.296,-0.004228267120197421
1075,00:00:04.3,-0.017556217440869663
1076,00:00:04.304,-0.0143841607496142
1077,00:00:04.308,-0.0013813368277624302
1078,00:00:04.312,0.020862015895545493
1079,00:00:04.316,0.00519814528524873
1080,00:00:04.32,-0.0062044031801633545
1081,00:00:04.324,0.0004495723405852914
1082,00:00:04.328,0.02404709672555327
1083,00:00:04.332,-0.02353409281931813
1084,00:00:04.336,-0.01867565489374102
1085,00:00:04.34,-0.009366632439196153
1086,00:00:04.344,0.07873641792684795
1087,00:00:04.348,0.0175648704171181
1088,00:00:04.352,-0.08276873244903975
1089,00:00:04.356,-0.0643257787451148
1090,00:00:04.36,0.02820461802184581
1091,00:00:04.364,0.09464351972565052
1092,00:00:04.368,-0.01790680550038815
1093,00:00:04.372,-0.0247709169052541
1094,00:00:04.376,-0.011770423618145311
1095,00:00:04.38,-0.00080992432776837
1096,00:00:04.384,-0.0011557837715372391
1097,00:00:04.388,0.018085767515003653
1098,00:00:04.392,0.025561264948919412
1099,00:00:04.396,0.0016455377917736803
1100,00:00:04.4,-0.027328658383339657
1101,00:00:04.404,-0.022709987126290854
1102,00:00:04.408,-0.01279434247408057
1103,00:00:04.412,0.0023224603792186813
1104,00:00:04.416,0.0099996475037187
1105,00:00:04.42,0.023715876508504187
1106,00:00:04.424,0.02536110999062653
1107,00:00:04.428,-0.007045268546789952
1108,00:00:04.432,-0.0293712764978409
1109,00:00:04.436,0.008972345385700478
1110,00:00:04.44,0.0656982213258743
1111,00:00:04.444,-0.10950499121099722
1112,00:00:04.448,-0.037587041035294505
1113,00:00:04.452,0.06282294820994143
1114,00:00:04.456,0.00394377019256349
1115,00:00:04.46,0.026838234480237533
1116,00:00:04.464,0.09766485309228298
1117,00:00:04.468,-0.09742714674212018
1118,00:00:04.472,-0.07250939226651094
1119,00:00:04.476,0.010384765628259622
1120,00:00:04.48,0.01175711210817094
1121,00:00:04.484,0.04615870025008914
1122,00:00:04.488,0.024145754519850054
1123,00:00:04.492,-0.02357106911949816
1124,00:00:04.496,-0.010442997328937048
1125,00:00:04.5,-0.00460394937545064
1126,00:00:04.504,-0.003516302967909718
1127,00:00:04.508,0.00036110682412981965
1128,00:00:04.512,0.011216133367270238
1129,00:00:04.516,-0.013047535059740767
1130,00:00:04.52,-0.007198826759122366
1131,00:00:04.524,0.02839202480390664
1132,00:00:04.528,-0.00876982300542292
1133,00:00:04.532,-0.03473081055562939
1134,00:00:04.536,0.0781890600919724
1135,00:00:04.54,0.01010181521996854
1136,00:00:04.544,-0.0808342155069113
1137,00:00:04.548,-0.04163029324263341
1138,00:00:04.552,0.03215117123909293
1139,00:00:04.556,0.044741760939359665
1140,00:00:04.56,-0.008177687879651781
1141,00:00:04.564,0.006210475170519203
1142,00:00:04.568,0.00458683376200494
1143,00:00:04.572,-0.01433289493434134
1144,00:00:04.576,-0.01526498864404855
1145,00:00:04.58,0.006203637458384047
1146,00:00:04.584,0.03523105219937852
1147,00:00:04.588,0.019548069685697597
1148,00:00:04.592,-0.051194282714277506
1149,00:00:04.596,-0.03524055029265575
1150,00:00:04.6,0.00577314011752606
1151,00:00:04.604,0.015418632261571513
1152,00:00:04.608,0.01257292483933269
1153,00:00:04.612,0.00858991593122476
1154,00:00:04.616,0.00366707216016947
1155,00:00:04.62,0.07630191370844841
1156,00:00:04.624,-0.034287995193153634
1157,00:00:04.628,-0.0761790871620179
1158,00:00:04.632,-0.0668874122202397
1159,00:00:04.636,0.041146003408357515
1160,00:00:04.64,0.08388431556522849
1161,00:00:04.644,0.01845375704579055
1162,00:00:04.648,-0.025875569321215108
1163,00:00:04.652,-0.030926502699003277
1164,00:00:04.656,-0.0081478669308126
1165,00:00:04.66,0.011366516351699829
1166,00:00:04.664,0.0029684595065191497
1167,00:00:04.668,0.0077524565858766445
1168,00:00:04.672,0.0037731220945715904
1169,00:00:04.676,-0.016102529363706687
1170,00:00:04.68,-0.015576661564409688
1171,00:00:04.684,0.047424589516595034
1172,00:00:04.688,-0.0035066262935288667
1173,00:00:04.692,-0.04647446190938351
1174,00:00:04.696,-0.012217517942190136
1175,00:00:04.7,0.0744146546348929
1176,00:00:04.704,-0.018728351918980472
1177,00:00:04.708,-0.037705556547734914
1178,00:00:04.712,-0.022348266094923
1179,00:00:04.716,0.04903340968303376
1180,00:00:04.72,0.03360892401542516
1181,00:00:04.724,-0.0194553122855723
1182,00:00:04.728,-0.03761048242449756
1183,00:00:04.732,-0.01929261581972246
1184,00:00:04.736,0.01840641070157286
1185,00:00:04.74,0.011082147248089282
1186,00:00:04.744,0.02017280925065281
1187,00:00:04.748,0.02539864368736744
1188,00:00:04.752,-0.034926252905279426
1189,00:00:04.756,-0.02511727623641488
1190,00:00:04.76,0.01556265901308502
1191,00:00:04.764,0.0038755252026021402
1192,00:00:04.768,-0.008792988024652
1193,00:00:04.772,0.0007138086948543798
1194,00:00:04.776,0.01033690711483359
1195,00:00:04.78,0.00831750966608521
1196,00:00:04.784,-0.00443600537255405
1197,00:00:04.788,-0.010184405837208
1198,00:00:04.792,0.002834166418324455
1199,00:00:04.796,0.00546636292710905
1200,00:00:04.8,0.00066857156343764
1201,00:00:04.804,-0.01136705593671655
1202,00:00:04.808,0.012600791640579692
1203,00:00:04.812,-0.00741989860836156
1204,00:00:04.816,-0.03285846021026369
1205,00:00:04.82,0.057352382689714494
1206,00:00:04.824,-0.003831842215731721
1207,00:00:04.828,-0.0344236511737108
1208,00:00:04.832,0.031412985175848
1209,00:00:04.836,-0.003198435064405201
1210,00:00:04.84,-0.03686723229475315
1211,00:00:04.844,0.0009994825813919306
1212,00:00:04.848,0.017642654245719258
1213,00:00:04.852,0.01832774514332407
1214,00:00:04.856,0.004457870498299699
1215,00:00:04.86,-0.010951592004857959
1216,00:00:04.864,-0.01239912642631677
1217,00:00:04.868,0.0020741247572005402
1218,00:00:04.872,-0.0028286197921261096
1219,00:00:04.876,-0.01372212450951338
1220,00:00:04.88,0.03017570567317314
1221,00:00:04.884,0.007794771809130881
1222,00:00:04.888,-0.014686418873480989
1223,00:00:04.892,-0.014870707527734289
1224,00:00:04.896,0.015319777652621262
1225,00:00:04.9,0.0047363508492708015
1226,00:00:04.904,-0.0033059911802411092
1227,00:00:04.908,-0.0015503251925111
1228,00:00:04.912,-0.014080180670134687
1229,00:00:04.916,-0.002211691578850153
1230,00:00:04.92,-0.012587923556566238
1231,00:00:04.924,0.02144595328718419
1232,00:00:04.928,0.056858715426642524
1233,00:00:04.932,-0.02599789621308451
1234,00:00:04.936,-0.0378245586180129
1235,00:00:04.94,-0.0024630252737551893
1236,00:00:04.944,-0.013028225628659141
1237,00:00:04.948,0.02225390227977188
1238,00:00:04.952,0.016587520949542578
1239,00:00:04.956,-0.02518171945121146
1240,00:00:04.96,-0.0007314574904740204
1241,00:00:04.964,0.023792649386450627
1242,00:00:04.968,0.0032871316652745013
1243,00:00:04.972,-0.00943463388830424
1244,00:00:04.976,0.00993883050978186
1245,00:00:04.98,-0.01056876289658245
1246,00:00:04.984,-0.01248082658275958
1247,00:00:04.988,0.009145972668193279
1248,00:00:04.992,-0.005220642779022481
1249,00:00:04.996,0.013906063511967682
1250,00:00:05,-0.015373324131360321
1251,00:00:05.004,-0.014648880372988017
1252,00:00:05.008,0.01195157715119425
1253,00:00:05.012,0.002313522854819892
1254,00:00:05.016,0.018956426894874305
1255,00:00:05.02,0.010561344912275667
1256,00:00:05.024,-0.010967690963298062
1257,00:00:05.028,0.01620110496878619
1258,00:00:05.032,-0.02802893752232195
1259,00:00:05.036,-0.02457328885793685
1260,00:00:05.04,0.007105002179741792
1261,00:00:05.044,0.0025357685517519817
1262,00:00:05.048,0.009784588153706867
1263,00:00:05.052,0.0054854068439453875
1264,00:00:05.056,0.010869899779208993
1265,00:00:05.06,0.00287860864773392
1266,00:00:05.064,-0.015271500567905596
1267,00:00:05.068,-0.00181598332710569
1268,00:00:05.072,0.010697504505515092
1269,00:00:05.076,-0.00575274438597262
1270,00:00:05.08,-0.010138540412299326
1271,00:00:05.084,0.006739991949871181
1272,00:00:05.088,-0.002491566090611745
1273,00:00:05.092,-0.003934808308258649
1274,00:00:05.096,0.01974381925538186
1275,00:00:05.1,0.01994383009150626
1276,00:00:05.104,-0.031474185994738946
1277,00:00:05.108,-0.027115495176985898
1278,00:00:05.112,0.00297575234435498
1279,00:00:05.116,0.022556230425834697
1280,00:00:05.12,0.002893862780183549
1281,00:00:05.124,0.0367079293355346
1282,00:00:05.128,0.012391434982419
1283,00:00:05.132,-0.05123465694487091
1284,00:00:05.136,-0.06414223718456925
1285,00:00:05.14,0.011427825782448012
1286,00:00:05.144,0.05415804591029879
1287,00:00:05.148,0.01323614455759526
1288,00:00:05.152,0.011178179032867752
1289,00:00:05.156,0.006177306640893219
1290,00:00:05.16,-0.021315568592399328
1291,00:00:05.164,-0.01274840952828523
1292,00:00:05.168,0.0019758914131671208
1293,00:00:05.172,-0.019025259651243687
1294,00:00:05.176,-0.00411127647385002
1295,00:00:05.18,0.01323743211105465
1296,00:00:05.184,0.02369282953441143
1297,00:00:05.188,0.015137073351070281
1298,00:00:05.192,-0.01833777735009789
1299,00:00:05.196,-0.009207334369421005
1300,00:00:05.2,-0.013726077158935368
1301,00:00:05.204,-0.002590604097349573
1302,00:00:05.208,0.01518445787951346
1303,00:00:05.212,-0.002713217400014352
1304,00:00:05.216,-0.01713755412492901
1305,00:00:05.22,0.07344906684011224
1306,00:00:05.224,-0.01930512022227045
1307,00:00:05.228,-0.04672075202688575
1308,00:00:05.232,-0.0211782854457852
1309,00:00:05.236,0.005436517531052231
1310,00:00:05.24,0.01197636406868694
1311,00:00:05.244,0.01863136724568908
1312,00:00:05.248,0.021073246345622486
1313,00:00:05.252,-0.005327333114109931
1314,00:00:05.256,-0.01181465375702828
1315,00:00:05.26,0.0037974473088979712
1316,00:00:05.264,-0.020995905622839928
1317,00:00:05.268,-0.00249868608079851
1318,00:00:05.272,0.01939668250270189
1319,00:00:05.276,0.00042088411282747897
1320,00:00:05.28,-0.004991793364752084
1321,00:00:05.284,-0.016252373636234545
1322,00:00:05.288,0.013117500697262589
1323,00:00:05.292,0.019629533402621774
1324,00:00:05.296,-0.00638867320958524
1325,00:00:05.3,-0.01815411960706114
1326,00:00:05.304,-0.018015970475971692
1327,00:00:05.308,0.022161070170113793
1328,00:00:05.312,-0.00328780119889415
1329,00:00:05.316,0.054911371786147384
1330,00:00:05.32,-0.007056924514472459
1331,00:00:05.324,-0.06088343029841783
1332,00:00:05.328,-0.04340881644748153
1333,00:00:05.332,0.02291812025941912
1334,00:00:05.336,0.026216454338282368
1335,00:00:05.34,0.06027184566482894
1336,00:00:05.344,0.0012619527587958098
1337,00:00:05.348,-0.039033416658639894
1338,00:00:05.352,-0.013663839548826242
1339,00:00:05.356,-0.01286570867523551
1340,00:00:05.36,0.0033925874158739983
1341,00:00:05.364,0.004336250945925709
1342,00:00:05.368,0.00889701396226883
1343,00:00:05.372,0.01251103729009629
1344,00:00:05.376,-0.00234318966977298
1345,00:00:05.38,-0.01107314915861939
1346,00:00:05.384,-0.00767317833378911
1347,00:00:05.388,-0.0029557610396295803
1348,00:00:05.392,-0.00650507770478727
1349,00:00:05.396,0.02908882824704047
1350,00:00:05.4,0.02252113539725542
1351,00:00:05.404,0.0065381969325244505
1352,00:00:05.408,-0.029378800187259885
1353,00:00:05.412,-0.043899888172745705
1354,00:00:05.416,0.00785089260898526
1355,00:00:05.42,-0.0016402672044932808
1356,00:00:05.424,0.03473121160641307
1357,00:00:05.428,0.01758714893367141
1358,00:00:05.432,-0.017804568051360596
1359,00:00:05.436,-0.012410545663442463
1360,00:00:05.44,-0.00419984012842179
1361,00:00:05.444,0.01253819698467851
1362,00:00:05.448,0.009446158655919103
1363,00:00:05.452,-0.00954666244797409
1364,00:00:05.456,-0.0037561316712526644
1365,00:00:05.46,0.0031741999555379105
1366,00:00:05.464,-0.013975582260172818
1367,00:00:05.468,-0.002943068160675468
1368,00:00:05.472,0.03514437470585105
1369,00:00:05.476,0.005859410157427192
1370,00:00:05.48,-0.026203345041722028
1371,00:00:05.484,-0.02412598882801826
1372,00:00:05.488,-0.01365648768842218
1373,00:00:05.492,0.0014142433064989832
1374,00:00:05.496,0.11433581262826881
1375,00:00:05.5,0.006134823430329599
1376,00:00:05.504,-0.11207947880029628
1377,00:00:05.508,-0.014605904929339828
1378,00:00:05.512,0.00434119231067598
1379,00:00:05.516,0.011639294447377352
1380,00:00:05.52,0.039934587897732826
1381,00:00:05.524,0.011714484076946988
1382,00:00:05.528,-0.00780718447640535
1383,00:00:05.532,-0.00992979831062258
1384,00:00:05.536,-0.00620528077706695
1385,00:00:05.54,-0.008300872053951028
1386,00:00:05.544,-0.00608874368481334
1387,00:00:05.548,0.00757169770076872
1388,00:00:05.552,0.02312195161357522
1389,00:00:05.556,-0.02214806678239261
1390,00:00:05.56,-0.0023478621151298198
1391,00:00:05.564,0.00948575988877564
1392,00:00:05.568,0.0013048130786046399
1393,00:00:05.572,0.021569707780145157
1394,00:00:05.576,-0.03144411789253354
1395,00:00:05.58,-0.00887903058901429
1396,00:00:05.584,0.02944561233744028
1397,00:00:05.588,-0.02135045349132265
1398,00:00:05.592,-0.00943907909095284
1399,00:00:05.596,0.008908361662179232
1400,00:00:05.6,0.006746617611497607
1401,00:00:05.604,-0.0009342869743704796
1402,00:00:05.608,0.03331341175362465
1403,00:00:05.612,-0.015192991122603399
1404,00:00:05.616,-0.03597499988973141
1405,00:00:05.62,0.00331357843242586
1406,00:00:05.624,0.017331602633930746
1407,00:00:05.628,0.0011756299063563395
1408,00:00:05.632,0.00687786587513983
1409,00:00:05.636,0.0022143539972603104
1410,00:00:05.64,-0.01364562194794416
1411,00:00:05.644,-0.01850016042590141
1412,00:00:05.648,0.01297295209951699
1413,00:00:05.652,0.0185418943874537
1414,00:00:05.656,-0.0006664544343948382
1415,00:00:05.66,-0.00632244814187288
1416,00:00:05.664,0.011455128900706768
1417,00:00:05.668,-0.011445227079093491
1418,00:00:05.672,-0.04524985747411853
1419,00:00:05.676,0.03367144917137925
1420,00:00:05.68,0.050515026785433306
1421,00:00:05.684,-0.03187886439263822
1422,00:00:05.688,-0.03885118849575521
1423,00:00:05.692,-0.00030789989978069823
1424,00:00:05.696,0.028950808569789002
1425,00:00:05.7,0.023289985954761602
1426,00:00:05.704,-0.011117956484667919
1427,00:00:05.708,-0.0014607142657042
1428,00:00:05.712,-0.009620072785764893
1429,00:00:05.716,-0.010099342442117637
1430,00:00:05.72,-0.0067997908918187
1431,00:00:05.724,0.007716283755144101
1432,00:00:05.728,0.0050881642382592
1433,00:00:05.732,0.0067507488420233104
1434,00:00:05.736,0.007238263497129099
1435,00:00:05.74,0.0032827074173837904
1436,00:00:05.744,-0.016525465995073298
1437,00:00:05.748,-0.010212802793830592
1438,00:00:05.752,0.011131895706057483
1439,00:00:05.756,-0.007038401439786041
1440,00:00:05.76,-0.030355917057022508
1441,00:00:05.764,0.08745977142825725
1442,00:00:05.768,0.010131378192454528
1443,00:00:05.772,-0.06351652368903161
1444,00:00:05.776,-0.03897340781986709
1445,00:00:05.78,0.006576188839971979
1446,00:00:05.784,0.015537298750132319
1447,00:00:05.788,0.02041772205848249
1448,00:00:05.792,0.027636264916509348
1449,00:00:05.796,-0.0049922931939363506
1450,00:00:05.8,-0.0077567670959979304
1451,00:00:05.804,-0.01682000863365829
1452,00:00:05.808,-0.006955253076739606
1453,00:00:05.812,0.0030168110970407802
1454,00:00:05.816,0.004774693574290721
1455,00:00:05.82,0.0030727218836545996
1456,00:00:05.824,0.007003872655332091
1457,00:00:05.828,-0.0066559624974615855
1458,00:00:05.832,-0.0143792883027345
1459,00:00:05.836,0.0003345664590597404
1460,00:00:05.84,0.023114506155252495
1461,00:00:05.844,-0.0010070677381008326
1462,00:00:05.848,-0.0009639891795814402
1463,00:00:05.852,-0.027745328843593695
1464,00:00:05.856,-0.0028435767162591197
1465,00:00:05.86,0.04465453024022279
1466,00:00:05.864,-0.001678597182035448
1467,00:00:05.868,0.025762425968423527
1468,00:00:05.872,-0.04790007864357897
1469,00:00:05.876,-0.0385928004980087
1470,00:00:05.88,-0.014044403098523593
1471,00:00:05.884,0.02219762874301524
1472,00:00:05.888,0.0391441388055683
1473,00:00:05.892,0.027165069244802095
1474,00:00:05.896,0.0006915868143551019
1475,00:00:05.9,-0.01883487310260535
1476,00:00:05.904,-0.03205762454308571
1477,00:00:05.908,0.001275389135116716
1478,00:00:05.912,0.02191819157451389
1479,00:00:05.916,-0.007039999298285696
1480,00:00:05.92,-0.0101302076363936
1481,00:00:05.924,-0.00325744901783764
1482,00:00:05.928,0.007742109184619032
1483,00:00:05.932,0.004480272531509399
1484,00:00:05.936,0.004082157742232081
1485,00:00:05.94,0.033581987721845466
1486,00:00:05.944,-0.010971301235258609
1487,00:00:05.948,-0.04228049260564147
1488,00:00:05.952,-0.032358891330659355
1489,00:00:05.956,0.04632426844909786
1490,00:00:05.96,0.027365428861230678
1491,00:00:05.964,-0.036560859996825436
1492,00:00:05.968,-0.01420881622470917
1493,00:00:05.972,0.020331318723037867
1494,00:00:05.976,0.03768176818266511
1495,00:00:05.98,0.0064528889488428805
1496,00:00:05.984,-0.050859295763075296
1497,00:00:05.988,-0.008302868111059071
1498,00:00:05.992,0.00409911258611828
1499,00:00:05.996,0.016257114097243175
1500,00:00:06,0.0010426361113786801
1501,00:00:06.004,0.005555167561396931
1502,00:00:06.008,-0.0032700515293981845
1503,00:00:06.012,-0.0037242736434564116
1504,00:00:06.016,-0.005699879831809084
1505,00:00:06.02,0.01472716266289353
1506,00:00:06.024,0.0008175452239812006
1507,00:00:06.028,-0.010737001139204897
1508,00:00:06.032,-0.01745301997289061
1509,00:00:06.036,-0.002744564320892099
1510,00:00:06.04,0.030468735785689236
1511,00:00:06.044,0.04277014313265687
1512,00:00:06.048,-0.05969028454273944
1513,00:00:06.052,-0.01077896449714904
1514,00:00:06.056,0.00729373237118122
1515,00:00:06.06,0.0032147141173482097
1516,00:00:06.064,0.007108137793693454
1517,00:00:06.068,0.011614190414547941
1518,00:00:06.072,-0.008504140481818473
1519,00:00:06.076,-0.006687173619866416
1520,00:00:06.08,-0.0002626654313644377
1521,00:00:06.084,0.007746513932943349
1522,00:00:06.088,-0.00021546753123401902
1523,00:00:06.092,0.01295141130685807
1524,00:00:06.096,-0.008493377885315583
1525,00:00:06.1,-0.019606595393270247
1526,00:00:06.104,0.00640080403536558
1527,00:00:06.108,-0.0006440838333219095
1528,00:00:06.112,-0.00034568214323371
1529,00:00:06.116,-0.002310672774910901
1530,00:00:06.12,-0.011670657433569449
1531,00:00:06.124,0.07149830693379045
1532,00:00:06.128,-0.010252113454043817
1533,00:00:06.132,-0.030738123226910774
1534,00:00:06.136,-0.04887508647516369
1535,00:00:06.14,0.0013343449681997386
1536,00:00:06.144,0.02230702713131901
1537,00:00:06.148,0.029799621377605928
1538,00:00:06.152,0.00875456345966086
1539,00:00:06.156,-0.02382507105357948
1540,00:00:06.16,-0.01341147592756897
1541,00:00:06.164,0.013107222272083201
1542,00:00:06.168,0.017224878421984627
1543,00:00:06.172,-0.0024410542100667997
1544,00:00:06.176,-0.01432423060759902
1545,00:00:06.18,-0.01309431833215057
1546,00:00:06.184,0.005760564083175246
1547,00:00:06.188,0.012575748667586598
1548,00:00:06.192,0.008866862975992231
1549,00:00:06.196,-0.01952523365616798
1550,00:00:06.2,-0.00572943780571222
1551,00:00:06.204,0.006673370022326692
1552,00:00:06.208,0.0057013947516679694
1553,00:00:06.212,0.02030952833592889
1554,00:00:06.216,-0.014817344024777378
1555,00:00:06.22,-0.0330386273562908
1556,00:00:06.224,0.043255174998193924
1557,00:00:06.228,-0.01634623343124991
1558,00:00:06.232,0.01655782107263805
1559,00:00:06.236,-0.007797987316735105
1560,00:00:06.24,-0.02343954052776102
1561,00:00:06.244,-0.00608855008613319
1562,00:00:06.248,0.0016592525644227893
1563,00:00:06.252,0.013905659841839228
1564,00:00:06.256,0.01752356556244199
1565,00:00:06.26,0.0020050515886396187
1566,00:00:06.264,-0.0029752042610198216
1567,00:00:06.268,0.01039588544517751
1568,00:00:06.272,-0.021707054926082513
1569,00:00:06.276,-0.03091530455276367
1570,00:00:06.28,0.03707342472625899
1571,00:00:06.284,-0.003792482020799066
1572,00:00:06.288,-0.020576917566359106
1573,00:00:06.292,0.00621708296239376
1574,00:00:06.296,0.019950492773205063
1575,00:00:06.3,0.0221182694658637
1576,00:00:06.304,-0.00877286272589119
1577,00:00:06.308,-0.029385549481958182
1578,00:00:06.312,-0.016901674680411802
1579,00:00:06.316,0.00557223008945586
1580,00:00:06.32,0.0040999394841492185
1581,00:00:06.324,0.046902245376259075
1582,00:00:06.328,0.005850137677043679
1583,00:00:06.332,-0.02833491307683293
1584,00:00:06.336,-0.03473326517269017
1585,00:00:06.34,0.0022742321598343542
1586,00:00:06.344,2.1878397092219264e-05
1587,00:00:06.348,0.02015357045456767
1588,00:00:06.352,0.01645863079465923
1589,00:00:06.356,0.006691765054711136
1590,00:00:06.36,-0.009142933762632319
1591,00:00:06.364,-7.128197466954762e-05
1592,00:00:06.368,-0.015526328235864641
1593,00:00:06.372,-0.012722602346912028
1594,00:00:06.376,0.020289668813347796
1595,00:00:06.38,-0.01564620854333046
1596,00:00:06.384,-0.0005251375259831595
1597,00:00:06.388,0.04114048869814719
1598,00:00:06.392,-0.00025133346207439986
1599,00:00:06.396,-0.0123639833182096
1600,00:00:06.4,-0.02996834320947531
1601,00:00:06.404,-0.004789439262822221
1602,00:00:06.408,-0.00784775777719912
1603,00:00:06.412,0.006213740096427537
1604,00:00:06.416,0.031532447319477824
1605,00:00:06.42,0.0040454277768731
1606,00:00:06.424,0.0017730591353028197
1607,00:00:06.428,0.0034288954921066882
1608,00:00:06.432,-0.02421391475945711
1609,00:00:06.436,-0.007317404262721559
1610,00:00:06.44,0.002996413284563456
1611,00:00:06.444,0.006444814847782261
1612,00:00:06.448,0.00929741095751524
1613,00:00:06.452,0.00425553694367408
1614,00:00:06.456,-0.00791026756633073
1615,00:00:06.46,-0.0093120101373643
1616,00:00:06.464,0.0038270941004157097
1617,00:00:06.468,-0.00874469292466532
1618,00:00:06.472,0.01238564588129525
1619,00:00:06.476,-0.022803508909419182
1620,00:00:06.48,0.0061627447721548465
1621,00:00:06.484,0.10698105115443511
1622,00:00:06.488,-0.04417169000953437
1623,00:00:06.492,-0.0970238503068686
1624,00:00:06.496,-0.01788740418851373
1625,00:00:06.5,0.041513140706228996
1626,00:00:06.504,0.0395781686529517
1627,00:00:06.508,0.0033937645839614543
1628,00:00:06.512,-0.0020448499126359803
1629,00:00:06.516,-0.009847540874034168
1630,00:00:06.52,0.001796056574676181
1631,00:00:06.524,0.0031629891600459896
1632,00:00:06.528,-0.018795204603520722
1633,00:00:06.532,-0.00010791480235639008
1634,00:00:06.536,0.020027792663313407
1635,00:00:06.54,-0.00295995874330401
1636,00:00:06.544,-0.021877520484849842
1637,00:00:06.548,-0.021601657383143888
1638,00:00:06.552,0.020152634242549497
1639,00:00:06.556,0.05188342463225125
1640,00:00:06.56,-0.023739880998618887
1641,00:00:06.564,-0.005178817897103725
1642,00:00:06.568,0.02331452781800181
1643,00:00:06.572,-0.0033997022546828
1644,00:00:06.576,-0.0549818929284811
1645,00:00:06.58,-0.04384756414219733
1646,00:00:06.584,0.034778518602251965
1647,00:00:06.588,0.02224284491967411
1648,00:00:06.592,0.04162227921187879
1649,00:00:06.596,0.03576270001940423
1650,00:00:06.6,-0.013412729604169732
1651,00:00:06.604,-0.04294601595029239
1652,00:00:06.608,-0.04076571855694053
1653,00:00:06.612,-0.005080387927591804
1654,00:00:06.616,0.00585345202125609
1655,00:00:06.62,0.02209073887206617
1656,00:00:06.624,0.027559597976505708
1657,00:00:06.628,0.021015498670749345
1658,00:00:06.632,-0.011954736895859231
1659,00:00:06.636,-0.009251002280507289
1660,00:00:06.64,-0.023557163774967253
1661,00:00:06.644,-0.018427854403853458
1662,00:00:06.648,-0.018706445611314838
1663,00:00:06.652,0.00539322174154222
1664,00:00:06.656,0.06116918732004699
1665,00:00:06.66,0.03050312213599679
1666,00:00:06.664,9.643891826272878e-05
1667,00:00:06.668,-0.06487769633531569
1668,00:00:06.672,-0.023850606754422188
1669,00:00:06.676,0.00649651512503621
1670,00:00:06.68,0.02721733157522973
1671,00:00:06.684,0.00253142812289297
1672,00:00:06.688,0.004796271212399032
1673,00:00:06.692,0.00899653322994709
1674,00:00:06.696,0.0017641055164858658
1675,00:00:06.7,-0.015763989067636423
1676,00:00:06.704,-0.002147169754607599
1677,00:00:06.708,0.0019976955372840196
1678,00:00:06.712,-0.00867153878789395
1679,00:00:06.716,-0.008591603895183656
1680,00:00:06.72,0.010596836946206212
1681,00:00:06.724,0.00972458464093506
1682,00:00:06.728,0.01142838736996055
1683,00:00:06.732,-0.00998737162444742
1684,00:00:06.736,0.004146602004766478
1685,00:00:06.74,0.007564827177816365
1686,00:00:06.744,-0.0035365968942642195
1687,00:00:06.748,-0.031147988513112075
1688,00:00:06.752,-0.0270073760766536
1689,00:00:06.756,0.006585950730368521
1690,00:00:06.76,0.078766519203782
1691,00:00:06.764,0.02424441455514167
1692,00:00:06.768,-0.0638658767566085
1693,00:00:06.772,-0.015075283125042995
1694,00:00:06.776,-0.00429254413029412
1695,00:00:06.78,-0.011357548413798138
1696,00:00:06.784,0.016543861245736438
1697,00:00:06.788,0.03059942127583778
1698,00:00:06.792,0.00313029764220119
1699,00:00:06.796,-0.01889910129830242
1700,00:00:06.8,0.008422242477536198
1701,00:00:06.804,-0.0014144079759716996
1702,00:00:06.808,-0.002472145948559051
1703,00:00:06.812,-0.03282017027959227
1704,00:00:06.816,0.009836833807639743
1705,00:00:06.82,0.058091589249670526
1706,00:00:06.824,-0.024114538449794054
1707,00:00:06.828,-0.03642929019406438
1708,00:00:06.832,-0.006807696539908641
1709,00:00:06.836,0.016253472276730508
1710,00:00:06.84,0.020503535401076044
1711,00:00:06.844,0.0032312273979186595
1712,00:00:06.848,-0.01960626128129663
1713,00:00:06.852,0.015532864257693239
1714,00:00:06.856,0.0034071160480381012
1715,00:00:06.86,-0.012485943734645798
1716,00:00:06.864,-0.015040241181850449
1717,00:00:06.868,0.005263241939246636
1718,00:00:06.872,0.03656706959009176
1719,00:00:06.876,-0.015490409510675797
1720,00:00:06.88,-0.04316178802400834
1721,00:00:06.884,0.0033243559300899397
1722,00:00:06.888,0.04861106933094565
1723,00:00:06.892,0.005674136918969451
1724,00:00:06.896,-0.013577556586824312
1725,00:00:06.9,-0.027650392614304988
1726,00:00:06.904,-0.0024567423388361827
1727,00:00:06.908,0.013765120180323729
1728,00:00:06.912,-0.0016561346128582798
1729,00:00:06.916,0.01864111004397269
1730,00:00:06.92,-0.0016417908482253187
1731,00:00:06.924,-0.009667694102972739
1732,00:00:06.928,0.006327323615551002
1733,00:00:06.932,0.0062696007080376304
1734,00:00:06.936,-0.026916954666376103
1735,00:00:06.94,-0.0064897374249995084
1736,00:00:06.944,-0.0011614828254096121
1737,00:00:06.948,0.020899522118270404
1738,00:00:06.952,0.02473427425138649
1739,00:00:06.956,-0.01694201491773129
1740,00:00:06.96,-0.0222380068153143
1741,00:00:06.964,0.0043281423859298195
1742,00:00:06.968,0.02500713290646668
1743,00:00:06.972,0.00525042554363608
1744,00:00:06.976,-0.01238176797050984
1745,00:00:06.98,-0.026415162137709544
1746,00:00:06.984,-0.005579577438766134
1747,00:00:06.988,0.008160499855875972
1748,00:00:06.992,0.01003025303361937
1749,00:00:06.996,0.02538651227951052
1750,00:00:07,0.0095111527480185
1751,00:00:07.004,-0.02880354793160224
1752,00:00:07.008,-0.010232976899715147
1753,00:00:07.012,0.007126857060939072
1754,00:00:07.016,0.042868569493293776
1755,00:00:07.02,-0.0312414234504104
1756,00:00:07.024,-0.055070252390578375
1757,00:00:07.028,0.004323130939155751
1758,00:00:07.032,0.038677982985973386
1759,00:00:07.036,0.003229311667382719
1760,00:00:07.04,0.01451336545869713
1761,00:00:07.044,0.00573239981895313
1762,00:00:07.048,-0.00510001555085178
1763,00:00:07.052,-0.01007409580051905
1764,00:00:07.056,-0.021123143844306417
1765,00:00:07.06,0.034889659407781486
1766,00:00:07.064,0.0035238703712820608
1767,00:00:07.068,-0.043181111104786465
1768,00:00:07.072,-0.01089133135974402
1769,00:00:07.076,0.0034890279639512283
1770,00:00:07.08,0.0386229138821363
1771,00:00:07.084,-0.0007232744246721719
1772,00:00:07.088,0.014578651636838882
1773,00:00:07.092,-0.013772448408417366
1774,00:00:07.096,0.007786758593283576
1775,00:00:07.1,-0.02398543944582347
1776,00:00:07.104,-0.03672922123223543
1777,00:00:07.108,0.01005880361481104
1778,00:00:07.112,0.03732252749614413
1779,00:00:07.116,0.011587324552237991
1780,00:00:07.12,0.015445201308466449
1781,00:00:07.124,0.0008105528540909915
1782,00:00:07.128,-0.037165149464271956
1783,00:00:07.132,-0.017243935726582994
1784,00:00:07.136,-0.0014842567616142272
1785,00:00:07.14,0.00783617491833865
1786,00:00:07.144,0.014338413777295476
1787,00:00:07.148,0.00982019159710035
1788,00:00:07.152,3.4130585845559835e-05
1789,00:00:07.156,-0.0016023588832467703
1790,00:00:07.16,-0.0017010669689625601
1791,00:00:07.164,-0.014254360459744899
1792,00:00:07.168,0.01211601542308929
1793,00:00:07.172,-0.014397299470147139
1794,00:00:07.176,-0.008765365986619093
1795,00:00:07.18,0.00953998789191248
1796,00:00:07.184,0.051886044646380455
1797,00:00:07.188,0.013173453742638232
1798,00:00:07.192,-0.04542938061058525
1799,00:00:07.196,-0.03646291419863702
1800,00:00:07.2,-0.024908261373639135
1801,00:00:07.204,0.02037006453610956
1802,00:00:07.208,0.025613925157813324
1803,00:00:07.212,0.01064128521829842
1804,00:00:07.216,0.006295166444033381
1805,00:00:07.22,0.014806596780545127
1806,00:00:07.224,-0.01367532019503415
1807,00:00:07.228,-0.006091539515182379
1808,00:00:07.232,0.004783433862030461
1809,00:00:07.236,-0.016541550867259495
1810,00:00:07.24,-0.01244669780135152
1811,00:00:07.244,0.00951512524625286
1812,00:00:07.248,-0.0002186911733588182
1813,00:00:07.252,0.011830660514533511
1814,00:00:07.256,0.01296285516582429
1815,00:00:07.26,-0.01326680649071931
1816,00:00:07.264,-0.006476622103946283
1817,00:00:07.268,-0.00515663798432793
1818,00:00:07.272,0.00588451896328479
1819,00:00:07.276,0.009927536826580811
1820,00:00:07.28,0.0021640206687152386
1821,00:00:07.284,-0.014795655151829122
1822,00:00:07.288,-0.02107284450903535
1823,00:00:07.292,0.059198951261350934
1824,00:00:07.296,-0.001243331702426089
1825,00:00:07.3,-0.04931469634175297
1826,00:00:07.304,-0.01641903095878665
1827,00:00:07.308,0.00898643094114959
1828,00:00:07.312,0.0268322681076825
1829,00:00:07.316,0.03828623285517092
1830,00:00:07.32,-0.019922388113627638
1831,00:00:07.324,-0.023011916317045678
1832,00:00:07.328,-0.006854917388409372
1833,00:00:07.332,-0.02550067007541656
1834,00:00:07.336,0.032190550347877385
1835,00:00:07.34,0.04829900292679669
1836,00:00:07.344,-0.025069906376302294
1837,00:00:07.348,-0.049490967765450505
1838,00:00:07.352,0.0136368051171302
1839,00:00:07.356,0.02253305818885558
1840,00:00:07.36,-0.00815462134778502
1841,00:00:07.364,-0.01818438479676842
1842,00:00:07.368,0.03512092540040614
1843,00:00:07.372,0.013054402719717475
1844,00:00:07.376,-0.028265455504879407
1845,00:00:07.38,-0.00017317850142721004
1846,00:00:07.384,-0.01120702712796628
1847,00:00:07.388,0.001270442735403771
1848,00:00:07.392,0.030981385149061652
1849,00:00:07.396,-0.009897190961055439
1850,00:00:07.4,-0.03957637585699551
1851,00:00:07.404,-0.013856406323611712
1852,00:00:07.408,0.045138886198401465
1853,00:00:07.412,0.030198090709745877
1854,00:00:07.416,-0.01860578288324178
1855,00:00:07.42,-0.023374831303954118
1856,00:00:07.424,0.00614703143946827
1857,00:00:07.428,-0.023089054971933302
1858,00:00:07.432,0.08330287830904126
1859,00:00:07.436,0.01139621715992694
1860,00:00:07.44,-0.09706285689026117
1861,00:00:07.444,-0.020818425342440623
1862,00:00:07.448,0.0012221748474985882
1863,00:00:07.452,0.019446110352873754
1864,00:00:07.456,0.031998689286410795
1865,00:00:07.46,0.01889759069308645
1866,00:00:07.464,0.009359940828289857
1867,00:00:07.468,-0.022216999088414072
1868,00:00:07.472,-0.0044326347415335685
1869,00:00:07.476,0.013840730302035802
1870,00:00:07.48,-0.02154056658037004
1871,00:00:07.484,-0.020339253242127618
1872,00:00:07.488,0.00942351890262216
1873,00:00:07.492,0.004874396778177474
1874,00:00:07.496,0.008611738390754912
1875,00:00:07.5,0.004183813347481191
1876,00:00:07.504,-0.01094518648460508
1877,00:00:07.508,0.02786505111726004
1878,00:00:07.512,0.006724607083015142
1879,00:00:07.516,-0.04251012625172734
1880,00:00:07.52,0.0026608258485793825
1881,00:00:07.524,0.027215440757572623
1882,00:00:07.528,0.0042454968206584
1883,00:00:07.532,-0.046203537844121505
1884,00:00:07.536,-0.010941805317997922
1885,00:00:07.54,0.025057940278202268
1886,00:00:07.544,0.043073593638837386
1887,00:00:07.548,-0.003988193144323297
1888,00:00:07.552,-0.037393648643046645
1889,00:00:07.556,-0.0035604482982307703
1890,00:00:07.56,0.009194022044539422
1891,00:00:07.564,0.015339470235630861
1892,00:00:07.568,-0.0020559566328302047
1893,00:00:07.572,-0.014421918429434263
1894,00:00:07.576,0.007869967084843667
1895,00:00:07.58,-0.00038550887256860907
1896,00:00:07.584,-0.0013886657543480414
1897,00:00:07.588,0.018377035856246938
1898,00:00:07.592,-0.006804066710174078
1899,00:00:07.596,-0.01768306293524802
1900,00:00:07.6,-0.013280037965159863
1901,00:00:07.604,-0.0023780250921845406
1902,00:00:07.608,-0.005806802771985479
1903,00:00:07.612,0.01971113122999668
1904,00:00:07.616,0.08832317730411886
1905,00:00:07.62,-0.036054559051990495
1906,00:00:07.624,-0.0688069900497794
1907,00:00:07.628,-0.003875547059578823
1908,00:00:07.632,-0.00200732797384268
1909,00:00:07.636,0.020361431874334788
1910,00:00:07.64,0.01822101464495063
1911,00:00:07.644,0.01951996330171827
1912,00:00:07.648,-0.025121624581515737
1913,00:00:07.652,-0.017713118111714707
1914,00:00:07.656,0.01040435285540298
1915,00:00:07.66,0.00264850538223982
1916,00:00:07.664,0.010999436257407071
1917,00:00:07.668,0.005292891000863163
1918,00:00:07.672,-0.01701755088288337
1919,00:00:07.676,0.007241985331347673
1920,00:00:07.68,-0.0051001945976167605
1921,00:00:07.684,0.0037180167273618368
1922,00:00:07.688,-0.01037152565550059
1923,00:00:07.692,-0.020582319702953118
1924,00:00:07.696,-0.004947409848682586
1925,00:00:07.7,0.0586091056466103
1926,00:00:07.704,0.04177567269653076
1927,00:00:07.708,-0.03183621494099501
1928,00:00:07.712,-0.058281358797103194
1929,00:00:07.716,-0.01294490159489219
1930,00:00:07.72,0.0255051596323028
1931,00:00:07.724,-0.019293355755507897
1932,00:00:07.728,0.006536347325891189
1933,00:00:07.732,0.02284116158261899
1934,00:00:07.736,0.02874942333437499
1935,00:00:07.74,0.02655228960793461
1936,00:00:07.744,-0.035519847646355594
1937,00:00:07.748,-0.04820507206022739
1938,00:00:07.752,-0.018409033305942967
1939,00:00:07.756,0.03431633015861739
1940,00:00:07.76,0.040021895198151525
1941,00:00:07.764,-0.007960982155054808
1942,00:00:07.768,-0.01300146919675169
1943,00:00:07.772,-0.01215892506297674
1944,00:00:07.776,0.006222554948180931
1945,00:00:07.78,-0.009272436029277738
1946,00:00:07.784,-0.00504333339631557
1947,00:00:07.788,-0.005465047084726389
1948,00:00:07.792,0.029459470883011797
1949,00:00:07.796,0.01163891446776693
1950,00:00:07.8,0.030320282094180598
1951,00:00:07.804,-0.03312022425234322
1952,00:00:07.808,-0.08109521842561666
1953,00:00:07.812,0.00841081491671503
1954,00:00:07.816,0.05157452728599311
1955,00:00:07.82,0.0372905740514397
1956,00:00:07.824,-0.020025787875056305
1957,00:00:07.828,-0.010257920605113262
1958,00:00:07.832,-0.007409952639136462
1959,00:00:07.836,-0.00025880662724371345
1960,00:00:07.84,-0.000574911988223974
1961,00:00:07.844,-0.005148053169250487
1962,00:00:07.848,0.01204466493800287
1963,00:00:07.852,0.019207628909498453
1964,00:00:07.856,-0.01585213735233992
1965,00:00:07.86,-0.020381612936034826
1966,00:00:07.864,-0.00741370348259807
1967,00:00:07.868,0.019874428398907178
1968,00:00:07.872,0.00106534524820745
1969,00:00:07.876,0.0019007150549441606
1970,00:00:07.88,-0.006451291847042739
1971,00:00:07.884,-0.0060443352267611095
1972,00:00:07.888,0.04236322501674293
1973,00:00:07.892,0.01995865325443443
1974,00:00:07.896,-0.03271747939288608
1975,00:00:07.9,-0.03039545845240354
1976,00:00:07.904,-0.052162912208586966
1977,00:00:07.908,-0.010595224986900572
1978,00:00:07.912,0.050743781263008686
1979,00:00:07.916,0.0638120099902153
1980,00:00:07.92,0.02130129281431432
1981,00:00:07.924,-0.02864387352019545
1982,00:00:07.928,-0.0442803939804435
1983,00:00:07.932,-0.004774325905600488
1984,00:00:07.936,0.015421509742736799
1985,00:00:07.94,0.0053561610402539294
1986,00:00:07.944,-0.021563674090430134
1987,00:00:07.948,-0.003976690350100429
1988,00:00:07.952,0.012972193770110583
1989,00:00:07.956,0.03915238706395033
1990,00:00:07.96,-1.0510208085141165e-05
1991,00:00:07.964,-0.01786683895625177
1992,00:00:07.968,-0.0346379214897751
1993,00:00:07.972,-0.0369817547616549
1994,00:00:07.976,0.0425647795200349
1995,00:00:07.98,0.05790027976036072
1996,00:00:07.984,-0.02568302396684881
1997,00:00:07.988,-0.00898259552195672
1998,00:00:07.992,-0.0019752583466470103
1999,00:00:07.996,-0.0276765525341034
2000,00:00:08,0.024254529504105372
2001,00:00:08.004,-0.01594923110678793
2002,00:00:08.008,0.002976107411086528
2003,00:00:08.012,0.035259915981441695
2004,00:00:08.016,-0.013277466525323661
2005,00:00:08.02,-0.010906016454100578
2006,00:00:08.024,-0.02465898799709975
2007,00:00:08.028,0.002286265254952011
2008,00:00:08.032,0.03086015023291104
2009,00:00:08.036,0.03699334152042862
2010,00:00:08.04,-0.0403740117326379
2011,00:00:08.044,-0.02527735289186236
2012,00:00:08.048,0.01009961846284568
2013,00:00:08.052,0.007948346436023698
2014,00:00:08.056,0.0019005027133971002
2015,00:00:08.06,0.00463627674616874
2016,00:00:08.064,-0.005720453715184703
2017,00:00:08.068,0.0009414076339453506
2018,00:00:08.072,0.01999313523992901
2019,00:00:08.076,-0.03436719230376184
2020,00:00:08.08,0.01051288750022647
2021,00:00:08.084,-0.00551376119256021
2022,00:00:08.088,0.008320914465002759
2023,00:00:08.092,0.006738408468663599
2024,00:00:08.096,-0.007220954634249257
2025,00:00:08.1,0.0049439636059105405
2026,00:00:08.104,-0.005609143525362001
2027,00:00:08.108,-0.018829625623766374
2028,00:00:08.112,0.05130762699991471
2029,00:00:08.116,0.008116000564768912
2030,00:00:08.12,-0.042048598639667
2031,00:00:08.124,-0.02939451718702914
2032,00:00:08.128,-0.00393081223592162
2033,00:00:08.132,0.02249621762894089
2034,00:00:08.136,0.02547949692234399
2035,00:00:08.14,0.01778126973658799
2036,00:00:08.144,0.0055390647612511695
2037,00:00:08.148,-0.03556593693792818
2038,00:00:08.152,-0.01645118184387684
2039,00:00:08.156,0.0026621545548550715
2040,00:00:08.16,0.02795289526693526
2041,00:00:08.164,-0.009803543332964192
2042,00:00:08.168,-0.03202723467256872
2043,00:00:08.172,0.02794278925284738
2044,00:00:08.176,0.01769087463617328
2045,00:00:08.18,-0.0037069258978590343
2046,00:00:08.184,-0.0120193427428603
2047,00:00:08.188,-0.009706256918434516
2048,00:00:08.192,0.0053279325366021
2049,00:00:08.196,-0.02164132986217738
2050,00:00:08.2,0.0519373696297407
2051,00:00:08.204,0.008465040475130121
2052,00:00:08.208,-0.033678991720080306
2053,00:00:08.212,-0.02448480948805805
2054,00:00:08.216,-0.013250196352601069
2055,00:00:08.22,0.0216243620961905
2056,00:00:08.224,0.01661219657398759
2057,00:00:08.228,0.014042733702808612
2058,00:00:08.232,0.00022728042677045042
2059,00:00:08.236,-0.0048687102098484
2060,00:00:08.24,-0.0036673313006758603
2061,00:00:08.244,-0.008519466908182945
2062,00:00:08.248,-0.01661197817884386
2063,00:00:08.252,-0.0018831926863640503
2064,00:00:08.256,0.03300980804488063
2065,00:00:08.26,0.015618157805874952
2066,00:00:08.264,-0.034318187739700065
2067,00:00:08.268,-0.046001192647963776
2068,00:00:08.272,0.07026175595819954
2069,00:00:08.276,0.017071001697331688
2070,00:00:08.28,-0.02419986482709641
2071,00:00:08.284,-0.03866094513796263
2072,00:00:08.288,-0.00768342800438402
2073,00:00:08.292,0.011450038757175261
2074,00:00:08.296,0.047906257212162004
2075,00:00:08.3,0.013848097994923567
2076,00:00:08.304,-0.041592836612835554
2077,00:00:08.308,-0.01245436910539862
2078,00:00:08.312,0.01202922710217536
2079,00:00:08.316,0.00905989855527874
2080,00:00:08.32,-0.0016374909318983598
2081,00:00:08.324,-0.0152158117853105
2082,00:00:08.328,0.00018630453268997198
2083,00:00:08.332,0.0051738387119257875
2084,00:00:08.336,0.013095558038912745
2085,00:00:08.34,0.011142055504024006
2086,00:00:08.344,-0.003499534912407401
2087,00:00:08.348,-0.03473075560759752
2088,00:00:08.352,-0.009960417635738846
2089,00:00:08.356,0.026903693564236098
2090,00:00:08.36,0.048816217109560994
2091,00:00:08.364,-0.017125184647738996
2092,00:00:08.368,-0.0382768549025058
2093,00:00:08.372,-0.03089415282011025
2094,00:00:08.376,0.0039929921622388394
2095,00:00:08.38,0.01662754686549305
2096,00:00:08.384,0.0532402116805316
2097,00:00:08.388,-0.005709270015358906
2098,00:00:08.392,-0.03084268979728219
2099,00:00:08.396,0.003411227371543639
2100,00:00:08.4,0.02533016074448824
2101,00:00:08.404,-0.04212651436682793
2102,00:00:08.408,-0.01619766256771982
2103,00:00:08.412,0.01811178121715781
2104,00:00:08.416,0.018181062419898763
2105,00:00:08.42,0.019591107149608412
2106,00:00:08.424,0.0021912086522206707
2107,00:00:08.428,-0.028056663228198914
2108,00:00:08.432,-0.015359615441411728
2109,00:00:08.436,0.004816060769371685
2110,00:00:08.44,0.013837340055033549
2111,00:00:08.444,0.004923389293253419
2112,00:00:08.448,-0.013761086156591771
2113,00:00:08.452,0.0019976578187197455
2114,00:00:08.456,0.00655775144696235
2115,00:00:08.46,0.023247428936883807
2116,00:00:08.464,-0.01297743921168147
2117,00:00:08.468,-0.02716767252422873
2118,00:00:08.472,0.01879020954947916
2119,00:00:08.476,-0.0118712643161416
2120,00:00:08.48,-0.020350935868918927
2121,00:00:08.484,0.021290821372531313
2122,00:00:08.488,0.040270295925438404
2123,00:00:08.492,-0.016750986687839066
2124,00:00:08.496,-0.004036299418658018
2125,00:00:08.5,-0.0006052047247067155
2126,00:00:08.504,-0.02674562484025952
2127,00:00:08.508,0.0014227319625206326
2128,00:00:08.512,0.00033749372232705355
2129,00:00:08.516,0.010436279233545061
2130,00:00:08.52,0.00048175628762692907
2131,00:00:08.524,0.00675152055919173
2132,00:00:08.528,-0.0017697705770842419
2133,00:00:08.532,0.0016246658051386502
2134,00:00:08.536,0.02426139870658521
2135,00:00:08.54,-0.009539421647787092
2136,00:00:08.544,-0.03158385632559653
2137,00:00:08.548,-0.02420593216083947
2138,00:00:08.552,0.02076218312140557
2139,00:00:08.556,0.0055331368930637915
2140,00:00:08.56,0.045496612787246704
2141,00:00:08.564,0.021481381729245203
2142,00:00:08.568,-0.0485761910676956
2143,00:00:08.572,-0.029469486034940946
2144,00:00:08.576,-0.0015969462692737493
2145,00:00:08.58,-0.0002102388534694407
2146,00:00:08.584,0.016985721420496702
2147,00:00:08.588,0.00044769211672246803
2148,00:00:08.592,0.02780061867088077
2149,00:00:08.596,0.0050909100100398
2150,00:00:08.6,-0.03020630870014431
2151,00:00:08.604,-0.0225723148323596
2152,00:00:08.608,0.032552639022469486
2153,00:00:08.612,0.017524074297398325
2154,00:00:08.616,-0.010757517302408832
2155,00:00:08.62,-0.03209574846550818
2156,00:00:08.624,0.005008852051105345
2157,00:00:08.628,0.017133307643234758
2158,00:00:08.632,-0.0019774534230236887
2159,00:00:08.636,0.001599950541276486
2160,00:00:08.64,0.0196655937470495
2161,00:00:08.644,-0.03704374784138054
2162,00:00:08.648,-0.023405022919178013
2163,00:00:08.652,0.05414240248501298
2164,00:00:08.656,0.035255217320809565
2165,00:00:08.66,-0.034709836356341825
2166,00:00:08.664,-0.013782979454845228
2167,00:00:08.668,-0.02688052115263413
2168,00:00:08.672,-0.02826495002955199
2169,00:00:08.676,0.03521535848267375
2170,00:00:08.68,0.021944305859506172
2171,00:00:08.684,0.007182637695223088
2172,00:00:08.688,0.0014204662293195798
2173,00:00:08.692,0.01881995797157288
2174,00:00:08.696,-0.002850744873285288
2175,00:00:08.7,-0.0361846080049872
2176,00:00:08.704,-0.019043210893869372
2177,00:00:08.708,0.01047283480875194
2178,00:00:08.712,0.009907099476549771
2179,00:00:08.716,0.005400039248343093
2180,00:00:08.72,-0.0027106922934763047
2181,00:00:08.724,-0.0028983028605580287
2182,00:00:08.728,0.02273407857865098
2183,00:00:08.732,0.001331453560851516
2184,00:00:08.736,0.0004608370363711773
2185,00:00:08.74,-0.03315729275345805
2186,00:00:08.744,0.010235566529445348
2187,00:00:08.748,0.011643844656646299
2188,00:00:08.752,-0.021004806156270203
2189,00:00:08.756,-0.018884235993027722
2190,00:00:08.76,0.02437300281599164
2191,00:00:08.764,0.016919265501201097
2192,00:00:08.768,0.010970112169161508
2193,00:00:08.772,0.00663922913372517
2194,00:00:08.776,-0.006954878568649358
2195,00:00:08.78,-0.02219464263180276
2196,00:00:08.784,-0.02475219219923018
2197,00:00:08.788,0.0025414924602955562
2198,00:00:08.792,0.021889384603127823
2199,00:00:08.796,0.013333819806575728
2200,00:00:08.8,0.0026242283347528393
2201,00:00:08.804,0.0038372203707695094
2202,00:00:08.808,-0.02471087733283641
2203,00:00:08.812,-0.00549298338592049
2204,00:00:08.816,0.014083598347497173
2205,00:00:08.82,0.00044358242303133965
2206,00:00:08.824,0.009213937039021389
2207,00:00:08.828,-0.007564348168671129
2208,00:00:08.832,-0.0090629750629887
2209,00:00:08.836,0.023276099935174006
2210,00:00:08.84,-0.034095561946742216
2211,00:00:08.844,0.014043994247913388
2212,00:00:08.848,-0.0011221792083233404
2213,00:00:08.852,-0.0060129412449896474
2214,00:00:08.856,0.013531365199014548
2215,00:00:08.86,0.019458532333373996
2216,00:00:08.864,-0.016605252487352062
2217,00:00:08.868,-0.012806135229766372
2218,00:00:08.872,-0.0008874100167304303
2219,00:00:08.876,0.014516582246869837
2220,00:00:08.88,0.027688235044479356
2221,00:00:08.884,-0.05413499660789964
2222,00:00:08.888,-0.019636309240013403
2223,00:00:08.892,0.02318892016774047
2224,00:00:08.896,0.02105630934238434
2225,00:00:08.9,0.023323615350818686
2226,00:00:08.904,-0.005563828046433633
2227,00:00:08.908,-0.020174453966319554
2228,00:00:08.912,-0.01975281338673085
2229,00:00:08.916,0.0038012856384739197
2230,00:00:08.92,0.01665965421125293
2231,00:00:08.924,0.003946692217141392
2232,00:00:08.928,-0.008720666170120241
2233,00:00:08.932,-0.00014302591443993693
2234,00:00:08.936,0.01873870054259895
2235,00:00:08.94,-0.01021101698279376
2236,00:00:08.944,-0.02533151500392709
2237,00:00:08.948,0.01273499813396484
2238,00:00:08.952,0.008314219303429089
2239,00:00:08.956,0.002085007261484819
2240,00:00:08.96,-0.03510608768556263
2241,00:00:08.964,0.018335691187530798
2242,00:00:08.968,0.0446313628926873
2243,00:00:08.972,0.0029241478769108783
2244,00:00:08.976,-0.026105531491339304
2245,00:00:08.98,-0.022201621904969247
2246,00:00:08.984,-0.00513757858425379
2247,00:00:08.988,0.0012526544742286422
2248,00:00:08.992,-0.006057153979782012
2249,00:00:08.996,0.01947737368755045
2250,00:00:09,0.0589373242110013
2251,00:00:09.004,-0.021763755939900868
2252,00:00:09.008,-0.0851987134665251
2253,00:00:09.012,0.010826907993759922
2254,00:00:09.016,0.08165351336356255
2255,00:00:09.02,0.0025653787888586486
2256,00:00:09.024,-0.05279064795468004
2257,00:00:09.028,-0.02963988948613413
2258,00:00:09.032,0.009087901154998693
2259,00:00:09.036,0.02118371066171678
2260,00:00:09.04,0.02702095499262217
2261,00:00:09.044,-0.007940786425024257
2262,00:00:09.048,0.01161900453735144
2263,00:00:09.052,0.0007322707679122895
2264,00:00:09.056,-0.023443725513061554
2265,00:00:09.06,-0.012248735270986803
2266,00:00:09.064,-0.0015509896911680907
2267,00:00:09.068,-0.007360349758528168
2268,00:00:09.072,0.014495352748781401
2269,00:00:09.076,0.02911730250343681
2270,00:00:09.08,-0.012048213742673388
2271,00:00:09.084,-0.028632333735004102
2272,00:00:09.088,0.03215662459842865
2273,00:00:09.092,-0.008824998629279431
2274,00:00:09.096,0.030579097568988797
2275,00:00:09.1,-0.03748181369155645
2276,00:00:09.104,-0.017614569514989898
2277,00:00:09.108,-0.02914249489549551
2278,00:00:09.112,0.016196830198168772
2279,00:00:09.116,0.07385347085073582
2280,00:00:09.12,-0.002821762580424471
2281,00:00:09.124,-0.023578586522489776
2282,00:00:09.128,-0.02896367316134279
2283,00:00:09.132,0.0012256435584276967
2284,00:00:09.136,-0.005813157069496838
2285,00:00:09.14,0.014020432252436842
2286,00:00:09.144,0.02966846564959269
2287,00:00:09.148,-0.00089643686078489
2288,00:00:09.152,-0.02606156421825293
2289,00:00:09.156,-0.019986862083896998
2290,00:00:09.16,0.016981118387775503
2291,00:00:09.164,0.007730607874691507
2292,00:00:09.168,-0.00896494009066373
2293,00:00:09.172,-0.012531710788607571
2294,00:00:09.176,0.02579095680266617
2295,00:00:09.18,0.036741594783961704
2296,00:00:09.184,-0.012001615948975069
2297,00:00:09.188,-0.051742118783295196
2298,00:00:09.192,-0.02739527169615031
2299,00:00:09.196,0.00834661535918717
2300,00:00:09.2,0.07639160286635172
2301,00:00:09.204,0.0019389881927054722
2302,00:00:09.208,-0.03940424229949715
2303,00:00:09.212,-0.006931873038411161
2304,00:00:09.216,0.0062414207495749005
2305,00:00:09.22,-0.02214110549539328
2306,00:00:09.224,0.0010377514408901412
2307,00:00:09.228,0.01964031112436257
2308,00:00:09.232,0.0160222768317908
2309,00:00:09.236,0.0232078250264749
2310,00:00:09.24,-0.01863459509331736
2311,00:00:09.244,-0.016994353849440796
2312,00:00:09.248,-0.011426449986174718
2313,00:00:09.252,-0.001439282554201783
2314,00:00:09.256,-0.01557997381314632
2315,00:00:09.26,-0.0006775138899683961
2316,00:00:09.264,0.025609868578612804
2317,00:00:09.268,0.06038811989128591
2318,00:00:09.272,0.007475775899365579
2319,00:00:09.276,-0.0840843468904495
2320,00:00:09.28,-0.04041577270254492
2321,00:00:09.284,0.00770189100876445
2322,00:00:09.288,0.05872658740554473
2323,00:00:09.292,0.017058650963008362
2324,00:00:09.296,0.0066300458565820425
2325,00:00:09.3,-0.008189841639250503
2326,00:00:09.304,-0.02960028313100347
2327,00:00:09.308,-0.015622681938111803
2328,00:00:09.312,-0.0013713946100324462
2329,00:00:09.316,0.02048871433362365
2330,00:00:09.32,0.017486748925875865
2331,00:00:09.324,-0.005083439813461162
2332,00:00:09.328,-0.00772594148293138
2333,00:00:09.332,0.00452119176043198
2334,00:00:09.336,0.008907441049814238
2335,00:00:09.34,-0.009987263329094283
2336,00:00:09.344,-0.02400542097166181
2337,00:00:09.348,-0.011949322302825749
2338,00:00:09.352,0.04188523953780534
2339,00:00:09.356,0.0010793958790599814
2340,00:00:09.36,-0.02715090813580897
2341,00:00:09.364,0.020333763444796208
2342,00:00:09.368,0.010182962287217379
2343,00:00:09.372,0.0471291812136769
2344,00:00:09.376,-0.0604897355660797
2345,00:00:09.38,-0.04973523318767549
2346,00:00:09.384,0.0035509811714291885
2347,00:00:09.388,0.010051604826003336
2348,00:00:09.392,0.0246156025677919
2349,00:00:09.396,0.045388740953058004
2350,00:00:09.4,0.007291644811630251
2351,00:00:09.404,-0.015435273759067105
2352,00:00:09.408,-0.025229297956684573
2353,00:00:09.412,-0.015219530323520268
2354,00:00:09.416,-0.0018975520506501102
2355,00:00:09.42,-0.003942610113881531
2356,00:00:09.424,0.0013631641631945942
2357,00:00:09.428,0.020952039863914262
2358,00:00:09.432,0.006435714429244401
2359,00:00:09.436,0.01354351663030685
2360,00:00:09.44,-0.01979102246696131
2361,00:00:09.444,-0.015464566895388962
2362,00:00:09.448,-0.00208342960104346
2363,00:00:09.452,0.0235522640869022
2364,00:00:09.456,0.021829774137586362
2365,00:00:09.46,-0.04392316006124023
2366,00:00:09.464,-0.042974431766197
2367,00:00:09.468,0.06704517593607302
2368,00:00:09.472,0.031862519681453746
2369,00:00:09.476,-0.02793506532907487
2370,00:00:09.48,-0.018348433542996707
2371,00:00:09.484,-0.028154315426945718
2372,00:00:09.488,-0.01256643421947958
2373,00:00:09.492,0.036192956846207366
2374,00:00:09.496,0.03200206661131233
2375,00:00:09.5,-0.007231900701299351
2376,00:00:09.504,0.0039617766160518
2377,00:00:09.508,0.00019308063201606057
2378,00:00:09.512,-0.02092538378201429
2379,00:00:09.516,-0.022560670739039754
2380,00:00:09.52,-0.01634683052543552
2381,00:00:09.524,0.0165782346739434
2382,00:00:09.528,0.06577547220513223
2383,00:00:09.532,0.0009708837023936137
2384,00:00:09.536,-0.06666749995201826
2385,00:00:09.54,-0.01641490473411976
2386,00:00:09.544,0.04182152263820164
2387,00:00:09.548,0.01171406474895775
2388,00:00:09.552,-0.013504725880920818
2389,00:00:09.556,-0.014353450387716292
2390,00:00:09.56,0.007432858808897389
2391,00:00:09.564,0.004642900079488709
2392,00:00:09.568,-0.0011769660050049407
2393,00:00:09.572,0.01334996428340677
2394,00:00:09.576,-0.01142363599501547
2395,00:00:09.58,0.014829001156613272
2396,00:00:09.584,-0.008560444708564324
2397,00:00:09.588,-0.01610344159416851
2398,00:00:09.592,-0.00411262759007514
2399,00:00:09.596,-0.00194638455286623
2400,00:00:09.6,0.0004180018440820268
2401,00:00:09.604,0.01372258504852653
2402,00:00:09.608,0.015979130053892718
2403,00:00:09.612,0.014268212951719789
2404,00:00:09.616,-0.006127380300313229
2405,00:00:09.62,-0.01775567512959237
2406,00:00:09.624,-0.02848011886817408
2407,00:00:09.628,-0.007400181551929564
2408,00:00:09.632,0.01383098959922786
2409,00:00:09.636,0.01371185295283796
2410,00:00:09.64,-0.01188102434389289
2411,00:00:09.644,0.06184249836951492
2412,00:00:09.648,-0.00029168481705710433
2413,00:00:09.652,-0.05917493440210817
2414,00:00:09.656,0.018534666858613498
2415,00:00:09.66,-0.021252877311781
2416,00:00:09.664,-0.013917267322540363
2417,00:00:09.668,0.00594451115466651
2418,00:00:09.672,0.01873957132920628
2419,00:00:09.676,0.0048162345774472315
2420,00:00:09.68,0.01712339674122631
2421,00:00:09.684,0.00687234301585706
2422,00:00:09.688,-0.014083800837397582
2423,00:00:09.692,-0.010060725384391839
2424,00:00:09.696,-0.014380201027961451
2425,00:00:09.7,0.0041338227456435535
2426,00:00:09.704,0.006102022598497576
2427,00:00:09.708,0.005337794311344601
2428,00:00:09.712,0.006899138097651299
2429,00:00:09.716,0.0043796482495963894
2430,00:00:09.72,-0.008665618719533079
2431,00:00:09.724,-0.01281858759466559
2432,00:00:09.728,-0.02023367071524262
2433,00:00:09.732,-0.00028514000587165095
2434,00:00:09.736,0.0464753471314907
2435,00:00:09.74,0.03383842483162885
2436,00:00:09.744,-0.009690332401078198
2437,00:00:09.748,-0.031240577169228345
2438,00:00:09.752,-0.017485775984823704
2439,00:00:09.756,-0.03598445840179919
2440,00:00:09.76,-0.014854467895929705
2441,00:00:09.764,0.032507400028407574
2442,00:00:09.768,0.04941158159635966
2443,00:00:09.772,0.005397581495344656
2444,00:00:09.776,-0.008966648369096223
2445,00:00:09.78,-0.0146852256730199
2446,00:00:09.784,-0.0054708649840904365
2447,00:00:09.788,-0.008492316585034129
2448,00:00:09.792,-0.0010227926541119883
2449,00:00:09.796,0.0028959622723050363
2450,00:00:09.8,0.01849775831215086
2451,00:00:09.804,0.012117175851017282
2452,00:00:09.808,-0.01930222753435374
2453,00:00:09.812,-0.012475523399189097
2454,00:00:09.816,-0.00786842883098875
2455,00:00:09.82,0.0005400581721914893
2456,00:00:09.824,-0.008227648329921079
2457,00:00:09.828,0.0461388118565082
2458,00:00:09.832,0.0177126601338386
2459,00:00:09.836,-0.024067338556051202
2460,00:00:09.84,-0.01360136410221459
2461,00:00:09.844,-0.03802398429252204
2462,00:00:09.848,-0.00134870852343738
2463,00:00:09.852,0.01828069938346748
2464,00:00:09.856,0.0161212324164808
2465,00:00:09.86,0.0468966481275856
2466,00:00:09.864,-0.002179047092795351
2467,00:00:09.868,-0.05156952602555976
2468,00:00:09.872,-0.017231743317097457
2469,00:00:09.876,0.01858976366929712
2470,00:00:09.88,0.0027680950006470097
2471,00:00:09.884,0.004179514944553371
2472,00:00:09.888,0.0015955045819282497
2473,00:00:09.892,0.0015157476300373396
2474,00:00:09.896,0.003071987579460263
2475,00:00:09.9,-0.0020283532794564962
2476,00:00:09.904,0.01814821428706634
2477,00:00:09.908,-0.01915884557820389
2478,00:00:09.912,-0.00823663349729029
2479,00:00:09.916,-0.0190129061229527
2480,00:00:09.92,0.016965593444183504
2481,00:00:09.924,0.007726277690380789
2482,00:00:09.928,0.014379005282535218
2483,00:00:09.932,-0.01881679147481919
2484,00:00:09.936,0.0010574379411991894
2485,00:00:09.94,0.028373838402330858
2486,00:00:09.944,-0.0185650335624815
2487,00:00:09.948,-0.028860024758614572
2488,00:00:09.952,0.0012892245431430577
2489,00:00:09.956,0.020926274213707116
2490,00:00:09.96,0.02658155723474917
2491,00:00:09.964,-4.093383904545979e-05
2492,00:00:09.968,-0.03491337306331847
2493,00:00:09.972,-0.02018562308512628
2494,00:00:09.976,0.013195178005844369
2495,00:00:09.98,0.03689429908990853
2496,00:00:09.984,-0.0014408114366233002
2497,00:00:09.988,-0.03093511774204671
2498,00:00:09.992,-0.00037116510793566877
2499,00:00:09.996,0.01494168909266591
2500,00:00:10,-0.00725551927462223
2501,00:00:10.004,0.0008414032345172031
2502,00:00:10.008,0.008144469931721689
2503,00:00:10.012,-0.011193152866326266
2504,00:00:10.016,0.01973145094234497
2505,00:00:10.02,-0.007433119928464339
2506,00:00:10.024,0.0195579067803919
2507,00:00:10.028,-0.010290283709764451
2508,00:00:10.032,-0.028150225989520567
2509,00:00:10.036,-0.02865593787282708
2510,00:00:10.04,0.0032788752578199213
2511,00:00:10.044,0.0408994788303972
2512,00:00:10.048,0.00920587265864015
2513,00:00:10.052,0.0059142035897821205
2514,00:00:10.056,-0.0064834737277123765
2515,00:00:10.06,0.00047754053957760204
2516,00:00:10.064,0.0018041741568595206
2517,00:00:10.068,-0.01341448072344065
2518,00:00:10.072,-0.010891646146774313
2519,00:00:10.076,-0.01078547607176006
2520,00:00:10.08,0.014218697695469025
2521,00:00:10.084,0.00902193738147615
2522,00:00:10.088,0.00604572729207576
2523,00:00:10.092,-0.00829316105227917
2524,00:00:10.096,0.00197355425916613
2525,00:00:10.1,-0.014504794031381609
2526,00:00:10.104,0.0257935435511172
2527,00:00:10.108,-0.00292065367102628
2528,00:00:10.112,-0.02980958656098662
2529,00:00:10.116,0.05981941561913122
2530,00:00:10.12,-0.0005348219710867683
2531,00:00:10.124,-0.05948161892592911
2532,00:00:10.128,-0.030686551239341487
2533,00:00:10.132,0.013489328906871377
2534,00:00:10.136,0.01899713510647414
2535,00:00:10.14,0.04148275451734662
2536,00:00:10.144,0.01060956134460863
2537,00:00:10.148,-0.0083694634959101
2538,00:00:10.152,-0.02541031211148945
2539,00:00:10.156,-0.01303893281146884
2540,00:00:10.16,0.012145787040935867
2541,00:00:10.164,0.001053423395205749
2542,00:00:10.168,-0.010462006786838151
2543,00:00:10.172,0.00238028261810542
2544,00:00:10.176,0.0067631693091243505
2545,00:00:10.18,0.00114506343379617
2546,00:00:10.184,0.013887107372283942
2547,00:00:10.188,0.0022547372204826366
2548,00:00:10.192,-0.01887734065530817
2549,00:00:10.196,-0.01134814659599212
2550,00:00:10.2,0.00523072073701769
2551,00:00:10.204,-0.004209654405713109
2552,00:00:10.208,0.04177459632046524
2553,00:00:10.212,0.0013495548628271094
2554,00:00:10.216,-0.04702132567763326
2555,00:00:10.22,-0.017820451175794047
2556,00:00:10.224,-1.2240838259449868e-05
2557,00:00:10.228,0.06225226132664831
2558,00:00:10.232,0.0035444588866084857
2559,00:00:10.236,-0.01995086832903326
2560,00:00:10.24,-0.01321557781193405
2561,00:00:10.244,0.002174625638872392
2562,00:00:10.248,-0.0184190401341766
2563,00:00:10.252,0.002446580503601579
2564,00:00:10.256,0.025771002052351832
2565,00:00:10.26,-0.00585485599003732
2566,00:00:10.264,-0.0156781679252163
2567,00:00:10.268,0.0005861856043338793
2568,00:00:10.272,0.049087090189459566
2569,00:00:10.276,-0.03657293156720694
2570,00:00:10.28,-0.00919283006805926
2571,00:00:10.284,-0.008626404684036968
2572,00:00:10.288,0.0015450273785972482
2573,00:00:10.292,0.0415852880105376
2574,00:00:10.296,-0.008308615128044032
2575,00:00:10.3,0.00422018207609654
2576,00:00:10.304,-0.030900924699380963
2577,00:00:10.308,-0.03945557028055192
2578,00:00:10.312,0.044837595894932705
2579,00:00:10.316,0.006930059171281802
2580,00:00:10.32,0.004449129104614298
2581,00:00:10.324,-0.009039001073688279
2582,00:00:10.328,-0.01058543939143423
2583,00:00:10.332,0.00168492575176055
2584,00:00:10.336,0.025668062735348923
2585,00:00:10.34,0.01954927248880273
2586,00:00:10.344,-0.03150332812219857
2587,00:00:10.348,-0.03085626801475885
2588,00:00:10.352,0.012960041494807228
2589,00:00:10.356,0.01463859283830975
2590,00:00:10.36,0.013106340600643302
2591,00:00:10.364,-0.0025167962303385204
2592,00:00:10.368,-0.01747145244735293
2593,00:00:10.372,-0.01659839134663344
2594,00:00:10.376,0.006938195321708891
2595,00:00:10.38,0.014837655573501252
2596,00:00:10.384,0.035989039111882434
2597,00:00:10.388,-0.024873243644833527
2598,00:00:10.392,-0.035961861722171314
2599,00:00:10.396,0.052322801202535636
2600,00:00:10.4,-0.008548350539058527
2601,00:00:10.404,-0.022496789693832453
2602,00:00:10.408,-0.017875618766993267
2603,00:00:10.412,-0.01706366101279854
2604,00:00:10.416,0.031311925034970045
2605,00:00:10.42,0.013966076599899666
2606,00:00:10.424,0.007683703792281489
2607,00:00:10.428,0.0188391814008355
2608,00:00:10.432,-0.016500148805789643
2609,00:00:10.436,-0.033186887623742264
2610,00:00:10.44,0.0010479796910658399
2611,00:00:10.444,0.00843885820358991
2612,00:00:10.448,-0.0001349176745861786
2613,00:00:10.452,0.00390158104710279
2614,00:00:10.456,0.02093271049670871
2615,00:00:10.46,0.009566426277160681
2616,00:00:10.464,-0.02626612968742844
2617,00:00:10.468,-0.018193851225078064
2618,00:00:10.472,0.005458211293443989
2619,00:00:10.476,4.4782413169739896e-05
2620,00:00:10.48,0.031156522687524557
2621,00:00:10.484,0.024737730389460887
2622,00:00:10.488,-0.03853139840066438
2623,00:00:10.492,-0.04614663217216734
2624,00:00:10.496,-0.01868577534332869
2625,00:00:10.5,0.04444707056973125
2626,00:00:10.504,0.09027566947042942
2627,00:00:10.508,-0.0424871138529852
2628,00:00:10.512,-0.03754402603954076
2629,00:00:10.516,-0.014825782738626002
2630,00:00:10.52,-0.00012484658509493048
2631,00:00:10.524,-0.00503416126593948
2632,00:00:10.528,0.0227013509720564
2633,00:00:10.532,0.02233950654044749
2634,00:00:10.536,0.01040551904588937
2635,00:00:10.54,-0.02423820225521918
2636,00:00:10.544,-0.019035896315472218
2637,00:00:10.548,0.01707589253783226
2638,00:00:10.552,-0.00011564884334803018
2639,00:00:10.556,-0.03508665715344247
2640,00:00:10.56,0.02724038949236273
2641,00:00:10.564,0.01221735263243317
2642,00:00:10.568,-0.006915816862601784
2643,00:00:10.572,0.00794815877452491
2644,00:00:10.576,-0.006524866548716094
2645,00:00:10.58,-0.0038876114413142204
2646,00:00:10.584,0.0028805597685277688
2647,00:00:10.588,0.02559075783938165
2648,00:00:10.592,-0.036023438908159656
2649,00:00:10.596,-0.020595479756593624
2650,00:00:10.6,0.01059121917933226
2651,00:00:10.604,0.017692573368549402
2652,00:00:10.608,0.0053634843789041
2653,00:00:10.612,0.012233209796249894
2654,00:00:10.616,-0.0014321468770504588
2655,00:00:10.62,-0.02152193803340198
2656,00:00:10.624,0.0027060210704803796
2657,00:00:10.628,0.02376833418384192
2658,00:00:10.632,-0.03106985427439206
2659,00:00:10.636,-0.002830753568559919
2660,00:00:10.64,0.01569620147347454
2661,00:00:10.644,-0.019135386683046797
2662,00:00:10.648,0.016801732592284704
2663,00:00:10.652,0.015889003872871302
2664,00:00:10.656,-0.0237405383959413
2665,00:00:10.66,0.027030510362237685
2666,00:00:10.664,-0.015232919715344833
2667,00:00:10.668,5.794374737888661e-05
2668,00:00:10.672,0.0005558962002396896
2669,00:00:10.676,-0.012370490048851926
2670,00:00:10.68,-0.013933373498730368
2671,00:00:10.684,0.01127630448900158
2672,00:00:10.688,-0.002507351920940041
2673,00:00:10.692,0.02501996094360948
2674,00:00:10.696,0.01048049982637167
2675,00:00:10.7,-0.007302129291929324
2676,00:00:10.704,-0.01227791141718624
2677,00:00:10.708,-0.006795338893425627
2678,00:00:10.712,-0.00047559349332006
2679,00:00:10.716,-0.00955850630998614
2680,00:00:10.72,0.00250552262878045
2681,00:00:10.724,0.01495659444481134
2682,00:00:10.728,-0.029136895202100218
2683,00:00:10.732,0.0550656393170358
2684,00:00:10.736,0.055361794307828
2685,00:00:10.74,-0.0750570567324758
2686,00:00:10.744,-0.0759388227015734
2687,00:00:10.748,-0.008232626598328359
2688,00:00:10.752,0.052830085391178824
2689,00:00:10.756,0.05308780819177625
2690,00:00:10.76,0.02745593013241887
2691,00:00:10.764,-0.02402468747459356
2692,00:00:10.768,-0.04028930794447656
2693,00:00:10.772,-0.02171233249828218
2694,00:00:10.776,0.00523976446129381
2695,00:00:10.78,0.0016043917275965196
2696,00:00:10.784,0.021392451133579023
2697,00:00:10.788,0.02083900338038801
2698,00:00:10.792,-0.00652733677998186
2699,00:00:10.796,-0.01239092089235783
2700,00:00:10.8,0.0022045327350497194
2701,00:00:10.804,-0.007499308849219229
2702,00:00:10.808,-0.0178785540629178
2703,00:00:10.812,-0.004923200234770813
2704,00:00:10.816,0.04159511299803858
2705,00:00:10.82,0.010692803189158502
2706,00:00:10.824,-0.014688453637063503
2707,00:00:10.828,-0.0331938732415438
2708,00:00:10.832,0.0221456419676542
2709,00:00:10.836,0.0022638360969722384
2710,00:00:10.84,-0.0165969468653202
2711,00:00:10.844,0.010517162270844
2712,00:00:10.848,0.003223548876121713
2713,00:00:10.852,0.011312561109662014
2714,00:00:10.856,-0.009713984443806082
2715,00:00:10.86,-0.006383587140589951
2716,00:00:10.864,-0.0075159072875977005
2717,00:00:10.868,-0.000273924924840685
2718,00:00:10.872,0.011641735676676042
2719,00:00:10.876,0.00685655290726571
2720,00:00:10.88,0.003757616505026817
2721,00:00:10.884,0.0021380328107625203
2722,00:00:10.888,-0.004936679324600878
2723,00:00:10.892,-0.01201283444243013
2724,00:00:10.896,-0.00810930877923964
2725,00:00:10.9,0.013824488269165179
2726,00:00:10.904,-0.004935457021929332
2727,00:00:10.908,-0.009197999956086311
2728,00:00:10.912,0.012512489862274387
2729,00:00:10.916,0.03688915167003869
2730,00:00:10.92,-0.020453709177672898
2731,00:00:10.924,-0.04279166297055779
2732,00:00:10.928,-0.010312300757504986
2733,00:00:10.932,0.055510039208456846
2734,00:00:10.936,-0.008105354616418481
2735,00:00:10.94,-0.021637049387209138
2736,00:00:10.944,0.007095191220287234
2737,00:00:10.948,0.0033689695410430392
2738,00:00:10.952,0.013259042782010467
2739,00:00:10.956,0.0023704417981207397
2740,00:00:10.96,-0.01578721823170777
2741,00:00:10.964,-0.014318849425762899
2742,00:00:10.968,0.0019305632449686493
2743,00:00:10.972,0.013510555319953713
2744,00:00:10.976,0.01291872258298102
2745,00:00:10.98,-0.0033279557246714813
2746,00:00:10.984,-0.0016114847967401208
2747,00:00:10.988,-0.024130790494382354
2748,00:00:10.992,-0.013402416021563121
2749,00:00:10.996,0.03277388261631133
2750,00:00:11,0.04201284656301136
2751,00:00:11.004,-0.056340679497225266
2752,00:00:11.008,0.0089873345568776
2753,00:00:11.012,0.01373243425041441
2754,00:00:11.016,-0.017280977219343206
2755,00:00:11.02,0.001503496430814228
2756,00:00:11.024,0.023711167275905602
2757,00:00:11.028,-0.040105432271957495
2758,00:00:11.032,-0.01235435158014294
2759,00:00:11.036,0.008791769025265286
2760,00:00:11.04,0.02079114411026239
2761,00:00:11.044,0.03031361522153021
2762,00:00:11.048,0.013625269290059812
2763,00:00:11.052,-0.016962694004178037
2764,00:00:11.056,-0.024329871768713873
2765,00:00:11.06,-0.02645676350221042
2766,00:00:11.064,0.0025351720396429404
2767,00:00:11.068,0.01635991723742338
2768,00:00:11.072,0.007193713216111071
2769,00:00:11.076,0.012905151117593073
2770,00:00:11.08,0.0007430282421409789
2771,00:00:11.084,-0.01669636290171181
2772,00:00:11.088,0.0005661267787218094
2773,00:00:11.092,0.0017318718601018104
2774,00:00:11.096,-0.002353753196075538
2775,00:00:11.1,0.00085773540195078
2776,00:00:11.104,0.023978869197890128
2777,00:00:11.108,-0.008501572534441951
2778,00:00:11.112,-0.02738497080281373
2779,00:00:11.116,-0.005181841552257531
2780,00:00:11.12,0.02378592593595387
2781,00:00:11.124,0.035883431322872576
2782,00:00:11.128,-0.041330068721435936
2783,00:00:11.132,-0.023515926674008397
2784,00:00:11.136,0.0030769854784011797
2785,00:00:11.14,0.014626507181674287
2786,00:00:11.144,0.017563625704497078
2787,00:00:11.148,-0.0020637363195418913
2788,00:00:11.152,0.0035243206657469203
2789,00:00:11.156,-0.016603203490376462
2790,00:00:11.16,0.001238657132489606
2791,00:00:11.164,0.013312545954249803
2792,00:00:11.168,0.00738135678693653
2793,00:00:11.172,-0.022849668195703988
2794,00:00:11.176,-0.014858602196909522
2795,00:00:11.18,0.013594588766864034
2796,00:00:11.184,0.01145361364979185
2797,00:00:11.188,0.006412341230316053
2798,00:00:11.192,-0.009897014475427564
2799,00:00:11.196,-0.03113887272775175
2800,00:00:11.2,0.013998579699546126
2801,00:00:11.204,0.10857425339054319
2802,00:00:11.208,-0.02363957092165947
2803,00:00:11.212,-0.11086924932897081
2804,00:00:11.216,-0.05271254759281871
2805,00:00:11.22,0.034366677282378084
2806,00:00:11.224,0.0776187460869551
2807,00:00:11.228,0.0296129179187119
2808,00:00:11.232,-0.0027999021112919114
2809,00:00:11.236,-0.03520606737583884
2810,00:00:11.24,-0.014569850638508791
2811,00:00:11.244,-0.00845702586229891
2812,00:00:11.248,-0.00313626893330365
2813,00:00:11.252,-0.0017639236757531797
2814,00:00:11.256,0.02029815616697308
2815,00:00:11.26,0.03310819808393719
2816,00:00:11.264,-0.0016700641717761755
2817,00:00:11.268,-0.05243635650549544
2818,00:00:11.272,-0.00014674663543697009
2819,00:00:11.276,-0.0007248171605169895
2820,00:00:11.28,0.02025057445280255
2821,00:00:11.284,0.02469681017100814
2822,00:00:11.288,-0.010089776711538429
2823,00:00:11.292,-0.012849738937802647
2824,00:00:11.296,-0.026369230821728706
2825,00:00:11.3,0.01455118460580707
2826,00:00:11.304,0.04473817115649582
2827,00:00:11.308,0.00023384066298600022
2828,00:00:11.312,-0.05668248006259096
2829,00:00:11.316,0.0037327907048165807
2830,00:00:11.32,0.004621807136572889
2831,00:00:11.324,0.0059537906199693515
2832,00:00:11.328,-0.006689789006486533
2833,00:00:11.332,0.011668292805552432
2834,00:00:11.336,0.03612075513228777
2835,00:00:11.34,-0.0012622183421626596
2836,00:00:11.344,-0.02796485926955939
2837,00:00:11.348,-0.03238406823948031
2838,00:00:11.352,0.00225947849685327
2839,00:00:11.356,0.032179304504097596
2840,00:00:11.36,0.03179517539683732
2841,00:00:11.364,-0.01924274489283559
2842,00:00:11.368,-0.03573175519704821
2843,00:00:11.372,-0.01711131492629648
2844,00:00:11.376,0.017743741525919225
2845,00:00:11.38,0.02167971013113858
2846,00:00:11.384,0.02795440680347379
2847,00:00:11.388,-0.024652910447912284
2848,00:00:11.392,-0.01885762333404274
2849,00:00:11.396,-0.00741711386945101
2850,00:00:11.4,0.021477401722222532
2851,00:00:11.404,0.035767391789704533
2852,00:00:11.408,-0.009051104818354357
2853,00:00:11.412,-0.08116510510444641
2854,00:00:11.416,0.029177396558225096
2855,00:00:11.42,0.027249792183283633
2856,00:00:11.424,0.01034136861562732
2857,00:00:11.428,-0.024548548157326915
2858,00:00:11.432,-0.004109541419893479
2859,00:00:11.436,0.024692192673683142
2860,00:00:11.44,-0.00808842666447167
2861,00:00:11.444,0.0023202580632641903
2862,00:00:11.448,-0.0020043379627168196
2863,00:00:11.452,-0.0075803878717124445
2864,00:00:11.456,0.0014233833644539092
2865,00:00:11.46,0.004624396096915009
2866,00:00:11.464,0.0011837549973279203
2867,00:00:11.468,-0.003980445442721249
2868,00:00:11.472,-0.013130208244547241
2869,00:00:11.476,0.00566190853714943
2870,00:00:11.48,0.03043473965954033
2871,00:00:11.484,-0.00972960703074936
2872,00:00:11.488,-0.028309648856520646
2873,00:00:11.492,-0.01492592145223176
2874,00:00:11.496,0.04938544845208523
2875,00:00:11.5,0.037205334752798
2876,00:00:11.504,-0.060061037540435736
2877,00:00:11.508,-0.04300582408905029
2878,00:00:11.512,0.022300906595773974
2879,00:00:11.516,0.03978271316736933
2880,00:00:11.52,-0.012308520264923569
2881,00:00:11.524,-0.002719485666602799
2882,00:00:11.528,-0.0045286552049219496
2883,00:00:11.532,0.00992386147845537
2884,00:00:11.536,0.009479741100221869
2885,00:00:11.54,-0.010347789910156285
2886,00:00:11.544,-0.01161283068358899
2887,00:00:11.548,0.007608635583892487
2888,00:00:11.552,0.015174333937466148
2889,00:00:11.556,-0.02594244771171357
2890,00:00:11.56,0.0031980950443539742
2891,00:00:11.564,0.0008533077780157293
2892,00:00:11.568,-0.005681071663275361
2893,00:00:11.572,0.011391769279725857
2894,00:00:11.576,0.009135335043538365
2895,00:00:11.58,-0.00267432536929851
2896,00:00:11.584,0.00396429980173706
2897,00:00:11.588,0.006239082431420701
2898,00:00:11.592,-0.04140811320394279
2899,00:00:11.596,-0.007750264368951321
2900,00:00:11.6,0.05021850019693368
2901,00:00:11.604,0.03825355978915469
2902,00:00:11.608,-0.04795726365409791
2903,00:00:11.612,-0.043269779533147784
2904,00:00:11.616,0.00640547415241596
2905,00:00:11.62,0.021192746004089703
2906,00:00:11.624,0.012375762002193345
2907,00:00:11.628,0.013633888447657271
2908,00:00:11.632,-0.01441559789236635
2909,00:00:11.636,-0.01245866529643534
2910,00:00:11.64,0.012144007487222549
2911,00:00:11.644,0.0139894550666213
2912,00:00:11.648,-0.007787971408106386
2913,00:00:11.652,-0.005666539043886624
2914,00:00:11.656,-0.02112923620734361
2915,00:00:11.66,0.0007353642431553408
2916,00:00:11.664,-0.0024261770304292813
2917,00:00:11.668,0.013177918270230333
2918,00:00:11.672,0.02444087620824571
2919,00:00:11.676,-0.011489766096929104
2920,00:00:11.68,0.018883834592997997
2921,00:00:11.684,0.031564326840452885
2922,00:00:11.688,-0.07366653531789773
2923,00:00:11.692,-0.04536406882107256
2924,00:00:11.696,0.0338283022865654
2925,00:00:11.7,0.030850943177938496
2926,00:00:11.704,0.004157148767262691
2927,00:00:11.708,-0.005484252818860121
2928,00:00:11.712,0.0028697662055492306
2929,00:00:11.716,0.01309369923546914
2930,00:00:11.72,-0.006136521697044349
2931,00:00:11.724,-0.006733078625984489
2932,00:00:11.728,-0.013380505726672718
2933,00:00:11.732,-0.00907864212058487
2934,00:00:11.736,0.0015872119111008907
2935,00:00:11.74,0.02076822286471723
2936,00:00:11.744,0.011443102266639468
2937,00:00:11.748,0.012536118738353301
2938,00:00:11.752,-0.027098875725641878
2939,00:00:11.756,-0.026712123304605522
2940,00:00:11.76,-0.0027320706285536202
2941,00:00:11.764,0.0228234180249274
2942,00:00:11.768,0.01992056972812864
2943,00:00:11.772,0.014679599087685331
2944,00:00:11.776,-0.02991768438369037
2945,00:00:11.78,-0.019692609086632784
2946,00:00:11.784,0.027778037503594484
2947,00:00:11.788,-0.008975713979452881
2948,00:00:11.792,-0.00628762866836042
2949,00:00:11.796,0.025903803296387168
2950,00:00:11.8,-0.01661562221124772
2951,00:00:11.804,-0.02736054104752839
2952,00:00:11.808,0.00395647296682001
2953,00:00:11.812,0.04000913817435506
2954,00:00:11.816,0.01808347599580891
2955,00:00:11.82,-0.03409915883094072
2956,00:00:11.824,-0.03708241833373907
2957,00:00:11.828,0.03308875055518006
2958,00:00:11.832,0.013604808598756808
2959,00:00:11.836,-0.02023489540442828
2960,00:00:11.84,0.005782402120530579
2961,00:00:11.844,0.00973362161312252
2962,00:00:11.848,-0.002108385320752859
2963,00:00:11.852,-0.008829785278067001
2964,00:00:11.856,0.007181311872045629
2965,00:00:11.86,-0.013474280480295461
2966,00:00:11.864,0.00236048980150371
2967,00:00:11.868,0.0052969110256526645
2968,00:00:11.872,0.005393093917518842
2969,00:00:11.876,0.0049126548692583795
2970,00:00:11.88,0.04547942162025722
2971,00:00:11.884,-0.043140106368809966
2972,00:00:11.888,-0.04652661923319101
2973,00:00:11.892,-0.005821407597977673
2974,00:00:11.896,0.029872657076339203
2975,00:00:11.9,0.01835563592612746
2976,00:00:11.904,-0.0137719046324492
2977,00:00:11.908,0.011941400240175452
2978,00:00:11.912,0.0270416589337401
2979,00:00:11.916,-0.0171583175542764
2980,00:00:11.92,-0.01774896867573265
2981,00:00:11.924,0.004452168010175219
2982,00:00:11.928,-0.004237540648318791
2983,00:00:11.932,-0.00775038392748687
2984,00:00:11.936,-0.0022504539228975686
2985,00:00:11.94,0.011990181519649921
2986,00:00:11.944,0.008668815251439851
2987,00:00:11.948,-0.011293797288090001
2988,00:00:11.952,-0.014891859842464293
2989,00:00:11.956,0.04324323624314272
2990,00:00:11.96,0.00016383419279010145
2991,00:00:11.964,-0.00644279550760985
2992,00:00:11.968,-0.017142746357421898
2993,00:00:11.972,-0.020511857233941538
2994,00:00:11.976,-0.017581576481461504
2995,00:00:11.98,0.00995745183899997
2996,00:00:11.984,0.0306832436472177
2997,00:00:11.988,0.02515327883884314
2998,00:00:11.992,-0.00941230496391654
2999,00:00:11.996,-0.020076897460967302
3000,00:00:12,-0.014376766048371742
3001,00:00:12.004,0.017609082162380222
3002,00:00:12.008,0.004488350241445008
3003,00:00:12.012,-0.0007067613187245999
3004,00:00:12.016,-0.004422010388225268
3005,00:00:12.02,-0.010714794509112835
3006,00:00:12.024,0.0016584772383794206
3007,00:00:12.028,0.007310001179575927
3008,00:00:12.032,0.00826937996316701
3009,00:00:12.036,-0.02080104919150468
3010,00:00:12.04,-0.006670784670859598
3011,00:00:12.044,0.02185126347467308
3012,00:00:12.048,0.037605904042720795
3013,00:00:12.052,-0.013436928624287296
3014,00:00:12.056,-0.01861282158643008
3015,00:00:12.06,-0.05325645429547877
3016,00:00:12.064,0.028044472448527803
3017,00:00:12.068,0.011964962963247698
3018,00:00:12.072,-0.0020127929747104298
3019,00:00:12.076,-0.001355486107058818
3020,00:00:12.08,0.0024479515850544
3021,00:00:12.084,0.0292698051780463
3022,00:00:12.088,0.015212159603834149
3023,00:00:12.092,-0.02273011065699393
3024,00:00:12.096,-0.03539202548563484
3025,00:00:12.1,0.00440061604604125
3026,00:00:12.104,0.008743474725633858
3027,00:00:12.108,-0.00659080517652913
3028,00:00:12.112,0.00133306602947414
3029,00:00:12.116,0.021131267305463528
3030,00:00:12.12,0.005460782675072551
3031,00:00:12.124,-0.01959516038186848
3032,00:00:12.128,0.0097535704262555
3033,00:00:12.132,0.011892246780917052
3034,00:00:12.136,-0.020033984794281437
3035,00:00:12.14,-0.0257434593513607
3036,00:00:12.144,0.023322847206145518
3037,00:00:12.148,0.0177493514493108
3038,00:00:12.152,-0.0157995107583702
3039,00:00:12.156,0.023009468801319606
3040,00:00:12.16,-0.0001343348994851494
3041,00:00:12.164,-0.024140615016222004
3042,00:00:12.168,-0.008360284380614796
3043,00:00:12.172,-0.013162373972591018
3044,00:00:12.176,0.002777694258838891
3045,00:00:12.18,0.026569521985948117
3046,00:00:12.184,0.02765639987774196
3047,00:00:12.188,-0.0070595447905361704
3048,00:00:12.192,-0.03044415172189478
3049,00:00:12.196,-0.0021577794104814495
3050,00:00:12.2,0.009273657342419039
3051,00:00:12.204,-0.0019966186955571205
3052,00:00:12.208,-0.004318918741773819
3053,00:00:12.212,-0.005932409607339651
3054,00:00:12.216,0.005473888886626809
3055,00:00:12.22,0.029401436448097208
3056,00:00:12.224,-0.0037477302830666295
3057,00:00:12.228,-0.01732398662716154
3058,00:00:12.232,-0.0332849365659058
3059,00:00:12.236,0.01089267618954182
3060,00:00:12.24,0.02903915010392663
3061,00:00:12.244,0.00943210232071575
3062,00:00:12.248,0.005727770156226979
3063,00:00:12.252,-0.013413058593869188
3064,00:00:12.256,-0.009559048106893932
3065,00:00:12.26,-0.03315271809697149
3066,00:00:12.264,0.0027958839200437095
3067,00:00:12.268,0.029937440529465696
3068,00:00:12.272,0.01281099102925511
3069,00:00:12.276,-0.00573695451021192
3070,00:00:12.28,0.0022398987784982387
3071,00:00:12.284,0.002554067410528671
3072,00:00:12.288,-0.0029936763457954207
3073,00:00:12.292,-0.03116182843223218
3074,00:00:12.296,0.011886171385413032
3075,00:00:12.3,-0.006044687936082489
3076,00:00:12.304,0.02269367733970288
3077,00:00:12.308,0.012900424248073226
3078,00:00:12.312,-0.00921183091122657
3079,00:00:12.316,-0.01369797659572218
3080,00:00:12.32,-0.006062939792172979
3081,00:00:12.324,0.020509240857791194
3082,00:00:12.328,-0.012373221572488552
3083,00:00:12.332,-0.022467623333795927
3084,00:00:12.336,0.01229389989748595
3085,00:00:12.34,0.008514177345205098
3086,00:00:12.344,0.0099841151386499
3087,00:00:12.348,0.0775455348193646
3088,00:00:12.352,-0.04339772276580331
3089,00:00:12.356,-0.09010143950581559
3090,00:00:12.36,-0.03697088314220312
3091,00:00:12.364,0.02944295457564291
3092,00:00:12.368,0.0532400272786618
3093,00:00:12.372,0.06059968844056134
3094,00:00:12.376,0.01038970449008048
3095,00:00:12.38,-0.03386734612286088
3096,00:00:12.384,-0.04602859867736697
3097,00:00:12.388,-0.031758843921124894
3098,00:00:12.392,0.002231764025054871
3099,00:00:12.396,0.027358019127859772
3100,00:00:12.4,0.02691394696012138
3101,00:00:12.404,0.00859525590203703
3102,00:00:12.408,-0.002547996220528145
3103,00:00:12.412,-0.01604857543134131
3104,00:00:12.416,-0.002166154794394969
3105,00:00:12.42,0.013692294480279069
3106,00:00:12.424,-0.015472967177629481
3107,00:00:12.428,-0.019130580396449624
3108,00:00:12.432,-0.010069356052554214
3109,00:00:12.436,0.01938075153157113
3110,00:00:12.44,0.03078353265300391
3111,00:00:12.444,0.007471644756151415
3112,00:00:12.448,-0.022825796622782918
3113,00:00:12.452,-0.0016191797330975203
3114,00:00:12.456,0.013530883938074098
3115,00:00:12.46,-0.023433167953044176
