,Elapsed Time,EMG
0,00:00:00,7.719826281070706
1,00:00:00.004,-7.3503758907318115
2,00:00:00.008,-6.102807000279432
3,00:00:00.012,-0.6509703248739243
4,00:00:00.016,3.1326109543442753
5,00:00:00.02,3.8148221671581237
6,00:00:00.024,2.3347897082567175
7,00:00:00.028,0.3098933901637794
8,00:00:00.032,-1.107563562691212
9,00:00:00.036,-1.5149904973804948
10,00:00:00.04,-1.1346053890883927
11,00:00:00.044,-0.43293810728937426
12,00:00:00.048,0.1737061501480639
13,00:00:00.052,0.45455350726842897
14,00:00:00.056,0.4218331566080451
15,00:00:00.06,0.21358769806101935
16,00:00:00.064,-0.010778745228890376
17,00:00:00.068,-0.1161977648735047
18,00:00:00.072,-0.12320075067691459
19,00:00:00.076,-0.0935935364104808
20,00:00:00.08,-0.029396229656413236
21,00:00:00.084,0.02899217465892438
22,00:00:00.088,0.046141913160681745
23,00:00:00.092,0.030443173018284173
24,00:00:00.096,0.001855897950008509
25,00:00:00.1,-0.0033763773972168504
26,00:00:00.104,-0.005045043188147251
27,00:00:00.108,-0.004596547223627569
28,00:00:00.112,0.0011417047644499759
29,00:00:00.116,0.0031501178746111743
30,00:00:00.12,-0.004809617763385175
31,00:00:00.124,-0.014155248820315998
32,00:00:00.128,-0.0012165767475380502
33,00:00:00.132,0.013173517654649929
34,00:00:00.136,0.006328263669274742
35,00:00:00.14,-0.002084819527226504
36,00:00:00.144,-0.007533932272053791
37,00:00:00.148,0.0020030105952173497
38,00:00:00.152,0.007211169753645666
39,00:00:00.156,0.005461888154968621
40,00:00:00.16,-0.016140255727805176
41,00:00:00.164,-0.010757559270132376
42,00:00:00.168,0.0068636315409094095
43,00:00:00.172,0.02052454021759336
44,00:00:00.176,0.002351444229134361
45,00:00:00.18,-0.013743497955147163
46,00:00:00.184,-0.0069486545107793046
47,00:00:00.188,-0.00016273249639198021
48,00:00:00.192,0.005553049617446951
49,00:00:00.196,0.0038958450313657505
50,00:00:00.2,-0.0014596219662053045
51,00:00:00.204,-0.0057988377520814555
52,00:00:00.208,0.001430156233254817
53,00:00:00.212,0.00780310807749629
54,00:00:00.216,0.009004767729493327
55,00:00:00.22,-0.008574185427278287
56,00:00:00.224,-0.019927912391722175
57,00:00:00.228,-0.000328232068568472
58,00:00:00.232,0.017757156048901348
59,00:00:00.236,0.00798440296784975
60,00:00:00.24,-0.005679247551597654
61,00:00:00.244,-0.0020228692446835395
62,00:00:00.248,-0.0022293165093287826
63,00:00:00.252,-0.0021843319918843896
64,00:00:00.256,-0.0012033779930789032
65,00:00:00.26,-0.006147195759695019
66,00:00:00.264,-0.0014121722197160157
67,00:00:00.268,0.011926754981686872
68,00:00:00.272,0.012001374685496554
69,00:00:00.276,-0.0018300046212971206
70,00:00:00.28,-0.00595570588484406
71,00:00:00.284,-0.015539790940238189
72,00:00:00.288,-0.009344254794996239
73,00:00:00.292,0.023743253899738147
74,00:00:00.296,0.006728037580614911
75,00:00:00.3,-0.01237975829280913
76,00:00:00.304,-0.007563208666397263
77,00:00:00.308,0.009446181647945204
78,00:00:00.312,0.006100710830651223
79,00:00:00.316,-0.002961419959319755
80,00:00:00.32,-0.00891536040580832
81,00:00:00.324,-0.0072025392582872865
82,00:00:00.328,0.01100073929410427
83,00:00:00.332,0.008455821080133302
84,00:00:00.336,0.0009014031093101944
85,00:00:00.34,-0.006247307261219245
86,00:00:00.344,-0.0072137763490900415
87,00:00:00.348,-0.001602857591933569
88,00:00:00.352,0.01122344506438818
89,00:00:00.356,0.0003626715624704994
90,00:00:00.36,-0.0036262715002521846
91,00:00:00.364,-0.007406381540931757
92,00:00:00.368,-0.003459183091763399
93,00:00:00.372,0.014048998840735323
94,00:00:00.376,0.004922073567286139
95,00:00:00.38,-0.01129688089713454
96,00:00:00.384,-0.002075852476991711
97,00:00:00.388,-0.00012650643475353523
98,00:00:00.392,0.004455766407772895
99,00:00:00.396,0.009223518907674588
100,00:00:00.4,-0.00366925075650215
101,00:00:00.404,-0.012697672413196418
102,00:00:00.408,0.00190869625657796
103,00:00:00.412,0.004528608638793231
104,00:00:00.416,0.00046053138794377316
105,00:00:00.42,0.006147002626676116
106,00:00:00.424,-0.00987404395709746
107,00:00:00.428,-0.004798257898073644
108,00:00:00.432,0.008954604771133747
109,00:00:00.436,0.012417302787071094
110,00:00:00.44,-0.010117291545611811
111,00:00:00.444,-0.01727392146131022
112,00:00:00.448,0.010468734471942295
113,00:00:00.452,0.020874093635939013
114,00:00:00.456,-0.003236791235394781
115,00:00:00.46,-0.02423113805707541
116,00:00:00.464,-0.010037250409368429
117,00:00:00.468,0.01671122037805621
118,00:00:00.472,0.011350877000950317
119,00:00:00.476,0.00441605914966203
120,00:00:00.48,-0.011993270200036907
121,00:00:00.484,-0.0011101947166025695
122,00:00:00.488,0.0010177276562899301
123,00:00:00.492,0.00039126374758780024
124,00:00:00.496,-0.004513912164838988
125,00:00:00.5,-0.0007212772034108604
126,00:00:00.504,0.00493254407774656
127,00:00:00.508,0.00369728927034886
128,00:00:00.512,0.0068219793975004
129,00:00:00.516,-0.0034115683520212783
130,00:00:00.52,-0.015233697762596466
131,00:00:00.524,-0.0034640854573808606
132,00:00:00.528,0.0070148217491805605
133,00:00:00.532,0.009279012214392408
134,00:00:00.536,0.007458608946762981
135,00:00:00.54,-0.012473184644477447
136,00:00:00.544,-0.005965475516859444
137,00:00:00.548,0.0008368711132789029
138,00:00:00.552,0.012338596512563565
139,00:00:00.556,0.004101593673112802
140,00:00:00.56,-0.012883028131909635
141,00:00:00.564,-0.0077935355047884505
142,00:00:00.568,0.0031206936109811102
143,00:00:00.572,0.008050359145272502
144,00:00:00.576,0.00426535840961151
145,00:00:00.58,-0.0026218839338980645
146,00:00:00.584,-0.007338542694924394
147,00:00:00.588,0.00037714518839494305
148,00:00:00.592,0.009599652927136092
149,00:00:00.596,0.00111786287743598
150,00:00:00.6,-0.0016745610628277003
151,00:00:00.604,-0.010482217097887773
152,00:00:00.608,-0.0063222871394828005
153,00:00:00.612,0.01112535223364825
154,00:00:00.616,0.007770195748889819
155,00:00:00.62,-0.00606480962596834
156,00:00:00.624,-0.008893597871065143
157,00:00:00.628,0.005870316061191258
158,00:00:00.632,0.010181614692555695
159,00:00:00.636,-0.00026754487771540685
160,00:00:00.64,-0.0052329846075735995
161,00:00:00.644,-0.0051087443716824
162,00:00:00.648,-0.006528309553686991
163,00:00:00.652,0.00858362892176956
164,00:00:00.656,0.0013888477806176494
165,00:00:00.66,-0.004944904765579848
166,00:00:00.664,-0.00511125102639198
167,00:00:00.668,0.00897288596024737
168,00:00:00.672,0.011287188717687996
169,00:00:00.676,0.0053221697453409425
170,00:00:00.68,-0.01672334039176349
171,00:00:00.684,-0.015650511486455784
172,00:00:00.688,0.005571914123720492
173,00:00:00.692,0.013997852147440464
174,00:00:00.696,0.004215853405185051
175,00:00:00.7,-0.008648972783703367
176,00:00:00.704,-0.002807765093166374
177,00:00:00.708,0.00540620891842992
178,00:00:00.712,0.0047713431995362
179,00:00:00.716,-0.00124148663599044
180,00:00:00.72,-0.012958425562828824
181,00:00:00.724,-0.0025540055357851084
182,00:00:00.728,0.00665644888067618
183,00:00:00.732,0.010439037345349839
184,00:00:00.736,0.0005284173012114477
185,00:00:00.74,-0.00844791671261191
186,00:00:00.744,-0.004759168194141245
187,00:00:00.748,0.0027736516640288786
188,00:00:00.752,0.003615772176999598
189,00:00:00.756,0.005914060926443199
190,00:00:00.76,-0.002127136911440174
191,00:00:00.764,-0.010709982649132149
192,00:00:00.768,0.0006611864264414202
193,00:00:00.772,0.008257840157966712
194,00:00:00.776,0.007597737969263145
195,00:00:00.78,-0.014324606505397287
196,00:00:00.784,-0.007900739703472933
197,00:00:00.788,0.006753276533117966
198,00:00:00.792,0.014100447839609821
199,00:00:00.796,-0.00030506284201692443
200,00:00:00.8,-0.009891584110846454
201,00:00:00.804,-0.009556532714441351
202,00:00:00.808,0.009001854326925246
203,00:00:00.812,0.009659018891397817
204,00:00:00.816,-0.0029688832582905897
205,00:00:00.82,-0.00934212758147623
206,00:00:00.824,-0.0010687483008950996
207,00:00:00.828,0.009346320061013099
208,00:00:00.832,0.007967310273670593
209,00:00:00.836,-0.00880289287306368
210,00:00:00.84,-0.014873314066790018
211,00:00:00.844,-0.0030228262476157406
212,00:00:00.848,0.011188858305104072
213,00:00:00.852,0.01178095559589568
214,00:00:00.856,0.005193699005758398
215,00:00:00.86,-0.01020970987156037
216,00:00:00.864,-0.00820420566014945
217,00:00:00.868,0.0024352977634407593
218,00:00:00.872,0.0031233251793309985
219,00:00:00.876,0.0030649695545435
220,00:00:00.88,-0.008943097665905907
221,00:00:00.884,-0.0073104211478494194
222,00:00:00.888,0.00971085322089494
223,00:00:00.892,0.019727518883883053
224,00:00:00.896,0.0013758668210357302
225,00:00:00.9,-0.016651621495839177
226,00:00:00.904,-0.016258943316643137
227,00:00:00.908,-5.660403985529054e-06
228,00:00:00.912,0.016723826003726593
229,00:00:00.916,0.0071322366129607
230,00:00:00.92,-0.00990394689142705
231,00:00:00.924,-0.005806651432067153
232,00:00:00.928,0.005573416070546951
233,00:00:00.932,0.007195402227807834
234,00:00:00.936,0.0012347908341325852
235,00:00:00.94,-0.0035217832919443018
236,00:00:00.944,-0.006667942856438455
237,00:00:00.948,-0.00507777777966112
238,00:00:00.952,0.009340345510281619
239,00:00:00.956,-0.001177978469058868
240,00:00:00.96,-0.00610465789213777
241,00:00:00.964,-0.00028248195303603573
242,00:00:00.968,0.01058897760231048
243,00:00:00.972,0.00928614870645103
244,00:00:00.976,-0.008201206655940048
245,00:00:00.98,-0.013125290832249436
246,00:00:00.984,-0.0038336446450557547
247,00:00:00.988,0.008681397157488394
248,00:00:00.992,0.013578088997746816
249,00:00:00.996,0.002249649031000447
250,00:00:01,-0.019329613656736903
251,00:00:01.004,-0.0031204866390908154
252,00:00:01.008,0.0021961199672659885
253,00:00:01.012,0.009355750458780678
254,00:00:01.016,0.006920113693922762
255,00:00:01.02,-0.007154260878451171
256,00:00:01.024,-0.00791431288234889
257,00:00:01.028,0.00737491935433355
258,00:00:01.032,0.004492171516176306
259,00:00:01.036,-0.0034043374471366397
260,00:00:01.04,-0.012586010911036238
261,00:00:01.044,-0.002436882059555502
262,00:00:01.048,0.01493381708860397
263,00:00:01.052,0.013224378286395215
264,00:00:01.056,-0.00481708021834492
265,00:00:01.06,-0.013914927432779247
266,00:00:01.064,-0.0050231127534061185
267,00:00:01.068,0.0015254055615514547
268,00:00:01.072,0.008350190124474457
269,00:00:01.076,0.0038939406567806184
270,00:00:01.08,-0.015926847467198996
271,00:00:01.084,0.0039004172431305077
272,00:00:01.088,0.012285512289963663
273,00:00:01.092,0.00915885018184781
274,00:00:01.096,-0.00494457734748722
275,00:00:01.1,-0.015822241140995147
276,00:00:01.104,-0.005300182034261521
277,00:00:01.108,0.000754752720240499
278,00:00:01.112,0.01203366147819902
279,00:00:01.116,0.002513989806175228
280,00:00:01.12,-0.0032706223282730207
281,00:00:01.124,6.225521792656882e-05
282,00:00:01.128,0.0003064148477278659
283,00:00:01.132,0.003850227483781055
284,00:00:01.136,-0.0046528547536581815
285,00:00:01.14,-0.006011725286953161
286,00:00:01.144,-0.004924164095427839
287,00:00:01.148,0.009292776921938634
288,00:00:01.152,0.017786070326110334
289,00:00:01.156,-0.004501440831518263
290,00:00:01.16,-0.023680503247305792
291,00:00:01.164,-0.0005383404022722971
292,00:00:01.168,0.009662349286372768
293,00:00:01.172,0.006999555479524138
294,00:00:01.176,0.0013147032732376848
295,00:00:01.18,-0.006719111457641704
296,00:00:01.184,-0.005753069268394026
297,00:00:01.188,0.006924915942363446
298,00:00:01.192,0.004820001078769565
299,00:00:01.196,-0.002346039178519275
300,00:00:01.2,-0.0012797849452681484
301,00:00:01.204,-0.0058200199273414875
302,00:00:01.208,-0.0016560457879677398
303,00:00:01.212,0.012861906929174416
304,00:00:01.216,-0.004049866118293723
305,00:00:01.22,-0.011756175110349466
306,00:00:01.224,-0.00011322456703055693
307,00:00:01.228,0.01240642512857448
308,00:00:01.232,0.008653462119468663
309,00:00:01.236,-0.005740577817050517
310,00:00:01.24,-0.00967148202471435
311,00:00:01.244,-0.004100972364540206
312,00:00:01.248,0.007932794318548991
313,00:00:01.252,0.004536497523076832
314,00:00:01.256,-0.0010258456459268902
315,00:00:01.26,-0.01408853975590321
316,00:00:01.264,-0.0037067656958242805
317,00:00:01.268,0.014879340364132083
318,00:00:01.272,0.01396280201151966
319,00:00:01.276,-0.00607569643761963
320,00:00:01.28,-0.015652714762836712
321,00:00:01.284,0.0005476007281686153
322,00:00:01.288,0.00675191078335046
323,00:00:01.292,0.005526317982003091
324,00:00:01.296,-0.00070164550561457
325,00:00:01.3,-0.012632024125196073
326,00:00:01.304,-0.006617719307541849
327,00:00:01.308,0.01258463447447866
328,00:00:01.312,0.011569075635634314
329,00:00:01.316,-0.0009189578458972388
330,00:00:01.32,-0.01039621967356652
331,00:00:01.324,-0.01013230753596872
332,00:00:01.328,0.006529087841045113
333,00:00:01.332,0.013643381927977306
334,00:00:01.336,-0.0051675473005161655
335,00:00:01.34,-0.008512715750839554
336,00:00:01.344,0.0060470438911579575
337,00:00:01.348,-0.0006081122264731658
338,00:00:01.352,-0.0017569971969351207
339,00:00:01.356,-0.0007781627355143406
340,00:00:01.36,0.0003699381340993512
341,00:00:01.364,-0.005331020569428807
342,00:00:01.368,0.008778914751019332
343,00:00:01.372,0.00951118677039628
344,00:00:01.376,-0.0050576902140164765
345,00:00:01.38,-0.01200362898089223
346,00:00:01.384,-0.008987073611933738
347,00:00:01.388,0.013019717749557461
348,00:00:01.392,0.00958631000685274
349,00:00:01.396,-0.0035668414616338863
350,00:00:01.4,-0.007364316785242414
351,00:00:01.404,-0.0006536250002682196
352,00:00:01.408,0.008171440451405939
353,00:00:01.412,-0.0018807371379807598
354,00:00:01.416,-0.00391375960316509
355,00:00:01.42,-0.0063763985381228875
356,00:00:01.424,-0.0021733224857598595
357,00:00:01.428,0.00862907251575961
358,00:00:01.432,0.013053201313596241
359,00:00:01.436,-0.004546096482954455
360,00:00:01.44,-0.015936585608869836
361,00:00:01.444,-0.0006639617495238719
362,00:00:01.448,0.01856425797450354
363,00:00:01.452,0.00039388001459883445
364,00:00:01.456,-0.0048203940532403
365,00:00:01.46,-0.012592904182383766
366,00:00:01.464,-0.008674576412886386
367,00:00:01.468,0.009904055685183266
368,00:00:01.472,0.016666792644173256
369,00:00:01.476,-0.001684748938714624
370,00:00:01.48,-0.01072562734407261
371,00:00:01.484,-0.0029792228888254656
372,00:00:01.488,0.003911432692177633
373,00:00:01.492,0.009480498309130784
374,00:00:01.496,-0.007384940749034291
375,00:00:01.5,-0.0021504149772226897
376,00:00:01.504,-0.0067341394023969795
377,00:00:01.508,0.003897553368005901
378,00:00:01.512,0.00929755571996791
379,00:00:01.516,-0.003498184611089526
380,00:00:01.52,-0.003747171082068237
381,00:00:01.524,0.0013772072197753052
382,00:00:01.528,-0.00046621766523458297
383,00:00:01.532,0.0064918683201540305
384,00:00:01.536,-0.0008786439429968619
385,00:00:01.54,-0.010151020098419346
386,00:00:01.544,-0.003655235152109523
387,00:00:01.548,0.015893638774286938
388,00:00:01.552,0.00655238702893257
389,00:00:01.556,-0.01944989035837353
390,00:00:01.56,-0.00785530841676518
391,00:00:01.564,0.008235260669607669
392,00:00:01.568,0.011104106553830201
393,00:00:01.572,0.003992878744611524
394,00:00:01.576,-0.004794402542756869
395,00:00:01.58,-0.0074952044378733314
396,00:00:01.584,-0.004860886372625827
397,00:00:01.588,0.009949328094080567
398,00:00:01.592,0.007493408280424774
399,00:00:01.596,-0.007867229100156694
400,00:00:01.6,-0.013188489181629818
401,00:00:01.604,0.002406423802312926
402,00:00:01.608,0.009622625568681542
403,00:00:01.612,0.010147142042114839
404,00:00:01.616,-0.0016210274334298458
405,00:00:01.62,-0.012721338909614176
406,00:00:01.624,-0.0039456455397157714
407,00:00:01.628,0.004440079853338826
408,00:00:01.632,0.0066218446427228645
409,00:00:01.636,0.006050182194485382
410,00:00:01.64,-0.014491215406451336
411,00:00:01.644,-0.0050936487969011094
412,00:00:01.648,0.011814723955467387
413,00:00:01.652,0.008992754228529527
414,00:00:01.656,-0.0074925203807652005
415,00:00:01.66,-0.013692199077922814
416,00:00:01.664,-0.002539556444389738
417,00:00:01.668,0.015045243198983368
418,00:00:01.672,0.01123875608755043
419,00:00:01.676,-0.002796974600641992
420,00:00:01.68,-0.014322278846520892
421,00:00:01.684,-0.004919092738418842
422,00:00:01.688,0.006406592263374471
423,00:00:01.692,0.011345130347763228
424,00:00:01.696,-0.005053650034824383
425,00:00:01.7,-0.01313196717819664
426,00:00:01.704,-0.0033311159932054553
427,00:00:01.708,0.009838935569860091
428,00:00:01.712,0.01045238046208396
429,00:00:01.716,0.00033644129143794673
430,00:00:01.72,-0.008349080395419192
431,00:00:01.724,-0.0025359845021739615
432,00:00:01.728,0.009069388092029833
433,00:00:01.732,-0.002010548254475001
434,00:00:01.736,-0.007176650338806219
435,00:00:01.74,-0.007718983455561105
436,00:00:01.744,-0.0012095116253476612
437,00:00:01.748,0.01884328814048786
438,00:00:01.752,0.006670624119578865
439,00:00:01.756,-0.010592255101073537
440,00:00:01.76,-0.010776852199342084
441,00:00:01.764,-0.0019042990024899988
442,00:00:01.768,0.010933258789009411
443,00:00:01.772,0.01056237942248122
444,00:00:01.776,-0.004799031143193134
445,00:00:01.78,-0.016327013683621786
446,00:00:01.784,0.0009013637763928286
447,00:00:01.788,0.003937813919037581
448,00:00:01.792,0.01086935019702651
449,00:00:01.796,0.0012610901721927805
450,00:00:01.8,-0.010321833342459286
451,00:00:01.804,-0.003025089662514799
452,00:00:01.808,0.00614213177868805
453,00:00:01.812,0.007835021719984072
454,00:00:01.816,-0.004574155934733429
455,00:00:01.82,-0.014444354626789398
456,00:00:01.824,0.0007647454308425882
457,00:00:01.828,0.011104503692422406
458,00:00:01.832,0.008562619909525905
459,00:00:01.836,-0.004563638304290403
460,00:00:01.84,-0.012379179646814039
461,00:00:01.844,0.0007399613122061107
462,00:00:01.848,0.013389885891228918
463,00:00:01.852,-0.0017021181993186513
464,00:00:01.856,-0.003105256531853233
465,00:00:01.86,-0.007376971072517339
466,00:00:01.864,-0.00210782920476049
467,00:00:01.868,0.004987812848412427
468,00:00:01.872,0.006660265848040567
469,00:00:01.876,0.003778527883696373
470,00:00:01.88,-0.012801320990547508
471,00:00:01.884,-0.005793360571260557
472,00:00:01.888,0.013789642693154696
473,00:00:01.892,0.011796699749538711
474,00:00:01.896,-0.008232097025029361
475,00:00:01.9,-0.018734019067778763
476,00:00:01.904,-0.0012680707259278303
477,00:00:01.908,0.015608899004291783
478,00:00:01.912,0.00205244699463947
479,00:00:01.916,-0.00023572515056002928
480,00:00:01.92,-0.008489258138979494
481,00:00:01.924,-0.0007984335943547201
482,00:00:01.928,0.005242059507509111
483,00:00:01.932,0.007672837244172116
484,00:00:01.936,-0.0017477238502578967
485,00:00:01.94,-0.00935345515608784
486,00:00:01.944,-0.00440004258416593
487,00:00:01.948,0.005836182826897128
488,00:00:01.952,0.006743026780895883
489,00:00:01.956,-0.005375055945478381
490,00:00:01.96,-0.00790468463674187
491,00:00:01.964,0.006518405745737249
492,00:00:01.968,0.010362741071730849
493,00:00:01.972,0.0037443301407620285
494,00:00:01.976,-0.01565382641274481
495,00:00:01.98,-0.008878019230905924
496,00:00:01.984,0.003907325106411012
497,00:00:01.988,0.011613918526563792
498,00:00:01.992,0.009632445755414665
499,00:00:01.996,-0.005736102597438734
500,00:00:02,-0.01676647118438268
501,00:00:02.004,-0.0053175229695625655
502,00:00:02.008,0.01838285764097236
503,00:00:02.012,0.01017630932619791
504,00:00:02.016,-0.008737667973036847
505,00:00:02.02,-0.015329737227148105
506,00:00:02.024,0.0006121380865806709
507,00:00:02.028,0.015083928454259859
508,00:00:02.032,0.004395939053210897
509,00:00:02.036,-0.010051813628763296
510,00:00:02.04,-0.010737460448581258
511,00:00:02.044,0.004199363493171406
512,00:00:02.048,0.01785847527753505
513,00:00:02.052,-0.0031402649146912123
514,00:00:02.056,-0.007639181787908459
515,00:00:02.06,-0.01097461697645484
516,00:00:02.064,0.0054627208155579934
517,00:00:02.068,0.00715699326246978
518,00:00:02.072,0.007397042064440025
519,00:00:02.076,-0.006840647954959415
520,00:00:02.08,-0.008225072466302663
521,00:00:02.084,0.002671894035302109
522,00:00:02.088,0.00599235133267939
523,00:00:02.092,-0.00025697820819915057
524,00:00:02.096,-0.00216199993155897
525,00:00:02.1,-0.003770073206396773
526,00:00:02.104,-0.0005792447482235732
527,00:00:02.108,0.008250908780610189
528,00:00:02.112,0.004923902541577261
529,00:00:02.116,-0.009218647086527199
530,00:00:02.12,-0.015192747538094423
531,00:00:02.124,0.005230435854173264
532,00:00:02.128,0.01837968469044426
533,00:00:02.132,0.0028115571112721214
534,00:00:02.136,-0.009544489024847289
535,00:00:02.14,-0.008961135634308446
536,00:00:02.144,0.0031541436430870796
537,00:00:02.148,0.00682408580360061
538,00:00:02.152,0.0024144399740180203
539,00:00:02.156,-0.003974839528382292
540,00:00:02.16,-0.007664825677238696
541,00:00:02.164,-0.003237673297007862
542,00:00:02.168,0.014435824136398883
543,00:00:02.172,0.01137749443569195
544,00:00:02.176,-0.011033407253307807
545,00:00:02.18,-0.019379499024807963
546,00:00:02.184,0.0021560501022577206
547,00:00:02.188,0.015447692514499105
548,00:00:02.192,0.009810025150159168
549,00:00:02.196,-0.01034498759827326
550,00:00:02.2,-0.015000922992783253
551,00:00:02.204,0.004345927846429737
552,00:00:02.208,0.016765640721018847
553,00:00:02.212,0.003508619482431639
554,00:00:02.216,-0.01001279945937483
555,00:00:02.22,-0.014426460841036721
556,00:00:02.224,0.0018825931474566401
557,00:00:02.228,0.009675633162260078
558,00:00:02.232,0.01676173712621676
559,00:00:02.236,-0.011249781062360882
560,00:00:02.24,-0.013380344083998375
561,00:00:02.244,-0.00522648257901892
562,00:00:02.248,0.015383029298391207
563,00:00:02.252,0.011390844054403671
564,00:00:02.256,-0.0052509911183733484
565,00:00:02.26,-0.021086854278109968
566,00:00:02.264,0.002424916630843657
567,00:00:02.268,0.017438317110645567
568,00:00:02.272,0.0071435191202908685
569,00:00:02.276,-0.010735030984506039
570,00:00:02.28,-0.01974551298189908
571,00:00:02.284,0.005451680379337635
572,00:00:02.288,0.02366356045240538
573,00:00:02.292,0.001561827615660151
574,00:00:02.296,-0.014836232719972031
575,00:00:02.3,-0.013393801345955603
576,00:00:02.304,0.002146928207366732
577,00:00:02.308,0.017252145102247596
578,00:00:02.312,0.012479925320803924
579,00:00:02.316,-0.011070510037825448
580,00:00:02.32,-0.013764045899733929
581,00:00:02.324,-0.0023874584585428203
582,00:00:02.328,0.0018514707335270943
583,00:00:02.332,0.011332642519846512
584,00:00:02.336,-0.0010096679616253832
585,00:00:02.34,-0.004571211291477081
586,00:00:02.344,0.0011192562524229301
587,00:00:02.348,0.008429575420450424
588,00:00:02.352,-0.0006927536160219472
589,00:00:02.356,-0.007163695059716706
590,00:00:02.36,-0.009025700759593745
591,00:00:02.364,0.001356860331725328
592,00:00:02.368,0.01596463414898605
593,00:00:02.372,-0.0008252784027718021
594,00:00:02.376,-0.012237519695190716
595,00:00:02.38,-0.002931471739429979
596,00:00:02.384,0.0013314320704012018
597,00:00:02.388,0.013190449906687676
598,00:00:02.392,0.007278543947904836
599,00:00:02.396,-0.01625998489907944
600,00:00:02.4,-0.007506060122977947
601,00:00:02.404,0.00815122982021421
602,00:00:02.408,0.006461686207330806
603,00:00:02.412,0.0007186911534518042
604,00:00:02.416,-0.00513840653002262
605,00:00:02.42,-0.003715079103130848
606,00:00:02.424,-0.004661992483306678
607,00:00:02.428,0.00770810450194403
608,00:00:02.432,0.005539197416510443
609,00:00:02.436,-0.0018571784603409428
610,00:00:02.44,-0.00943700608331711
611,00:00:02.444,0.004015129918116153
612,00:00:02.448,0.004740959615446629
613,00:00:02.452,0.011783252615714416
614,00:00:02.456,-0.015499066852498772
615,00:00:02.46,-0.01290559687186028
616,00:00:02.464,0.00240247597685084
617,00:00:02.468,0.021239187088212964
618,00:00:02.472,0.006115112148108893
619,00:00:02.476,-0.016785315296146974
620,00:00:02.48,-0.012737413810100406
621,00:00:02.484,0.010963177890516821
622,00:00:02.488,0.009144182346062724
623,00:00:02.492,-0.00298954918980598
624,00:00:02.496,-0.00648276088759304
625,00:00:02.5,-0.004137790747336116
626,00:00:02.504,0.00822389146196656
627,00:00:02.508,0.007333316898439076
628,00:00:02.512,-0.000433254841482267
629,00:00:02.516,-0.009490086915320713
630,00:00:02.52,-0.01606231147889052
631,00:00:02.524,0.00818145496305078
632,00:00:02.528,0.01821601670235394
633,00:00:02.532,0.006775416550226518
634,00:00:02.536,-0.009078895847778764
635,00:00:02.54,-0.01582465099636464
636,00:00:02.544,-0.000336415250785654
637,00:00:02.548,0.014233281704946414
638,00:00:02.552,0.004058203936438071
639,00:00:02.556,-0.009853934869170189
640,00:00:02.56,-0.008174984948709652
641,00:00:02.564,0.004780071438290177
642,00:00:02.568,0.008300425339257352
643,00:00:02.572,0.005175599653739491
644,00:00:02.576,-0.0060966647288296354
645,00:00:02.58,-0.009928242667228877
646,00:00:02.584,7.571867899969264e-05
647,00:00:02.588,0.01091321636340581
648,00:00:02.592,0.002794998901663353
649,00:00:02.596,-0.008856381361511009
650,00:00:02.6,0.00184605061076582
651,00:00:02.604,8.50564101710883e-05
652,00:00:02.608,0.0019312449730932697
653,00:00:02.612,0.00018259508215123798
654,00:00:02.616,-0.009586790401954204
655,00:00:02.62,0.004359628132078793
656,00:00:02.624,0.00364203692879528
657,00:00:02.628,0.008511936350259933
658,00:00:02.632,0.005022600176744157
659,00:00:02.636,-0.017643758386839157
660,00:00:02.64,-0.012226306367665534
661,00:00:02.644,0.006109182198997587
662,00:00:02.648,0.01641413375909905
663,00:00:02.652,0.010976257050060665
664,00:00:02.656,-0.013812250777846244
665,00:00:02.66,-0.017788226308766742
666,00:00:02.664,0.0037318509857868715
667,00:00:02.668,0.019850668435537955
668,00:00:02.672,0.0030073063535383
669,00:00:02.676,-0.014759311095986013
670,00:00:02.68,-0.008276489308627788
671,00:00:02.684,0.005817497643874955
672,00:00:02.688,0.00898843212780775
673,00:00:02.692,0.005240715910986185
674,00:00:02.696,-0.00848113270149042
675,00:00:02.7,-0.008303449551021913
676,00:00:02.704,0.0015286274631307597
677,00:00:02.708,0.013174110017644113
678,00:00:02.712,0.0001082064181900863
679,00:00:02.716,-0.011373875069693859
680,00:00:02.72,-0.005087702058858662
681,00:00:02.724,0.013028066372498872
682,00:00:02.728,0.00015832062490516558
683,00:00:02.732,0.0029072133474983258
684,00:00:02.736,-0.012533758068457235
685,00:00:02.74,-0.005635081295622509
686,00:00:02.744,0.011719717396772468
687,00:00:02.748,0.005513465963304042
688,00:00:02.752,-0.0005954320076853065
689,00:00:02.756,-0.013916975149186283
690,00:00:02.76,0.004420810313604311
691,00:00:02.764,0.01066216691833688
692,00:00:02.768,0.0028873527044197566
693,00:00:02.772,-0.008431372974882839
694,00:00:02.776,-0.008600956702139225
695,00:00:02.78,-0.005385755710449308
696,00:00:02.784,0.010286391247063872
697,00:00:02.788,0.014991618751082523
698,00:00:02.792,-0.0016969230782706221
699,00:00:02.796,-0.009874954494080193
700,00:00:02.8,-0.01087847531744046
701,00:00:02.804,0.007132748374715451
702,00:00:02.808,0.0063855990047159165
703,00:00:02.812,-0.0031166183180175696
704,00:00:02.816,-0.009055758302565673
705,00:00:02.82,-0.0004494038876146048
706,00:00:02.824,0.014554562738339856
707,00:00:02.828,0.01566289177571887
708,00:00:02.832,-0.006336439837468781
709,00:00:02.836,-0.02622841307311319
710,00:00:02.84,-0.010959268998703916
711,00:00:02.844,0.010534700872085526
712,00:00:02.848,0.022076081710110922
713,00:00:02.852,0.0040904393536038705
714,00:00:02.856,-0.010140001773834211
715,00:00:02.86,-0.00826688807387654
716,00:00:02.864,-4.0392804294242524e-05
717,00:00:02.868,0.00874630142061505
718,00:00:02.872,0.0004024936770292704
719,00:00:02.876,-0.012151583595368713
720,00:00:02.88,-0.004253315017194834
721,00:00:02.884,0.012831352919420145
722,00:00:02.888,0.005874468062756934
723,00:00:02.892,0.0012032536608330682
724,00:00:02.896,-0.01436116921126995
725,00:00:02.9,-0.0017415663896826966
726,00:00:02.904,0.006444461683940974
727,00:00:02.908,0.011240536347031588
728,00:00:02.912,-0.002846301329554984
729,00:00:02.916,-0.012958153820363803
730,00:00:02.92,-0.0029758070595562497
731,00:00:02.924,0.003684394061565404
732,00:00:02.928,0.011566837201826259
733,00:00:02.932,0.00798241712618619
734,00:00:02.936,-0.014132498996332269
735,00:00:02.94,-0.018479412188753486
736,00:00:02.944,0.01365633489604075
737,00:00:02.948,0.014611463760957162
738,00:00:02.952,-0.001592709566466509
739,00:00:02.956,-0.012903477938380082
740,00:00:02.96,-0.009712112339911984
741,00:00:02.964,0.015231411845888897
742,00:00:02.968,0.012215970360557596
743,00:00:02.972,-0.004778310845722442
744,00:00:02.976,-0.012863165131420802
745,00:00:02.98,-0.007919856725493443
746,00:00:02.984,0.004196629346552076
747,00:00:02.988,0.015823370398152313
748,00:00:02.992,-0.0005775615572929398
749,00:00:02.996,-0.007317808805964879
750,00:00:03,-0.004173575740423987
751,00:00:03.004,0.006544725038111206
752,00:00:03.008,0.0029886418487876675
753,00:00:03.012,-0.006158241885714236
754,00:00:03.016,-0.00829695547145093
755,00:00:03.02,0.0020506789733190146
756,00:00:03.024,0.01011825370369479
757,00:00:03.028,0.005040980759076773
758,00:00:03.032,-0.0035368730943901067
759,00:00:03.036,-0.0068066477251704765
760,00:00:03.04,0.00141068501397968
761,00:00:03.044,-0.0025356237310916203
762,00:00:03.048,0.0060298252792563255
763,00:00:03.052,0.0003396010724827608
764,00:00:03.056,-0.00427662336733192
765,00:00:03.06,-0.0064095968555193394
766,00:00:03.064,0.0045978433045093005
767,00:00:03.068,0.011605044244788611
768,00:00:03.072,-0.0016031843260861903
769,00:00:03.076,-0.009837503530434328
770,00:00:03.08,-0.006647786452958823
771,00:00:03.084,0.003794503994868138
772,00:00:03.088,0.0146060745755676
773,00:00:03.092,0.0024180220352718633
774,00:00:03.096,-0.016028058988240466
775,00:00:03.1,-0.0014472006150754219
776,00:00:03.104,0.003690851848659804
777,00:00:03.108,0.00774525398082915
778,00:00:03.112,-0.0003330803683638807
779,00:00:03.116,-0.007717379712630646
780,00:00:03.12,-0.007544817273810629
781,00:00:03.124,0.012008938356302672
782,00:00:03.128,0.009666880614531689
783,00:00:03.132,-0.007203439134173091
784,00:00:03.136,-0.009715351101476678
785,00:00:03.14,-0.008954396325862035
786,00:00:03.144,0.01755161344772202
787,00:00:03.148,0.014654892380349381
788,00:00:03.152,-0.016337376902811267
789,00:00:03.156,-0.012331888690823717
790,00:00:03.16,0.003605835372582078
791,00:00:03.164,0.00915874738711864
792,00:00:03.168,0.0025461306213401275
793,00:00:03.172,0.0010953723322018045
794,00:00:03.176,-0.008208999759517614
795,00:00:03.18,-0.001440311723854395
796,00:00:03.184,0.0064633387701178435
797,00:00:03.188,0.0051733671280089774
798,00:00:03.192,-0.0034287563612451747
799,00:00:03.196,-0.011304845203994754
800,00:00:03.2,-0.005341882641005215
801,00:00:03.204,0.01066634905873798
802,00:00:03.208,0.019142077901051387
803,00:00:03.212,-0.0038834653751109753
804,00:00:03.216,-0.023782376989402082
805,00:00:03.22,-0.003080856255110122
806,00:00:03.224,0.007022652065643341
807,00:00:03.228,0.012341435925918642
808,00:00:03.232,0.00891545083686651
809,00:00:03.236,-0.008946321667508528
810,00:00:03.24,-0.011483806684736943
811,00:00:03.244,0.0003802928285949782
812,00:00:03.248,0.00545262800460478
813,00:00:03.252,-0.003565954262739978
814,00:00:03.256,-0.0030826238507870632
815,00:00:03.26,0.002393790216046904
816,00:00:03.264,0.013300149395945468
817,00:00:03.268,0.00843803130555899
818,00:00:03.272,-0.01323580532334744
819,00:00:03.276,-0.01387983188033107
820,00:00:03.28,-0.0012787587475031703
821,00:00:03.284,0.0010980216320604075
822,00:00:03.288,0.01624494715360927
823,00:00:03.292,-0.001131577766500416
824,00:00:03.296,-0.0042249665129929816
825,00:00:03.3,-0.0002315078745596101
826,00:00:03.304,0.002206945966463542
827,00:00:03.308,0.003866089362418275
828,00:00:03.312,-0.012376478727674084
829,00:00:03.316,-0.0058057780988747185
830,00:00:03.32,0.0074093266157433295
831,00:00:03.324,0.011525725363753746
832,00:00:03.328,0.004974137293174862
833,00:00:03.332,-0.012780177174136044
834,00:00:03.336,-0.004464041965547945
835,00:00:03.34,-0.006065105553716425
836,00:00:03.344,0.007976936642080545
837,00:00:03.348,0.00909436063375324
838,00:00:03.352,-0.004372278926894062
839,00:00:03.356,-0.006211206171428783
840,00:00:03.36,0.003470960626145829
841,00:00:03.364,0.005627892271149905
842,00:00:03.368,0.007078568683937186
843,00:00:03.372,-0.013089751970255706
844,00:00:03.376,-0.01307018089573835
845,00:00:03.38,0.006284655362833295
846,00:00:03.384,0.01124141365289691
847,00:00:03.388,0.007100462913513184
848,00:00:03.392,-0.00159704708494247
849,00:00:03.396,-0.018759650280117085
850,00:00:03.4,-0.00027364696143194686
851,00:00:03.404,0.013124112563673433
852,00:00:03.408,0.010843584896065293
853,00:00:03.412,-0.008006806310731914
854,00:00:03.416,-0.017764678719686313
855,00:00:03.42,-0.0024313143258041237
856,00:00:03.424,0.011742583272280133
857,00:00:03.428,0.013610175010399003
858,00:00:03.432,0.004612821212504057
859,00:00:03.436,-0.016489022287714743
860,00:00:03.44,-0.012411187140969594
861,00:00:03.444,0.006763292592950159
862,00:00:03.448,0.014900431502610422
863,00:00:03.452,0.002222589871962561
864,00:00:03.456,-0.013888694826164267
865,00:00:03.46,-0.007244510110467669
866,00:00:03.464,0.010517326882109027
867,00:00:03.468,0.011272052724962131
868,00:00:03.472,-0.008423688435868824
869,00:00:03.476,-0.012226367660332516
870,00:00:03.48,-0.004170805550529622
871,00:00:03.484,0.01627844991162422
872,00:00:03.488,0.013887245463138248
873,00:00:03.492,-0.009415623229870107
874,00:00:03.496,-0.01704766005059354
875,00:00:03.5,-0.0026290631321899097
876,00:00:03.504,0.01474115508608516
877,00:00:03.508,0.00840850453823805
878,00:00:03.512,-0.0055867872433737
879,00:00:03.516,-0.01297456490283367
880,00:00:03.52,0.0008053362835198639
881,00:00:03.524,0.01384011202026159
882,00:00:03.528,0.007071713334880769
883,00:00:03.532,-0.019045132561586808
884,00:00:03.536,-0.00602526540751569
885,00:00:03.54,0.007763626868836581
886,00:00:03.544,0.009091559797525406
887,00:00:03.548,4.185643047094974e-05
888,00:00:03.552,-0.005639423208776862
889,00:00:03.556,-0.009689136815723039
890,00:00:03.56,0.003905456862412391
891,00:00:03.564,0.013124090881319689
892,00:00:03.568,0.004548622178845109
893,00:00:03.572,-0.008446949999779468
894,00:00:03.576,-0.007622617646120491
895,00:00:03.58,-0.004453165434824767
896,00:00:03.584,0.0018607489764690406
897,00:00:03.588,0.01338872453197838
898,00:00:03.592,0.00491147366119549
899,00:00:03.596,-0.016707764494640252
900,00:00:03.6,-0.010205554775893692
901,00:00:03.604,0.01817435247357937
902,00:00:03.608,0.011168429162353322
903,00:00:03.612,-0.012229493993800116
904,00:00:03.616,-0.009298672710428946
905,00:00:03.62,0.0056706074392423
906,00:00:03.624,0.005247615103144202
907,00:00:03.628,0.0008672190015204229
908,00:00:03.632,-0.002227209683042022
909,00:00:03.636,-0.006951762421522293
910,00:00:03.64,-0.00599881561356597
911,00:00:03.644,0.01318931975401938
912,00:00:03.648,0.00593427277635784
913,00:00:03.652,-0.0034597862759255847
914,00:00:03.656,-0.004831108177313585
915,00:00:03.66,-0.00269317952916026
916,00:00:03.664,-0.00010733347153290521
917,00:00:03.668,0.005567492524278348
918,00:00:03.672,-0.0023236581910168743
919,00:00:03.676,-0.004364341002656145
920,00:00:03.68,-0.002365630876738575
921,00:00:03.684,0.008944299937866166
922,00:00:03.688,0.009190691394906005
923,00:00:03.692,-0.00515092266141437
924,00:00:03.696,-0.013941182864073207
925,00:00:03.7,-0.0026778810351970658
926,00:00:03.704,0.006647669548101477
927,00:00:03.708,0.014546613652782998
928,00:00:03.712,-0.005539447509363533
929,00:00:03.716,-0.013902675806093633
930,00:00:03.72,0.0026096868382410364
931,00:00:03.724,0.008095386505829087
932,00:00:03.728,0.009930613413416724
933,00:00:03.732,-0.013529090711017528
934,00:00:03.736,-0.010951556430427408
935,00:00:03.74,0.005037116912319564
936,00:00:03.744,0.02274661301635204
937,00:00:03.748,-0.00268313509877772
938,00:00:03.752,-0.021249360986985294
939,00:00:03.756,-0.006920294137671561
940,00:00:03.76,0.00948769086971879
941,00:00:03.764,0.011755645857192593
942,00:00:03.768,0.001913546788273384
943,00:00:03.772,0.0009820385603234168
944,00:00:03.776,-0.014321799390018004
945,00:00:03.78,-0.00421102273685392
946,00:00:03.784,0.01411669689696284
947,00:00:03.788,0.00665508909150954
948,00:00:03.792,-0.00962508853990585
949,00:00:03.796,-0.016221692931139852
950,00:00:03.8,0.00652924773748963
951,00:00:03.804,0.014086160343140329
952,00:00:03.808,0.00747926183976233
953,00:00:03.812,-0.00960571801260812
954,00:00:03.816,-0.012910803081467746
955,00:00:03.82,-0.002681772268260825
956,00:00:03.824,0.013936391696915944
957,00:00:03.828,0.005967424367554491
958,00:00:03.832,-0.00138774816878141
959,00:00:03.836,-0.012954744859598563
960,00:00:03.84,0.003762857479159722
961,00:00:03.844,0.004786699311807755
962,00:00:03.848,0.001224221719894555
963,00:00:03.852,-0.0016582842749812692
964,00:00:03.856,-0.008629106669104662
965,00:00:03.86,-0.003915150067768995
966,00:00:03.864,0.018869156774599077
967,00:00:03.868,0.006116482196375733
968,00:00:03.872,-0.013772158476058382
969,00:00:03.876,-0.01796919568005251
970,00:00:03.88,0.013692009626538524
971,00:00:03.884,0.012196703784866259
972,00:00:03.888,-2.5692424969754818e-05
973,00:00:03.892,-0.005285410179340034
974,00:00:03.896,-0.01341797264831262
975,00:00:03.9,-0.0006948687623662378
976,00:00:03.904,0.01708175258863775
977,00:00:03.908,0.005709403906621451
978,00:00:03.912,-0.008163719218828183
979,00:00:03.916,-0.011705293200066096
980,00:00:03.92,-0.0004959731595590718
981,00:00:03.924,0.009251693787518877
982,00:00:03.928,0.007629354629898444
983,00:00:03.932,-0.00440997385885566
984,00:00:03.936,-0.00955346005503088
985,00:00:03.94,0.0016073305450845531
986,00:00:03.944,0.01020535512361676
987,00:00:03.948,-0.0034805198665708355
988,00:00:03.952,-0.004727892835944658
989,00:00:03.956,-0.00587969482876361
990,00:00:03.96,0.0029755800496786902
991,00:00:03.964,0.00953176745679231
992,00:00:03.968,0.007990728365257393
993,00:00:03.972,-0.010539531504036859
994,00:00:03.976,-0.010558102832874283
995,00:00:03.98,-0.0013700505660381233
996,00:00:03.984,0.013567921887442899
997,00:00:03.988,0.008912115299608604
998,00:00:03.992,-0.0043395770189818
999,00:00:03.996,-0.016582660908170507
1000,00:00:04,-0.0041824672953225655
1001,00:00:04.004,0.009102231357246651
1002,00:00:04.008,0.007717335072811695
1003,00:00:04.012,3.0657509341835976e-05
1004,00:00:04.016,-0.004402399063110359
1005,00:00:04.02,-0.002158772855182171
1006,00:00:04.024,0.006845580268418409
1007,00:00:04.028,0.002095118863508101
1008,00:00:04.032,-0.007350080170908774
1009,00:00:04.036,-0.01119832362746821
1010,00:00:04.04,0.005867016509000682
1011,00:00:04.044,0.007933977365610188
1012,00:00:04.048,0.010106659203302122
1013,00:00:04.052,-0.008602864487329494
1014,00:00:04.056,-0.007967496732817384
1015,00:00:04.06,0.00015981525575625754
1016,00:00:04.064,0.0027881489440915235
1017,00:00:04.068,0.004467187798582018
1018,00:00:04.072,0.001038044341839852
1019,00:00:04.076,-0.0039407641161233395
1020,00:00:04.08,-0.002704374899622046
1021,00:00:04.084,0.0019423792837187724
1022,00:00:04.088,0.00158797809854151
1023,00:00:04.092,-0.00607328966725618
1024,00:00:04.096,-0.0010346221970394301
1025,00:00:04.1,0.012128887465223672
1026,00:00:04.104,0.0031071947887539803
1027,00:00:04.108,0.0006223950767889599
1028,00:00:04.112,-0.00935196899808943
1029,00:00:04.116,-0.015317233075620645
1030,00:00:04.12,0.002532648621127012
1031,00:00:04.124,0.017696494353003803
1032,00:00:04.128,0.0042252330458722965
1033,00:00:04.132,-0.00956067605875432
1034,00:00:04.136,-0.0013983900425955707
1035,00:00:04.14,-0.00088627351215109
1036,00:00:04.144,0.005177738843485715
1037,00:00:04.148,-5.149884964339007e-05
1038,00:00:04.152,-0.003923751064576207
1039,00:00:04.156,-0.0016987872077152185
1040,00:00:04.16,0.0009490391239523869
1041,00:00:04.164,0.008236830180976535
1042,00:00:04.168,0.003932938794605425
1043,00:00:04.172,-0.01237534009851515
1044,00:00:04.176,-0.01174290213384667
1045,00:00:04.18,-0.0013444991200231011
1046,00:00:04.184,0.029430791662889512
1047,00:00:04.188,0.007460702850949026
1048,00:00:04.192,-0.023897962120827263
1049,00:00:04.196,-0.01665502898686096
1050,00:00:04.2,0.013936711296992187
1051,00:00:04.204,0.012556595240312158
1052,00:00:04.208,-0.0015291124582290595
1053,00:00:04.212,-0.0027820966206491
1054,00:00:04.216,-0.011499188636662484
1055,00:00:04.22,0.0036286044633016003
1056,00:00:04.224,0.007954368367791124
1057,00:00:04.228,0.00513105989375618
1058,00:00:04.232,-0.008089538678177629
1059,00:00:04.236,-0.009895984665490697
1060,00:00:04.24,0.0058987408119719476
1061,00:00:04.244,0.010849315091036243
1062,00:00:04.248,0.0026059079682454497
1063,00:00:04.252,-0.010801443946547792
1064,00:00:04.256,-0.010909841190368712
1065,00:00:04.26,0.006459723110310733
1066,00:00:04.264,0.012076345155946931
1067,00:00:04.268,0.003649964521173387
1068,00:00:04.272,-0.00827451008626667
1069,00:00:04.276,-0.012997742771403819
1070,00:00:04.28,0.002335699275135996
1071,00:00:04.284,0.013465434865793175
1072,00:00:04.288,0.0038214117521420113
1073,00:00:04.292,-0.009282029575842895
1074,00:00:04.296,-0.005444255875772795
1075,00:00:04.3,0.011311971378745511
1076,00:00:04.304,0.0005233406300249044
1077,00:00:04.308,3.382129943928767e-05
1078,00:00:04.312,-0.014160339986119623
1079,00:00:04.316,-0.005238986810581998
1080,00:00:04.32,0.00907900601669098
1081,00:00:04.324,0.010935072718893893
1082,00:00:04.328,0.003443215462993977
1083,00:00:04.332,-0.009444904688280072
1084,00:00:04.336,-0.0037975925370119477
1085,00:00:04.34,0.0067191335256211425
1086,00:00:04.344,0.0004596344660967597
1087,00:00:04.348,-0.002782468160148713
1088,00:00:04.352,-0.011167653879965626
1089,00:00:04.356,-0.001669960503932091
1090,00:00:04.36,0.016985828231554482
1091,00:00:04.364,0.008739973593037574
1092,00:00:04.368,-0.0049142969946842675
1093,00:00:04.372,-0.012653287682041962
1094,00:00:04.376,-0.006038709529093475
1095,00:00:04.38,0.0038631734350929024
1096,00:00:04.384,0.0056304334211745325
1097,00:00:04.388,0.00758682065406901
1098,00:00:04.392,0.0006855165120214197
1099,00:00:04.396,-0.016975438556983108
1100,00:00:04.4,0.0002965335006592776
1101,00:00:04.404,0.012727857392747
1102,00:00:04.408,0.00592565687838942
1103,00:00:04.412,-0.006760763854799732
1104,00:00:04.416,-0.012766987638315188
1105,00:00:04.42,0.001715181890176604
1106,00:00:04.424,0.01265411943313666
1107,00:00:04.428,0.005359378326829753
1108,00:00:04.432,-0.009304860985139388
1109,00:00:04.436,-0.008876724270521663
1110,00:00:04.44,0.0035573915811255544
1111,00:00:04.444,0.007346625036007024
1112,00:00:04.448,-0.0013749569479841704
1113,00:00:04.452,5.965487798675987e-05
1114,00:00:04.456,-0.006596033927053213
1115,00:00:04.46,0.009244976099580528
1116,00:00:04.464,0.006404216517694292
1117,00:00:04.468,-0.009077757596969601
1118,00:00:04.472,-0.0119089183572214
1119,00:00:04.476,-0.0038813542341813462
1120,00:00:04.48,0.014340136491227904
1121,00:00:04.484,0.01386977932997982
1122,00:00:04.488,-0.005696764506865287
1123,00:00:04.492,-0.013028310611844082
1124,00:00:04.496,-0.003079394489759581
1125,00:00:04.5,0.005176440579816706
1126,00:00:04.504,0.00890704279299826
1127,00:00:04.508,0.0038658234407193954
1128,00:00:04.512,-0.016485060754348493
1129,00:00:04.516,-0.005539424455491829
1130,00:00:04.52,0.012563788797706355
1131,00:00:04.524,0.007999951252713827
1132,00:00:04.528,-0.004764691359014255
1133,00:00:04.532,-0.007706978849000732
1134,00:00:04.536,-0.006557883483765183
1135,00:00:04.54,0.010510403604712334
1136,00:00:04.544,0.009522824286250424
1137,00:00:04.548,-0.0018919155991170568
1138,00:00:04.552,-0.012327086005825548
1139,00:00:04.556,-0.0032445367542095482
1140,00:00:04.56,0.005020355689339338
1141,00:00:04.564,0.008939116320107125
1142,00:00:04.568,0.0019216664950363355
1143,00:00:04.572,-0.012323795526754115
1144,00:00:04.576,-0.003768041438888754
1145,00:00:04.58,0.007002714206464594
1146,00:00:04.584,0.00516123231500387
1147,00:00:04.588,0.0005008430598536587
1148,00:00:04.592,-0.01080769803957082
1149,00:00:04.596,0.0008131525246426459
1150,00:00:04.6,0.006752906832844021
1151,00:00:04.604,0.01003998075611888
1152,00:00:04.608,-0.008494171652273506
1153,00:00:04.612,-0.007880665249558693
1154,00:00:04.616,-0.001834935916122043
1155,00:00:04.62,0.004863352049142124
1156,00:00:04.624,0.008293995535495924
1157,00:00:04.628,0.0014067910451558406
1158,00:00:04.632,-0.012498751770181116
1159,00:00:04.636,-0.005738005358580266
1160,00:00:04.64,0.007123332499759268
1161,00:00:04.644,0.011043244769098235
1162,00:00:04.648,0.002505914650100746
1163,00:00:04.652,-0.013028582689003046
1164,00:00:04.656,-0.0069941317633492855
1165,00:00:04.66,0.006024100583999828
1166,00:00:04.664,0.010545804194407546
1167,00:00:04.668,0.004674214194892558
1168,00:00:04.672,-0.014592884781905017
1169,00:00:04.676,-0.008209112932263457
1170,00:00:04.68,0.0019511748832883337
1171,00:00:04.684,0.015385763332233194
1172,00:00:04.688,0.008890478412467932
1173,00:00:04.692,-0.01582153008712341
1174,00:00:04.696,-0.007940674462588525
1175,00:00:04.7,0.0053498091874644195
1176,00:00:04.704,0.00995765964034949
1177,00:00:04.708,0.002262748312205072
1178,00:00:04.712,-0.014700676774737114
1179,00:00:04.716,-0.008511465479386972
1180,00:00:04.72,0.016327227931469717
1181,00:00:04.724,0.01448696886654944
1182,00:00:04.728,-0.00719591532833874
1183,00:00:04.732,-0.015071418718434879
1184,00:00:04.736,-0.008433681014139433
1185,00:00:04.74,0.0050205666339024945
1186,00:00:04.744,0.014972220174968274
1187,00:00:04.748,0.004353298572823405
1188,00:00:04.752,-0.009467941898037662
1189,00:00:04.756,-0.0059792747633764486
1190,00:00:04.76,0.0024730855948291745
1191,00:00:04.764,0.010172838025027924
1192,00:00:04.768,-0.0016790422887424943
1193,00:00:04.772,-0.004922673466353445
1194,00:00:04.776,-0.00558450631797309
1195,00:00:04.78,0.0032770395046100003
1196,00:00:04.784,0.00714019557926804
1197,00:00:04.788,-0.005509883507329504
1198,00:00:04.792,-0.008682990504894406
1199,00:00:04.796,-0.004558697517495601
1200,00:00:04.8,0.018009055347647476
1201,00:00:04.804,0.01015651111629268
1202,00:00:04.808,-0.004408900858834384
1203,00:00:04.812,-0.0151217703241855
1204,00:00:04.816,-0.0048250108375214006
1205,00:00:04.82,0.004877293387835385
1206,00:00:04.824,0.009701730206870679
1207,00:00:04.828,0.0028786696711904326
1208,00:00:04.832,-0.01167186562815915
1209,00:00:04.836,-0.007731247889751099
1210,00:00:04.84,0.00871106202305327
1211,00:00:04.844,0.016344058065442382
1212,00:00:04.848,-0.0016075595412985482
1213,00:00:04.852,-0.02348545263521371
1214,00:00:04.856,-0.00029305703355930355
1215,00:00:04.86,0.014335499959997803
1216,00:00:04.864,0.007588681590277673
1217,00:00:04.868,-0.007995021238457412
1218,00:00:04.872,-0.01287108822725718
1219,00:00:04.876,0.006940482504433014
1220,00:00:04.88,0.00990992947481573
1221,00:00:04.884,0.00887740426696833
1222,00:00:04.888,-0.009548390749841925
1223,00:00:04.892,-0.01869025555788538
1224,00:00:04.896,-0.004678947676438838
1225,00:00:04.9,0.018274868489243076
1226,00:00:04.904,0.011927303508855411
1227,00:00:04.908,-0.0041990729382632725
1228,00:00:04.912,-0.013578002661233761
1229,00:00:04.916,-0.0027744681283365987
1230,00:00:04.92,0.006165327504277232
1231,00:00:04.924,0.018046865596943466
1232,00:00:04.928,-0.007983475730725328
1233,00:00:04.932,-0.01534151098894652
1234,00:00:04.936,-0.007564446030301044
1235,00:00:04.94,0.016592466683505346
1236,00:00:04.944,0.005830773724028406
1237,00:00:04.948,-0.003832566151686481
1238,00:00:04.952,-0.00876250353212529
1239,00:00:04.956,-0.002285639935507782
1240,00:00:04.96,0.007690207258747249
1241,00:00:04.964,0.00945922284199696
1242,00:00:04.968,-0.003725132133695303
1243,00:00:04.972,-0.008355403937002842
1244,00:00:04.976,-0.0038656497490592327
1245,00:00:04.98,0.005385976539855616
1246,00:00:04.984,0.0058778915845323415
1247,00:00:04.988,-0.0018797441880451544
1248,00:00:04.992,-0.009953041357221077
1249,00:00:04.996,-0.0026569050678517617
1250,00:00:05,0.00856840558844851
1251,00:00:05.004,0.008677458972670159
1252,00:00:05.008,0.0033012301428243496
1253,00:00:05.012,-0.012544569268357047
1254,00:00:05.016,-0.005357295674912163
1255,00:00:05.02,0.00319201266393066
1256,00:00:05.024,0.008231192012317477
1257,00:00:05.028,-0.004012835604953577
1258,00:00:05.032,-0.005646493910717251
1259,00:00:05.036,0.003920401213690637
1260,00:00:05.04,0.005903350189328191
1261,00:00:05.044,0.0030580048914998804
1262,00:00:05.048,-0.009100812560063792
1263,00:00:05.052,-0.00564101146301255
1264,00:00:05.056,0.000594733995967546
1265,00:00:05.06,0.004084264975972474
1266,00:00:05.064,0.006131243426352739
1267,00:00:05.068,0.0062450245022773795
1268,00:00:05.072,-0.005761682637967173
1269,00:00:05.076,-0.012817348411772437
1270,00:00:05.08,0.005042023723945018
1271,00:00:05.084,0.009922325145453211
1272,00:00:05.088,-0.0065347095078323
1273,00:00:05.092,-0.00526978564448653
1274,00:00:05.096,-0.0020382807124406203
1275,00:00:05.1,0.005338355549611143
1276,00:00:05.104,0.011426341137848838
1277,00:00:05.108,0.0002179703478759617
1278,00:00:05.112,-0.009925697988364849
1279,00:00:05.116,-0.012495737235440174
1280,00:00:05.12,0.014184304047375959
1281,00:00:05.124,0.0027589622186496897
1282,00:00:05.128,0.0021935532859060887
1283,00:00:05.132,-0.010677919024601572
1284,00:00:05.136,-0.00486392783932387
1285,00:00:05.14,0.011056214629206843
1286,00:00:05.144,0.004280109656974673
1287,00:00:05.148,-0.005692360922694211
1288,00:00:05.152,-0.001948817400261771
1289,00:00:05.156,-0.0019936999306082713
1290,00:00:05.16,0.0027910000062547637
1291,00:00:05.164,0.0065380004525650275
1292,00:00:05.168,-0.001354465421172793
1293,00:00:05.172,-0.012369754607789222
1294,00:00:05.176,-0.0014891969622112767
1295,00:00:05.18,0.013659699015988723
1296,00:00:05.184,0.004616766324033961
1297,00:00:05.188,-0.0048587266355753
1298,00:00:05.192,-0.009647472528740767
1299,00:00:05.196,-0.0006963574123801598
1300,00:00:05.2,0.007781001717376059
1301,00:00:05.204,0.00616077810991556
1302,00:00:05.208,-0.00928882305743172
1303,00:00:05.212,-0.001360568567179148
1304,00:00:05.216,-0.0005651476094499191
1305,00:00:05.22,0.005723707494325939
1306,00:00:05.224,0.00254498980939389
1307,00:00:05.228,-0.00974329141899943
1308,00:00:05.232,0.00689258068450726
1309,00:00:05.236,-0.001986875489819792
1310,00:00:05.24,0.00018612854182720184
1311,00:00:05.244,0.002413579379208384
1312,00:00:05.248,6.314384518190394e-05
1313,00:00:05.252,-0.005984465024084781
1314,00:00:05.256,-0.004283534624846654
1315,00:00:05.26,0.008206656668335198
1316,00:00:05.264,0.009630127577111123
1317,00:00:05.268,-0.010406848159618681
1318,00:00:05.272,-0.0030077726114541305
1319,00:00:05.276,-0.007524722721427679
1320,00:00:05.28,0.011851931420096648
1321,00:00:05.284,0.014319765148684339
1322,00:00:05.288,-0.006290882185567169
1323,00:00:05.292,-0.018616964836837772
1324,00:00:05.296,-0.0023742949306324633
1325,00:00:05.3,0.010162412916542924
1326,00:00:05.304,0.0072997469687834365
1327,00:00:05.308,-0.001094689498131627
1328,00:00:05.312,-0.009498579660430547
1329,00:00:05.316,0.003539001249009739
1330,00:00:05.32,0.006319616717519239
1331,00:00:05.324,0.0012148498171882247
1332,00:00:05.328,-0.003055271768971581
1333,00:00:05.332,-0.010244533790682905
1334,00:00:05.336,-0.004860421155171931
1335,00:00:05.34,0.01466475502820689
1336,00:00:05.344,0.0106198540443074
1337,00:00:05.348,-0.007709662766501422
1338,00:00:05.352,-0.01701027569470173
1339,00:00:05.356,0.0002645768663569537
1340,00:00:05.36,0.01821312295568585
1341,00:00:05.364,0.005844049934239595
1342,00:00:05.368,-0.014975247887377937
1343,00:00:05.372,-0.0043892934213545206
1344,00:00:05.376,0.006234032616589506
1345,00:00:05.38,0.0042155577735911755
1346,00:00:05.384,0.0019183074023203452
1347,00:00:05.388,-0.0066820812696732875
1348,00:00:05.392,-0.010591573682177143
1349,00:00:05.396,0.001935986924806342
1350,00:00:05.4,0.011764805018287944
1351,00:00:05.404,0.013125924993801134
1352,00:00:05.408,-0.004326351448867171
1353,00:00:05.412,-0.017859555915329357
1354,00:00:05.416,-0.003287922724894084
1355,00:00:05.42,0.006514509915277246
1356,00:00:05.424,0.010147164965871976
1357,00:00:05.428,0.00026310664421912936
1358,00:00:05.432,-0.012619787770120156
1359,00:00:05.436,-0.0005711645353585612
1360,00:00:05.44,0.010563754709437522
1361,00:00:05.444,0.004478712915442879
1362,00:00:05.448,-0.011142900097183885
1363,00:00:05.452,-0.0040511551778763515
1364,00:00:05.456,0.003958850793424068
1365,00:00:05.46,0.006262238865019755
1366,00:00:05.464,0.0038337032019626323
1367,00:00:05.468,-0.006277081905864176
1368,00:00:05.472,-0.013464501244015962
1369,00:00:05.476,0.004837469314225016
1370,00:00:05.48,0.01891261024866251
1371,00:00:05.484,0.0035160809056833404
1372,00:00:05.488,-0.01584526977967471
1373,00:00:05.492,-0.016469136928208148
1374,00:00:05.496,0.00608788913814351
1375,00:00:05.5,0.017487371573224712
1376,00:00:05.504,0.009657301940023899
1377,00:00:05.508,-0.009645506979722997
1378,00:00:05.512,-0.016360208188416464
1379,00:00:05.516,-0.0021905814064666585
1380,00:00:05.52,0.010598771274089841
1381,00:00:05.524,0.01213851757347584
1382,00:00:05.528,-0.00667054206132884
1383,00:00:05.532,-0.00460551329888403
1384,00:00:05.536,0.0026506870053708575
1385,00:00:05.54,-0.00120880443137139
1386,00:00:05.544,-0.0017801434369175712
1387,00:00:05.548,0.0012603827926795982
1388,00:00:05.552,-0.0037375767133198735
1389,00:00:05.556,-0.00290794810280204
1390,00:00:05.56,0.006299333559582009
1391,00:00:05.564,0.008941603882703927
1392,00:00:05.568,-0.0033723341766744895
1393,00:00:05.572,-0.0035341598559170987
1394,00:00:05.576,-0.011467710719443861
1395,00:00:05.58,0.006187817314639689
1396,00:00:05.584,0.008641384854854587
1397,00:00:05.588,-0.0022030801046639603
1398,00:00:05.592,-0.00992512609809637
1399,00:00:05.596,0.0042040325351990725
1400,00:00:05.6,0.00949933414813134
1401,00:00:05.604,0.002163967874366795
1402,00:00:05.608,-0.012618285953067247
1403,00:00:05.612,-0.00427171081537381
1404,00:00:05.616,0.002477644884493203
1405,00:00:05.62,0.009012106340378525
1406,00:00:05.624,0.005988950229948391
1407,00:00:05.628,-0.01220842229668051
1408,00:00:05.632,-0.0023277211003005613
1409,00:00:05.636,0.004610240677720871
1410,00:00:05.64,0.0033897700195666403
1411,00:00:05.644,0.0044661641586571914
1412,00:00:05.648,-0.00978724961169064
1413,00:00:05.652,-0.005470858246553694
1414,00:00:05.656,0.001564555539516733
1415,00:00:05.66,0.009186493756715207
1416,00:00:05.664,0.008792605774942747
1417,00:00:05.668,0.0009599740151315963
1418,00:00:05.672,-0.019700511445989836
1419,00:00:05.676,-0.005315794493071729
1420,00:00:05.68,0.006306560593657189
1421,00:00:05.684,0.00924378295894713
1422,00:00:05.688,0.003678692621178924
1423,00:00:05.692,-0.010082499153213622
1424,00:00:05.696,-0.0023440317891072473
1425,00:00:05.7,0.013353649952477972
1426,00:00:05.704,0.004615371064573992
1427,00:00:05.708,-0.013571074217907127
1428,00:00:05.712,-0.011011891052476139
1429,00:00:05.716,0.004291140910936519
1430,00:00:05.72,0.009542068988594112
1431,00:00:05.724,0.004813468454813126
1432,00:00:05.728,-0.0008311670535476876
1433,00:00:05.732,-0.007818460755515885
1434,00:00:05.736,-0.00782315980177373
1435,00:00:05.74,0.007469728006981321
1436,00:00:05.744,0.01124683069065213
1437,00:00:05.748,-0.002038639417150988
1438,00:00:05.752,-0.00971229863353076
1439,00:00:05.756,-0.002096195355989039
1440,00:00:05.76,0.004290693206712603
1441,00:00:05.764,0.005318936255207523
1442,00:00:05.768,0.00263151954277418
1443,00:00:05.772,-0.007000050507485862
1444,00:00:05.776,-0.009361477263155392
1445,00:00:05.78,0.007529874790634498
1446,00:00:05.784,0.004008774201793135
1447,00:00:05.788,-0.0016809867665870098
1448,00:00:05.792,-0.005778006801847365
1449,00:00:05.796,-0.004518756519246386
1450,00:00:05.8,0.018224523267235785
1451,00:00:05.804,0.01021731410583015
1452,00:00:05.808,-0.015411376254633019
1453,00:00:05.812,-0.012698479811660932
1454,00:00:05.816,-0.00241133407689631
1455,00:00:05.82,0.007120395093807014
1456,00:00:05.824,0.0048927841125987505
1457,00:00:05.828,0.004996652714908131
1458,00:00:05.832,0.0008851275779306902
1459,00:00:05.836,-0.004498981521464888
1460,00:00:05.84,0.00279828940983861
1461,00:00:05.844,-0.00255348137579858
1462,00:00:05.848,-0.01194534660317006
1463,00:00:05.852,0.0016981197986751903
1464,00:00:05.856,0.006506523233838379
1465,00:00:05.86,0.013644763414049488
1466,00:00:05.864,0.00018587341764941313
1467,00:00:05.868,-0.01573107474541753
1468,00:00:05.872,-0.008215909811042367
1469,00:00:05.876,0.004265184572432189
1470,00:00:05.88,0.011535629382706275
1471,00:00:05.884,0.003113872255198655
1472,00:00:05.888,0.0020060907118022516
1473,00:00:05.892,-0.015995104273315516
1474,00:00:05.896,-0.000253422243986283
1475,00:00:05.9,0.011418034788221109
1476,00:00:05.904,0.006924462650204081
1477,00:00:05.908,-0.009089141094591423
1478,00:00:05.912,-0.014101109700277469
1479,00:00:05.916,7.316927076318042e-05
1480,00:00:05.92,0.013946016726549694
1481,00:00:05.924,0.010292661667335792
1482,00:00:05.928,-0.002688043663511048
1483,00:00:05.932,-0.01771232618193611
1484,00:00:05.936,0.003946848679333925
1485,00:00:05.94,0.008187518149497915
1486,00:00:05.944,0.0022244914580369377
1487,00:00:05.948,-0.01340559311211109
1488,00:00:05.952,-0.004912669654004281
1489,00:00:05.956,0.009062196710146962
1490,00:00:05.96,0.016829048123327046
1491,00:00:05.964,0.003248622757382694
1492,00:00:05.968,-0.01867928926367311
1493,00:00:05.972,-0.01151362719247119
1494,00:00:05.976,0.004917245234537401
1495,00:00:05.98,0.0100075498048682
1496,00:00:05.984,0.002818102046148848
1497,00:00:05.988,0.001007516169920562
1498,00:00:05.992,-0.01254998845979571
1499,00:00:05.996,0.00653671240434051
1500,00:00:06,0.005784690612927081
1501,00:00:06.004,0.00023672351380810055
1502,00:00:06.008,-0.00962942070327699
1503,00:00:06.012,-0.004040757106849923
1504,00:00:06.016,0.008881753106834388
1505,00:00:06.02,0.00976681229803944
1506,00:00:06.024,-0.004472978442208843
1507,00:00:06.028,-0.011366153506969585
1508,00:00:06.032,-0.008571715545258481
1509,00:00:06.036,0.006892942361446336
1510,00:00:06.04,0.017450843741244178
1511,00:00:06.044,0.0033102893276009166
1512,00:00:06.048,-0.012610552392288765
1513,00:00:06.052,-0.012954325224200128
1514,00:00:06.056,0.005285643157549209
1515,00:00:06.06,0.009852815419435479
1516,00:00:06.064,0.004047799680847674
1517,00:00:06.068,-0.00401374918874352
1518,00:00:06.072,-0.014891044120304332
1519,00:00:06.076,0.009896160932839855
1520,00:00:06.08,0.012887124492408496
1521,00:00:06.084,-0.0029515018104575587
1522,00:00:06.088,-0.011774028971558442
1523,00:00:06.092,-0.007825779925042301
1524,00:00:06.096,0.00787593158747768
1525,00:00:06.1,0.007192153585492638
1526,00:00:06.104,-0.00019463857461232692
1527,00:00:06.108,-0.0023005938783171548
1528,00:00:06.112,-0.0018395017959846882
1529,00:00:06.116,-0.00685752632853109
1530,00:00:06.12,0.008324398026161401
1531,00:00:06.124,0.01401493595767533
1532,00:00:06.128,-0.01042903024062979
1533,00:00:06.132,-0.021076917415484762
1534,00:00:06.136,0.004585890885209664
1535,00:00:06.14,0.017449495848268253
1536,00:00:06.144,0.008027549600228662
1537,00:00:06.148,-0.007255251752212642
1538,00:00:06.152,-0.014521557430271096
1539,00:00:06.156,-0.002021053456701339
1540,00:00:06.16,0.015871810377575447
1541,00:00:06.164,0.0071451934563810954
1542,00:00:06.168,-0.014265440710005382
1543,00:00:06.172,-0.011014279181836211
1544,00:00:06.176,0.011364524805685504
1545,00:00:06.18,0.008628662936985181
1546,00:00:06.184,0.0003832606817013621
1547,00:00:06.188,-0.01514355256222193
1548,00:00:06.192,-0.00571313966065649
1549,00:00:06.196,0.01120050356257706
1550,00:00:06.2,0.011187144831637857
1551,00:00:06.204,0.0060380295617505995
1552,00:00:06.208,-0.01117470255121588
1553,00:00:06.212,-0.012202121957670932
1554,00:00:06.216,-0.007389433878415732
1555,00:00:06.22,0.014404828747501586
1556,00:00:06.224,0.010131237941095605
1557,00:00:06.228,-0.00164971640333534
1558,00:00:06.232,-0.01187065918929871
1559,00:00:06.236,-0.00486822833772749
1560,00:00:06.24,0.005114704770676329
1561,00:00:06.244,0.01244810572825372
1562,00:00:06.248,0.00137780816294253
1563,00:00:06.252,-0.015461446717381509
1564,00:00:06.256,-0.00023303146008402608
1565,00:00:06.26,0.014983531669713588
1566,00:00:06.264,-0.00399128190474585
1567,00:00:06.268,-0.004857615538639948
1568,00:00:06.272,-0.011602629056142184
1569,00:00:06.276,0.004993298600311391
1570,00:00:06.28,0.011716347275068964
1571,00:00:06.284,0.002212854247773062
1572,00:00:06.288,-0.0053840632717765445
1573,00:00:06.292,-0.008670252951560542
1574,00:00:06.296,0.0006479154699263748
1575,00:00:06.3,0.008640279891551474
1576,00:00:06.304,0.006278848093643317
1577,00:00:06.308,-0.009706442215247081
1578,00:00:06.312,-0.008165499406459248
1579,00:00:06.316,0.011153423809446391
1580,00:00:06.32,0.008706406501005372
1581,00:00:06.324,-0.00574314052937552
1582,00:00:06.328,-0.015921651734970458
1583,00:00:06.332,-8.640839951113365e-05
1584,00:00:06.336,0.008976685174275195
1585,00:00:06.34,0.010997025732649447
1586,00:00:06.344,-0.00028103296062909105
1587,00:00:06.348,-0.013794735306873869
1588,00:00:06.352,-0.001634988776459063
1589,00:00:06.356,0.010010957321355821
1590,00:00:06.36,0.0065338083586539124
1591,00:00:06.364,-0.006592779151105785
1592,00:00:06.368,-0.013338661225134307
1593,00:00:06.372,-0.005158957205367188
1594,00:00:06.376,0.01005632238593531
1595,00:00:06.38,0.018456676563801
1596,00:00:06.384,0.0003986004503531146
1597,00:00:06.388,-0.014250046811866895
1598,00:00:06.392,-0.006427943408198228
1599,00:00:06.396,0.0026569387118797775
1600,00:00:06.4,0.004003279609605639
1601,00:00:06.404,0.008456881856545806
1602,00:00:06.408,-0.005806836590636514
1603,00:00:06.412,-0.014309102669358224
1604,00:00:06.416,0.004080343700479717
1605,00:00:06.42,0.014524886908475297
1606,00:00:06.424,0.0055788821191527
1607,00:00:06.428,-0.012322899652644988
1608,00:00:06.432,-0.00600770127493888
1609,00:00:06.436,0.0003878091229125868
1610,00:00:06.44,0.009785843663848931
1611,00:00:06.444,0.0037983547372277774
1612,00:00:06.448,-0.00914836148149334
1613,00:00:06.452,-0.0077505449007730974
1614,00:00:06.456,0.0026565222069621086
1615,00:00:06.46,0.01620979676954445
1616,00:00:06.464,-0.005609272513538609
1617,00:00:06.468,-0.005033332126913588
1618,00:00:06.472,-0.00010047212708740971
1619,00:00:06.476,-0.0036862650886178017
1620,00:00:06.48,0.0018891535801230878
1621,00:00:06.484,0.007091663195751607
1622,00:00:06.488,-0.006354400247801103
1623,00:00:06.492,-0.0033562868193257613
1624,00:00:06.496,0.005976919397653547
1625,00:00:06.5,0.010443100938573487
1626,00:00:06.504,-0.0038606301968684416
1627,00:00:06.508,-0.01579617185052487
1628,00:00:06.512,-0.003331830543174866
1629,00:00:06.516,0.011645052814856161
1630,00:00:06.52,0.007760099077131621
1631,00:00:06.524,-0.001927289587911217
1632,00:00:06.528,-0.00661421776749194
1633,00:00:06.532,0.0007668474863748992
1634,00:00:06.536,-0.001231745205586775
1635,00:00:06.54,0.003597768198233099
1636,00:00:06.544,-0.003421221364988017
1637,00:00:06.548,-0.006395957636414092
1638,00:00:06.552,0.00032850424759089887
1639,00:00:06.556,0.00515067263040691
1640,00:00:06.56,0.017846315196948122
1641,00:00:06.564,0.003259765653638166
1642,00:00:06.568,-0.02635652641765777
1643,00:00:06.572,-0.007267120585311168
1644,00:00:06.576,0.006872556667076423
1645,00:00:06.58,0.01056210044771433
1646,00:00:06.584,0.0026105776632903157
1647,00:00:06.588,-0.0036197696317685755
1648,00:00:06.592,-0.00278783524117898
1649,00:00:06.596,-0.00046773172653047476
1650,00:00:06.6,0.005152039772383431
1651,00:00:06.604,0.0055586551643500605
1652,00:00:06.608,-0.008480400319967865
1653,00:00:06.612,-0.01313740916884852
1654,00:00:06.616,0.002758267530225564
1655,00:00:06.62,0.0183273816346627
1656,00:00:06.624,-0.0016103085945360289
1657,00:00:06.628,-0.008256177912699059
1658,00:00:06.632,-0.008272323828350633
1659,00:00:06.636,0.007042472265311508
1660,00:00:06.64,0.006807454861700578
1661,00:00:06.644,0.010118675127159804
1662,00:00:06.648,-0.01634791312972088
1663,00:00:06.652,-0.010360308166127664
1664,00:00:06.656,0.007605075486935676
1665,00:00:06.66,0.018460193137798384
1666,00:00:06.664,-0.004980349389370523
1667,00:00:06.668,-0.0182046556146815
1668,00:00:06.672,-0.006371915456838899
1669,00:00:06.676,0.014149197755614271
1670,00:00:06.68,0.01467593526467682
1671,00:00:06.684,-0.002737677703407827
1672,00:00:06.688,-0.01242469769204035
1673,00:00:06.692,-0.012864390213508157
1674,00:00:06.696,0.006988132197875535
1675,00:00:06.7,0.02034370387264057
1676,00:00:06.704,-0.0003860195138258881
1677,00:00:06.708,-0.016567219776334272
1678,00:00:06.712,-0.0016214794013649201
1679,00:00:06.716,0.005528909503482289
1680,00:00:06.72,0.007627123646670951
1681,00:00:06.724,-0.004025732152513225
1682,00:00:06.728,-0.01152691981405955
1683,00:00:06.732,-0.004730093438411131
1684,00:00:06.736,0.01153833791613579
1685,00:00:06.74,0.013478981299158458
1686,00:00:06.744,0.004175990914518475
1687,00:00:06.748,-0.01699929847382009
1688,00:00:06.752,-0.01065186050254852
1689,00:00:06.756,0.0026792682474479014
1690,00:00:06.76,0.013331595706404223
1691,00:00:06.764,0.005898873787373303
1692,00:00:06.768,-0.011047487869291219
1693,00:00:06.772,-0.006809475453337653
1694,00:00:06.776,0.005107051831146241
1695,00:00:06.78,0.009430530095414724
1696,00:00:06.784,0.0018865303513848617
1697,00:00:06.788,-0.012763579121383399
1698,00:00:06.792,-0.008382651714782694
1699,00:00:06.796,0.010722632884386107
1700,00:00:06.8,0.01263762343660343
1701,00:00:06.804,-0.0028917140007251874
1702,00:00:06.808,-0.01140239640517389
1703,00:00:06.812,-0.009554475688673847
1704,00:00:06.816,0.009957386409951138
1705,00:00:06.82,0.008695249688116745
1706,00:00:06.824,0.0018007257594945289
1707,00:00:06.828,-0.001201211896841413
1708,00:00:06.832,-0.012739471649581453
1709,00:00:06.836,-0.0007855525841478101
1710,00:00:06.84,0.006146798730924273
1711,00:00:06.844,0.004228194938832527
1712,00:00:06.848,-0.0036729575238609946
1713,00:00:06.852,-0.004170814412645994
1714,00:00:06.856,0.002796000160742549
1715,00:00:06.86,0.00997841882053762
1716,00:00:06.864,5.567606422119e-05
1717,00:00:06.868,-0.011375585570931396
1718,00:00:06.872,-0.00766178136109375
1719,00:00:06.876,0.010213974805083095
1720,00:00:06.88,0.01367089030827632
1721,00:00:06.884,-0.005684408853994685
1722,00:00:06.888,-0.01536735475019672
1723,00:00:06.892,-0.005429942022601608
1724,00:00:06.896,0.010932808057987126
1725,00:00:06.9,0.008665312845550943
1726,00:00:06.904,0.0016164137050509492
1727,00:00:06.908,-0.00753087038174272
1728,00:00:06.912,-0.004759717732667951
1729,00:00:06.916,0.0021683800732716896
1730,00:00:06.92,0.007102774339728071
1731,00:00:06.924,-0.006707387365167964
1732,00:00:06.928,-0.0016641975380480298
1733,00:00:06.932,0.007989258156158027
1734,00:00:06.936,-0.0033594143751543033
1735,00:00:06.94,0.0008187687490135414
1736,00:00:06.944,0.0018800614634528687
1737,00:00:06.948,-0.00964057922101347
1738,00:00:06.952,-0.005521138344192877
1739,00:00:06.956,0.011961189156863831
1740,00:00:06.96,0.012348791817203116
1741,00:00:06.964,-0.00393678573891521
1742,00:00:06.968,-0.012418860569596292
1743,00:00:06.972,-0.010100885818246707
1744,00:00:06.976,0.00785478053148836
1745,00:00:06.98,0.010964285538648285
1746,00:00:06.984,0.0038001324865035743
1747,00:00:06.988,-0.004933706310112028
1748,00:00:06.992,-0.007484855887014415
1749,00:00:06.996,-0.0005639612136292237
1750,00:00:07,0.006193772351252839
1751,00:00:07.004,-0.0018596887093735891
1752,00:00:07.008,-0.006369514303514734
1753,00:00:07.012,-0.0005500544066308081
1754,00:00:07.016,0.012485416445997509
1755,00:00:07.02,0.0073188106771340244
1756,00:00:07.024,-0.011746849981136613
1757,00:00:07.028,-0.013169889600248987
1758,00:00:07.032,0.0028920467593707123
1759,00:00:07.036,0.011722097329766222
1760,00:00:07.04,0.0057755808993533685
1761,00:00:07.044,-0.0016102880108519446
1762,00:00:07.048,-0.0072206563709187365
1763,00:00:07.052,-0.00884948005477781
1764,00:00:07.056,0.0035300845288475076
1765,00:00:07.06,0.011864827802128284
1766,00:00:07.064,0.0014499284134217268
1767,00:00:07.068,-0.01287927982957623
1768,00:00:07.072,-0.005703178112980819
1769,00:00:07.076,0.00745906579459188
1770,00:00:07.08,0.009287613829656
1771,00:00:07.084,0.004596039205353008
1772,00:00:07.088,-0.011482921523565923
1773,00:00:07.092,-0.007019673053946462
1774,00:00:07.096,0.004991583980881846
1775,00:00:07.1,0.01356356218457222
1776,00:00:07.104,-0.006148088723421091
1777,00:00:07.108,-0.014062900329008718
1778,00:00:07.112,-0.0013001934275962393
1779,00:00:07.116,0.014565189427230542
1780,00:00:07.12,0.007505688525270664
1781,00:00:07.124,-0.0064652948640286905
1782,00:00:07.128,-0.011348190251737791
1783,00:00:07.132,-0.003231531707569953
1784,00:00:07.136,0.01238598150666798
1785,00:00:07.14,0.0066890090238303015
1786,00:00:07.144,-0.00599317392334342
1787,00:00:07.148,-0.008251951541751628
1788,00:00:07.152,-0.006413920491468161
1789,00:00:07.156,0.011020431935321527
1790,00:00:07.16,0.016265113488770973
1791,00:00:07.164,-0.011669581988826401
1792,00:00:07.168,-0.015332432965806254
1793,00:00:07.172,-0.0027902707806788376
1794,00:00:07.176,0.013326709595276091
1795,00:00:07.18,0.024053176661254876
1796,00:00:07.184,-0.006575469247763976
1797,00:00:07.188,-0.03036894251818012
1798,00:00:07.192,-0.010198108073382216
1799,00:00:07.196,0.014276403118856279
1800,00:00:07.2,0.02097886975388975
1801,00:00:07.204,0.0023196318652480797
1802,00:00:07.208,-0.017222177877556512
1803,00:00:07.212,-0.00425750683643855
1804,00:00:07.216,0.013747845663601752
1805,00:00:07.22,0.005615423346171161
1806,00:00:07.224,-0.010729837289545683
1807,00:00:07.228,-0.010624956717947472
1808,00:00:07.232,-0.001494419997470685
1809,00:00:07.236,0.007372833351837473
1810,00:00:07.24,0.008878618915332454
1811,00:00:07.244,0.0006859860150143439
1812,00:00:07.248,-0.008981756749562921
1813,00:00:07.252,0.0008449624147033331
1814,00:00:07.256,0.011413548141717925
1815,00:00:07.26,0.00017473904881626584
1816,00:00:07.264,-0.014667960233055048
1817,00:00:07.268,-0.007017997559159991
1818,00:00:07.272,0.00712182873394341
1819,00:00:07.276,0.00978681666310877
1820,00:00:07.28,0.007522270025219768
1821,00:00:07.284,-0.010650561045622455
1822,00:00:07.288,-0.010269156227877831
1823,00:00:07.292,-0.0009738066582940531
1824,00:00:07.296,0.01174644188722594
1825,00:00:07.3,0.008843471157888416
1826,00:00:07.304,-0.0008534226653864609
1827,00:00:07.308,-0.014944147987989664
1828,00:00:07.312,-0.0070607510497211505
1829,00:00:07.316,0.00915266501215228
1830,00:00:07.32,0.011869024157931559
1831,00:00:07.324,-0.008556236403819644
1832,00:00:07.328,-0.006386216202372456
1833,00:00:07.332,0.006607272061955889
1834,00:00:07.336,0.006659781812231813
1835,00:00:07.34,-0.0023974554824235435
1836,00:00:07.344,-0.004938752270390981
1837,00:00:07.348,-0.011738985893316534
1838,00:00:07.352,0.0009792320779524752
1839,00:00:07.356,0.009699073372757994
1840,00:00:07.36,0.013680843141628382
1841,00:00:07.364,0.004169026156887412
1842,00:00:07.368,-0.01334893342573191
1843,00:00:07.372,-0.017291963566094665
1844,00:00:07.376,0.007231852476252242
1845,00:00:07.38,0.00868292362429202
1846,00:00:07.384,-0.005229813512414701
1847,00:00:07.388,-0.002163060824386782
1848,00:00:07.392,0.006891405908390875
1849,00:00:07.396,0.004561706911772491
1850,00:00:07.4,0.003951005106500811
1851,00:00:07.404,-0.007086202618665993
1852,00:00:07.408,-0.008751550514716652
1853,00:00:07.412,-0.0023846296535339163
1854,00:00:07.416,0.007244797569001092
1855,00:00:07.42,0.00709039712091908
1856,00:00:07.424,-0.003684409981360658
1857,00:00:07.428,-0.012547710895887604
1858,00:00:07.432,0.00851061679713894
1859,00:00:07.436,0.00559010137294536
1860,00:00:07.44,0.0030495779938064507
1861,00:00:07.444,0.0042623100962373385
1862,00:00:07.448,-0.016466119534015902
1863,00:00:07.452,-0.0067168970599595845
1864,00:00:07.456,0.004971178398818669
1865,00:00:07.46,0.013260566449389465
1866,00:00:07.464,0.0003892749391525282
1867,00:00:07.468,-0.01470003998838367
1868,00:00:07.472,-0.00242543988861144
1869,00:00:07.476,0.01443714916240423
1870,00:00:07.48,0.012108066635846612
1871,00:00:07.484,-0.007977423316333441
1872,00:00:07.488,-0.01872267201542851
1873,00:00:07.492,0.000520259432960301
1874,00:00:07.496,0.013182132053771107
1875,00:00:07.5,0.008293553459225219
1876,00:00:07.504,-0.00856926426058635
1877,00:00:07.508,-0.014279346476541799
1878,00:00:07.512,0.001665281233727005
1879,00:00:07.516,0.011534715238667576
1880,00:00:07.52,0.010516236638068194
1881,00:00:07.524,-0.006898669969814359
1882,00:00:07.528,-0.01846657949499788
1883,00:00:07.532,0.006497807509731497
1884,00:00:07.536,0.013553840399254165
1885,00:00:07.54,0.002255478917504662
1886,00:00:07.544,-0.0003726400318555497
1887,00:00:07.548,-0.01592579222051429
1888,00:00:07.552,-0.007046633691061288
1889,00:00:07.556,0.006005917399306779
1890,00:00:07.56,0.014944752125302371
1891,00:00:07.564,0.005755795486038556
1892,00:00:07.568,-0.01633505409699864
1893,00:00:07.572,-0.0020223760657245337
1894,00:00:07.576,0.009796654114325056
1895,00:00:07.58,0.006101514140027577
1896,00:00:07.584,-0.009127964047365824
1897,00:00:07.588,-0.01162485611712328
1898,00:00:07.592,-0.0014407246835617114
1899,00:00:07.596,0.012589565340022119
1900,00:00:07.6,0.012245012912899261
1901,00:00:07.604,-0.003928508842363953
1902,00:00:07.608,-0.01640797383151946
1903,00:00:07.612,-0.00599667569622397
1904,00:00:07.616,0.013250158604932947
1905,00:00:07.62,0.01548630400793622
1906,00:00:07.624,-0.00559221080038696
1907,00:00:07.628,-0.0205172903370112
1908,00:00:07.632,0.0014780320889258257
1909,00:00:07.636,0.009491870514466424
1910,00:00:07.64,0.0034794986131600966
1911,00:00:07.644,0.001806718311854641
1912,00:00:07.648,-0.0037785465901834
1913,00:00:07.652,-0.007519161787058687
1914,00:00:07.656,0.0070429856568807675
1915,00:00:07.66,0.004323306493461132
1916,00:00:07.664,-0.009501563268713662
1917,00:00:07.668,-0.00847003771923482
1918,00:00:07.672,0.01298406487330794
1919,00:00:07.676,0.013434988853987355
1920,00:00:07.68,-0.001769824419170621
1921,00:00:07.684,-0.01501929969526826
1922,00:00:07.688,-0.0104003775632009
1923,00:00:07.692,0.00112855830229818
1924,00:00:07.696,0.009948351536877429
1925,00:00:07.7,0.014215452567441375
1926,00:00:07.704,0.00889712804928422
1927,00:00:07.708,-0.025230965635273557
1928,00:00:07.712,-0.012589696852955964
1929,00:00:07.716,0.015392031433293577
1930,00:00:07.72,0.008893825142877178
1931,00:00:07.724,-0.006280107249040153
1932,00:00:07.728,-0.007240379956783728
1933,00:00:07.732,0.0016675053302606132
1934,00:00:07.736,0.012741766215185604
1935,00:00:07.74,0.0015845490343053793
1936,00:00:07.744,-0.011736340471543375
1937,00:00:07.748,-0.01098163171991477
1938,00:00:07.752,0.00698619456215965
1939,00:00:07.756,0.010614202565193378
1940,00:00:07.76,0.005979547222523255
1941,00:00:07.764,-0.002464044580847256
1942,00:00:07.768,-0.016978472045593624
1943,00:00:07.772,-0.002050064504146578
1944,00:00:07.776,0.00982554868096486
1945,00:00:07.78,0.0047148751327768055
1946,00:00:07.784,0.0004961758386343668
1947,00:00:07.788,-0.00178534875158221
1948,00:00:07.792,-0.00632723746821284
1949,00:00:07.796,0.0004738177958643062
1950,00:00:07.8,0.013237497070804197
1951,00:00:07.804,-0.001306215068325404
1952,00:00:07.808,-0.02170080959331241
1953,00:00:07.812,-0.0006142087622720222
1954,00:00:07.816,0.01933870508219112
1955,00:00:07.82,0.005254947085632013
1956,00:00:07.824,-0.00379452621564269
1957,00:00:07.828,-0.010542039468418807
1958,00:00:07.832,-0.006813070300268011
1959,00:00:07.836,0.008026693947613236
1960,00:00:07.84,0.008786528840573739
1961,00:00:07.844,-0.0028035846844431988
1962,00:00:07.848,-0.008520856419636406
1963,00:00:07.852,0.0018306139879769058
1964,00:00:07.856,0.005713859674870033
1965,00:00:07.86,0.0041105414784396955
1966,00:00:07.864,-0.005776654539658923
1967,00:00:07.868,-0.011022350903658655
1968,00:00:07.872,0.002979757264256477
1969,00:00:07.876,0.01304024529599701
1970,00:00:07.88,0.00505672454346495
1971,00:00:07.884,-0.005724696537981798
1972,00:00:07.888,-0.011229009622958586
1973,00:00:07.892,-0.006066788570024059
1974,00:00:07.896,0.0051849256269633805
1975,00:00:07.9,0.015838086430449018
1976,00:00:07.904,-0.00320869847200812
1977,00:00:07.908,-0.010129472531843924
1978,00:00:07.912,0.0030975125846453002
1979,00:00:07.916,0.005874603928532456
1980,00:00:07.92,0.0050527131243143265
1981,00:00:07.924,-0.007091235253028569
1982,00:00:07.928,-0.013415683788480251
1983,00:00:07.932,-0.002937091630883517
1984,00:00:07.936,0.010402901396446392
1985,00:00:07.94,0.013003995394683441
1986,00:00:07.944,0.0027943328013861866
1987,00:00:07.948,-0.01385183068487098
1988,00:00:07.952,-0.010185139234181368
1989,00:00:07.956,0.011350279099133356
1990,00:00:07.96,0.007968933303345688
1991,00:00:07.964,-0.006574941788130676
1992,00:00:07.968,-0.007544146224972797
1993,00:00:07.972,0.0034726219200820222
1994,00:00:07.976,0.010662590504580318
1995,00:00:07.98,2.942282844741644e-05
1996,00:00:07.984,-0.013791621045129468
1997,00:00:07.988,-0.010040419100732851
1998,00:00:07.992,0.01383233166689024
1999,00:00:07.996,0.011122029183752637
2000,00:00:08,0.003720863214084599
2001,00:00:08.004,-0.011096398571226015
2002,00:00:08.008,-0.01024729040591413
2003,00:00:08.012,0.002969265496290061
2004,00:00:08.016,0.00540440957658461
2005,00:00:08.02,0.007348026797330927
2006,00:00:08.024,-0.0057599209030740894
2007,00:00:08.028,-0.006963993444514893
2008,00:00:08.032,0.005532825758564284
2009,00:00:08.036,0.0062305301398737425
2010,00:00:08.04,-0.002118129563314137
2011,00:00:08.044,-0.00434059968938527
2012,00:00:08.048,-0.013298352485435278
2013,00:00:08.052,0.00733734519963036
2014,00:00:08.056,0.015647356452973347
2015,00:00:08.06,0.002477219304751083
2016,00:00:08.064,-0.012101026291929905
2017,00:00:08.068,-0.011845917615573876
2018,00:00:08.072,0.004127539345063268
2019,00:00:08.076,0.016326384560670676
2020,00:00:08.08,0.0015593531352351467
2021,00:00:08.084,-0.007555640535429118
2022,00:00:08.088,-0.014421151572605614
2023,00:00:08.092,5.2126109949312074e-05
2024,00:00:08.096,0.022626054473221306
2025,00:00:08.1,0.00897719920612871
2026,00:00:08.104,-0.015116382972337342
2027,00:00:08.108,-0.021498613525182002
2028,00:00:08.112,0.00445442867930979
2029,00:00:08.116,0.01080112514318894
2030,00:00:08.12,0.011544706183485652
2031,00:00:08.124,-0.004459422780200829
2032,00:00:08.128,-0.008002405287697911
2033,00:00:08.132,0.0015077361604198807
2034,00:00:08.136,0.00866614840924739
2035,00:00:08.14,-0.003154093632474539
2036,00:00:08.144,-0.007733863254543394
2037,00:00:08.148,-0.0076022011926397595
2038,00:00:08.152,-0.0028614653274416993
2039,00:00:08.156,0.01911050279159098
2040,00:00:08.16,0.016652621910907328
2041,00:00:08.164,-0.010627288080286266
2042,00:00:08.168,-0.02465514373034236
2043,00:00:08.172,-0.010038191991043275
2044,00:00:08.176,0.0267939438926987
2045,00:00:08.18,0.01604119992407503
2046,00:00:08.184,-0.01279454689938575
2047,00:00:08.188,-0.01686001080088317
2048,00:00:08.192,-0.0019481154740787982
2049,00:00:08.196,0.017014515411574366
2050,00:00:08.2,0.004099728073924776
2051,00:00:08.204,-0.00563713561859913
2052,00:00:08.208,-0.009680093673523507
2053,00:00:08.212,-0.002251612255349752
2054,00:00:08.216,0.016569012252148282
2055,00:00:08.22,0.00011837921920231998
2056,00:00:08.224,-0.01000335431308485
2057,00:00:08.228,-0.007448097472661178
2058,00:00:08.232,0.003153974481392647
2059,00:00:08.236,0.00818421284202487
2060,00:00:08.24,0.010596675423585094
2061,00:00:08.244,-0.00652506330516189
2062,00:00:08.248,-0.01028813509037723
2063,00:00:08.252,-0.0018428356270305804
2064,00:00:08.256,0.004521276627201586
2065,00:00:08.26,0.003389064921066158
2066,00:00:08.264,0.0006035419646650496
2067,00:00:08.268,-0.011604246275965123
2068,00:00:08.272,0.002084059931803492
2069,00:00:08.276,0.01321279548574242
2070,00:00:08.28,0.00991597049869597
2071,00:00:08.284,-0.0029403856024146106
2072,00:00:08.288,-0.02252549509285019
2073,00:00:08.292,-0.00772163167130202
2074,00:00:08.296,0.013760648609604713
2075,00:00:08.3,0.008564937044866388
2076,00:00:08.304,-0.002572212135419252
2077,00:00:08.308,-0.0071842335164547
2078,00:00:08.312,0.0032139731629285935
2079,00:00:08.316,0.012523307465016826
2080,00:00:08.32,0.001996030245209115
2081,00:00:08.324,-0.01759160630172116
2082,00:00:08.328,-0.011653279812890088
2083,00:00:08.332,0.010517925664316814
2084,00:00:08.336,0.016525816288776703
2085,00:00:08.34,-0.0068523442605510285
2086,00:00:08.344,-0.007724022492766386
2087,00:00:08.348,-0.004110526235308506
2088,00:00:08.352,0.002419892523903395
2089,00:00:08.356,0.021916802914347458
2090,00:00:08.36,-0.005353169246518512
2091,00:00:08.364,-0.0177600634633563
2092,00:00:08.368,-0.0076145244820509115
2093,00:00:08.372,0.0038107842556200943
2094,00:00:08.376,0.0169421590908314
2095,00:00:08.38,0.007460094988346105
2096,00:00:08.384,-0.009862429273198359
2097,00:00:08.388,-0.008732951009733368
2098,00:00:08.392,-0.0023452709101547987
2099,00:00:08.396,0.006732634408308519
2100,00:00:08.4,0.006348922170218435
2101,00:00:08.404,-0.004231602415529776
2102,00:00:08.408,-0.010633078543833097
2103,00:00:08.412,0.002548733218191049
2104,00:00:08.416,0.014430319241000673
2105,00:00:08.42,0.0025717884336700025
2106,00:00:08.424,-0.011687776814596876
2107,00:00:08.428,-0.01357106570503677
2108,00:00:08.432,0.004218451154883951
2109,00:00:08.436,0.02207663183799013
2110,00:00:08.44,0.0034633303293958298
2111,00:00:08.444,-0.016023746924474842
2112,00:00:08.448,-0.007953062915476036
2113,00:00:08.452,0.002645175496581947
2114,00:00:08.456,0.007072527660056939
2115,00:00:08.46,0.007578487566206596
2116,00:00:08.464,-0.00891584833152592
2117,00:00:08.468,-0.006277820095419891
2118,00:00:08.472,0.00025690384791232624
2119,00:00:08.476,0.010341922927182166
2120,00:00:08.48,0.0045185296330600986
2121,00:00:08.484,-0.008764193218667093
2122,00:00:08.488,-0.014065029543417014
2123,00:00:08.492,0.0081866979598999
2124,00:00:08.496,0.020691443147370567
2125,00:00:08.5,-0.001226880340254866
2126,00:00:08.504,-0.011606849104282457
2127,00:00:08.508,-0.014707097085192819
2128,00:00:08.512,2.1439569536596103e-05
2129,00:00:08.516,0.022362693445757056
2130,00:00:08.52,-0.0015749221201986003
2131,00:00:08.524,-0.00924745621159672
2132,00:00:08.528,-0.008926030757720579
2133,00:00:08.532,0.009101238742005089
2134,00:00:08.536,0.007296775940631051
2135,00:00:08.54,0.0027966748748440287
2136,00:00:08.544,-0.011868523608427503
2137,00:00:08.548,-0.010421008337289109
2138,00:00:08.552,0.01627078140154481
2139,00:00:08.556,0.009655097732320431
2140,00:00:08.56,-0.0064018990378826805
2141,00:00:08.564,-0.014717303449288009
2142,00:00:08.568,-0.004640817060135309
2143,00:00:08.572,0.009243620452252795
2144,00:00:08.576,0.012658016930799888
2145,00:00:08.58,0.000983334088232369
2146,00:00:08.584,-0.009303853730671078
2147,00:00:08.588,-0.010106346177053664
2148,00:00:08.592,0.003839619676000435
2149,00:00:08.596,0.0149180291336961
2150,00:00:08.6,0.0022733275545760963
2151,00:00:08.604,-0.012256717309355732
2152,00:00:08.608,-0.00774782220833009
2153,00:00:08.612,0.0023664125474169807
2154,00:00:08.616,0.00715189694892615
2155,00:00:08.62,0.0037674721097573603
2156,00:00:08.624,-0.00673473626375199
2157,00:00:08.628,0.00323206291068346
2158,00:00:08.632,-0.00387882266659289
2159,00:00:08.636,0.00939716107677669
2160,00:00:08.64,0.0028236485086381496
2161,00:00:08.644,-0.012908376695122539
2162,00:00:08.648,-0.01132384908851237
2163,00:00:08.652,0.009853778290562335
2164,00:00:08.656,0.01188666484085843
2165,00:00:08.66,-0.0030361926765181124
2166,00:00:08.664,-0.006456208779127334
2167,00:00:08.668,0.002445980586344382
2168,00:00:08.672,0.00050572486361489
2169,00:00:08.676,0.006409623587387614
2170,00:00:08.68,0.000431536376709115
2171,00:00:08.684,-0.008771806424192622
2172,00:00:08.688,-0.011738591041648745
2173,00:00:08.692,0.001983044850931042
2174,00:00:08.696,0.01461023127194493
2175,00:00:08.7,0.01824551558820532
2176,00:00:08.704,-0.015498451946768892
2177,00:00:08.708,-0.018892523716203848
2178,00:00:08.712,-0.001953945553395892
2179,00:00:08.716,0.01626433609635572
2180,00:00:08.72,0.011718435263901449
2181,00:00:08.724,-0.009144063150415606
2182,00:00:08.728,-0.012799875978089393
2183,00:00:08.732,0.003876817070704415
2184,00:00:08.736,0.008287648699479174
2185,00:00:08.74,0.005176633785595188
2186,00:00:08.744,-0.004092968862096307
2187,00:00:08.748,-0.01194418217710338
2188,00:00:08.752,-0.003590049262129472
2189,00:00:08.756,0.014912179971361204
2190,00:00:08.76,0.0034421365455727915
2191,00:00:08.764,-0.009195686380735429
2192,00:00:08.768,-0.004732329314720119
2193,00:00:08.772,0.005896643895539456
2194,00:00:08.776,0.011070477015891839
2195,00:00:08.78,-0.001054414437021479
2196,00:00:08.784,-0.015236597948501221
2197,00:00:08.788,-0.0068525958340614895
2198,00:00:08.792,0.00759138190187514
2199,00:00:08.796,0.00808516400866211
2200,00:00:08.8,0.005451871198602021
2201,00:00:08.804,-0.0031087374081835203
2202,00:00:08.808,-0.0069310240214690505
2203,00:00:08.812,-0.001119184686103835
2204,00:00:08.816,0.0031710622715763756
2205,00:00:08.82,0.005618916533421718
2206,00:00:08.824,-0.008824129647109656
2207,00:00:08.828,-0.007113583153113759
2208,00:00:08.832,0.0035838462645188
2209,00:00:08.836,0.014874353480990934
2210,00:00:08.84,0.002857650608348191
2211,00:00:08.844,-0.01364934910088773
2212,00:00:08.848,-0.009601392899639904
2213,00:00:08.852,0.007824786616765772
2214,00:00:08.856,0.012276967405341573
2215,00:00:08.86,0.005021341232350096
2216,00:00:08.864,-0.015318009616748864
2217,00:00:08.868,-0.011292152310488758
2218,00:00:08.872,0.005318181865732183
2219,00:00:08.876,0.0169690459733829
2220,00:00:08.88,0.005691331105481374
2221,00:00:08.884,-0.020174476376269044
2222,00:00:08.888,-0.006018068990670155
2223,00:00:08.892,0.008366288297111172
2224,00:00:08.896,0.015838261679164117
2225,00:00:08.9,-0.003700102961374803
2226,00:00:08.904,-0.014880914848617957
2227,00:00:08.908,-0.0061490444786613755
2228,00:00:08.912,0.005679522877471747
2229,00:00:08.916,0.01595449834258038
2230,00:00:08.92,0.002762681378044364
2231,00:00:08.924,-0.014320548998512116
2232,00:00:08.928,-0.012307953732488367
2233,00:00:08.932,0.009527685121611281
2234,00:00:08.936,0.016085853883453207
2235,00:00:08.94,0.00143039314025373
2236,00:00:08.944,-0.01346956474617398
2237,00:00:08.948,-0.008514962664776249
2238,00:00:08.952,0.0001397042658481951
2239,00:00:08.956,0.007317205290974015
2240,00:00:08.96,0.0077666758693339995
2241,00:00:08.964,0.0015872822796154694
2242,00:00:08.968,-0.007422073594796072
2243,00:00:08.972,-0.0026344496940282594
2244,00:00:08.976,0.002265368298679956
2245,00:00:08.98,-0.0006754415719569803
2246,00:00:08.984,-0.0024882890931223773
2247,00:00:08.988,-0.0017335595672447505
2248,00:00:08.992,0.0085082036092885
2249,00:00:08.996,0.010459892615116935
2250,00:00:09,-0.011879282228036914
2251,00:00:09.004,-0.011803549821101053
2252,00:00:09.008,0.0006130731306317436
2253,00:00:09.012,0.008171673643801117
2254,00:00:09.016,0.007938369186231147
2255,00:00:09.02,0.003244436443765149
2256,00:00:09.024,-0.009964893329159619
2257,00:00:09.028,-0.010873448780615443
2258,00:00:09.032,0.005876447321032429
2259,00:00:09.036,0.015536567570809037
2260,00:00:09.04,-0.009027346735820169
2261,00:00:09.044,-0.007864330313168461
2262,00:00:09.048,0.00359668117016553
2263,00:00:09.052,0.00443949236068875
2264,00:00:09.056,0.00580799792078324
2265,00:00:09.06,-0.0007328709762077737
2266,00:00:09.064,-0.01334983530978205
2267,00:00:09.068,-0.007505669957026839
2268,00:00:09.072,0.005798949801828708
2269,00:00:09.076,0.02158077608328308
2270,00:00:09.08,0.006577131989843108
2271,00:00:09.084,-0.022824700427008814
2272,00:00:09.088,-0.009533138654660408
2273,00:00:09.092,0.004057215133798304
2274,00:00:09.096,0.009219516949087864
2275,00:00:09.1,0.0048833751861821
2276,00:00:09.104,-0.006698995865008336
2277,00:00:09.108,-0.0015063984101289004
2278,00:00:09.112,0.0014804323764110413
2279,00:00:09.116,0.008225484503782314
2280,00:00:09.12,0.0013711847077502223
2281,00:00:09.124,-0.010984139193169498
2282,00:00:09.128,-0.006329602059849981
2283,00:00:09.132,0.0010272995791638124
2284,00:00:09.136,0.00913865660413644
2285,00:00:09.14,0.005018258249947398
2286,00:00:09.144,-0.006990565270825762
2287,00:00:09.148,-0.004092140615512112
2288,00:00:09.152,0.01551902526989578
2289,00:00:09.156,-0.00624438584782183
2290,00:00:09.16,-0.006290980963967739
2291,00:00:09.164,-0.007386050536297259
2292,00:00:09.168,-0.004244984360411765
2293,00:00:09.172,0.01326274813618515
2294,00:00:09.176,0.013428718317300106
2295,00:00:09.18,-0.003420225417357866
2296,00:00:09.184,-0.014575168170267683
2297,00:00:09.188,-0.00856832083081827
2298,00:00:09.192,0.013151727500371635
2299,00:00:09.196,0.006857766988105143
2300,00:00:09.2,0.00579762272536754
2301,00:00:09.204,-0.018396915460471112
2302,00:00:09.208,-0.009439907567866616
2303,00:00:09.212,0.011952435073908432
2304,00:00:09.216,0.014256997557822608
2305,00:00:09.22,-0.004000845103291798
2306,00:00:09.224,-0.011403848904592449
2307,00:00:09.228,-0.0022579867800231997
2308,00:00:09.232,0.007218844271847021
2309,00:00:09.236,0.008473999230773223
2310,00:00:09.24,-0.006581439134606622
2311,00:00:09.244,-0.012764133094606177
2312,00:00:09.248,-0.0021172318593016756
2313,00:00:09.252,0.012906427346024428
2314,00:00:09.256,0.014989090415838272
2315,00:00:09.26,-0.0054977936313207465
2316,00:00:09.264,-0.011884801668202294
2317,00:00:09.268,-0.006266254751608356
2318,00:00:09.272,0.0007022460458756543
2319,00:00:09.276,0.014783284713303098
2320,00:00:09.28,0.0007412907807520215
2321,00:00:09.284,-0.01395567741974445
2322,00:00:09.288,-0.01017435711764847
2323,00:00:09.292,0.009722947608679533
2324,00:00:09.296,0.01725942920893428
2325,00:00:09.3,0.0030202924244804334
2326,00:00:09.304,-0.012502469442551923
2327,00:00:09.308,-0.008569684112444522
2328,00:00:09.312,0.009714796440675855
2329,00:00:09.316,0.004745315527543419
2330,00:00:09.32,-0.00907966343220324
2331,00:00:09.324,-0.010305764037184422
2332,00:00:09.328,0.00012197182513772964
2333,00:00:09.332,0.01565325842238963
2334,00:00:09.336,0.006289364362601194
2335,00:00:09.34,-0.006191219421452841
2336,00:00:09.344,-0.003730930242454633
2337,00:00:09.348,-0.0016828203806653625
2338,00:00:09.352,-0.0001721731969155368
2339,00:00:09.356,0.0006427508633350962
2340,00:00:09.36,0.002884079316572752
2341,00:00:09.364,0.000659244382404719
2342,00:00:09.368,-0.007587437750771637
2343,00:00:09.372,-5.3815499995841644e-05
2344,00:00:09.376,0.009848681671428496
2345,00:00:09.38,0.001794901851098985
2346,00:00:09.384,-0.011429701873566967
2347,00:00:09.388,-0.000323259955621321
2348,00:00:09.392,0.01011752019985579
2349,00:00:09.396,0.0017617433913983457
2350,00:00:09.4,-0.005470298783620825
2351,00:00:09.404,-0.008566947188228365
2352,00:00:09.408,-0.0011998569971183389
2353,00:00:09.412,0.008808531536487862
2354,00:00:09.416,0.016346222924767013
2355,00:00:09.42,-0.007459980712155808
2356,00:00:09.424,-0.01757928364804683
2357,00:00:09.428,-0.0064880440040724335
2358,00:00:09.432,0.009021945585118341
2359,00:00:09.436,0.013506137533113317
2360,00:00:09.44,-0.002091139683670915
2361,00:00:09.444,-0.0004876098855675111
2362,00:00:09.448,-0.002298119303304706
2363,00:00:09.452,-0.011375632962881355
2364,00:00:09.456,0.007809830422047529
2365,00:00:09.46,0.0061542456969618815
2366,00:00:09.464,-0.008300061745103452
2367,00:00:09.468,-0.008273251769423956
2368,00:00:09.472,0.01458165213625765
2369,00:00:09.476,0.012892485676275059
2370,00:00:09.48,-0.00997930120502133
2371,00:00:09.484,-0.017157591690192948
2372,00:00:09.488,-0.002370977046666667
2373,00:00:09.492,0.008934895173297255
2374,00:00:09.496,0.012634101265575775
2375,00:00:09.5,0.003600303796702062
2376,00:00:09.504,-0.0065154512149092625
2377,00:00:09.508,-0.0133441133220913
2378,00:00:09.512,0.004501424460613635
2379,00:00:09.516,0.011619413580774588
2380,00:00:09.52,-0.006527201057906492
2381,00:00:09.524,-0.012885259639006075
2382,00:00:09.528,0.0024294683607877228
2383,00:00:09.532,0.00961652223486454
2384,00:00:09.536,0.010152999799174684
2385,00:00:09.54,-0.00161968544125557
2386,00:00:09.544,-0.014812968889600547
2387,00:00:09.548,0.004227465367875997
2388,00:00:09.552,0.0001250930254173
2389,00:00:09.556,0.0018509755027480456
2390,00:00:09.56,-0.001559444932354381
2391,00:00:09.564,-0.002910697665356563
2392,00:00:09.568,0.004569050070131203
2393,00:00:09.572,-0.00127426901599392
2394,00:00:09.576,0.005584504706348524
2395,00:00:09.58,-0.003013306530192489
2396,00:00:09.584,-0.007677699177293103
2397,00:00:09.588,0.000587580740102565
2398,00:00:09.592,0.006023831974744101
2399,00:00:09.596,0.013949564716313069
2400,00:00:09.6,-0.010110556671861564
2401,00:00:09.604,-0.014781470701564152
2402,00:00:09.608,-0.0036111164490648675
2403,00:00:09.612,0.012155296688433775
2404,00:00:09.616,0.010936603590380397
2405,00:00:09.62,-0.0008640159940114259
2406,00:00:09.624,-0.014002201467519607
2407,00:00:09.628,-0.003527849381498524
2408,00:00:09.632,0.012294885615119662
2409,00:00:09.636,0.008385537665162706
2410,00:00:09.64,-0.008459943270281656
2411,00:00:09.644,-0.010234429504635045
2412,00:00:09.648,-0.00251634977757931
2413,00:00:09.652,0.0038957553915679494
2414,00:00:09.656,0.009872367838397629
2415,00:00:09.66,0.006198806746397165
2416,00:00:09.664,-0.00625719228992239
2417,00:00:09.668,-0.008719414588995248
2418,00:00:09.672,-0.000710425199940805
2419,00:00:09.676,0.0026645818725228292
2420,00:00:09.68,0.009071219770703463
2421,00:00:09.684,-0.00441585431144631
2422,00:00:09.688,-0.011119552014861285
2423,00:00:09.692,0.00870887329801917
2424,00:00:09.696,0.00253269984386862
2425,00:00:09.7,-0.002364568761549891
2426,00:00:09.704,0.0008459200616925898
2427,00:00:09.708,-0.005531977629289028
2428,00:00:09.712,0.005684480478521438
2429,00:00:09.716,0.010351349163101998
2430,00:00:09.72,-0.0020088946912437703
2431,00:00:09.724,-0.01800375827588144
2432,00:00:09.728,0.0011570577044040004
2433,00:00:09.732,0.0056091250153258426
2434,00:00:09.736,0.0038394421571865647
2435,00:00:09.74,0.0008099642363959013
2436,00:00:09.744,-0.0053274220263119735
2437,00:00:09.748,-0.005987365497276188
2438,00:00:09.752,0.012206108483951539
2439,00:00:09.756,0.004770192026626322
2440,00:00:09.76,0.0019889846735168283
2441,00:00:09.764,-0.017206056771101406
2442,00:00:09.768,-0.0077220851962920296
2443,00:00:09.772,0.012648548043216586
2444,00:00:09.776,0.0139523530378938
2445,00:00:09.78,-0.00264391000382602
2446,00:00:09.784,-0.011896316194906869
2447,00:00:09.788,-0.008171749825123698
2448,00:00:09.792,0.00334131711861118
2449,00:00:09.796,0.006707607652060696
2450,00:00:09.8,0.01728891162201759
2451,00:00:09.804,-0.010613053222186858
2452,00:00:09.808,-0.013485624280292572
2453,00:00:09.812,0.006643139815423632
2454,00:00:09.816,0.0008795713220024533
2455,00:00:09.82,-0.002981449651997537
2456,00:00:09.824,-0.0069808532716706465
2457,00:00:09.828,0.003459764469880611
2458,00:00:09.832,0.013344013364985582
2459,00:00:09.836,0.0096648261678638
2460,00:00:09.84,-0.0073804698768071865
2461,00:00:09.844,-0.018781792081426843
2462,00:00:09.848,-0.0024680464994162343
2463,00:00:09.852,0.010034375896793794
2464,00:00:09.856,0.011376218841178336
2465,00:00:09.86,-0.002939199795946479
2466,00:00:09.864,-0.012569568352773782
2467,00:00:09.868,-0.0065268498728983096
2468,00:00:09.872,0.012210448639962148
2469,00:00:09.876,0.015130304920603566
2470,00:00:09.88,-0.007402567847748285
2471,00:00:09.884,-0.013934741196862842
2472,00:00:09.888,-0.0026034526748617303
2473,00:00:09.892,0.00839591217663842
2474,00:00:09.896,0.014140603947453218
2475,00:00:09.9,-0.01160939817782491
2476,00:00:09.904,-0.011775774415582372
2477,00:00:09.908,0.0009918413124978516
2478,00:00:09.912,0.012774434406310296
2479,00:00:09.916,0.0062763246241957
2480,00:00:09.92,-0.006268899596761916
2481,00:00:09.924,-0.012460427096812101
2482,00:00:09.928,0.001705475326161832
2483,00:00:09.932,0.012408294947817929
2484,00:00:09.936,0.0071245861618081125
2485,00:00:09.94,-0.007360003924986817
2486,00:00:09.944,-0.014562429103534686
2487,00:00:09.948,-0.004030308540677652
2488,00:00:09.952,0.013944058366178074
2489,00:00:09.956,0.01103038855171693
2490,00:00:09.96,-0.008474819755065258
2491,00:00:09.964,-0.007552267765277072
2492,00:00:09.968,-0.0034456708563084244
2493,00:00:09.972,0.011222716331758417
2494,00:00:09.976,0.007935277875731115
2495,00:00:09.98,-0.010268358688335862
2496,00:00:09.984,-0.011883445782586963
2497,00:00:09.988,0.0034527490206528446
2498,00:00:09.992,0.015728497644886392
2499,00:00:09.996,0.005458334228023909
2500,00:00:10,-0.00936974922660739
2501,00:00:10.004,-0.01739408398861999
2502,00:00:10.008,-0.001642746676225216
2503,00:00:10.012,0.0164695999119431
2504,00:00:10.016,0.01193114102352412
2505,00:00:10.02,-0.009040230390382929
2506,00:00:10.024,-0.00870775617659093
2507,00:00:10.028,-0.0002474226057529495
2508,00:00:10.032,0.006886462622787807
2509,00:00:10.036,0.00271168223116547
2510,00:00:10.04,-0.008251522900536651
2511,00:00:10.044,-0.006096991186495872
2512,00:00:10.048,0.008074965357081965
2513,00:00:10.052,0.004350432864157476
2514,00:00:10.056,0.006961324717849482
2515,00:00:10.06,-0.005314009147696197
2516,00:00:10.064,-0.01513848453760151
2517,00:00:10.068,-0.0018179181497544109
2518,00:00:10.072,0.014931904792319971
2519,00:00:10.076,0.0061832117498852365
2520,00:00:10.08,-0.00180999502481427
2521,00:00:10.084,-0.0052488111541606495
2522,00:00:10.088,-0.010773607529699799
2523,00:00:10.092,0.00405017961747944
2524,00:00:10.096,0.009740046338265534
2525,00:00:10.1,-0.005625536199659109
2526,00:00:10.104,-0.008268459583632648
2527,00:00:10.108,0.006738972151651982
2528,00:00:10.112,0.012969688606972314
2529,00:00:10.116,-0.0019523971132002762
2530,00:00:10.12,-0.0069945701397955504
2531,00:00:10.124,-0.0139258148847148
2532,00:00:10.128,-0.0001965419251064301
2533,00:00:10.132,0.02003003365825866
2534,00:00:10.136,0.004431204812135551
2535,00:00:10.14,-0.009527953981887551
2536,00:00:10.144,-0.011980163460975742
2537,00:00:10.148,-0.0020105137373320732
2538,00:00:10.152,0.01405957125825809
2539,00:00:10.156,0.009852919873082972
2540,00:00:10.16,-0.007783376029692594
2541,00:00:10.164,-0.01452175976373841
2542,00:00:10.168,0.000825855931907427
2543,00:00:10.172,0.01067128474096535
2544,00:00:10.176,0.010000471680541523
2545,00:00:10.18,-0.00906556599943542
2546,00:00:10.184,-0.005914115294217485
2547,00:00:10.188,-0.007680067221372152
2548,00:00:10.192,0.009584170984453523
2549,00:00:10.196,0.013737286841205773
2550,00:00:10.2,-0.0030461373517027776
2551,00:00:10.204,-0.014727354911883619
2552,00:00:10.208,-0.012994778058782646
2553,00:00:10.212,0.01707164035178717
2554,00:00:10.216,0.012492645415477472
2555,00:00:10.22,-0.00785341719165445
2556,00:00:10.224,-0.009496521786786654
2557,00:00:10.228,0.00046264519914984367
2558,00:00:10.232,0.010648369905538854
2559,00:00:10.236,0.004184760153293601
2560,00:00:10.24,-0.0052759143291041255
2561,00:00:10.244,-0.012319578498136287
2562,00:00:10.248,0.0008843394462019201
2563,00:00:10.252,0.007367681129835518
2564,00:00:10.256,0.00451856350991875
2565,00:00:10.26,7.608591113239201e-05
2566,00:00:10.264,-0.006669614231213934
2567,00:00:10.268,-0.0008579142158850979
2568,00:00:10.272,0.0037638377107214204
2569,00:00:10.276,0.004061328916577622
2570,00:00:10.28,-0.004633323987945913
2571,00:00:10.284,-0.00768568774219602
2572,00:00:10.288,0.0016997269121930005
2573,00:00:10.292,0.007249665912240759
2574,00:00:10.296,0.014619296765886237
2575,00:00:10.3,-0.00804938504006713
2576,00:00:10.304,-0.023434866219759005
2577,00:00:10.308,0.00013904037768952505
2578,00:00:10.312,0.02484467366593888
2579,00:00:10.316,0.004298274288885297
2580,00:00:10.32,-0.015077272604685318
2581,00:00:10.324,-0.013152212137356432
2582,00:00:10.328,0.013374438349273978
2583,00:00:10.332,0.012271487881662354
2584,00:00:10.336,-0.003649865800980482
2585,00:00:10.34,-0.005426550284028079
2586,00:00:10.344,-0.01731070107780393
2587,00:00:10.348,0.00327615055721253
2588,00:00:10.352,0.011994539279839978
2589,00:00:10.356,0.016084474831586686
2590,00:00:10.36,-0.007134716957807539
2591,00:00:10.364,-0.014527473831549292
2592,00:00:10.368,-0.005611697648419072
2593,00:00:10.372,0.007561017962871122
2594,00:00:10.376,0.01332034353981723
2595,00:00:10.38,-0.0036487379838945327
2596,00:00:10.384,-0.012897601394797661
2597,00:00:10.388,0.00218222173862159
2598,00:00:10.392,0.009085260098800051
2599,00:00:10.396,0.0029041047673672403
2600,00:00:10.4,-0.0053027455578558156
2601,00:00:10.404,-0.009389542043209055
2602,00:00:10.408,-0.004239475703798237
2603,00:00:10.412,0.008229468308854855
2604,00:00:10.416,0.01594114579347659
2605,00:00:10.42,-0.007417450135108088
2606,00:00:10.424,-0.010571579390671122
2607,00:00:10.428,0.001320131850661713
2608,00:00:10.432,0.005968764475255743
2609,00:00:10.436,0.004575875413138423
2610,00:00:10.44,-0.005422327660198789
2611,00:00:10.444,-0.00881114729418187
2612,00:00:10.448,-0.0011160075409861788
2613,00:00:10.452,0.013248580760887276
2614,00:00:10.456,0.004331576081312957
2615,00:00:10.46,-0.0027865400916198247
2616,00:00:10.464,-0.011475713345134895
2617,00:00:10.468,-0.0042752882332024456
2618,00:00:10.472,0.011703421185302416
2619,00:00:10.476,0.008704810116796585
2620,00:00:10.48,-0.005558330391068013
2621,00:00:10.484,-0.01562207413371648
2622,00:00:10.488,-0.001962588634341955
2623,00:00:10.492,0.017181261646328484
2624,00:00:10.496,0.006559468631166965
2625,00:00:10.5,-0.009383184020407501
2626,00:00:10.504,-0.009296740754507477
2627,00:00:10.508,0.0031841476375120657
2628,00:00:10.512,0.009212122327880937
2629,00:00:10.516,0.0028154304018244143
2630,00:00:10.52,-0.00955981689367036
2631,00:00:10.524,-0.007600157645356376
2632,00:00:10.528,0.0030288547277450575
2633,00:00:10.532,0.01027565298136325
2634,00:00:10.536,0.012858051573857696
2635,00:00:10.54,-0.01620163256302473
2636,00:00:10.544,-0.011863838499721167
2637,00:00:10.548,0.0017909765592776287
2638,00:00:10.552,0.01114931330084801
2639,00:00:10.556,0.006162963400129236
2640,00:00:10.56,-0.00287111254874616
2641,00:00:10.564,-0.006668419111520019
2642,00:00:10.568,0.0012097578437533264
2643,00:00:10.572,-0.0007528355345129997
2644,00:00:10.576,0.003844892336928757
2645,00:00:10.58,-0.003443374298512928
2646,00:00:10.584,-0.006580090441275386
2647,00:00:10.588,0.0021982059115543966
2648,00:00:10.592,0.013421378651401033
2649,00:00:10.596,0.0021423212456284134
2650,00:00:10.6,-0.011517209117300808
2651,00:00:10.604,-0.013173968094633877
2652,00:00:10.608,0.014893441810272641
2653,00:00:10.612,0.00811361242085697
2654,00:00:10.616,-0.0009198721381835622
2655,00:00:10.62,-0.013818715364322984
2656,00:00:10.624,-0.009770064090844239
2657,00:00:10.628,0.01610469172010198
2658,00:00:10.632,0.00915524843730964
2659,00:00:10.636,-0.0022021969416527974
2660,00:00:10.64,-0.0012581510818563363
2661,00:00:10.644,-0.0121604800224304
2662,00:00:10.648,-0.00476307887583971
2663,00:00:10.652,0.014021670678630457
2664,00:00:10.656,0.003235960008169054
2665,00:00:10.66,-0.006791452644392851
2666,00:00:10.664,-0.0061974213458597695
2667,00:00:10.668,0.006726535793859515
2668,00:00:10.672,0.006998226745054126
2669,00:00:10.676,-0.004084292158950121
2670,00:00:10.68,-0.004797386849531899
2671,00:00:10.684,-0.006017734180204574
2672,00:00:10.688,0.006922276370460164
2673,00:00:10.692,0.007516629277347425
2674,00:00:10.696,-0.003504897118546065
2675,00:00:10.7,-0.006511629137094132
2676,00:00:10.704,0.00016244241123785307
2677,00:00:10.708,0.00236626494370284
2678,00:00:10.712,0.001990209624636917
2679,00:00:10.716,-0.001372640588670036
2680,00:00:10.72,0.007807500485796481
2681,00:00:10.724,-0.007218556944280864
2682,00:00:10.728,-0.005592920642811802
2683,00:00:10.732,0.006052396427548956
2684,00:00:10.736,0.003567794658010819
2685,00:00:10.74,-0.0051887648878619005
2686,00:00:10.744,-0.01172763761132959
2687,00:00:10.748,0.004134601156692951
2688,00:00:10.752,0.02138782462134255
2689,00:00:10.756,0.0027933932142332214
2690,00:00:10.76,-0.014359978493303092
2691,00:00:10.764,-0.012142157647758675
2692,00:00:10.768,0.0009453677557758062
2693,00:00:10.772,0.010620301734888909
2694,00:00:10.776,0.010328049487725362
2695,00:00:10.78,-0.0043689321173587805
2696,00:00:10.784,-0.01771031336829767
2697,00:00:10.788,0.0012850918756157654
2698,00:00:10.792,0.011790525233664077
2699,00:00:10.796,0.004351276147644975
2700,00:00:10.8,0.0009140243346337236
2701,00:00:10.804,-0.009540357488731357
2702,00:00:10.808,-0.000691811139404312
2703,00:00:10.812,0.005917483701978193
2704,00:00:10.816,-0.0024927261929406134
2705,00:00:10.82,-0.0049109444189525675
2706,00:00:10.824,-0.0028230927509866844
2707,00:00:10.828,0.01298715197481215
2708,00:00:10.832,0.0013029339024797104
2709,00:00:10.836,-0.010358173050917689
2710,00:00:10.84,-0.00062926014652476
2711,00:00:10.844,0.002567412258940751
2712,00:00:10.848,0.00852071656845511
2713,00:00:10.852,-0.003009456588188182
2714,00:00:10.856,-0.0073115031700581295
2715,00:00:10.86,-0.005180981504963714
2716,00:00:10.864,-0.002698987605981528
2717,00:00:10.868,0.011143819137942046
2718,00:00:10.872,0.010176418325499984
2719,00:00:10.876,0.005118576955283056
2720,00:00:10.88,-0.015789380602654994
2721,00:00:10.884,-0.0103658395819366
2722,00:00:10.888,0.0022091431819717395
2723,00:00:10.892,0.01266437218873764
2724,00:00:10.896,0.009614038763174907
2725,00:00:10.9,-0.01714444928802553
2726,00:00:10.904,-0.00791913393186405
2727,00:00:10.908,0.008754963317187505
2728,00:00:10.912,0.0074595849728211795
2729,00:00:10.916,0.0055956554133445
2730,00:00:10.92,-0.010990053502609995
2731,00:00:10.924,-0.01152791184722449
2732,00:00:10.928,0.004175148496869953
2733,00:00:10.932,0.012145279586548026
2734,00:00:10.936,0.009615879804186982
2735,00:00:10.94,-0.012417535595886854
2736,00:00:10.944,-0.009283882769523185
2737,00:00:10.948,0.0035505916457623183
2738,00:00:10.952,0.003010834363522006
2739,00:00:10.956,0.010605257470160737
2740,00:00:10.96,-0.0026545015844021726
2741,00:00:10.964,-0.010627147683408117
2742,00:00:10.968,-0.006902283814270048
2743,00:00:10.972,0.008188168634660544
2744,00:00:10.976,0.009064894067705605
2745,00:00:10.98,-0.004665162217861507
2746,00:00:10.984,-0.010632919867930461
2747,00:00:10.988,0.0073567825238569605
2748,00:00:10.992,0.01527881612128116
2749,00:00:10.996,-0.006564117157267898
2750,00:00:11,-0.009520459686427786
2751,00:00:11.004,-0.008880633125954782
2752,00:00:11.008,0.002574547890617401
2753,00:00:11.012,0.015045094338347583
2754,00:00:11.016,0.0016996087842926523
2755,00:00:11.02,-0.008589853360717827
2756,00:00:11.024,-0.011368642314664614
2757,00:00:11.028,0.010563912715042537
2758,00:00:11.032,0.012799239794048825
2759,00:00:11.036,-0.005154288920493848
2760,00:00:11.04,-0.007762577720768607
2761,00:00:11.044,-0.008163055288605399
2762,00:00:11.048,0.00638796741259284
2763,00:00:11.052,0.008194188645575182
2764,00:00:11.056,-0.0003452507080510261
2765,00:00:11.06,-0.007650252431631084
2766,00:00:11.064,-0.007388792000710959
2767,00:00:11.068,0.005908926599659026
2768,00:00:11.072,0.017696207643893968
2769,00:00:11.076,-0.0022416289430111647
2770,00:00:11.08,-0.012906003976240712
2771,00:00:11.084,-0.01131564295792487
2772,00:00:11.088,0.006885896691528609
2773,00:00:11.092,0.008536792516679277
2774,00:00:11.096,0.012180496123619418
2775,00:00:11.1,-0.0067282008412803416
2776,00:00:11.104,-0.020064190877747003
2777,00:00:11.108,0.00045669369887946253
2778,00:00:11.112,0.01649061956777591
2779,00:00:11.116,0.003594659836380737
2780,00:00:11.12,-0.007554823348982612
2781,00:00:11.124,-0.00925307226725636
2782,00:00:11.128,0.0039046476904331913
2783,00:00:11.132,0.016580115877332026
2784,00:00:11.136,-0.00023184910560303246
2785,00:00:11.14,-0.018435215589306598
2786,00:00:11.144,-0.0020432278433872813
2787,00:00:11.148,0.004570110388158346
2788,00:00:11.152,0.009109558121508569
2789,00:00:11.156,-0.00138301099650562
2790,00:00:11.16,-0.00746279652230446
2791,00:00:11.164,1.3681710697709647e-05
2792,00:00:11.168,0.0011123226577183286
2793,00:00:11.172,0.01112666178960351
2794,00:00:11.176,0.005130311299581081
2795,00:00:11.18,-0.017418619187083116
2796,00:00:11.184,-0.005432974856375955
2797,00:00:11.188,0.00689524232438998
2798,00:00:11.192,0.005674407118931418
2799,00:00:11.196,0.0031939270120346893
2800,00:00:11.2,-0.008176985647878611
2801,00:00:11.204,-0.008721414622414153
2802,00:00:11.208,0.007250320930324963
2803,00:00:11.212,0.007489679235732181
2804,00:00:11.216,0.004544170573353769
2805,00:00:11.22,-0.010119423852302172
2806,00:00:11.224,-0.001358889698167339
2807,00:00:11.228,0.005968883560854015
2808,00:00:11.232,0.006213192769791936
2809,00:00:11.236,-0.006300168228335678
2810,00:00:11.24,-0.017423590659745938
2811,00:00:11.244,0.0007464266382157868
2812,00:00:11.248,0.019568717474612682
2813,00:00:11.252,0.0051486013690009704
2814,00:00:11.256,-0.0060103909927420335
2815,00:00:11.26,-0.008656997466459872
2816,00:00:11.264,-0.005211449228227161
2817,00:00:11.268,0.006115826079621916
2818,00:00:11.272,0.014068092161323896
2819,00:00:11.276,-0.006142518075648699
2820,00:00:11.28,-0.01433918194379661
2821,00:00:11.284,0.0004461165517568597
2822,00:00:11.288,0.006134415045380589
2823,00:00:11.292,0.01171225585858339
2824,00:00:11.296,0.002475621469784535
2825,00:00:11.3,-0.01591090881265696
2826,00:00:11.304,-0.0038856767932884386
2827,00:00:11.308,0.0072093714702532435
2828,00:00:11.312,0.0049973409040831055
2829,00:00:11.316,-0.001910958613734692
2830,00:00:11.32,-0.0048900798719841935
2831,00:00:11.324,-0.0035364546838536604
2832,00:00:11.328,0.003760719147976492
2833,00:00:11.332,0.012718053098069455
2834,00:00:11.336,0.000395783572457731
2835,00:00:11.34,-0.012977648846572246
2836,00:00:11.344,-0.013704840504942655
2837,00:00:11.348,0.006918756887898774
2838,00:00:11.352,0.02090425870846954
2839,00:00:11.356,-0.0017705790232866996
2840,00:00:11.36,-0.01622781576588747
2841,00:00:11.364,-0.0020800072816200598
2842,00:00:11.368,0.009034743648953732
2843,00:00:11.372,0.01817663048859687
2844,00:00:11.376,-0.010034432722022757
2845,00:00:11.38,-0.017627980734687278
2846,00:00:11.384,-0.010822710508364268
2847,00:00:11.388,0.008356042904779318
2848,00:00:11.392,0.014199195662513387
2849,00:00:11.396,0.00962444324977695
2850,00:00:11.4,-0.006777089482056908
2851,00:00:11.404,-0.009143948875134835
2852,00:00:11.408,0.00771543651353568
2853,00:00:11.412,0.007393418229185
2854,00:00:11.416,-0.009479280910454697
2855,00:00:11.42,-0.01333877693741674
2856,00:00:11.424,-0.009246906556654739
2857,00:00:11.428,0.013841551146470035
2858,00:00:11.432,0.019588991388445717
2859,00:00:11.436,-0.001224768035172022
2860,00:00:11.44,-0.014085032191360366
2861,00:00:11.444,-0.006864063820103191
2862,00:00:11.448,0.008343498222529888
2863,00:00:11.452,0.014721940038725711
2864,00:00:11.456,0.000894522905582566
2865,00:00:11.46,-0.022001733246725025
2866,00:00:11.464,-0.01138604327570646
2867,00:00:11.468,0.00765755982138217
2868,00:00:11.472,0.011020411577192135
2869,00:00:11.476,0.00868621910922229
2870,00:00:11.48,-0.001240864512510592
2871,00:00:11.484,-0.010925477603450424
2872,00:00:11.488,0.003933002861003846
2873,00:00:11.492,0.0032304431952070414
2874,00:00:11.496,0.0013672419590875502
2875,00:00:11.5,-0.011087799488450394
2876,00:00:11.504,-0.004538613604381679
2877,00:00:11.508,0.009693097079434667
2878,00:00:11.512,0.011055747119826263
2879,00:00:11.516,-0.005600333344773396
2880,00:00:11.52,-0.011197418640222194
2881,00:00:11.524,-0.0031722769522275493
2882,00:00:11.528,0.010363196255639197
2883,00:00:11.532,0.00866782196681018
2884,00:00:11.536,-0.0023392964603772284
2885,00:00:11.54,-0.010153987735975516
2886,00:00:11.544,-0.008997696771984972
2887,00:00:11.548,0.007677788431465159
2888,00:00:11.552,0.008055887076807315
2889,00:00:11.556,0.007036624228931026
2890,00:00:11.56,-0.007761659799143677
2891,00:00:11.564,-0.006960427854210181
2892,00:00:11.568,-0.0017448001890443298
2893,00:00:11.572,0.010549076323513828
2894,00:00:11.576,0.001716147409752007
2895,00:00:11.58,-0.016362439258955436
2896,00:00:11.584,-0.005360159266274417
2897,00:00:11.588,0.023261618487595156
2898,00:00:11.592,0.011280156119028112
2899,00:00:11.596,-0.013472965481923862
2900,00:00:11.6,-0.019088037777692073
2901,00:00:11.604,-0.0022952455328777398
2902,00:00:11.608,0.0121999999973923
2903,00:00:11.612,0.00982931442558766
2904,00:00:11.616,0.004609507421264427
2905,00:00:11.62,-0.0071165111730806495
2906,00:00:11.624,-0.00452812679577619
2907,00:00:11.628,-0.0021590915275737687
2908,00:00:11.632,0.003969280613091543
2909,00:00:11.636,-0.002953321905806665
2910,00:00:11.64,-0.00615010736510158
2911,00:00:11.644,0.0024589113891124704
2912,00:00:11.648,0.01145474752411247
2913,00:00:11.652,0.0020571856293827304
2914,00:00:11.656,-0.0058463412860874095
2915,00:00:11.66,-0.00920142978429794
2916,00:00:11.664,-0.001751859905198219
2917,00:00:11.668,0.010589038609396084
2918,00:00:11.672,0.008108467329293486
2919,00:00:11.676,-0.007204029941931362
2920,00:00:11.68,-0.008720105979591612
2921,00:00:11.684,0.004507636098423981
2922,00:00:11.688,0.00198329635895789
2923,00:00:11.692,0.002340825289138589
2924,00:00:11.696,-0.002485766541212802
2925,00:00:11.7,-0.00014176921104080997
2926,00:00:11.704,-0.004520656366366895
2927,00:00:11.708,-0.0008732864735065996
2928,00:00:11.712,0.00675364676862955
2929,00:00:11.716,0.005696728861948936
2930,00:00:11.72,-0.009160750661976634
2931,00:00:11.724,-0.0051756519533228155
2932,00:00:11.728,0.005686824879376216
2933,00:00:11.732,0.009111858653341185
2934,00:00:11.736,-0.0029556908775703016
2935,00:00:11.74,-0.01147804118227215
2936,00:00:11.744,0.0007675052620470533
2937,00:00:11.748,0.012972399825230239
2938,00:00:11.752,-3.889226354658994e-05
2939,00:00:11.756,-0.00732962507754565
2940,00:00:11.76,-0.009044837119290607
2941,00:00:11.764,-0.0026148860051762282
2942,00:00:11.768,0.01595136155083314
2943,00:00:11.772,0.006469518266385425
2944,00:00:11.776,-0.004527142868028023
2945,00:00:11.78,-0.00836353022896219
2946,00:00:11.784,-0.007908042236977053
2947,00:00:11.788,0.009341366840089904
2948,00:00:11.792,0.011145667092932895
2949,00:00:11.796,-0.005687661971023769
2950,00:00:11.8,-0.013449212773593875
2951,00:00:11.804,0.0007957918078318493
2952,00:00:11.808,0.012179621544419173
2953,00:00:11.812,0.005405631214671297
2954,00:00:11.816,-0.008965724400695757
2955,00:00:11.82,-0.004365867476792568
2956,00:00:11.824,-0.0022589957402488
2957,00:00:11.828,-0.00016172294181160396
2958,00:00:11.832,0.011972797075714001
2959,00:00:11.836,0.0028724500290877534
2960,00:00:11.84,-0.009769148058353497
2961,00:00:11.844,-0.0034575403035432845
2962,00:00:11.848,0.0032780834509367157
2963,00:00:11.852,0.007136619161030923
2964,00:00:11.856,-0.0011409415732259777
2965,00:00:11.86,-0.008309467473736728
2966,00:00:11.864,-0.005615826747828125
2967,00:00:11.868,0.004044134672682271
2968,00:00:11.872,0.012275714945014072
2969,00:00:11.876,0.004018333221623036
2970,00:00:11.88,-0.014625874940989516
2971,00:00:11.884,-0.0033786419741517193
2972,00:00:11.888,0.007014104850149746
2973,00:00:11.892,0.006541605428740379
2974,00:00:11.896,-0.0002363258997526428
2975,00:00:11.9,-0.012826645864802111
2976,00:00:11.904,-0.005037745300082718
2977,00:00:11.908,0.008106768155048846
2978,00:00:11.912,0.01172778940323842
2979,00:00:11.916,-0.0014636163718559892
2980,00:00:11.92,-0.009288586496672274
2981,00:00:11.924,-0.0040706793601308425
2982,00:00:11.928,0.008155491007339585
2983,00:00:11.932,0.006749055366457755
2984,00:00:11.936,-0.005233650910668073
2985,00:00:11.94,-0.010006346623413254
2986,00:00:11.944,-0.0024993164552142813
2987,00:00:11.948,0.00625044072512538
2988,00:00:11.952,0.01441794284619394
2989,00:00:11.956,0.002853286918252714
2990,00:00:11.96,-0.015490395366214223
2991,00:00:11.964,-0.01407280145213003
2992,00:00:11.968,0.006264636060222981
2993,00:00:11.972,0.013800826258375356
2994,00:00:11.976,0.005684308387571943
2995,00:00:11.98,-0.01324697647942229
2996,00:00:11.984,-0.0027215728769078825
2997,00:00:11.988,0.008998885678010996
2998,00:00:11.992,0.006105007632868368
2999,00:00:11.996,-0.010680988576496022
3000,00:00:12,-0.009117293520830617
3001,00:00:12.004,0.0004365370477898917
3002,00:00:12.008,0.014752496615983513
3003,00:00:12.012,0.005005658691516148
3004,00:00:12.016,-0.007072117063216864
3005,00:00:12.02,-0.003917259222362192
3006,00:00:12.024,-0.0034036615252261964
3007,00:00:12.028,0.00442895275773481
3008,00:00:12.032,0.002828400844009595
3009,00:00:12.036,-0.002435053203953434
3010,00:00:12.04,-0.004207893085549583
3011,00:00:12.044,-0.0025047346716746796
3012,00:00:12.048,0.004493182757869369
3013,00:00:12.052,0.010845223674550647
3014,00:00:12.056,7.943624223117176e-05
3015,00:00:12.06,-0.01181483117397875
3016,00:00:12.064,0.0001525663537904618
3017,00:00:12.068,-5.0848961109290066e-05
3018,00:00:12.072,0.0007388891535811172
3019,00:00:12.076,0.0032823495421325836
3020,00:00:12.08,-0.005076103814644742
3021,00:00:12.084,-0.001327957972534933
3022,00:00:12.088,0.007024077378446235
3023,00:00:12.092,0.014505711227684537
3024,00:00:12.096,-0.012654962025408124
3025,00:00:12.1,-0.015831287809305636
3026,00:00:12.104,-0.0007718698398093706
3027,00:00:12.108,0.013689095663721694
3028,00:00:12.112,0.012514335943706103
3029,00:00:12.116,-0.0022489048214993086
3030,00:00:12.12,-0.02307017543353139
3031,00:00:12.124,0.0022383367177099
3032,00:00:12.128,0.008379528328077873
3033,00:00:12.132,0.013969177147373562
3034,00:00:12.136,-0.009014783543534579
3035,00:00:12.14,-0.013022975195781349
3036,00:00:12.144,0.003905282443156457
3037,00:00:12.148,0.008561633701901883
3038,00:00:12.152,0.003418069827603181
3039,00:00:12.156,-0.003996613791969145
3040,00:00:12.16,-0.00829728173994226
3041,00:00:12.164,0.00021494837710633798
3042,00:00:12.168,0.005917570248129786
3043,00:00:12.172,0.007835564334527591
3044,00:00:12.176,-0.006042469539352175
3045,00:00:12.18,-0.011828056922240666
3046,00:00:12.184,0.006782491647754796
3047,00:00:12.188,0.013312066170328768
3048,00:00:12.192,9.006558457258452e-05
3049,00:00:12.196,-0.015393285080790518
3050,00:00:12.2,-0.0034926198422908696
3051,00:00:12.204,0.0008323767688125398
3052,00:00:12.208,0.006460411066655049
3053,00:00:12.212,0.010994647920597367
3054,00:00:12.216,-0.00694813509471715
3055,00:00:12.22,-0.00877923611551523
3056,00:00:12.224,0.0004897948820143994
3057,00:00:12.228,0.004061142682985516
3058,00:00:12.232,0.011841336992802104
3059,00:00:12.236,-0.006594086997210976
3060,00:00:12.24,-0.009369817882543433
3061,00:00:12.244,0.005833729610458249
3062,00:00:12.248,-0.0003453531680861538
3063,00:00:12.252,0.0007671128551010021
3064,00:00:12.256,-0.0023731149267405232
3065,00:00:12.26,-0.00731234263730585
3066,00:00:12.264,0.00871991878375411
3067,00:00:12.268,0.0023866338888183214
3068,00:00:12.272,0.01040471033775247
3069,00:00:12.276,-0.00850948330480605
3070,00:00:12.28,-0.015117077738978
3071,00:00:12.284,0.0029125853325240305
3072,00:00:12.288,0.009174044695100745
3073,00:00:12.292,0.00894737814087421
3074,00:00:12.296,-0.006753990543074904
3075,00:00:12.3,-0.017292045435169715
3076,00:00:12.304,0.005644785953336395
3077,00:00:12.308,0.020341964598628717
3078,00:00:12.312,-5.074400542071127e-05
3079,00:00:12.316,-0.012193730952276379
3080,00:00:12.32,-0.009711059949950116
3081,00:00:12.324,-0.0001521950434835186
3082,00:00:12.328,0.012191314475785482
3083,00:00:12.332,0.008881396246579243
3084,00:00:12.336,-0.0031015051858958075
