Elapsed Time,EMG1,EMG2,EMG3,BioRadio Event,
00:00:00,-0.172289744019508,-0.940328359603882,2.10484099388123,0,
00:00:00.004,0.157724425196648,0.888593733310699,-1.99674963951111,0,
00:00:00.008,0.167124897241592,0.751847207546234,-1.67303335666656,0,
00:00:00.012,-0.00615932885557413,0.0831492245197296,-0.180392012000084,0,
00:00:00.016,-0.105827108025551,-0.382869929075241,0.849517405033112,0,
00:00:00.02,-0.0497684590518475,-0.45991986989975,1.04910945892334,0,
00:00:00.024,-0.0397258102893829,-0.287483930587769,0.640688240528107,0,
00:00:00.028,-0.0239606816321611,-0.0564802996814251,0.0872804224491119,0,
00:00:00.032,0.013610502704978,0.129256069660187,-0.304680198431015,0,
00:00:00.036,0.0287985894829035,0.18573372066021,-0.421704560518265,0,
00:00:00.04,0.0370128266513348,0.152663931250572,-0.312509179115295,0,
00:00:00.044,0.0282775014638901,0.0812825933098793,-0.105036787688732,0,
00:00:00.048,0.000115825889224652,-0.019582899287343,0.0498222559690475,0,
00:00:00.052,-0.0204484015703201,-0.0802953541278839,0.110673151910305,0,
00:00:00.056,-0.0165450386703014,-0.0683069974184036,0.114664651453495,0,
00:00:00.06,-0.00401373393833637,-0.0263617914170027,0.0672502815723419,0,
00:00:00.064,0.00416002282872796,0.0198630001395941,0.000374563736841083,0,
00:00:00.068,-0.00679371319711208,0.0193821210414171,-0.0375697650015354,0,
00:00:00.072,-0.0038579034153372,-0.00436139805242419,-0.0318242721259594,0,
00:00:00.076,0.0021662141662091,0.00136650633066893,-0.0211619567126036,0,
00:00:00.08,0.0119065660983324,0.0316848009824753,-0.0224830899387598,0,
00:00:00.084,-0.00248212856240571,0.00867845397442579,-0.00834981072694063,0,
00:00:00.088,0.0146290408447385,-0.0202541723847389,0.0306200236082077,0,
00:00:00.092,0.0311138518154621,-0.0121030854061246,0.0259313806891441,0,
00:00:00.096,-0.0414481647312641,0.000599579885601997,0.00975579023361206,0,
00:00:00.1,-0.0121146067976952,0.010680565610528,-0.0130973923951387,0,
00:00:00.104,-0.0298475008457899,-0.00678693456575274,-0.0140085658058524,0,
00:00:00.108,0.013903777115047,-0.00867717992514372,-0.0086569469422102,0,
00:00:00.112,0.0150829236954451,-0.00737516302615404,0.00691425520926714,0,
00:00:00.116,0.0167418662458658,0.00453636422753334,0.00634071929380298,0,
00:00:00.12,-0.00566148664802313,0.0169800724834204,0.00155217689462006,0,
00:00:00.124,0.0339636951684952,0.0197231005877256,-0.00610039196908474,0,
00:00:00.128,0.00808048713952303,-0.00918593443930149,-0.00507669150829315,0,
00:00:00.132,-0.0526361763477325,-0.0258473735302687,0.00951920077204704,0,
00:00:00.136,-0.0206540673971176,-0.00414889119565487,-0.00311346119269729,0,
00:00:00.14,0.00874406658113003,0.0106401406228542,0.00820943061262369,0,
00:00:00.144,0.00539985112845898,0.00834639091044664,-0.00462106848135591,0,
00:00:00.148,0.0189394112676382,-0.000267032359261066,-0.00336601794697344,0,
00:00:00.152,0.0155778983607888,-0.000820310378912836,-0.00815678667277098,0,
00:00:00.156,-0.00405057286843657,-0.00643795402720571,-0.000675110321026295,0,
00:00:00.16,-0.0291077680885792,-0.00260573299601674,0.0116149596869946,0,
00:00:00.164,-0.0092566255480051,-0.00239003915339708,0.0128691382706165,0,
00:00:00.168,0.0792471319437027,0.011580403894186,-0.0152431316673756,0,
00:00:00.172,-0.0317595265805721,0.0124016469344497,-0.00423364154994488,0,
00:00:00.176,-0.0504355058073998,-0.00783098861575127,0.000957135518547148,0,
00:00:00.18,-0.0106534641236067,-0.0191275421530008,0.00443971808999777,0,
00:00:00.184,0.019177408888936,-0.00620022928342223,-0.000201226022909395,0,
00:00:00.188,0.00494164461269975,0.0106164189055562,-0.00105547020211816,0,
00:00:00.192,0.0250019486993551,0.00885224901139736,0.00778371281921864,0,
00:00:00.196,0.035686869174242,0.0190807357430458,-0.0160664841532707,0,
00:00:00.2,-0.00689444458112121,0.00284317997284234,-0.00860596355050802,0,
00:00:00.204,-0.0484836250543594,-0.0217145159840584,0.0161161031574011,0,
00:00:00.208,-0.032924048602581,-0.0276494529098272,0.0145086627453566,0,
00:00:00.212,0.00138232973404229,-0.00447678565979004,0.00372217805124819,0,
00:00:00.216,0.0222913771867752,0.0181621052324772,-0.00743001280352473,0,
00:00:00.22,0.0320419780910015,0.0204464513808489,-0.0128450775519013,0,
00:00:00.224,0.00923793762922287,0.00234244531020522,-0.0116254314780235,0,
00:00:00.228,-0.00830141082406044,-0.00352900451980531,0.00184384547173977,0,
00:00:00.232,-0.00565594900399446,0.0041392263956368,0.00781324505805969,0,
00:00:00.236,-0.00574205536395311,-0.000411599059589207,0.00727966940030456,0,
00:00:00.24,-0.00905676651746035,-0.00530903553590178,-0.00688404077664018,0,
00:00:00.244,-0.0050811655819416,-0.0147166466340423,0.0157258100807667,0,
00:00:00.248,-0.00993032567203045,-0.0129313888028264,0.00804305355995893,0,
00:00:00.252,0.009672068990767,0.0214258767664433,-0.0209089461714029,0,
00:00:00.256,0.0207881852984428,0.00499520963057876,-0.0112198833376169,0,
00:00:00.26,-0.00724161509424448,-0.014576269313693,0.00521900691092014,0,
00:00:00.264,0.00142153282649815,0.0022427944932133,0.0118603175505996,0,
00:00:00.268,-0.00612279074266553,0.00761821214109659,0.00242940266616642,0,
00:00:00.272,-0.00280578644014895,0.00979043170809746,-0.00923100672662258,0,
00:00:00.276,0.0283531565219164,-0.00068107689730823,-0.000259982014540583,0,
00:00:00.28,-0.0330661050975323,-0.00960997119545937,0.00850495789200068,0,
00:00:00.284,-0.0050983102992177,-0.00139446533285081,-0.00832428969442844,0,
00:00:00.288,0.0294200610369444,0.00679363962262869,-0.00264270044863224,0,
00:00:00.292,-0.0118464063853025,-0.0117029780521989,0.00622821971774101,0,
00:00:00.296,-0.00751000409945846,-0.00309790880419314,0.00376460514962673,0,
00:00:00.3,-0.0113897295668721,0.0186320971697569,-0.00680703390389681,0,
00:00:00.304,0.000191575440112501,-0.00354392873123288,0.00302613014355302,0,
00:00:00.308,0.00459899939596653,-0.0113218706101179,0.000103450220194645,0,
00:00:00.312,0.0177511088550091,0.000397708063246682,0.0012712812749669,0,
00:00:00.316,0.00670703686773777,0.00191026425454766,-0.00885278638452291,0,
00:00:00.32,-0.00707874493673444,0.00101580435875803,0.00411638896912336,0,
00:00:00.324,-0.00111473118886352,0.000364525942131877,0.0111875459551811,0,
00:00:00.328,-0.00294174277223647,0.0169243365526199,-0.014592750929296,0,
00:00:00.332,-0.0124704167246819,0.0117060299962759,0.00163272698409855,0,
00:00:00.336,0.00691878376528621,-0.0277987718582153,0.0135233663022518,0,
00:00:00.34,-0.00237875012680888,-0.0279445480555296,-0.0027275332249701,0,
00:00:00.344,0.0041511794552207,0.0154190259054303,-0.00238575506955385,0,
00:00:00.348,0.00125803099945188,0.0120168570429087,-0.00817923154681921,0,
00:00:00.352,-0.00368937896564603,0.0070732762105763,-0.00797202624380589,0,
00:00:00.356,0.00614163558930159,-0.00435407087206841,0.00553010636940598,0,
00:00:00.36,0.0177374668419361,-4.37746275565587E-05,0.0157734472304583,0,
00:00:00.364,-0.0257735569030046,0.00980584509670734,-0.00794496573507786,0,
00:00:00.368,-0.0137467971071601,0.00129819463472813,-0.00673652114346623,0,
00:00:00.372,0.0261529292911291,-0.0107103949412704,0.00829587783664465,0,
00:00:00.376,-0.018339840695262,-0.0166518669575453,0.00657648593187332,0,
00:00:00.38,0.00653994362801313,0.00609897077083588,-0.00810849480330944,0,
00:00:00.384,0.056993056088686,0.0221564043313265,-0.0192680023610592,0,
00:00:00.388,-0.0438686832785606,-0.000300244282698259,0.00650406954810023,0,
00:00:00.392,-0.0523715801537037,-0.0220028813928366,0.0146148884668946,0,
00:00:00.396,0.00479681650176644,-0.0113784251734614,0.0101769790053368,0,
00:00:00.4,0.0291652474552393,0.0161403678357601,0.00985836796462536,0,
00:00:00.404,0.0343882963061333,0.0140084950253367,-0.0191078688949347,0,
00:00:00.408,-0.00583825120702386,-0.00496197119355202,-0.0138950487598777,0,
00:00:00.412,-0.00743935210630298,0.00514760706573725,-0.00350271933712065,0,
00:00:00.416,-0.00632900279015303,-0.00469382712617517,0.00631939200684428,0,
00:00:00.42,-0.00835896283388138,-0.00614067539572716,0.00481262477114797,0,
00:00:00.424,-0.00636629248037934,-0.00132819532882422,0.00145979248918593,0,
00:00:00.428,-0.00161771068815142,-0.00406445935368538,0.00160797405987978,0,
00:00:00.432,0.00270465738140047,-0.00176287128124386,0.00146280962508172,0,
00:00:00.436,0.0170938353985548,0.0119473021477461,0.00677067879587412,0,
00:00:00.44,0.0109240654855967,0.00188074819743633,-0.00436548050493002,0,
00:00:00.444,-0.0171560291200876,-0.00238974648527801,0.000278253603028134,0,
00:00:00.448,-0.00695510162040591,0.00122110417578369,-0.0153456414118409,0,
00:00:00.452,-0.00748926913365722,-0.00565363187342882,-0.000965453684329987,0,
00:00:00.456,0.00336457299999893,-0.00764425611123443,0.00632051937282085,0,
00:00:00.46,0.00297231157310307,-0.00189977290574461,0.0151360752061009,0,
00:00:00.464,0.00947805494070053,0.0159820728003979,-0.00220464589074254,0,
00:00:00.468,0.0217107683420181,0.00401473604142666,-0.0148661555722356,0,
00:00:00.472,-0.0229962095618248,-0.00508540635928512,0.00952886883169413,0,
00:00:00.476,0.00088812765898183,-0.000904467538930476,-0.00248613231815398,0,
00:00:00.48,-0.0106638949364424,-0.00390439806506038,0.0013039781479165,0,
00:00:00.484,-0.000740275660064071,-0.000460703391581774,-0.00617024023085833,0,
00:00:00.488,-0.00306206336244941,-1.80194401764311E-05,0.00459282472729683,0,
00:00:00.492,0.00946388673037291,-4.84705778944772E-05,0.00343782012350857,0,
00:00:00.496,0.000941090343985707,8.75621772138402E-05,-0.00226497696712613,0,
00:00:00.5,-0.00327066727913916,-0.0100636994466186,-0.000337844452587888,0,
00:00:00.504,0.00767835322767496,0.00617388496175408,-0.00689001474529505,0,
00:00:00.508,0.0108634056523442,0.0188019499182701,0.00296588148921728,0,
00:00:00.512,-0.00910282135009766,-0.00150072574615479,0.00634445901960135,0,
00:00:00.516,-0.0114579042419791,-0.0211684517562389,-0.00404043542221189,0,
00:00:00.52,-0.00129177561029792,-0.00801690109074116,0.00194838352035731,0,
00:00:00.524,0.00575246568769217,0.0147643322125077,-0.000599954219069332,0,
00:00:00.528,-0.00190708157606423,0.0224158316850662,0.00571617018431425,0,
00:00:00.532,0.00260302238166332,0.00693535432219505,0.000340042868629098,0,
00:00:00.536,0.0197428558021784,-0.0206982791423798,-0.0105574121698737,0,
00:00:00.54,-0.00396674638614058,-0.0250463634729385,-0.00732157425954938,0,
00:00:00.544,-0.0255935024470091,-0.0107082836329937,0.0101877097040415,0,
00:00:00.548,-0.00510551128536463,0.0153899434953928,0.00113854522351176,0,
00:00:00.552,0.00399100873619318,0.0177690964192152,-1.20732356663211E-05,0,
00:00:00.556,-0.00400039739906788,0.00712424330413342,0.00888947490602732,0,
00:00:00.56,0.0170429181307554,-0.00468182237818837,-0.000901307736057788,0,
00:00:00.564,0.0253157261759043,0.00577138364315033,-0.0163023360073566,0,
00:00:00.568,-0.0288555659353733,-0.0136846071109176,0.00636016484349966,0,
00:00:00.572,0.0679631605744362,0.0148593364283442,-0.0107167530804873,0,
00:00:00.576,-0.05369907990098,-0.0077265677973628,0.00351559952832758,0,
00:00:00.58,-0.0659585371613503,-0.0152223221957684,0.0216077715158463,0,
00:00:00.584,1.20855520435725E-05,0.000629451591521502,-0.00049737625522539,0,
00:00:00.588,0.0290248990058899,-0.00358600215986371,-0.00344129442237318,0,
00:00:00.592,0.0315009728074074,-0.00279173930175602,-0.00629546027630568,0,
00:00:00.596,0.0239152759313583,0.0158377382904291,-0.011867736466229,0,
00:00:00.6,0.0032996425870806,0.0139372115954757,0.00541576417163014,0,
00:00:00.604,-0.0226895809173584,-0.00648452620953321,0.00149364478420466,0,
00:00:00.608,-0.019308241084218,-0.00543473102152348,0.00123433535918593,0,
00:00:00.612,-0.00663208588957787,-0.00074875948484987,0.00142613565549254,0,
00:00:00.616,0.00794033519923687,0.00571839977055788,0.00110344379208982,0,
00:00:00.62,0.00805694330483675,-0.002760547446087,0.00455432198941708,0,
00:00:00.624,0.00338428001850843,-0.00567807024344802,-0.00628038914874196,0,
00:00:00.628,-0.00289644696749747,-0.0040494711138308,0.000180580376763828,0,
00:00:00.632,-0.000680360128171742,-0.0069774342700839,-0.00540258688852191,0,
00:00:00.636,0.00345226097851992,0.00776849780231714,-0.000306727248243988,0,
00:00:00.64,-0.00269038905389607,0.00558531610295177,0.00613884860649705,0,
00:00:00.644,-0.00371711933985353,0.00466151814907789,0.0109645146876574,0,
00:00:00.648,-0.0164744723588228,-0.0061958278529346,0.00124573346693069,0,
00:00:00.652,-0.00455039367079735,-0.00547512713819742,-0.0086473012343049,0,
00:00:00.656,0.049603994935751,0.00518382480368018,-0.012236756272614,0,
00:00:00.66,-0.00412460556253791,0.0152408368885517,-0.00960833858698606,0,
00:00:00.664,0.0150438863784075,-0.0150088090449572,0.0249866973608732,0,
00:00:00.668,-0.0487987659871578,0.00616029556840658,-0.0101332375779748,0,
00:00:00.672,-0.025333795696497,0.00583700137212873,-0.00418288167566061,0,
00:00:00.676,0.00255438312888145,-0.021442998200655,0.0205319859087467,0,
00:00:00.68,0.0158802699297667,-0.0125895459204912,0.00533019239082932,0,
00:00:00.684,0.0289585813879967,0.00500627746805549,-0.0205325614660978,0,
00:00:00.688,0.0187989436089993,0.0262745004147291,-0.0103506585583091,0,
00:00:00.692,-0.00896618328988552,0.00851221010088921,0.0180812329053879,0,
00:00:00.696,-0.0137406634166837,-0.00877447985112667,-0.00840911827981472,0,
00:00:00.7,-0.0131914392113686,-0.00960071664303541,-0.00195170310325921,0,
00:00:00.704,-0.00290175923146307,0.00177088065538555,1.52596603584243E-05,0,
00:00:00.708,0.00255394307896495,0.000868848233949393,0.00711997598409653,0,
00:00:00.712,0.00621533347293735,-0.0119899548590183,-0.000393813301343471,0,
00:00:00.716,0.00126690743491054,0.00139880110509694,0.000879245693795383,0,
00:00:00.72,-0.00232021254487336,0.00878861639648676,-0.00228359270840883,0,
00:00:00.724,-0.00878660380840302,-0.000296905258437619,0.0111392391845584,0,
00:00:00.728,0.00928131956607103,0.0128635363653302,-0.015828114002943,0,
00:00:00.732,0.0124547956511378,-0.00377522921189666,-0.00502215838059783,0,
00:00:00.736,0.00184867694042623,-0.0120568415150046,0.00712332408875227,0,
00:00:00.74,0.00379731762222946,0.00273893191479146,-0.00661649229004979,0,
00:00:00.744,-0.0203159805387259,-0.00796793680638075,0.0150732723996043,0,
00:00:00.748,-0.0197416581213474,0.0153645211830735,0.00155413441825658,0,
00:00:00.752,-0.000293292076094076,0.00421138620004058,0.00459498912096024,0,
00:00:00.756,0.0255903974175453,-0.0241908933967352,-0.00569419283419847,0,
00:00:00.76,0.0256575234234333,-0.00272233597934246,-0.0146684451028705,0,
00:00:00.764,-0.00673563405871391,0.0215679500252008,-0.00994129292666912,0,
00:00:00.768,-0.0409913286566734,-0.00142554065678269,0.0119709018617868,0,
00:00:00.772,-0.00918796751648188,-0.00214838469401002,0.00926992483437061,0,
00:00:00.776,0.0168911274522543,0.0092315673828125,-0.000603162916377187,0,
00:00:00.78,0.0203356668353081,-0.0122254211455584,0.00897309836000204,0,
00:00:00.784,0.0108301537111402,-0.00825006980448961,-0.00596852973103523,0,
00:00:00.788,-0.00499489484354854,0.00482013542205095,-0.00553568033501506,0,
00:00:00.792,-0.0102637968957424,0.0101355630904436,-0.00777663104236126,0,
00:00:00.796,-0.0101802125573158,-0.00126447167713195,-0.0012067761272192,0,
00:00:00.8,0.00101940822787583,-0.00394515180960298,0.0103813167661428,0,
00:00:00.804,0.00101016787812114,-0.00260815187357366,0.00152561534196138,0,
00:00:00.808,0.00188094878103584,0.00167534791398793,-0.00346061610616744,0,
00:00:00.812,0.00413057720288634,-0.000912247109226882,-0.00369267840869725,0,
00:00:00.816,-0.00057443167315796,-0.0023239366710186,0.00693945307284594,0,
00:00:00.82,-0.00536981131881475,-0.00142587395384908,0.00357678509317338,0,
00:00:00.824,-0.00488149048760533,0.0025008306838572,-0.00581214018166065,0,
00:00:00.828,0.00512478547170758,0.00812640786170959,0.00195318926125765,0,
00:00:00.832,0.0112107712775469,0.00292733637616038,-0.00624313158914447,0,
00:00:00.836,-0.0061932816170156,-0.00267469091340899,0.00142917863558978,0,
00:00:00.84,0.00660676928237081,-0.01729591563344,0.0125680742785335,0,
00:00:00.844,0.0537946932017803,0.0205364357680082,-0.0256213136017323,0,
00:00:00.848,-0.0369959436357021,0.0070946654304862,-0.00934074725955725,0,
00:00:00.852,-0.0837686955928802,-0.024017171934247,0.0273221023380756,0,
00:00:00.856,-0.0103371404111385,-0.00240183924324811,0.0182555187493563,0,
00:00:00.86,0.0555630140006542,0.00687320623546839,0.0080476738512516,0,
00:00:00.864,0.028590090572834,-0.00745085254311562,-0.0194393955171108,0,
00:00:00.868,0.0110656600445509,0.00657451990991831,-0.0190462395548821,0,
00:00:00.872,-0.00176028721034527,0.00382331642322242,-0.0138485571369529,0,
00:00:00.876,-0.0151602244004607,0.00766991125419736,0.00497235078364611,0,
00:00:00.88,-0.0104639250785112,0.00649145990610123,0.0171213280409575,0,
00:00:00.884,0.0015774006024003,-0.00700660003349185,0.0113582545891404,0,
00:00:00.888,-0.00573296379297972,-0.00835569575428963,-0.000477690628031269,0,
00:00:00.892,-0.00215767417103052,-0.0105208102613688,-0.00915632117539644,0,
00:00:00.896,0.00667546130716801,0.00618360098451376,0.00121132598724216,0,
00:00:00.9,0.00257564126513898,0.011897879652679,-0.00120619125664234,0,
00:00:00.904,0.000350951624568552,0.0037752902135253,-0.00142422923818231,0,
00:00:00.908,-0.000593399570789188,-0.0121079348027706,0.00145766278728843,0,
00:00:00.912,-0.000725638994481415,-0.00457797339186072,-0.00379740656353533,0,
00:00:00.916,-0.0170642845332623,-0.000220518821151927,0.00103584688622504,0,
00:00:00.92,0.00738716218620539,0.0104637509211898,-0.00201076990924776,0,
00:00:00.924,0.0377678349614143,0.00739775598049164,0.00118905177805573,0,
00:00:00.928,0.00275870901532471,-0.00991551298648119,0.0199042689055204,0,
00:00:00.932,-0.0226698070764542,-0.00081031396985054,-0.0150223802775145,0,
00:00:00.936,-0.0291666928678751,-0.00182074529584497,0.000188931589946151,0,
00:00:00.94,-0.0104278512299061,0.00356084248051047,-0.0125737246125937,0,
00:00:00.944,0.0163331851363182,-0.00113558536395431,0.00726389233022928,0,
00:00:00.948,0.0162204336374998,-0.00605079811066389,-0.00135218596551567,0,
00:00:00.952,0.0175071693956852,0.00310188299044967,0.000973730406258255,0,
00:00:00.956,-0.0130725586786866,0.00161027407739311,0.00974851939827204,0,
00:00:00.96,-0.00904164928942919,-0.0028478188905865,0.00370621727779508,0,
00:00:00.964,-0.00986676476895809,0.000651912880130112,-0.00319560477510095,0,
00:00:00.968,0.0171203799545765,0.00535615254193544,-0.0100240688771009,0,
00:00:00.972,0.0271308235824108,0.00733054336160421,-0.00680409325286746,0,
00:00:00.976,-0.024002568796277,0.00188448838889599,0.00153631018474698,0,
00:00:00.98,-0.0200917944312096,-0.00553608918562531,0.0124077787622809,0,
00:00:00.984,-0.00703544449061155,-0.0160078536719084,0.0102795409038663,0,
00:00:00.988,0.0106191346421838,-0.00340289040468633,-0.0100767724215984,0,
00:00:00.992,0.0117711154744029,0.00755386520177126,-0.00723430188372731,0,
00:00:00.996,0.00792195182293653,0.00994450505822897,-0.00438065268099308,0,
00:00:01,-0.00244465772993863,0.00175148202106357,0.00756731908768415,0,
00:00:01.004,-0.00555896526202559,-0.00629359949380159,0.00262935226783156,0,
00:00:01.008,-0.00846333801746368,-0.00102823204360902,-0.00272328918799758,0,
00:00:01.012,0.00240087695419788,0.00747038749977946,-0.00184747437015176,0,
00:00:01.016,-0.00220406288281083,-0.000413593283155933,-0.00185936165507883,0,
00:00:01.02,-0.00444783922284842,-0.0145818404853344,0.00334423943422735,0,
00:00:01.024,0.0207750611007214,0.0100853899493814,0.00918793678283691,0,
00:00:01.028,0.0217216648161411,0.000541010347660631,-0.00515665160492063,0,
00:00:01.032,-0.0156406182795763,0.000239042070461437,-0.018396221101284,0,
00:00:01.036,-0.0469007641077042,-0.00937743298709393,0.0221547354012728,0,
00:00:01.04,0.0113447811454535,0.0126587860286236,0.00136660702992231,0,
00:00:01.044,0.0467786453664303,0.00387739250436425,-0.0205831378698349,0,
00:00:01.048,-0.0261359419673681,-0.0102864168584347,-0.0041644130833447,0,
00:00:01.052,-0.0333061218261719,-0.0170724038034678,0.0254555232822895,0,
00:00:01.056,0.0108687495812774,0.0123263979330659,0.00823963899165392,0,
00:00:01.06,0.021708320826292,0.0149214817211032,0.00473467307165265,0,
00:00:01.064,0.0163613259792328,1.04540886241011E-05,-0.0202996358275414,0,
00:00:01.068,0.00227073952555656,-0.00726486416533589,-0.0243733245879412,0,
00:00:01.072,-0.0120042087510228,-0.00484855007380247,0.00253565865568817,0,
00:00:01.076,-0.00637370860204101,-0.000583894434385002,0.0148957399651408,0,
00:00:01.08,0.000372434122255072,0.00204824702814221,0.00736884493380785,0,
00:00:01.084,-0.0054928082972765,0.00866131018847227,0.00115616153925657,0,
00:00:01.088,-0.0049648080021143,-0.00245528900995851,0.00842068903148174,0,
00:00:01.092,0.00107738981023431,-0.000620141625404358,-0.0018341070972383,0,
00:00:01.096,0.00492841750383377,-0.00892295781522989,-0.00687710801139474,0,
00:00:01.1,0.00287387683056295,-0.00566675839945674,-0.0104999020695686,0,
00:00:01.104,0.0128369685262442,0.00466450722888112,-0.00308258971199393,0,
00:00:01.108,-0.0126476027071476,0.00686434982344508,0.00580902118235826,0,
00:00:01.112,-0.00851075444370508,0.00636252015829086,0.00611511850729585,0,
00:00:01.116,0.000996051705442369,-0.00766848726198077,0.00910101924091578,0,
00:00:01.12,0.0289625022560358,0.0105427065864205,-0.00427536712959409,0,
00:00:01.124,0.00475548394024372,0.00658124731853604,-0.0131968716159463,0,
00:00:01.128,-0.0147164240479469,-0.00862280558794737,-0.0128423376008868,0,
00:00:01.132,-0.026752270758152,-0.0288284532725811,0.0183653440326452,0,
00:00:01.136,-0.0153329623863101,-0.00204550009220839,0.00999393500387669,0,
00:00:01.14,-0.00465583754703403,0.0101556908339262,0.0115483943372965,0,
00:00:01.144,0.00386041752062738,0.0114522809162736,-0.00775106623768806,0,
00:00:01.148,0.0702817514538765,0.0194045398384333,-0.0213667191565037,0,
00:00:01.152,0.000305173336528242,0.00611328659579158,-0.00931708328425884,0,
00:00:01.156,-0.0213961862027645,-0.0135173834860325,0.00853084865957499,0,
00:00:01.16,-0.0210436917841434,-0.0107430014759302,0.0168613288551569,0,
00:00:01.164,-0.0106387929990888,-0.0114879505708814,-0.00433182902634144,0,
00:00:01.168,0.000184101561899297,-0.00889975856989622,-0.00296557368710637,0,
00:00:01.172,0.00217196764424443,0.00252968654967844,-0.000557194638531655,0,
00:00:01.176,0.00685992278158665,0.0160750392824411,0.00701400870457292,0,
00:00:01.18,0.00744494516402483,0.0103634251281619,-0.00296251173131168,0,
00:00:01.184,0.0105182137340307,0.0113791050389409,-0.004501698538661,0,
00:00:01.188,0.00253603421151638,-0.00013990250590723,-0.00443087192252278,0,
00:00:01.192,-0.013407152146101,-0.0173282437026501,0.0022007308434695,0,
00:00:01.196,-0.0103540001437068,-0.0173197146505117,0.00538491923362017,0,
00:00:01.2,-0.00214407243765891,-0.00309479818679392,0.00202728272415698,0,
00:00:01.204,-0.00444941641762853,0.00579260382801294,-0.00138401158619672,0,
00:00:01.208,0.0175597574561834,0.0208261143416166,-0.00887258071452379,0,
00:00:01.212,0.0210164282470942,0.011092753149569,0.00600944040343165,0,
00:00:01.216,-0.0381575934588909,-0.014846570789814,0.00861922092735767,0,
00:00:01.22,0.0344572551548481,-0.0104003446176648,-0.0209303479641676,0,
00:00:01.224,0.00761162023991346,0.00574986496940255,0.00109227420762181,0,
00:00:01.228,-0.0493580661714077,-0.000826071540359408,0.0156026240438223,0,
00:00:01.232,-0.00425880029797554,0.000217240187339485,-0.00624514557421207,0,
00:00:01.236,0.000570362899452448,-0.00461979024112225,0.013976045884192,0,
00:00:01.24,0.0150572527199984,-0.00503942323848605,0.0106793716549873,0,
00:00:01.244,0.0205052867531776,0.00884358957409859,-0.0149578880518675,0,
00:00:01.248,0.00489886989817023,0.00922292843461037,-0.017793195322156,0,
00:00:01.252,-0.00149477133527398,-0.00903362687677145,-0.00861001666635275,0,
00:00:01.256,-0.00217470340430737,-0.00507434038445354,0.00410040142014623,0,
00:00:01.26,-0.00887180212885141,0.0122956093400717,0.0143803842365742,0,
00:00:01.264,-0.00767915323376656,0.00549156172201037,0.00920772645622492,0,
00:00:01.268,-0.00297050387598574,-0.0058746850118041,-0.00328243477270007,0,
00:00:01.272,-0.000672477122861892,-0.0139349652454257,-0.000515857362188399,0,
00:00:01.276,0.00548064103350043,-0.000516219937708229,-0.00630650343373418,0,
00:00:01.28,0.00492469221353531,0.00890917703509331,-0.00329422019422054,0,
00:00:01.284,0.00193431356456131,-0.00130831147544086,0.00282018980942667,0,
00:00:01.288,-0.00280694430693984,0.00102434039581567,0.00282601825892925,0,
00:00:01.292,0.00834971945732832,0.00531941698864102,0.00507487170398235,0,
00:00:01.296,-0.0100741675123572,-0.00356609048321843,-0.00669962354004383,0,
00:00:01.3,-0.0239347890019417,-0.00159776420332491,-0.00462423730641603,0,
00:00:01.304,0.00549025135114789,-0.00928387884050608,0.00231409748084843,0,
00:00:01.308,0.0504985898733139,-0.0029587890021503,0.0114982845261693,0,
00:00:01.312,0.01988217048347,0.0185606982558966,-0.00835438072681427,0,
00:00:01.316,-0.0406819432973862,0.00735449464991689,-0.00888574402779341,0,
00:00:01.32,-0.0375708490610123,0.000545312941540033,-0.00657721795141697,0,
00:00:01.324,-0.0159591846168041,-0.018273938447237,0.0176755730062723,0,
00:00:01.328,0.00620902143418789,-0.00191374926362187,0.0175585709512234,0,
00:00:01.332,0.0305266976356506,-0.00609346572309732,-0.0109428269788623,0,
00:00:01.336,0.0165701620280743,-0.00256937742233276,-0.00684570893645287,0,
00:00:01.34,0.0261939037591219,0.0255507100373507,-0.0135940769687295,0,
00:00:01.344,0.0067646587267518,0.00688726361840963,-0.00120258203241974,0,
00:00:01.348,-0.0358203873038292,-0.0113255102187395,0.0124312769621611,0,
00:00:01.352,-0.0260045640170574,-0.0155537463724613,-0.000738057773560286,0,
00:00:01.356,-0.00620823772624135,-0.011052499525249,0.00342668639495969,0,
00:00:01.36,0.0104113947600126,0.0107687916606665,0.00165739795193076,0,
00:00:01.364,0.0129791731014848,0.0151303131133318,0.00109667831566185,0,
00:00:01.368,0.0039018620736897,0.00871082115918398,-0.00217933696694672,0,
00:00:01.372,0.00550617603585124,-0.00429381662979722,-0.00563840381801128,0,
00:00:01.376,0.00457375543192029,-0.00611525913700461,-0.00482018897309899,0,
00:00:01.38,-0.00980737246572971,-0.00187063054181635,0.000737248628865927,0,
00:00:01.384,-0.00396099872887135,-0.00745439482852817,0.00833897572010756,0,
00:00:01.388,-0.0100305583328009,-0.00981631595641375,0.000239942703046836,0,
00:00:01.392,-0.000769392645452172,0.00334221008233726,-0.00535241095349193,0,
00:00:01.396,0.0192418787628412,0.00688474718481302,0.0137039124965668,0,
00:00:01.4,0.000292821583570912,0.00747530860826373,0.00173042027745396,0,
00:00:01.404,0.0156979449093342,0.0169187542051077,-0.0259146243333817,0,
00:00:01.408,-0.0238033141940832,-0.0156804267317057,0.0112029071897268,0,
00:00:01.412,-0.0197778884321451,-0.00436775758862495,-0.000349943904438987,0,
00:00:01.416,0.00934447534382343,0.0052015115506947,0.00173669797368348,0,
00:00:01.42,-0.00663957092911005,-0.00202498352155089,0.00184956495650113,0,
00:00:01.424,-0.00371174211613834,-0.0130049558356404,0.00299255736172199,0,
00:00:01.428,0.0768148154020309,0.00456889951601624,-0.00417474005371332,0,
00:00:01.432,-0.0207593142986298,0.00405674707144499,-0.00869312230497599,0,
00:00:01.436,-0.0531797036528587,-0.0100140618160367,0.0106619922444224,0,
00:00:01.44,-0.0121828578412533,0.010515458881855,0.00512937689200044,0,
00:00:01.444,0.0113441059365869,0.0114193968474865,-0.00292755127884448,0,
00:00:01.448,0.0192537754774094,0.00810929480940104,0.00649777241051197,0,
00:00:01.452,0.00978897232562304,-0.0177082493901253,-0.00982532184571028,0,
00:00:01.456,0.00337380217388272,-0.0104462821036577,-0.0143019193783402,0,
00:00:01.46,-0.00377452420070767,0.00775489024817944,0.00880023650825024,0,
00:00:01.464,-0.00882160477340221,-0.00263216812163591,0.00261159613728523,0,
00:00:01.468,0.00268719275481999,0.00562037853524089,-0.00207313941791654,0,
00:00:01.472,-0.00655502546578646,0.000970376073382795,0.00801545567810535,0,
00:00:01.476,-0.00609984016045928,-0.00936872325837612,0.0107427956536412,0,
00:00:01.48,-0.00338506791740656,-0.00793073605746031,-0.0071779484860599,0,
00:00:01.484,0.000893656688276678,0.0176353063434362,-0.00511101493611932,0,
00:00:01.488,0.00830710306763649,0.0183631889522076,-0.00650526257231832,0,
00:00:01.492,0.0176764838397503,-0.00606437865644693,-0.00056398642482236,0,
00:00:01.496,0.0324323996901512,-0.0168699473142624,-0.00468251248821616,0,
00:00:01.5,-0.0137100759893656,0.00318929506465793,-0.00466672983020544,0,
00:00:01.504,-0.0501709207892418,-0.0069233663380146,0.0119348913431168,0,
00:00:01.508,-0.03578807041049,-0.0116991493850946,0.016998291015625,0,
00:00:01.512,0.0227799694985151,0.0059584379196167,0.00357552105560899,0,
00:00:01.516,0.0211556702852249,0.0258396938443184,-0.0140302749350667,0,
00:00:01.52,0.0464088320732117,0.00465260585770011,-0.0194447804242373,0,
00:00:01.524,-0.0189256947487593,-0.015251892618835,0.00525147095322609,0,
00:00:01.528,-0.0235063023865223,-0.0141502656042576,0.0164395123720169,0,
00:00:01.532,-0.00467614363878965,-0.000656818738207221,0.00855989288538694,0,
00:00:01.536,0.00449249427765608,0.00801842287182808,-0.0164534542709589,0,
00:00:01.54,0.00606629392132163,0.00026814328157343,6.67913409415632E-05,0,
00:00:01.544,0.00358847924508154,0.00581246148794889,0.00176091096363962,0,
00:00:01.548,0.00446023466065526,0.00324232084676623,-0.00636542961001396,0,
00:00:01.552,-0.00577263068407774,-0.00698560057207942,-0.00160859257448465,0,
00:00:01.556,-0.00142422900535166,0.0112168034538627,0.00979773700237274,0,
00:00:01.56,-0.00172278191894293,0.000249917939072475,0.00328941433690488,0,
00:00:01.564,-0.00600987765938044,-0.0135851046070457,-0.00965195614844561,0,
00:00:01.568,0.000887061469256878,-0.0102884909138083,0.00488212704658508,0,
00:00:01.572,0.00342240976169705,-0.00148709281347692,0.00207581697031856,0,
00:00:01.576,0.000901158025953919,0.00108904321677983,0.00180549186188728,0,
00:00:01.58,-0.00297196069732308,0.0173904858529568,-0.00333702168427408,0,
00:00:01.584,-0.0072622480802238,0.0192775782197714,-0.00710376771166921,0,
00:00:01.588,0.0178373381495476,-0.00602398347109556,0.0114161213859916,0,
00:00:01.592,0.0391662567853928,-0.00324435858055949,-0.00582024408504367,0,
00:00:01.596,-0.0243404731154442,-0.0221971049904823,-0.00277879973873496,0,
00:00:01.6,-0.0510357581079006,-0.0176839977502823,-0.00171081710141152,0,
00:00:01.604,0.00179744174238294,0.0132921254262328,0.00593514926731586,0,
00:00:01.608,0.027809239923954,0.0200233943760395,-0.00270558102056384,0,
00:00:01.612,-0.0100585836917162,0.00146927731111646,0.00123594992328435,0,
00:00:01.616,0.00480493996292353,-0.00245818961411715,-7.06853024894372E-05,0,
00:00:01.62,0.00629916694015265,-0.0104308882728219,0.00505925389006734,0,
00:00:01.624,0.00290023302659392,-0.00171995488926768,0.00766530819237232,0,
00:00:01.628,0.00149898626841605,0.00111677311360836,-0.00628922088071704,0,
00:00:01.632,0.00410069106146693,0.0100722126662731,-0.0126538937911391,0,
00:00:01.636,0.000851463177241385,0.00614811899140477,-0.00485377851873636,0,
00:00:01.64,-0.00709327915683389,-0.000705228419974446,0.00743299489840865,0,
00:00:01.644,-0.00478377379477024,-0.0174889396876097,0.0047136852517724,0,
00:00:01.648,-0.00906320102512836,-0.0102833602577448,6.13286756561138E-05,0,
00:00:01.652,0.00118972291238606,0.0160124488174915,-2.51712062890874E-05,0,
00:00:01.656,0.0142447492107749,0.00908746663480997,0.00669643981382251,0,
00:00:01.66,-0.0023074010387063,-0.00831681676208973,0.000735918467398733,0,
00:00:01.664,-0.00808011088520288,-0.00743571203202009,-0.0108537264168262,0,
00:00:01.668,-0.00131252116989344,0.0113157276064157,-0.00589056732133031,0,
00:00:01.672,-0.0122456913813949,0.000109094107756391,0.00346649088896811,0,
00:00:01.676,0.050194650888443,-0.00250693317502737,0.00728482892736793,0,
00:00:01.68,0.0278477780520916,0.0107242418453097,0.00328210485167801,0,
00:00:01.684,-0.0821772664785385,-0.0101082464680076,-0.00735761178657413,0,
00:00:01.688,-0.0105961468070745,-0.0175239685922861,0.000733482418581843,0,
00:00:01.692,0.0244321413338184,0.0101244244724512,5.6145443522837E-05,0,
00:00:01.696,-0.00878219492733479,0.00425312528386712,0.00502969045192003,0,
00:00:01.7,0.0225733388215303,0.00259402533993125,0.00136324705090374,0,
00:00:01.704,-0.00218094931915402,-0.000593552831560373,-0.00652379915118217,0,
00:00:01.708,0.0206723790615797,0.00845583528280258,0.00673593115061522,0,
00:00:01.712,-0.00539575098082423,0.00120168260764331,-0.0132221858948469,0,
00:00:01.716,-0.0288962982594967,-0.00561519851908088,0.000892762560397387,0,
00:00:01.72,0.000421349075622857,-0.0132483839988708,0.00324976514093578,0,
00:00:01.724,0.00977583508938551,0.00378864305093884,0.00831042509526014,0,
00:00:01.728,-0.00265036756172776,-0.00560295209288597,0.0030984035693109,0,
00:00:01.732,0.00145857152529061,-0.00524800177663565,-0.0106856422498822,0,
00:00:01.736,0.00508376164361835,0.0188088603317738,0.00754038617014885,0,
00:00:01.74,0.000214573577977717,0.0184014458209276,-0.000907693931367248,0,
00:00:01.744,0.00294547853991389,-0.00446846568956971,-0.00583394663408399,0,
00:00:01.748,-0.000954921764787287,-0.0214094985276461,-0.00297145638614893,0,
00:00:01.752,-0.0058067599311471,-0.00917343143373728,-0.00742387678474188,0,
00:00:01.756,-0.00785937253385782,0.0001910174760269,0.0148814870044589,0,
00:00:01.76,0.00383957684971392,0.0094266552478075,0.0114628858864307,0,
00:00:01.764,0.00546787399798632,0.00837191939353943,-0.00519388634711504,0,
00:00:01.768,0.00081961794057861,0.017750782892108,-0.0108267394825816,0,
00:00:01.772,0.00395053578540683,-0.0152994077652693,-0.00767777673900127,0,
00:00:01.776,-0.0166297573596239,-0.0172075536102057,-0.00343571160919964,0,
00:00:01.78,0.0125512145459652,-0.00258625345304608,0.0159220267087221,0,
00:00:01.784,0.0281847286969423,0.00793509371578693,0.00737557653337717,0,
00:00:01.788,-0.0432643704116344,0.00749250873923302,-0.00343940942548215,0,
00:00:01.792,0.0354642570018768,0.0113540906459093,-0.0139463935047388,0,
00:00:01.796,-0.0161673575639725,-0.0130535587668419,0.00842639431357384,0,
00:00:01.8,-0.0342846475541592,0.00075827311957255,0.00192046165466309,0,
00:00:01.804,-0.00493017211556435,-0.00387166254222393,-0.00336304306983948,0,
00:00:01.808,0.0211956296116114,-0.00858133286237717,0.00215526041574776,0,
00:00:01.812,0.0236490294337273,0.0043196976184845,-0.00145279825665057,0,
00:00:01.816,0.00798603147268295,0.00491799134761095,-0.00152657995931804,0,
00:00:01.82,-0.00373704149387777,0.00421659555286169,-0.00247364584356546,0,
00:00:01.824,-0.00665060384199023,0.00201348797418177,0.00670299585908651,0,
00:00:01.828,-0.00360576389357448,0.00586490565910935,0.000676917377859354,0,
00:00:01.832,-0.0115673393011093,-0.00357360066846013,-0.0106175672262907,0,
00:00:01.836,-0.00515879923477769,-0.010874517261982,0.00125673552975059,0,
00:00:01.84,-0.00158713548444211,-0.0009908004431054,0.0113976672291756,0,
00:00:01.844,0.0163564030081034,-9.99032927211374E-05,-0.00189491966739297,0,
00:00:01.848,0.00692914240062237,-0.000190542850759812,-0.00173435604665428,0,
00:00:01.852,-0.0019634326454252,0.004601975902915,0.00246255332604051,0,
00:00:01.856,-0.0120801022276282,0.00360256456770003,-0.00927537959069014,0,
00:00:01.86,-0.0033303233794868,0.000843469053506851,0.00441827671602368,0,
00:00:01.864,-0.00155202054884285,-0.00543309329077601,0.00545524107292295,0,
00:00:01.868,0.018670542165637,-9.09117079572752E-05,-0.00869629066437483,0,
00:00:01.872,0.00687559321522713,0.0120817273855209,-0.00865193922072649,0,
00:00:01.876,-0.0335337109863758,-0.0147348083555698,0.012359612621367,0,
00:00:01.88,0.00818737223744392,0.00010413778363727,0.00674457242712379,0,
00:00:01.884,0.0399384759366512,0.0139832962304354,-0.00626958068460226,0,
00:00:01.888,-0.0330654121935368,-0.0178810022771358,0.00215155421756208,0,
00:00:01.892,-0.0266782734543085,-0.000162198470206931,-0.00115364138036966,0,
00:00:01.896,0.0260442085564137,0.00823984574526548,-0.00381639646366239,0,
00:00:01.9,0.00700448080897331,0.0200270731002092,0.000967877509538084,0,
00:00:01.904,-0.0107001606374979,-0.0155163826420903,-0.000477513065561652,0,
00:00:01.908,0.0098299365490675,-0.00823043473064899,0.00685973232612014,0,
00:00:01.912,0.0169847048819065,-0.0131361950188875,-0.0004154690541327,0,
00:00:01.916,-0.0216687619686127,-0.00161787716206163,-0.011910499073565,0,
00:00:01.92,-0.0105219725519419,0.0247865114361048,0.000480026297736913,0,
00:00:01.924,0.0116691421717405,0.0175727177411318,0.00508525734767318,0,
00:00:01.928,-0.000818192784208804,-0.0154190277680755,0.0127226486802101,0,
00:00:01.932,-0.00363813759759068,-0.0173572972416878,0.00203279056586325,0,
00:00:01.936,0.00664631836116314,0.00125385622959584,-0.0236558578908443,0,
00:00:01.94,0.00360770802944899,0.00977946352213621,-0.00347560551017523,0,
00:00:01.944,-0.00551418773829937,-0.0083582466468215,0.019758578389883,0,
00:00:01.948,-0.00603310205042362,-0.000729279301594943,0.00318836397491395,0,
00:00:01.952,-0.00233038095757365,0.0068565234541893,-0.0107824513688684,0,
00:00:01.956,0.00777589436620474,0.0096362316980958,-0.00166253070347011,0,
00:00:01.96,0.0245288573205471,0.00141322414856404,0.00389164639636874,0,
00:00:01.964,-0.0170001797378063,-0.00939218234270811,0.00217718654312193,0,
00:00:01.968,-0.036244910210371,-0.00275017414242029,-0.0046646106056869,0,
00:00:01.972,0.0354328416287899,-0.00302865821868181,-0.00199785362929106,0,
00:00:01.976,0.0127878785133362,-0.000370451103663072,0.00568988360464573,0,
00:00:01.98,-0.0298976916819811,0.00182845222298056,-0.00105640373658389,0,
00:00:01.984,-0.0273886267095804,-0.00588303478434682,0.00508957961574197,0,
00:00:01.988,0.0250601433217525,0.00752414390444756,0.00255575077608228,0,
00:00:01.992,0.0663210898637772,0.0214998051524162,-0.0202450081706047,0,
00:00:01.996,-0.0315856337547302,-0.00787414144724607,-0.00261570303700864,0,
00:00:02,-0.032860342413187,-0.0179288126528263,0.0187280401587486,0,
00:00:02.004,1.55287434608908E-05,-0.00639128731563687,0.0103966994211078,0,
00:00:02.008,-0.00195447425357997,0.00470965867862105,-0.0105014638975263,0,
00:00:02.012,-0.00275058578699827,0.000124154175864533,-0.000752272491808981,0,
00:00:02.016,0.0126835601404309,0.00969801470637321,-0.0118190925568342,0,
00:00:02.02,0.0149851692840457,-0.00282180565409362,0.00495358277112246,0,
00:00:02.024,-0.00701433699578047,-0.00133128592278808,0.0119515638798475,0,
00:00:02.028,0.00360698043368757,0.0121177090331912,-0.00416948599740863,0,
00:00:02.032,-0.00285023613832891,-0.00112049677409232,-0.0168176274746656,0,
00:00:02.036,-0.0116401314735413,-0.00867727864533663,0.00476282695308328,0,
00:00:02.04,0.00175807520281523,0.00224902690388262,0.0109850941225886,0,
00:00:02.044,0.00572851300239563,0.00566151319071651,-0.000955817988142371,0,
00:00:02.048,-0.010615024715662,-0.0157933533191681,0.0045089004561305,0,
00:00:02.052,-0.000325169152347371,-0.0211939420551062,-0.00386915355920792,0,
00:00:02.056,0.0231352411210537,0.0188689678907394,-0.00181813852395862,0,
00:00:02.06,-0.00466232933104038,0.014764217659831,-0.00124742730986327,0,
00:00:02.064,-0.0136530427262187,-0.000330934708472341,0.0013238419778645,0,
00:00:02.068,-0.00746239582076669,0.00421471800655127,0.00409615365788341,0,
00:00:02.072,0.00939292833209038,-0.0107505647465587,-0.00723899574950337,0,
00:00:02.076,0.0229158122092485,0.0199073888361454,-0.0128693524748087,0,
00:00:02.08,-0.0242188777774572,-0.00873252283781767,0.0107596330344677,0,
00:00:02.084,0.0265325475484133,-0.0137007534503937,0.0125539638102055,0,
00:00:02.088,-0.0172014106065035,-0.021974278613925,-0.00529350200667977,0,
00:00:02.092,-0.0292660892009735,0.0185106936842203,-0.00101790169719607,0,
00:00:02.096,-0.0146968085318804,0.0106971748173237,0.00153985980432481,0,
00:00:02.1,0.0400565788149834,0.00979391671717167,-0.00906908512115479,0,
00:00:02.104,0.0199854634702206,-0.00509657710790634,0.00339680421166122,0,
00:00:02.108,-0.0155737427994609,-0.0142425829544663,0.00839395541697741,0,
00:00:02.112,-0.00844782404601574,-0.00315419258549809,-0.00466395495459437,0,
00:00:02.116,0.00305974716320634,0.00619019847363234,-0.000403670244850218,0,
00:00:02.12,0.0049336520023644,0.00594069249927998,-0.00479841697961092,0,
00:00:02.124,-0.00216426467522979,0.000175372464582324,0.000690293032675982,0,
00:00:02.128,-0.00793773494660854,-0.00947500579059124,0.0105499550700188,0,
00:00:02.132,0.00571433175355196,0.011086693033576,-0.00827157497406006,0,
00:00:02.136,-0.000927617482375354,0.0229095630347729,-0.00614131893962622,0,
00:00:02.14,-0.0058958325535059,-0.0265953559428453,0.00666687171906233,0,
00:00:02.144,0.00137518753763288,-0.0161734353750944,-0.0036516566760838,0,
00:00:02.148,-0.00233294488862157,0.00533367926254869,0.00351014803163707,0,
00:00:02.152,0.0172583404928446,0.00235700653865933,0.00956196058541536,0,
00:00:02.156,0.0041370140388608,0.00453395722433925,-0.00929538998752832,0,
00:00:02.16,-0.0107879424467683,0.00294612837024033,0.00186388054862618,0,
00:00:02.164,-0.00552774127572775,0.00712925102561712,-0.00317917787469924,0,
00:00:02.168,-0.00709578394889832,0.00618722289800644,-0.00394683191552758,0,
00:00:02.172,-0.00503661716356874,-0.00705166254192591,0.000453091546660289,0,
00:00:02.176,-0.01883465051651,-0.00819518603384495,0.00961593631654978,0,
00:00:02.18,0.0198417156934738,-0.0165032222867012,0.00581431668251753,0,
00:00:02.184,0.109690636396408,0.0185477994382381,-0.0132293598726392,0,
00:00:02.188,-0.0646428987383842,0.00478310463950038,-0.00335831008851528,0,
00:00:02.192,-0.0714936926960945,0.0115459216758609,-0.00206395843997598,0,
00:00:02.196,-0.0126761188730597,-0.00583718717098236,0.00744691118597984,0,
00:00:02.2,0.0344596914947033,-0.0236187558621168,-0.00258783949539065,0,
00:00:02.204,0.0215970911085606,-0.000164625467732549,0.00679590832442045,0,
00:00:02.208,0.00310162268579006,0.00801492668688297,0.018558157607913,0,
00:00:02.212,-0.000640463142190129,0.00108510523568839,-0.0127958748489618,0,
00:00:02.216,0.00326052703894675,0.00082117086276412,-0.0132173970341682,0,
00:00:02.22,0.00328979734331369,0.0101279895752668,-0.012715014629066,0,
00:00:02.224,-0.00432749604806304,0.00657264143228531,0.0107518434524536,0,
00:00:02.228,-0.0102122398093343,-0.00676637142896652,-0.000578534847591072,0,
00:00:02.232,0.00165101944003254,0.00053283351007849,0.0019407793879509,0,
00:00:02.236,-0.0148409912362695,-0.00962244346737862,0.00682489527389407,0,
00:00:02.24,-0.00142183562275022,-0.0102454610168934,0.00438554352149367,0,
00:00:02.244,0.0125275645405054,0.000119418291433249,0.0104627357795835,0,
00:00:02.248,-0.00223149498924613,0.0156669709831476,-0.010621827095747,0,
00:00:02.252,0.0167890768498182,0.00436503533273935,-0.00943417847156525,0,
00:00:02.256,0.0215047560632229,-0.00394086120650172,-0.0129106231033802,0,
00:00:02.26,-0.0317828953266144,-0.00802072044461966,-7.69839607528411E-05,0,
00:00:02.264,-0.00824959296733141,0.0150145404040813,0.023865258321166,0,
00:00:02.268,-0.0101707121357322,-0.0121004013344646,0.000727957580238581,0,
00:00:02.272,0.0206306520849466,0.00200085435062647,-0.00553544564172626,0,
00:00:02.276,0.00682788295671344,-0.00232656137086451,-0.00022358882415574,0,
00:00:02.28,-0.0142764616757631,-0.00536536611616611,-0.00113902450539172,0,
00:00:02.284,-0.0118831163272262,0.00890825688838959,-0.00427260203287005,0,
00:00:02.288,0.00250283814966679,0.00113625498488545,0.00220294878818095,0,
00:00:02.292,0.0149433799088001,0.00278648477979004,-0.00508628925308585,0,
00:00:02.296,0.0123550230637193,-0.00531446468085051,0.00516442349180579,0,
00:00:02.3,-0.000767219054978341,-0.00799910537898541,0.00147512904368341,0,
00:00:02.304,-0.00881258957087994,0.00166075164452195,-0.00245679682120681,0,
00:00:02.308,-0.0110150817781687,0.00115465780254453,-0.00511452462524176,0,
00:00:02.312,0.0184255819767714,0.0103536788374186,0.00282559217885137,0,
00:00:02.316,-0.00896162260323763,0.0172830000519753,0.00271234498359263,0,
00:00:02.32,-0.00370505289174616,-0.0203461274504662,0.0153555432334542,0,
00:00:02.324,-0.012580675072968,-0.00536178145557642,-0.0121725993230939,0,
00:00:02.328,-0.00139936595223844,-0.00909324828535318,-0.00372280203737319,0,
00:00:02.332,0.0476464666426182,0.00418992526829243,-0.00260974024422467,0,
00:00:02.336,-0.025423301383853,0.0175870172679424,0.000343366351444274,0,
00:00:02.34,-0.027177719399333,-0.00508580263704062,0.00419995980337262,0,
00:00:02.344,-0.0045941355638206,-0.0154999028891325,0.000191685190657154,0,
00:00:02.348,0.0207059420645237,0.00535655068233609,0.00572421727702022,0,
00:00:02.352,0.0142761645838618,0.0124668255448341,-0.00199282262474298,0,
00:00:02.356,0.00562192173674703,-0.00201401743106544,-0.00672482186928391,0,
00:00:02.36,-0.0104262819513679,-0.0104756085202098,-0.00149956368841231,0,
00:00:02.364,-0.00666161114349961,0.00583085464313626,0.0028493891004473,0,
00:00:02.368,0.00184894853737205,0.00518665183335543,-0.00470392452552915,0,
00:00:02.372,-0.00322050205431879,0.000256918254308403,-0.000640789105091244,0,
00:00:02.376,-0.00761425914242864,-0.00516048166900873,0.00355063169263303,0,
00:00:02.38,0.00926460139453411,0.00677699968218803,0.00647332426160574,0,
00:00:02.384,0.017783397808671,-0.00615640450268984,0.00683845998719335,0,
00:00:02.388,-0.00485163042321801,-0.0104821091517806,-0.0116583136841655,0,
00:00:02.392,-0.0240607187151909,-0.00207481114193797,0.00756144896149635,0,
00:00:02.396,-0.0193526018410921,0.00934635009616613,-0.00628371629863977,0,
00:00:02.4,0.0234444364905357,0.00727231195196509,-0.0098353885114193,0,
00:00:02.404,0.0447218120098114,-0.00256053009070456,0.000953834736719728,0,
00:00:02.408,-0.029970571398735,-0.0172801874577999,0.020383520051837,0,
00:00:02.412,0.0203614849597216,0.0215216521173716,-0.0083870142698288,0,
00:00:02.416,-0.0164919048547745,0.0210556667298079,-0.0256954077631235,0,
00:00:02.42,-0.0487281084060669,-0.015918830409646,0.0118484981358051,0,
00:00:02.424,0.00233282637782395,-0.0273638498038054,0.029136911034584,0,
00:00:02.428,0.0145909665152431,-0.00478896917775273,0.0126334605738521,0,
00:00:02.432,0.0332277193665504,0.0108300326392055,-0.027585981413722,0,
00:00:02.436,0.0141436504200101,0.00961429160088301,-0.0232491884380579,0,
00:00:02.44,-0.00866250786930323,0.0162097178399563,0.00715632131323218,0,
00:00:02.444,-0.00933756306767464,0.00176732637919486,0.009321678429842,0,
00:00:02.448,-0.0130876656621695,-0.0159865841269493,0.0017344142543152,0,
00:00:02.452,-0.00579657778143883,-0.0245847627520561,0.00542399287223816,0,
00:00:02.456,0.00398981617763639,0.00324223819188774,-0.000263093621470034,0,
00:00:02.46,0.00361069804057479,0.012194843031466,-2.02628143597394E-05,0,
00:00:02.464,0.0013872270938009,0.0184836108237505,-0.00176872371230274,0,
00:00:02.468,0.0063038868829608,0.00872096512466669,-0.00658159563317895,0,
00:00:02.472,0.00227874889969826,-0.0112156365066767,0.000173592212377116,0,
00:00:02.476,-0.006332668941468,-0.0158008132129908,0.00279310252517462,0,
00:00:02.48,0.00418720813468099,0.0092864315956831,0.000484860414871946,0,
00:00:02.484,-0.00371600035578012,0.0112149063497782,0.00307872402481735,0,
00:00:02.488,-0.0122756585478783,-0.0153962653130293,0.00134867068845779,0,
00:00:02.492,0.0231728479266167,-0.00755809061229229,-0.0008203832549043,0,
00:00:02.496,-0.0267927404493093,-0.00448254495859146,0.0023321988992393,0,
00:00:02.5,-0.0111913029104471,-0.00670930137857795,-0.00344081991352141,0,
00:00:02.504,0.0773068144917488,0.0155355865135789,-0.0059357238933444,0,
00:00:02.508,-0.00903487205505371,0.0333649292588234,-0.01219174079597,0,
00:00:02.512,-0.0768594741821289,-0.0126709714531898,0.0120204100385308,0,
00:00:02.516,-0.0103359073400497,-0.0224725529551506,0.00967338494956493,0,
00:00:02.52,0.0180306285619736,-0.00901403464376926,0.0117517877370119,0,
00:00:02.524,0.0406135432422161,0.014844873920083,-0.00971847120672464,0,
00:00:02.528,0.0125778876245022,0.00411004200577736,-0.0148077569901943,0,
00:00:02.532,-0.0128102358430624,-0.00433380715548992,0.00379159767180681,0,
00:00:02.536,-0.0137754827737808,0.00880971271544695,0.00513000087812543,0,
00:00:02.54,-0.000130496424390003,0.00237943441607058,0.00359741109423339,0,
00:00:02.544,0.000969992310274392,-0.00490483967587352,-0.0054659703746438,0,
00:00:02.548,-0.00478857476264238,-0.0111172674223781,-0.00600436888635159,0,
00:00:02.552,0.000495348533149809,-0.00473407562822104,-9.29372035898268E-05,0,
00:00:02.556,0.00230722338892519,0.000399958429625258,0.00819366611540318,0,
00:00:02.56,0.00201505701988935,0.00978882424533367,0.00259783887304366,0,
00:00:02.564,0.000896365148946643,0.0066956402733922,0.00132726528681815,0,
00:00:02.568,-0.00221093720756471,-0.00960461050271988,-0.0101730693131685,0,
00:00:02.572,-0.000755381071940064,0.00050988927250728,0.00258006295189261,0,
00:00:02.576,0.00296076200902462,0.00815356802195311,0.00811178237199783,0,
00:00:02.58,-0.000619239697698504,0.00529012363404036,-0.00249772006645799,0,
00:00:02.584,-0.0194761194288731,-0.00459294393658638,0.00198387843556702,0,
00:00:02.588,-0.00312571367248893,-0.00661156186833978,-0.0060865287669003,0,
00:00:02.592,0.074260912835598,-0.0144730154424906,0.00161382381338626,0,
00:00:02.596,0.0160926505923271,0.0197559166699648,-0.0188912618905306,0,
00:00:02.6,-0.0621740445494652,0.0168886091560125,-0.0176317486912012,0,
00:00:02.604,-0.0590400956571102,-0.0246999561786652,0.0484840124845505,0,
00:00:02.608,-0.0264469403773546,-0.0165938921272755,0.0192328635603189,0,
00:00:02.612,0.0473902486264706,0.00135623419191688,-0.0134658915922046,0,
00:00:02.616,0.0579566173255444,0.0159419178962708,-0.0165213458240032,0,
00:00:02.62,0.0102135417982936,0.0121231153607368,-0.00867992267012596,0,
00:00:02.624,-0.0120472460985184,-0.00335818040184677,-0.00249576102942228,0,
00:00:02.628,-0.0147603768855333,0.00384574383497238,-0.00235529150813818,0,
00:00:02.632,-0.00976270064711571,-0.00346034020185471,0.00345923309214413,0,
00:00:02.636,-0.00565937114879489,-0.00178889557719231,0.0126897934824228,0,
00:00:02.64,-0.00149876461364329,-0.00629456806927919,0.0015020736027509,0,
00:00:02.644,0.00373399560339749,-0.00866135861724615,-0.000672012276481837,0,
00:00:02.648,0.00103920220863074,0.00121043715626001,-0.00712423585355282,0,
00:00:02.652,0.00312713347375393,0.007514922413975,-0.00347236543893814,0,
00:00:02.656,-0.000692517089191824,0.00514026312157512,0.00736071681603789,0,
00:00:02.66,-0.000629300193395466,0.000851820746902376,-0.00269480748102069,0,
00:00:02.664,0.0002205843484262,0.00214974721893668,-0.00632522767409682,0,
00:00:02.668,0.000657243770547211,-0.0107392026111484,0.00860215723514557,0,
00:00:02.672,-0.00153695279732347,-0.0135131990537047,0.00751052051782608,0,
00:00:02.676,4.82319592265412E-05,0.0040477211587131,-0.00712885521352291,0,
00:00:02.68,0.0013389631640166,0.0182665474712849,-0.00218987837433815,0,
00:00:02.684,0.00344055285677314,0.0228787288069725,-0.00321835838258266,0,
00:00:02.688,-0.00555724650621414,-0.0129685662686825,-0.000822955102194101,0,
00:00:02.692,0.0103062503039837,-0.015503172762692,0.00346707366406918,0,
00:00:02.696,0.00480132037773728,-0.00690587889403105,-0.0102184042334557,0,
00:00:02.7,-0.0222512912005186,-0.00913115963339806,0.0222816672176123,0,
00:00:02.704,0.00626786611974239,0.0105774747207761,-0.00329360645264387,0,
00:00:02.708,0.00225050956942141,0.016440499573946,-0.0188724622130394,0,
00:00:02.712,-0.00214309757575393,-0.00449469871819019,0.00902107730507851,0,
00:00:02.716,-0.0131552517414093,-0.00925035960972309,0.0103626055642962,0,
00:00:02.72,-0.0054582548327744,-0.0116539420560002,-0.00349370669573545,0,
00:00:02.724,0.0629698038101196,0.026923393830657,-0.0270775016397238,0,
00:00:02.728,-0.0162756256759167,-0.0109875947237015,0.0201628562062979,0,
00:00:02.732,-0.0397621430456638,-0.00319061591289938,0.0185735411942005,0,
00:00:02.736,-0.0056350757367909,0.00516499485820532,-0.0115130599588156,0,
00:00:02.74,0.00745139550417662,0.00016239563410636,-0.0093890493735671,0,
00:00:02.744,0.0132799372076988,0.00430068466812372,0.00762239284813404,0,
00:00:02.748,0.00392658263444901,-0.011937515810132,-0.00760868797078729,0,
00:00:02.752,0.00676293345168233,-0.00386583316139877,-0.00224225409328938,0,
00:00:02.756,0.00357610615901649,0.00910811685025692,0.00209051324054599,0,
00:00:02.76,-0.0162616726011038,-0.00281167007051408,-0.000620895531028509,0,
00:00:02.764,-0.00813707802444696,0.000921906903386116,0.00450427085161209,0,
00:00:02.768,0.000659649376757443,0.00639941496774554,0.00814948603510857,0,
00:00:02.772,0.00729484762996435,-0.00651921192184091,0.00140903168357909,0,
00:00:02.776,0.00535081047564745,0.00293644680641592,-0.00851727277040482,0,
00:00:02.78,0.00326421950012445,0.00837729685008526,-0.00180383503902704,0,
00:00:02.784,-0.00792661774903536,-0.0107981059700251,-0.000433302135206759,0,
00:00:02.788,-0.0273258611559868,-0.00325522385537624,-0.00441509438678622,0,
00:00:02.792,0.00821737106889486,0.00278163212351501,0.00807060021907091,0,
00:00:02.796,0.114499151706696,0.0083686476573348,-0.0169536676257849,0,
00:00:02.8,-0.0521015897393227,-0.00363644910976291,0.0134353451430798,0,
00:00:02.804,-0.0833954215049744,-0.0161054711788893,0.0199749041348696,0,
00:00:02.808,-0.019572626799345,0.00687401182949543,-0.0147627461701632,0,
00:00:02.812,0.0057658264413476,0.00243218569085002,-0.0106932260096073,0,
00:00:02.816,0.0683477744460106,-0.00111907534301281,0.0087669538334012,0,
00:00:02.82,0.0212619863450527,0.00903052929788828,-0.0035135974176228,0,
00:00:02.824,-0.0129668591544032,0.00702659320086241,0.00344555405899882,0,
00:00:02.828,-0.0109267048537731,-0.00758650293573737,-0.00311250262893736,0,
00:00:02.832,-0.00539434561505914,0.00156515429262072,-0.00417054584249854,0,
00:00:02.836,-0.012173805385828,-0.00549763115122914,-0.00172753015067428,0,
00:00:02.84,-0.00108574016485363,-0.00024745031259954,0.00748086860403419,0,
00:00:02.844,-0.0033421996049583,-0.00683980155736208,0.0135763892903924,0,
00:00:02.848,0.00709641398862004,-0.00353207322768867,-0.0116802174597979,0,
00:00:02.852,0.00691494438797235,0.0141958054155111,-0.00963720679283142,0,
00:00:02.856,0.00484970351681113,0.0074312100186944,0.00518193701282144,0,
00:00:02.86,-0.00511223543435335,-0.0148623250424862,0.00498282536864281,0,
00:00:02.864,-0.00454902462661266,-0.00349721731618047,-0.003263920545578,0,
00:00:02.868,0.000905701133888215,0.00547267915681005,-0.000160605748533271,0,
00:00:02.872,0.00351915205828846,0.00089234858751297,0.00682307919487357,0,
00:00:02.876,-0.00149721011985093,-0.0048793419264257,-0.0117713809013367,0,
00:00:02.88,-0.00408916641026735,0.0138620249927044,-0.0156171591952443,0,
00:00:02.884,-0.000908645975869149,0.0103740300983191,0.0469445511698723,0,
00:00:02.888,-0.00011633885151241,-0.0082160672172904,-0.0118069984018803,0,
00:00:02.892,-0.00156715081539005,-0.00991731323301792,-0.0175276342779398,0,
00:00:02.896,0.00721053080633283,-0.011345325037837,-0.00858225952833891,0,
00:00:02.9,0.00523031502962112,-0.0127687817439437,0.00343388807959855,0,
00:00:02.904,0.0356624387204647,0.0191990435123444,0.00237795384600759,0,
00:00:02.908,-0.02829584851861,0.00960631016641855,0.00866991002112627,0,
00:00:02.912,-0.033317968249321,0.00903262570500374,-0.0139400511980057,0,
00:00:02.916,-0.0262825191020966,-0.00324467592872679,0.015007421374321,0,
00:00:02.92,0.00144951208494604,-0.0141427610069513,0.0192948896437883,0,
00:00:02.924,0.0767755955457687,-0.000585202360525727,-0.00639315135776997,0,
00:00:02.928,0.00556997116655111,0.00866634398698807,-0.0205242522060871,0,
00:00:02.932,-0.0340653173625469,-0.010490708053112,-0.00261559290811419,0,
00:00:02.936,-0.0160049330443144,-0.00490952143445611,-0.00208465568721294,0,
00:00:02.94,-0.00278024701401591,0.00366827263496816,-0.000139518830110319,0,
00:00:02.944,0.00677398825064301,0.00928259734064341,0.00420980295166373,0,
00:00:02.948,0.010959267616272,0.01187405269593,0.013820949010551,0,
00:00:02.952,0.0140563994646072,0.000363987986929715,-0.00211102818138897,0,
00:00:02.956,-0.0023314596619457,-0.014343835413456,-0.0223155971616507,0,
00:00:02.96,-0.0188301000744104,-0.00745337409898639,0.0161795578896999,0,
00:00:02.964,-0.0122675905004144,0.00156891229562461,0.0251038111746311,0,
00:00:02.968,0.00795273575931787,-0.000557190971449018,-0.0246203131973743,0,
00:00:02.972,0.0120035214349627,0.00655650021508336,-0.00841760262846947,0,
00:00:02.976,0.00489740585908294,0.00421089492738247,-0.00212848093360662,0,
00:00:02.98,-0.00631392979994416,-0.00616843672469258,0.00102852378040552,0,
00:00:02.984,-0.00738124037161469,-0.000657062162645161,0.0109858997166157,0,
00:00:02.988,0.00498784380033612,0.00414330512285233,-0.000705630227457732,0,
00:00:02.992,-0.00668278755620122,0.00846792757511139,-0.00398780545219779,0,
00:00:02.996,0.00331721594557166,-0.0148966275155544,0.00366716994903982,0,
00:00:03,0.0135989878326654,0.00288528413511813,0.00247885240241885,0,
00:00:03.004,0.0283154956996441,0.00621417071670294,-0.00055221380898729,0,
00:00:03.008,-0.0424492247402668,-0.00327999982982874,0.00600091088563204,0,
00:00:03.012,-0.0126566011458635,-0.00356584601104259,-0.010143406689167,0,
00:00:03.016,-0.0124858664348722,-0.00300826504826546,-0.0139065682888031,0,
00:00:03.02,-0.00184377934783697,-0.000903500127606094,0.00741858594119549,0,
00:00:03.024,0.0439671389758587,0.0117106065154076,0.00717294216156006,0,
00:00:03.028,0.0147785814478993,0.000934188661631197,0.0039388881996274,0,
00:00:03.032,-0.015215914696455,-0.00128362560644746,-0.00165835779625922,0,
00:00:03.036,-0.0258185248821974,-0.00544702634215355,0.000211292310268618,0,
00:00:03.04,0.0161999054253101,-0.00545305339619517,0.00147299596574157,0,
00:00:03.044,0.00876256451010704,0.00188643380533904,-0.0033396789804101,0,
00:00:03.048,-0.00932756811380386,-0.000564325484447181,-0.00294288760051131,0,
00:00:03.052,-0.0129427155479789,0.00842645298689604,-0.00290407543070614,0,
00:00:03.056,0.00161789509002119,0.00388791435398161,-0.00125980912707746,0,
00:00:03.06,0.00624499376863241,-0.00409413408488035,0.0112841362133622,0,
00:00:03.064,0.0050653200596571,-0.00887960474938154,0.00486790481954813,0,
00:00:03.068,0.00184404768515378,0.00581449829041958,-0.00933910440653563,0,
00:00:03.072,-0.00503016822040081,0.00379154155962169,-0.00872186105698347,0,
00:00:03.076,-0.00018024881137535,-0.00519956555217505,0.00788509380072355,0,
00:00:03.08,0.00344378384761512,-0.00776364281773567,0.00766104878857732,0,
00:00:03.084,0.00320757878944278,0.00210181507281959,-0.0168790332973003,0,
00:00:03.088,-0.0200087819248438,0.0057335733436048,0.0105276741087437,0,
00:00:03.092,0.0160223469138145,-0.00997105240821838,0.0119412383064628,0,
00:00:03.096,0.0405915454030037,0.0318798199295998,-0.027827013283968,0,
00:00:03.1,-0.0475472398102283,-0.00553368544206023,0.0061940778978169,0,
00:00:03.104,-0.013756345026195,-0.00803120248019695,0.0116987079381943,0,
00:00:03.108,0.00808859802782536,0.00131581036839634,0.00996781140565872,0,
00:00:03.112,0.00143267505336553,-0.0180258210748434,-0.00922396406531334,0,
00:00:03.116,-0.00193478085566312,-0.0179175585508347,-0.00400563841685653,0,
00:00:03.12,0.00984153244644403,0.0089634582400322,-0.00156408257316798,0,
00:00:03.124,0.00717242853716016,0.0121742580085993,0.00187124067451805,0,
00:00:03.128,0.00731814745813608,0.0154651775956154,0.00271841161884367,0,
00:00:03.132,-0.00064333708724007,0.00825028400868177,-0.00687749916687608,0,
00:00:03.136,-0.00632865307852626,-0.00323839019984007,-0.000818234402686358,0,
00:00:03.14,-0.00907293148338795,-0.0154828587546945,0.00871984101831913,0,
00:00:03.144,-0.00216861674562097,-0.00887702405452728,-0.00505252135917544,0,
00:00:03.148,0.00117379578296095,0.00878798775374889,-0.00538642471656203,0,
00:00:03.152,0.0042844214476645,-0.000170707979123108,0.00935419462621212,0,
00:00:03.156,-0.00219089514575899,-0.000684414117131382,-0.00092916248831898,0,
00:00:03.16,-0.00909903645515442,0.00280590378679335,0.000152629727381282,0,
00:00:03.164,0.0135038364678621,0.00156580668408424,-0.00240233051590621,0,
00:00:03.168,0.0193076673895121,0.00167804281227291,-0.000933474279008806,0,
00:00:03.172,-0.0440468974411488,-0.00546413054689765,0.00690579088404775,0,
00:00:03.176,0.014676439575851,-0.00304872659035027,0.00358636933378875,0,
00:00:03.18,0.0518646910786629,0.00492554251104593,-0.0120140733197331,0,
00:00:03.184,-0.0179956033825874,0.00290511827915907,-0.0153097053989768,0,
00:00:03.188,-0.0466014556586742,-0.0047868900001049,0.0196489244699478,0,
00:00:03.192,-0.0112110590562224,0.00155403302051127,-0.00369998952373862,0,
00:00:03.196,0.000439561117673293,0.00116950180381536,0.0101841241121292,0,
00:00:03.2,0.0331227518618107,0.00163274304941297,-0.00267714355140924,0,
00:00:03.204,0.0145847154781222,-0.00734209036454558,-0.000662306556478143,0,
00:00:03.208,-0.00855174381285906,-0.00280577572993934,-0.00457649677991867,0,
00:00:03.212,-0.00399012491106987,0.00682296324521303,-0.00121150410268456,0,
00:00:03.216,-0.0040548536926508,-0.00134644424542785,-0.00459729926660657,0,
00:00:03.22,0.000810160243418068,0.00420477380976081,0.00385108473710716,0,
00:00:03.224,0.0050559863448143,0.000194686450413428,0.00355581007897854,0,
00:00:03.228,-0.00208586174994707,0.00730877788737416,-0.0032467485871166,0,
00:00:03.232,-0.00411374494433403,-0.00682938238605857,0.000797854387201369,0,
00:00:03.236,-0.00281132059171796,-0.00709403352811933,0.00158611114602536,0,
00:00:03.24,-0.000479895970784128,-0.000411639746744186,0.000846667680889368,0,
00:00:03.244,0.00125074258539826,-0.000310858245939016,0.00194062036462128,0,
00:00:03.248,0.00178789161145687,0.00169737357646227,-0.0047513684257865,0,
00:00:03.252,0.00135341531131417,-0.0015658502234146,-0.000398600473999977,0,
00:00:03.256,0.000521240057423711,0.00385619886219502,-0.00103745888918638,0,
00:00:03.26,-0.00226655625738204,0.0100762266665697,-0.0012126323999837,0,
00:00:03.264,0.00352384056895971,0.00586176617071033,0.00596794951707125,0,
00:00:03.268,-0.0236659124493599,-0.0199338421225548,0.0116230864077806,0,
00:00:03.272,0.0137671427801251,-0.0131155457347631,-0.000449890416348353,0,
00:00:03.276,0.0623890645802021,0.0151834646239877,-0.0299542266875505,0,
00:00:03.28,-0.0348593182861805,0.00775214144960046,-0.000326483306707814,0,
00:00:03.284,-0.0416504964232445,0.00103533314540982,0.0152539135888219,0,
00:00:03.288,0.0030559787992388,0.00145020277705044,0.00639342842623591,0,
00:00:03.292,-0.00856567919254303,-0.00524895684793592,0.00322122662328184,0,
00:00:03.296,0.0214792303740978,-0.00740628177300096,-0.00150183623190969,0,
00:00:03.3,0.0199068430811167,-0.00658095395192504,-0.00393955502659082,0,
00:00:03.304,0.000339733436703682,0.00208977307192981,-0.00570095889270306,0,
00:00:03.308,-0.0180340874940157,0.013373383320868,0.0105849700048566,0,
00:00:03.312,-0.00613711914047599,0.0048406608402729,-0.0163697171956301,0,
00:00:03.316,0.00790925323963165,-0.0039104949682951,-0.000922731531318277,0,
00:00:03.32,0.0154249873012304,-0.00466123083606362,0.0123828453943133,0,
00:00:03.324,-0.00407989043742418,0.0017565427115187,0.00663493480533361,0,
00:00:03.328,-0.00901229213923216,-0.00396874826401472,-0.00778198800981045,0,
00:00:03.332,-0.00614615902304649,0.00626086397096515,-0.00797147396951914,0,
00:00:03.336,0.000861286942381412,0.00551625015214086,0.00571644445881248,0,
00:00:03.34,-0.00380907207727432,-0.0180987808853388,0.00489819142967463,0,
00:00:03.344,0.00359519384801388,-0.0127509273588657,0.000519842375069857,0,
00:00:03.348,0.0054842084646225,0.0107068419456482,-0.000358332268660888,0,
00:00:03.352,-0.0109362173825502,0.0180740430951118,-0.00691476883366704,0,
00:00:03.356,0.0227066744118929,0.00763371679931879,-0.00959089957177639,0,
00:00:03.36,0.01027443818748,-0.00967091508209705,0.00727120600640774,0,
00:00:03.364,-0.0279780440032482,-0.0169859956949949,0.0188923571258783,0,
00:00:03.368,0.0218529421836138,0.0239746887236834,-0.016575014218688,0,
00:00:03.372,0.0100078033283353,-0.00290600606240332,-0.00990113336592913,0,
00:00:03.376,-0.0512957125902176,-0.00607988005504012,0.0199192930012941,0,
00:00:03.38,-0.0155405700206757,-0.01931875012815,-0.00831286702305079,0,
00:00:03.384,0.0157008841633797,0.00563444290310144,0.00714542111381888,0,
00:00:03.388,0.00272411876358092,0.00538404891267419,0.0302303675562143,0,
00:00:03.392,0.0376824587583542,0.0029423008672893,-0.0330162085592747,0,
00:00:03.396,0.0263050943613052,0.0030632505659014,-0.0252882707864046,0,
00:00:03.4,-0.0196073967963457,0.00225062761455774,-0.00149152963422239,0,
00:00:03.404,-0.0179708898067474,0.000561522145289928,0.00955481454730034,0,
00:00:03.408,-0.00998811237514019,0.00524175120517612,0.015183275565505,0,
00:00:03.412,-0.00824233703315258,-0.00554565666243434,0.0115148099139333,0,
00:00:03.416,0.00456363195553422,-0.00841620471328497,-0.000856545462738723,0,
00:00:03.42,0.00662538129836321,-0.000922607083339244,-0.00403741840273142,0,
00:00:03.424,0.00210805260576308,0.000278481427812949,-0.00798547081649303,0,
00:00:03.428,0.000923276878893375,0.00886944495141506,-0.00695625273510814,0,
00:00:03.432,-0.00155988393817097,0.00143535109236836,0.00363946473225951,0,
00:00:03.436,3.28131063724868E-05,-0.00890450738370419,0.00209580711089075,0,
00:00:03.44,0.00546078523620963,0.000550040975213051,-0.000574051926378161,0,
00:00:03.444,-0.00267136236652732,0.00502735748887062,0.00495509477332234,0,
00:00:03.448,-0.0111469617113471,-0.00202285521663725,-0.00631415192037821,0,
00:00:03.452,0.0112644722685218,0.000654684379696846,0.00419990113005042,0,
00:00:03.456,-0.00279623572714627,-0.0118299061432481,0.0138061288744211,0,
00:00:03.46,0.010822556912899,0.00552960112690926,0.00249747163616121,0,
00:00:03.464,0.0189185347408056,0.0318178050220013,-0.0452554225921631,0,
00:00:03.468,-0.0263669993728399,-0.0103973699733615,0.0105102937668562,0,
00:00:03.472,-0.0135927489027381,-0.0117417490109801,0.0178333856165409,0,
00:00:03.476,-0.0157221760600805,-0.00979554932564497,0.0104945069178939,0,
00:00:03.48,0.00707193883135915,-0.0128402598202229,-0.00339277903549373,0,
00:00:03.484,0.00929438043385744,-0.00362402270548046,0.00497318711131811,0,
00:00:03.488,0.022486949339509,0.0101073095574975,-0.00883786659687757,0,
00:00:03.492,0.00541087333112955,0.0186215881258249,-0.00223863730207086,0,
00:00:03.496,-0.00738523853942752,0.0142325442284346,-0.013031093403697,0,
00:00:03.5,-0.00664697680622339,0.00324247567914426,0.000996989663690329,0,
00:00:03.504,-0.00704414071515203,-0.0167109873145819,0.0088486485183239,0,
00:00:03.508,-0.000374769908376038,-0.0128366220742464,0.000160681709530763,0,
00:00:03.512,0.00175041379407048,-0.0093839829787612,-0.00101746653672308,0,
00:00:03.516,-0.000360554549843073,-0.000778993766289204,0.0106394784525037,0,
00:00:03.52,0.000823457143269479,0.011995785869658,0.0122494380921125,0,
00:00:03.524,-0.000381786376237869,0.00167276058346033,-0.0140032367780805,0,
00:00:03.528,0.0075676110573113,0.0110199004411697,-0.0116495676338673,0,
00:00:03.532,0.00444173021242023,0.00822300463914871,-0.0106463180854917,0,
00:00:03.536,-0.00732243899255991,0.00250422861427069,0.00368467508815229,0,
00:00:03.54,-0.00890536792576313,-0.0223710238933563,0.00950587447732687,0,
00:00:03.544,-0.0043522478081286,-0.0143173467367887,0.0121166631579399,0,
00:00:03.548,0.011551296338439,0.00444852793589234,0.00536953983828425,0,
00:00:03.552,-0.00131130509544164,0.00311762467026711,-0.0105921216309071,0,
00:00:03.556,-0.0158148929476738,0.00446671806275845,-0.00882711075246334,0,
00:00:03.56,0.0252984594553709,0.0087736314162612,0.00403282232582569,0,
00:00:03.564,0.0182041637599468,0.00952291581779718,-0.0114614460617304,0,
00:00:03.568,-0.0152792148292065,0.000204611307708547,0.0175532102584839,0,
00:00:03.572,0.0172486249357462,0.00991441495716572,-0.000890161725692451,0,
00:00:03.576,-0.0501614138484001,-0.0173637997359037,-0.0104391146451235,0,
00:00:03.58,-0.0263998508453369,-0.0300126783549786,0.0121058821678162,0,
00:00:03.584,0.014377424493432,-0.0155395921319723,0.00987962633371353,0,
00:00:03.588,0.0365539081394672,0.0272360518574715,-0.0204887297004461,0,
00:00:03.592,0.0135878967121243,0.0300016701221466,-0.00572703126817942,0,
00:00:03.596,0.00637143803760409,0.0155402710661292,0.00307981367222965,0,
00:00:03.6,-0.00810034014284611,-0.0187492109835148,0.00367604033090174,0,
00:00:03.604,-0.0162819102406502,-0.0263817980885506,0.00837765727192163,0,
00:00:03.608,-0.00693357037380338,-0.00299650314263999,-0.000976276933215559,0,
00:00:03.612,0.000304954359307885,0.00497730914503336,0.00787465833127499,0,
00:00:03.616,0.00794919766485691,0.0162231661379337,-0.0133645851165056,0,
00:00:03.62,0.00206144666299224,-0.00386721338145435,-0.00223083817400038,0,
00:00:03.624,-0.00511487573385239,-0.0106785707175732,-0.000650069792754948,0,
00:00:03.628,0.00643604481592774,0.0159689076244831,0.00166209868621081,0,
00:00:03.632,-0.00173908984288573,0.00362475076690316,0.00254050502553582,0,
00:00:03.636,-0.0134623553603888,-0.00492312991991639,-0.000147934231790714,0,
00:00:03.64,0.00209395796991885,-0.00701121473684907,0.00678290100768209,0,
00:00:03.644,0.0227242317050695,-0.00871259439736605,-0.0048223496414721,0,
00:00:03.648,0.0074777421541512,-0.00303570297546685,-0.00413899309933186,0,
00:00:03.652,-0.0106699895113707,0.00706661865115166,0.00780591601505876,0,
00:00:03.656,-0.0243514776229858,0.0120967207476497,0.00234012142755091,0,
00:00:03.66,-0.0169921703636646,0.00430835084989667,-0.0142626157030463,0,
00:00:03.664,0.0214680265635252,-0.00337385502643883,-0.00819076783955097,0,
00:00:03.668,0.0430919378995895,-0.00838740542531013,0.00614231172949076,0,
00:00:03.672,-0.0194807685911655,-0.00296134082600474,0.0120481690391898,0,
00:00:03.676,-0.023431584239006,-5.26973599335179E-05,0.00883591547608376,0,
00:00:03.68,-0.0102887246757746,-0.00699950056150556,0.00179385533556342,0,
00:00:03.684,0.00531523441895843,0.00530450278893113,-0.00813275203108788,0,
00:00:03.688,0.0161445382982492,0.00749977678060532,-0.00425702473148704,0,
00:00:03.692,0.00793714635074139,0.00427455827593803,-0.00803167559206486,0,
00:00:03.696,0.002416210481897,0.00624249642714858,-0.00483222585171461,0,
00:00:03.7,-0.00811585038900375,-0.0127496775239706,0.00471015926450491,0,
00:00:03.704,-0.00245973351411521,0.00418311357498169,0.00659711472690105,0,
00:00:03.708,0.00245140353217721,0.0114629855379462,0.00626664282754064,0,
00:00:03.712,-0.00957127101719379,-0.0261582508683205,0.0112351570278406,0,
00:00:03.716,-6.72365640639327E-05,-0.00539369462057948,-0.0317291058599949,0,
00:00:03.72,0.00105045875534415,-0.00219519855454564,0.00968238618224859,0,
00:00:03.724,0.00691852206364274,0.0104458183050156,0.011509126983583,0,
00:00:03.728,-0.00108557078056037,0.0184372030198574,-0.0122600989416242,0,
00:00:03.732,-0.0162111185491085,0.00298989075236022,0.00695872586220503,0,
00:00:03.736,-0.0114019233733416,-0.000688589061610401,0.000973534071817994,0,
00:00:03.74,0.0877725407481194,-0.00632142694666982,-0.00532438280060887,0,
00:00:03.744,0.00765859242528677,-0.0034658401273191,-0.0014887162251398,0,
00:00:03.748,-0.100862517952919,-0.019222766160965,0.0128296362236142,0,
00:00:03.752,-0.0550477355718613,-0.0108628096058965,0.0101973935961723,0,
00:00:03.756,0.0529116280376911,0.0237281713634729,-0.0198111031204462,0,
00:00:03.76,0.0800239741802216,0.0291179995983839,-0.0283701252192259,0,
00:00:03.764,-0.0131398048251867,-0.000404172082198784,0.0178764965385199,0,
00:00:03.768,-0.026016179472208,-0.0178544875234365,0.0201315227895975,0,
00:00:03.772,-0.0232629086822271,-0.0244732182472944,0.00740547012537718,0,
00:00:03.776,-0.00187210040166974,-0.00479095941409469,-0.00626131752505898,0,
00:00:03.78,0.0120815299451351,0.00681334408000112,-0.0109914420172572,0,
00:00:03.784,0.0134197529405355,0.0225888472050428,-0.00576362619176507,0,
00:00:03.788,0.00476005440577865,0.00205947388894856,0.00463921437039971,0,
00:00:03.792,-0.003190464572981,-0.00858971010893583,-0.000112021036329679,0,
00:00:03.796,-0.0105446446686983,-0.00668677687644959,0.00684578623622656,0,
00:00:03.8,-0.00131143187172711,0.0111390454694629,-0.0042155203409493,0,
00:00:03.804,0.00530837196856737,0.0136101897805929,-0.00118426838889718,0,
00:00:03.808,-0.000768750323913991,-0.00504071312025189,0.00863362569361925,0,
00:00:03.812,-0.0047618392854929,-0.0237204916775227,-0.00716718658804893,0,
00:00:03.816,-0.004012081772089,-0.0135164232924581,-0.0143477944657207,0,
00:00:03.82,-0.000748551450669765,0.0081890532746911,0.00940373074263334,0,
00:00:03.824,0.0105345621705055,0.0175453349947929,0.0119582042098045,0,
00:00:03.828,0.00591498473659158,-0.00112542486749589,-0.00518282083794475,0,
00:00:03.832,-0.0114951236173511,0.00262815319001675,0.00151562911923975,0,
00:00:03.836,0.0008856839267537,0.00349988043308258,0.00416230084374547,0,
00:00:03.84,0.00546890823170543,-0.00293809734284878,-0.010274238884449,0,
00:00:03.844,-0.00227766996249557,-0.00195672502741218,-0.00816138181835413,0,
00:00:03.848,0.0186052564531565,0.00587134994566441,0.00526238651946187,0,
00:00:03.852,-0.00542614050209522,-0.00581105938181281,0.00684499135240912,0,
00:00:03.856,-0.0707176476716995,-0.0197096839547157,0.00552352564409375,0,
00:00:03.86,0.0626621767878532,0.00424206908792257,-0.0106309065595269,0,
00:00:03.864,0.0443300642073154,0.0168369207531214,0.00592587282881141,0,
00:00:03.868,-0.0522374846041203,-0.000435439345892519,0.0060779363848269,0,
00:00:03.872,-0.0348220579326153,-0.00522960303351283,-0.0033580029848963,0,
00:00:03.876,0.00979954097419977,0.00270497566089034,-0.00788468774408102,0,
00:00:03.88,0.0229675285518169,0.00223596463911235,-0.00391515577211976,0,
00:00:03.884,0.0169335324317217,-0.000284798792563379,-0.00107722321990877,0,
00:00:03.888,0.00463824486359954,-0.0018964292248711,0.00342874834313989,0,
00:00:03.892,-0.002930898219347,-0.00404256302863359,0.00698233209550381,0,
00:00:03.896,-0.00847275648266077,-0.00115366082172841,0.00143290287815034,0,
00:00:03.9,-0.0126339178532362,-0.00259129819460213,0.00120295071974397,0,
00:00:03.904,-0.000723591714631766,0.00843391381204128,0.00276099471375346,0,
00:00:03.908,0.00724016688764095,0.0133751416578889,-0.00673714745789766,0,
00:00:03.912,0.00116649828851223,-0.000390409812098369,-0.00775404972955585,0,
00:00:03.916,-0.00362057122401893,-0.0184936039149761,0.00267849303781986,0,
00:00:03.92,-0.00380452047102153,-0.0132780317217112,0.00167824630625546,0,
00:00:03.924,0.000910260423552245,0.0027201003395021,0.0016276944661513,0,
00:00:03.928,-0.00449370080605149,0.00315372319892049,0.00128423003479838,0,
00:00:03.932,0.011527931317687,0.012178236618638,0.00682050781324506,0,
00:00:03.936,0.00404247781261802,0.0147110130637884,-0.00809940230101347,0,
00:00:03.94,0.0270040780305862,-0.00679256115108728,0.000698727963026613,0,
00:00:03.944,-0.00894366949796677,-0.00490978825837374,-0.00754475547000766,0,
00:00:03.948,-0.0435773283243179,-0.00632191589102149,-0.00114339357241988,0,
00:00:03.952,-0.0355882607400417,0.0095988679677248,0.00901538971811533,0,
00:00:03.956,0.0653082206845284,-0.006929537281394,-0.00410438189283013,0,
00:00:03.96,0.00864477455615997,-0.0154156852513552,0.0103753097355366,0,
00:00:03.964,-0.0167426690459251,0.00405878387391567,-0.00549890985712409,0,
00:00:03.968,-0.00273448601365089,0.0134142087772489,0.0295775569975376,0,
00:00:03.972,-0.00981319323182106,0.00470126606523991,-0.0161130167543888,0,
00:00:03.976,-0.000242524867644534,-0.00156722578685731,-0.0329525284469128,0,
00:00:03.98,0.0114147886633873,-0.0102107916027308,-0.00565318111330271,0,
00:00:03.984,0.0102831795811653,-0.00573827465996146,0.0160030443221331,0,
00:00:03.988,0.00114286586176604,0.00105495064053684,0.00500044040381908,0,
00:00:03.992,-0.00348348938859999,0.021552911028266,0.00144243554677814,0,
00:00:03.996,-0.00684917205944657,0.0141512304544449,0.00701077608391643,0,
00:00:04,-0.01014962233603,-0.0215821582823992,0.00520631484687328,0,
00:00:04.004,-0.0048245033249259,-0.0203348975628614,-0.00385338068008423,0,
00:00:04.008,0.0122137032449245,0.000102855439763516,-0.00595925142988563,0,
00:00:04.012,0.00610682368278503,0.0106099043041468,0.000116426184831653,0,
00:00:04.016,-0.00204531266354024,0.00432339310646057,-0.00494113983586431,0,
00:00:04.02,-0.00732106482610106,0.000376158597646281,-0.00411227997392416,0,
00:00:04.024,-0.00390793057158589,0.00109582755248994,0.00362854241393507,0,
00:00:04.028,0.00722592184320092,0.00768912071362138,0.00697359023615718,0,
00:00:04.032,-0.0104449931532145,-0.00107336847577244,0.00295893056318164,0,
00:00:04.036,0.0337787717580795,-0.0114009501412511,0.00282516423612833,0,
00:00:04.04,0.0260974168777466,0.00525304256007075,-0.0154418563470244,0,
00:00:04.044,-0.0386373363435268,0.0153755992650986,-0.0167554523795843,0,
00:00:04.048,-0.0661926344037056,-0.0222471579909325,0.0229248348623514,0,
00:00:04.052,0.00966652389615774,-0.0184593312442303,0.0259249061346054,0,
00:00:04.056,0.0706815496087074,0.0186528172343969,-0.0147253889590502,0,
00:00:04.06,0.00347222900018096,0.00503179337829351,-0.00794913712888956,0,
00:00:04.064,-0.0279083643108606,0.00180284993257374,-0.00718429544940591,0,
00:00:04.068,-0.00537971640005708,-0.00100376771297306,0.00574658811092377,0,
00:00:04.072,-0.00149740255437791,0.000255844439379871,-0.00833837781101465,0,
00:00:04.076,0.00115340563934296,0.00519660767167807,-0.00110210909042507,0,
00:00:04.08,0.00873777270317078,0.000847586372401565,0.00193610473070294,0,
00:00:04.084,0.00700774183496833,-0.00335092679597437,-0.00336101953871548,0,
00:00:04.088,-0.00479039223864675,0.00183458998799324,0.0167702231556177,0,
00:00:04.092,-0.00357979256659746,0.00160542700905353,0.0131414141505957,0,
00:00:04.096,-0.00455631176009774,-0.019430123269558,0.00352580519393086,0,
00:00:04.1,-0.00118355453014374,-0.0138955740258098,-0.0324780717492104,0,
00:00:04.104,0.00587297230958939,0.0207917522639036,-0.0109773688018322,0,
00:00:04.108,-0.00548987044021487,0.0237071625888348,0.0113747864961624,0,
00:00:04.112,-0.0182367023080587,-0.0105008818209171,0.0072626918554306,0,
00:00:04.116,0.0107187740504742,-0.0117871286347508,0.010372344404459,0,
00:00:04.12,0.089915357530117,0.00685567921027541,-0.0087692067027092,0,
00:00:04.124,-0.0359259359538555,-0.00879806187003851,-0.0017449549632147,0,
00:00:04.128,-0.0831025093793869,-0.00527607696130872,0.00520556466653943,0,
00:00:04.132,-0.0205865185707808,0.0123129514977336,-0.00472923088818789,0,
00:00:04.136,0.0294220931828022,0.0126220155507326,-0.000803434755653143,0,
00:00:04.14,0.0482709445059299,-0.0018684035167098,0.000988397281616926,0,
00:00:04.144,-0.0185977853834629,-0.0167453736066818,0.00327013083733618,0,
00:00:04.148,0.0295056607574224,0.000228231394430622,-0.00343090738169849,0,
00:00:04.152,0.0351770855486393,0.00327554880641401,-0.00179267581552267,0,
00:00:04.156,-0.0592406019568443,-0.000339613761752844,0.00922697689384222,0,
00:00:04.16,-0.0485093146562576,0.00188243773300201,-0.00789801403880119,0,
00:00:04.164,0.00431997235864401,-0.0033645611256361,-0.00713810510933399,0,
00:00:04.168,0.0596630945801735,0.0034744085278362,0.00945618841797113,0,
00:00:04.172,-0.00723198475316167,0.00445247767493129,0.00644011236727238,0,
00:00:04.176,-0.0173710789531469,-0.00431069126352668,-0.00254216184839606,0,
00:00:04.18,-0.00105848768725991,-0.0117931645363569,-0.00457824813202024,0,
00:00:04.184,0.00593163259327412,0.00133905338589102,0.00532520143315196,0,
00:00:04.188,0.00976343918591738,0.0122011117637157,-0.00840622000396252,0,
00:00:04.192,0.00223069684579968,0.0138666369020939,-0.0115925706923008,0,
00:00:04.196,-0.00448072561994195,0.000230059216846712,0.0089604901149869,0,
00:00:04.2,-0.00435275724157691,-0.0115462522953749,0.00751770520582795,0,
00:00:04.204,-0.00850702077150345,-0.0148318447172642,0.00131127319764346,0,
00:00:04.208,-0.000753851374611259,0.00169296422973275,0.00360490707680583,0,
00:00:04.212,-0.00322228274308145,0.00511415582150221,-0.00693482020869851,0,
00:00:04.216,0.00738688558340073,-0.00480265682563186,0.00410069758072495,0,
00:00:04.22,0.0153690418228507,-0.00144874770194292,-0.00108910340350121,0,
00:00:04.224,-0.00530296703800559,0.00965644791722298,-0.00945695862174034,0,
00:00:04.228,-0.0101313665509224,0.0180172771215439,0.00751383975148201,0,
00:00:04.232,-0.0165397096425295,-6.17685218458064E-05,-0.00179561658296734,0,
00:00:04.236,0.0138951493427157,-0.0255641266703606,-0.00193952489644289,0,
00:00:04.24,0.0537722483277321,-0.00828909687697887,0.00230709626339376,0,
00:00:04.244,-0.0453717671334744,-0.0117563772946596,0.00797942373901606,0,
00:00:04.248,-0.00663644354790449,0.0500704124569893,-0.026549318805337,0,
00:00:04.252,-0.00187726446893066,0.011080957017839,0.00355719891376793,0,
00:00:04.256,-0.00929456949234009,-0.0278092250227928,0.0289118494838476,0,
00:00:04.26,-0.00442056311294436,-0.0200416017323732,0.00801372341811657,0,
00:00:04.264,0.00954436976462603,-0.0105911884456873,-0.0118728131055832,0,
00:00:04.268,0.00406088726595044,0.0127570014446974,-0.0065474989823997,0,
00:00:04.272,0.0175656266510487,0.0232397634536028,-0.0119151407852769,0,
00:00:04.276,0.00126379949506372,-0.0022971227299422,-0.00193504337221384,0,
00:00:04.28,-0.000857629696838558,-0.0112224780023098,0.0061186789534986,0,
00:00:04.284,-0.00748134264722466,-0.00848072953522205,0.00348514318466187,0,
00:00:04.288,-0.00676626246422529,0.0171219483017921,0.00630349246785045,0,
00:00:04.292,-0.000918409728910774,0.00900128949433565,-0.000919216079637408,0,
00:00:04.296,0.00691575091332197,-0.00372418039478362,-0.00741983763873577,0,
00:00:04.3,-0.000906022207345814,-0.00761761423200369,-0.00903258100152016,0,
00:00:04.304,-0.010269277729094,-0.016411080956459,0.0122961979359388,0,
00:00:04.308,-0.00138006184715778,-0.00915515050292015,0.0091538755223155,0,
00:00:04.312,0.00408841902390122,0.0163813102990389,0.000392286572605371,0,
00:00:04.316,0.00715224724262953,0.0095187034457922,-0.011472805403173,0,
00:00:04.32,-0.000910034228581935,-0.00114467029925436,-0.00414969865232706,0,
00:00:04.324,-0.00335322646424174,-0.00170164078008384,0.00550443958491087,0,
00:00:04.328,0.006092534866184,0.00806487817317247,0.0098896836861968,0,
00:00:04.332,-0.00583159783855081,-0.00117697124369442,-0.0165255237370729,0,
00:00:04.336,-0.00906418450176716,-0.00806648097932339,-0.00154498941265047,0,
00:00:04.34,-0.00884521938860416,-0.014048594981432,0.01352718193084,0,
00:00:04.344,0.0617113783955574,0.00485455989837646,0.0121704796329141,0,
00:00:04.348,0.0222081132233143,0.0192831065505743,-0.0239263493567705,0,
00:00:04.352,-0.0718196481466293,0.00194635544903576,-0.0128954397514462,0,
00:00:04.356,-0.0638393238186836,-0.0155012141913176,0.0150147592648864,0,
00:00:04.36,0.0273648127913475,-0.00843407772481442,0.00927388295531273,0,
00:00:04.364,0.0771493166685104,0.0102572860196233,0.00723691703751683,0,
00:00:04.368,-0.022119564935565,0.00962921045720577,-0.00541645102202892,0,
00:00:04.372,-0.0164313521236181,-0.00372524606063962,-0.00461431872099638,0,
00:00:04.376,0.00156950170639902,-0.0100020617246628,-0.00333786359988153,0,
00:00:04.38,0.0101632382720709,-0.00951925572007895,-0.00145390687976032,0,
00:00:04.384,-0.00862242747098207,-0.00110874453093857,0.0085753882303834,0,
00:00:04.388,0.00437512807548046,0.0224562734365463,-0.00874563399702311,0,
00:00:04.392,0.00767874717712402,0.0190766416490078,-0.00119412387721241,0,
00:00:04.396,0.00373778375796974,0.00433016894385219,-0.00642241491004825,0,
00:00:04.4,-0.0102305868640542,-0.0230789612978697,0.00598088977858424,0,
00:00:04.404,-0.0141053218394518,-0.018371444195509,0.00976677890866995,0,
00:00:04.408,-0.00190993270371109,-0.0150072025135159,0.00412279274314642,0,
00:00:04.412,0.00319076864980161,-0.00100205757189542,0.000133749301312491,0,
00:00:04.416,0.00244002393446863,0.0101003814488649,-0.00254075787961483,0,
00:00:04.42,0.00571175152435899,0.0298183169215918,-0.0118141919374466,0,
00:00:04.424,0.0161813497543335,0.0166839230805635,-0.00750416284427047,0,
00:00:04.428,-0.0111732762306929,-0.00648145051673055,0.0106094582006335,0,
00:00:04.432,-0.017405366525054,-0.0282311048358679,0.016265194863081,0,
00:00:04.436,0.0300470069050789,-0.0139297591522336,-0.00714490236714482,0,
00:00:04.44,0.0661256685853004,0.0411030612885952,-0.0415305085480213,0,
00:00:04.444,-0.11470465362072,-0.0151737267151475,0.0203733891248703,0,
00:00:04.448,-0.0444901920855045,-0.0205564312636852,0.0274595823138952,0,
00:00:04.452,0.053742777556181,-0.00299955438822508,0.0120797250419855,0,
00:00:04.456,-0.00191503204405308,0.0144312577322125,-0.00857245549559593,0,
00:00:04.46,0.0476020164787769,0.000241565372562036,-0.0210053473711014,0,
00:00:04.464,0.0949735417962074,0.00541215017437935,-0.00272083887830377,0,
00:00:04.468,-0.105131112039089,0.00364586827345192,0.00405809702351689,0,
00:00:04.472,-0.0642396509647369,-5.9590776800178E-05,-0.00821015052497387,0,
00:00:04.476,0.00553683657199144,0.00566902011632919,-0.000821091060061008,0,
00:00:04.48,0.00583140878006816,-0.00481987604871392,0.0107455793768167,0,
00:00:04.484,0.0504344068467617,-0.0125377280637622,0.00826202146708965,0,
00:00:04.488,0.026481106877327,-0.0082099661231041,0.00587461376562715,0,
00:00:04.492,-0.0182057283818722,0.00383257050998509,-0.00919791124761105,0,
00:00:04.496,-0.0120827741920948,0.00964472163468599,-0.00800494477152824,0,
00:00:04.5,-0.0103530837222934,0.00377303687855601,0.00197609746828675,0,
00:00:04.504,-0.00215480616316199,-0.00180343026295304,0.000441933458205312,0,
00:00:04.508,-0.00070555554702878,0.00262581813149154,-0.00155915576033294,0,
00:00:04.512,0.00431695580482483,0.00207927636802197,0.00481990119442344,0,
00:00:04.516,-0.00471085263416171,-0.00871226750314236,0.000375585077563301,0,
00:00:04.52,0.0028888969682157,-0.0110806049779058,0.000992881250567734,0,
00:00:04.524,0.0222162120044231,0.00500871241092682,0.00116710038855672,0,
00:00:04.528,-0.0159620717167854,0.00904683582484722,-0.00185458711348474,0,
00:00:04.532,-0.03959671407938,0.00593540677800775,-0.00106950325425714,0,
00:00:04.536,0.0794593468308449,0.0195558648556471,-0.0208261515945196,0,
00:00:04.54,0.0189273282885551,-0.0101217161864042,0.00129620311781764,0,
00:00:04.544,-0.0783347710967064,-0.0263130404055119,0.023813595995307,0,
00:00:04.548,-0.0386757999658585,-0.0124346371740103,0.00948014389723539,0,
00:00:04.552,0.0258074030280113,0.00419404869899154,0.00214971951209009,0,
00:00:04.556,0.0333265289664268,0.0163890235126019,-0.00497379153966904,0,
00:00:04.56,0.00493943551555276,0.00920331850647926,-0.0223204419016838,0,
00:00:04.564,0.0030841080006212,0.00396485486999154,-0.000838487700093538,0,
00:00:04.568,0.00329152611084282,-0.00901247840374708,0.0103077860549092,0,
00:00:04.572,-0.016067810356617,-0.00203858315944672,0.00377349858172238,0,
00:00:04.576,-0.0123034482821822,-0.00229264702647924,-0.000668893335387111,0,
00:00:04.58,0.0356213673949242,-0.00851543340831995,-0.0209022965282202,0,
00:00:04.584,-0.00248556002043188,0.0154322143644094,0.022284397855401,0,
00:00:04.588,-0.0221631675958633,0.0125569794327021,0.0291542578488588,0,
00:00:04.592,-0.00925356242805719,-0.00491053750738502,-0.0370301827788353,0,
00:00:04.596,-0.00345261371694505,-0.0179141070693731,-0.0138738295063376,0,
00:00:04.6,0.00541139300912619,-0.00947915017604828,0.00984089728444815,0,
00:00:04.604,0.0131217492744327,-0.000221931302803569,0.00251881428994238,0,
00:00:04.608,-0.00325306761078537,0.00778542924672365,0.00804056320339441,0,
00:00:04.612,-0.0157633870840073,0.00714690051972866,0.0172064024955034,0,
00:00:04.616,0.0102413576096296,0.00345093640498817,-0.0100252218544483,0,
00:00:04.62,0.0872535184025764,0.0207844786345959,-0.0317360833287239,0,
00:00:04.624,-0.0326311103999615,-0.00695717334747314,0.005300288554281,0,
00:00:04.628,-0.0783774554729462,-0.0175600741058588,0.0197584424167871,0,
00:00:04.632,-0.0646631196141243,-0.0218786206096411,0.0196543280035257,0,
00:00:04.636,0.0475296750664711,0.00217893137596548,-0.00856260303407907,0,
00:00:04.64,0.0867740958929062,0.0215565636754036,-0.0244463440030813,0,
00:00:04.644,0.00219099107198417,0.00873060896992683,0.00753215700387955,0,
00:00:04.648,-0.0265960711985826,-0.00270250183530152,0.00342300371266901,0,
00:00:04.652,-0.0238629505038261,-0.00711168628185987,4.8134086682694E-05,0,
00:00:04.656,-0.00338129932060838,-0.00144595908932388,-0.00332060852088034,0,
00:00:04.66,0.0076227430254221,0.0068721086718142,-0.00312833534553647,0,
00:00:04.664,0.00874865893274546,-0.00715068075805902,0.00137048133183271,0,
00:00:04.668,0.000226316682528704,-0.000514135521370918,0.00804027542471886,0,
00:00:04.672,-0.00301263853907585,0.0052296076901257,0.00155615294352174,0,
00:00:04.676,-0.011125267483294,0.00100776669569314,-0.00598502857610583,0,
00:00:04.68,-0.0140637001022696,-0.00702818622812629,0.0055152247659862,0,
00:00:04.684,0.0557202994823456,-0.0100172571837902,0.00172154721803963,0,
00:00:04.688,0.000957216776441783,0.00913123320788145,-0.0135950762778521,0,
00:00:04.692,-0.0583086162805557,0.00661281635984778,0.00522133801132441,0,
00:00:04.696,-0.0155547363683581,0.000194358406588435,0.00314286001957953,0,
00:00:04.7,0.0813960954546928,-0.00331754633225501,-0.00366389448754489,0,
00:00:04.704,-0.0247347205877304,0.00719701359048486,-0.00119064492173493,0,
00:00:04.708,-0.0431623347103596,-0.000623969885054976,0.00608074804767966,0,
00:00:04.712,-0.0186372324824333,-0.00885174889117479,0.00514071527868509,0,
00:00:04.716,0.0652179047465324,-0.00261145108379424,-0.0135730439797044,0,
00:00:04.72,0.0273866355419159,0.00121469458099455,0.00500759389251471,0,
00:00:04.724,-0.0230989158153534,0.00252988981083035,0.00111371371895075,0,
00:00:04.728,-0.042196974158287,0.00206730724312365,0.00251918449066579,0,
00:00:04.732,-0.0206734593957663,-0.00328210974112153,0.00466295331716537,0,
00:00:04.736,0.0136905666440725,0.00997096113860607,-0.00525511708110571,0,
00:00:04.74,0.0257659517228603,-0.00753444340080023,-0.00714936107397079,0,
00:00:04.744,0.0252476613968611,-0.00342568964697421,-0.00164916249923408,0,
00:00:04.748,0.00939304754137993,0.00471463520079851,0.011290960945189,0,
00:00:04.752,-0.0296603832393885,0.00253124814480543,-0.00779711781069636,0,
00:00:04.756,-0.0160271022468805,-0.00726238824427128,-0.0018277857452631,0,
00:00:04.76,-0.00116203736979514,0.00535956025123596,0.0113651361316442,0,
00:00:04.764,-0.00145773869007826,0.00288040353916585,0.00245286035351455,0,
00:00:04.768,0.00712589267641306,-0.00998665764927864,-0.00593222305178642,0,
00:00:04.772,0.00602804170921445,-0.00400561606511474,-0.00130861694924533,0,
00:00:04.776,0.00653898762539029,0.00966041348874569,-0.00586249399930239,0,
00:00:04.78,0.0122111700475216,0.00651789456605911,-0.0104115549474955,0,
00:00:04.784,-0.0123127968981862,-0.00418451288715005,0.0120613044127822,0,
00:00:04.788,-0.0143283223733306,-0.0062626046128571,0.0104065211489797,0,
00:00:04.792,-0.00628220057114959,0.00908535998314619,3.10070063278545E-05,0,
00:00:04.796,0.0168097317218781,-0.00720010884106159,-0.00414325995370746,0,
00:00:04.8,0.0135801620781422,-0.00261856778524816,-0.0102930227294564,0,
00:00:04.804,-0.0165499690920115,0.00130015087779611,0.00388276227749884,0,
00:00:04.808,-0.00756873190402985,0.00895916391164064,0.0112103596329689,0,
00:00:04.812,-0.00359525065869093,-0.00382547033950686,8.22389836230286E-07,0,
00:00:04.816,-0.0143894553184509,-0.00844436977058649,-0.0100246351212263,0,
00:00:04.82,0.0564348250627518,0.0131933363154531,-0.0122757786884904,0,
00:00:04.824,-0.0112452385947108,-0.00311066606082022,0.0105240624397993,0,
00:00:04.828,-0.0298204533755779,-0.0180926248431206,0.0134894270449877,0,
00:00:04.832,0.026436734944582,0.0153915528208017,-0.0104153025895357,0,
00:00:04.836,0.00358712044544518,0.00255766254849732,-0.0093432180583477,0,
00:00:04.84,-0.0403613187372684,-0.00156735978089273,0.00506144622340798,0,
00:00:04.844,-0.0107004176825285,0.00235261884517968,0.00934728141874075,0,
00:00:04.848,0.00815234240144491,-0.00269861915148795,0.0121889309957623,0,
00:00:04.852,0.0251122266054153,0.00518222199752927,-0.0119667034596205,0,
00:00:04.856,0.02713992446661,-0.0114282295107841,-0.0112538244575262,0,
00:00:04.86,-0.00155231507960707,-0.00839023478329182,-0.00100904214195907,0,
00:00:04.864,-0.0221356973052025,0.0103477500379086,-0.000611179159022868,0,
00:00:04.868,-0.014176151715219,0.00211563194170594,0.0141346445307136,0,
00:00:04.872,-0.0075880060903728,0.00304891238920391,0.00171047390904278,0,
00:00:04.876,0.0059054340235889,-0.00713185733184218,-0.0124957012012601,0,
00:00:04.88,0.0199707802385092,0.0112051516771317,-0.00100022624246776,0,
00:00:04.884,-0.00517563242465258,0.00290667405351996,0.0100637301802635,0,
00:00:04.888,-0.00647553615272045,-0.00821052584797144,-3.56872789097906E-07,0,
00:00:04.892,-0.00341420318000019,-0.0103896046057343,-0.0010668997419998,0,
00:00:04.896,0.016935545951128,0.00086615071631968,-0.00248191901482642,0,
00:00:04.9,-0.00699765048921108,0.0203299894928932,-0.00859598815441132,0,
00:00:04.904,-0.00375292496755719,-0.00228775106370449,0.00273468485102057,0,
00:00:04.908,0.00644665444269776,-0.0130987409502268,0.00510176131501794,0,
00:00:04.912,-0.0145730888471007,-0.000597566249780357,0.00109047442674637,0,
00:00:04.916,-0.00222418271005154,-0.000248092605033889,0.000260583736235276,0,
00:00:04.92,-0.00954122934490442,-0.00935532990843058,0.00630863569676876,0,
00:00:04.924,0.0179679542779922,0.00953595340251923,-0.00605795439332724,0,
00:00:04.928,0.0441781729459763,0.0117391245439649,0.000941417936701328,0,
00:00:04.932,-0.0224236268550158,0.00127164553850889,-0.0048459148965776,0,
00:00:04.936,-0.0248011760413647,-0.0123986722901464,-0.000624710286501795,0,
00:00:04.94,-0.00221171067096293,0.00925090350210667,-0.00950221810489893,0,
00:00:04.944,-0.027881721034646,0.00179455266334116,0.0130589427426457,0,
00:00:04.948,0.0301454830914736,-0.00870043877512217,0.000808857963420451,0,
00:00:04.952,0.0108483219519258,-0.00810461398214102,0.0138438129797578,0,
00:00:04.956,-0.0133088100701571,0.00168463739100844,-0.0135575467720628,0,
00:00:04.96,0.00492589408531785,0.00510654598474503,-0.0107638975605369,0,
00:00:04.964,0.0183629374951124,0.00216178735718131,0.00326792453415692,0,
00:00:04.968,-0.00405755266547203,0.00363572058267891,0.00370896374806762,0,
00:00:04.972,-0.0136917568743229,0.00101223448291421,0.00324488850310445,0,
00:00:04.976,-0.00270217261277139,-0.00360372685827315,0.0162447299808264,0,
00:00:04.98,0.00163465016521513,0.00161701254546642,-0.013820425607264,0,
00:00:04.984,0.00644967472180724,-0.00426762830466032,-0.0146628729999065,0,
00:00:04.988,0.00988945923745632,-0.00221829162910581,0.00147480505984277,0,
00:00:04.992,-0.0148959215730429,0.0050558764487505,0.00461940234526992,0,
00:00:04.996,-0.00860750395804644,0.0129657378420234,0.00954782962799072,0,
00:00:05,-0.00198988243937492,-0.0129875242710114,-0.000395917420974001,0,
00:00:05.004,0.00297125708311796,-0.0171747468411922,-0.000445390614913777,0,
00:00:05.008,0.0112052354961634,-0.00385705637745559,0.00460339803248644,0,
00:00:05.012,0.00252634775824845,0.00978635065257549,-0.00999917555600405,0,
00:00:05.016,-0.000421144504798576,0.0195737425237894,-0.000196171124116518,0,
00:00:05.02,-0.00129105406813323,0.0192382838577032,-0.0073858848772943,0,
00:00:05.024,-0.00551928859204054,-0.0113114835694432,0.00586308119818568,0,
00:00:05.028,0.021546671167016,-0.011364096775651,0.00601853057742119,0,
00:00:05.032,-0.00892667472362518,-0.0211062114685774,0.00200394866988063,0,
00:00:05.036,-0.0102237146347761,-0.00670235697180033,-0.00764721725136042,0,
00:00:05.04,-0.00352166127413511,0.021893385797739,-0.0112667223438621,0,
00:00:05.044,-0.0168877504765987,0.000657095341011882,0.0187664236873388,0,
00:00:05.048,0.000357646524207667,-0.0020020273514092,0.0114289689809084,0,
00:00:05.052,0.00759341847151518,0.00232276204042137,-0.00443077366799116,0,
00:00:05.056,0.0229034945368767,-0.000150899388245307,-0.0118826953694224,0,
00:00:05.06,0.00637266458943486,0.00413877563551068,-0.00763283157721162,0,
00:00:05.064,-0.0066290576942265,-0.00784519780427217,-0.000797245069406927,0,
00:00:05.068,-0.0104710860177875,0.00494418432936072,0.00371091836132109,0,
00:00:05.072,0.00103378226049244,0.0029256718698889,0.00673805037513375,0,
00:00:05.076,-0.00538070546463132,-0.00149347120895982,0.00112143228761852,0,
00:00:05.08,0.000511905644088984,-0.0118492105975747,0.00119876454118639,0,
00:00:05.084,0.00691906455904245,0.00295047811232507,-0.00312955072149634,0,
00:00:05.088,-0.00149495131336153,-0.000671493355184793,-0.000325121422065422,0,
00:00:05.092,-0.00224193534813821,0.0027977516874671,-0.00449062464758754,0,
00:00:05.096,0.00350735639221966,0.0129123125225306,0.0033241503406316,0,
00:00:05.1,0.00300545897334814,0.0183069556951523,-0.00136858457699418,0,
00:00:05.104,-0.00808809604495764,-0.0234441626816988,5.80727319174912E-05,0,
00:00:05.108,-0.010760392062366,-0.020111195743084,0.0037560926284641,0,
00:00:05.112,-0.00317947310395539,-0.00199899729341269,0.00815422274172306,0,
00:00:05.116,0.0231875497847795,0.0121914548799396,-0.0128227742388844,0,
00:00:05.12,0.00863481406122446,-0.00267604226246476,-0.00306490901857615,0,
00:00:05.124,0.0237289220094681,0.0084367822855711,0.0045422250404954,0,
00:00:05.128,-0.0110091278329492,0.0133308516815305,0.0100697111338377,0,
00:00:05.132,-0.05424864590168,0.0101446639746428,-0.00713067501783371,0,
00:00:05.136,-0.0360527411103249,-0.0258795544505119,-0.00220994162373245,0,
00:00:05.14,0.0288559608161449,-0.0125574991106987,-0.00487063592299819,0,
00:00:05.144,0.0554522946476936,0.00113891158252954,-0.00243316031992435,0,
00:00:05.148,-0.00421528425067663,0.00802766811102629,0.0094237606972456,0,
00:00:05.152,-0.000409102445701137,0.0100043313577771,0.00158295012079179,0,
00:00:05.156,-0.00330474926158786,0.00410072971135378,0.0053813261911273,0,
00:00:05.16,-0.0124645987525582,-0.00597050506621599,-0.00288046477362514,0,
00:00:05.164,-0.010907688178122,0.00567010277882218,-0.00751082412898541,0,
00:00:05.168,0.00638508750125766,-0.000407160958275199,-0.00400203512981534,0,
00:00:05.172,-0.00105818221345544,-0.0164886899292469,-0.00147838750854135,0,
00:00:05.176,-0.0021387841552496,-0.00704493373632431,0.00507244141772389,0,
00:00:05.18,0.00607593078166246,0.00864526629447937,-0.00148376496508718,0,
00:00:05.184,0.00433743186295033,0.00953326281160116,0.00982213485985994,0,
00:00:05.188,0.00238742330111563,0.00649150460958481,0.00625814544036984,0,
00:00:05.192,-0.00428988644853234,-0.00694787781685591,-0.00710001308470964,0,
00:00:05.196,-0.00643924670293927,0.000890632858499885,-0.00365872052498162,0,
00:00:05.2,-0.0019164300756529,-0.00438884319737554,-0.00742080388590693,0,
00:00:05.204,0.000111590488813818,-0.000315303768729791,-0.0023868908174336,0,
00:00:05.208,0.00551214581355453,0.0111249908804893,-0.00145267881453037,0,
00:00:05.212,-0.00409650057554245,-0.0154704479500651,0.0168537311255932,0,
00:00:05.216,-0.0099006537348032,-0.00618105940520763,-0.00105584098491818,0,
00:00:05.22,0.070442296564579,0.0121234776452184,-0.00911670736968517,0,
00:00:05.224,-0.0199196524918079,0.00604197382926941,-0.00542744155973196,0,
00:00:05.228,-0.0532033778727055,-0.00444852793589234,0.0109311537817121,0,
00:00:05.232,-0.0241763256490231,0.000438356684753671,0.00255968351848423,0,
00:00:05.236,0.00907427445054054,-0.00230824272148311,-0.0013295141980052,0,
00:00:05.24,0.0137309907004237,-0.00358452997170389,0.00182990333996713,0,
00:00:05.244,0.0202607568353415,0.00198908825404942,-0.00361847784370184,0,
00:00:05.248,0.0181930046528578,0.00258525018580258,0.000294991506962106,0,
00:00:05.252,0.0011961356503889,0.00328297051601112,-0.00980643928050995,0,
00:00:05.256,-0.00870961602777243,-0.0043114204891026,0.00120638275984675,0,
00:00:05.26,-0.00847677607089281,0.00348909758031368,0.0087851257994771,0,
00:00:05.264,-0.00900964252650738,-0.0075932964682579,-0.00439296662807465,0,
00:00:05.268,-0.00358782289549708,-0.00295239384286106,0.00404153065755963,0,
00:00:05.272,0.00583465257659554,0.0112352976575494,0.00232673226855695,0,
00:00:05.276,0.00224749674089253,0.00129345909226686,-0.00312007172033191,0,
00:00:05.28,-0.00153593881987035,-0.0027474369853735,-0.000708417559508234,0,
00:00:05.284,-0.000172124069649726,-0.00920929107815027,-0.00687095848843455,0,
00:00:05.288,0.00554229272529483,0.00648630689829588,0.00108890107367188,0,
00:00:05.292,-0.00228259153664112,0.00924601219594479,0.0126661127433181,0,
00:00:05.296,-0.00236110831610858,-0.00192661641631275,-0.00210094847716391,0,
00:00:05.3,-0.00250060088001192,-0.0126120327040553,-0.00304148602299392,0,
00:00:05.304,-0.00536514678969979,-0.00552678247913718,-0.00712404120713472,0,
00:00:05.308,0.0190539192408323,0.00295530539005995,0.00015184553922154,0,
00:00:05.312,-0.00878031365573406,0.000390980712836608,0.0051015317440033,0,
00:00:05.316,0.0323111265897751,0.0300582703202963,-0.00745802512392402,0,
00:00:05.32,-0.00789233203977346,-0.0129126310348511,0.0137480385601521,0,
00:00:05.324,-0.0393887348473072,-0.0154693424701691,-0.00602535298094153,0,
00:00:05.328,-0.0438615456223488,-0.00311973411589861,0.00357246329076588,0,
00:00:05.332,0.0117096267640591,0.00388775276951492,0.0073207407258451,0,
00:00:05.336,0.0313980802893639,0.00538182677701116,-0.0105634527280927,0,
00:00:05.34,0.0655112564563751,0.00761126866564155,-0.0128506794571877,0,
00:00:05.344,-3.21274092129897E-05,0.00497989589348435,-0.00368581572547555,0,
00:00:05.348,-0.0458038225769997,-0.0125731974840164,0.0193436034023762,0,
00:00:05.352,-0.011352782137692,-0.0109980795532465,0.00868702214211226,0,
00:00:05.356,-0.00981926266103983,0.00559871876612306,-0.00864516478031874,0,
00:00:05.36,0.00232518883422017,0.0087762838229537,-0.00770888524129987,0,
00:00:05.364,0.0075418115593493,-0.00135981431230903,-0.00184574630111456,0,
00:00:05.368,0.00497806817293167,-0.00481745507568121,0.00873640086501837,0,
00:00:05.372,0.00772209744900465,0.00706922868266702,-0.00228028884157538,0,
00:00:05.376,-0.0022862555924803,0.00452741282060742,-0.0045843468979001,0,
00:00:05.38,-0.0014732152922079,-0.0156395044177771,0.00603957055136561,0,
00:00:05.384,-0.00379927083849907,-0.0092994337901473,0.00542552629485726,0,
00:00:05.388,-0.00372321042232215,0.00406413013115525,-0.00329668074846268,0,
00:00:05.392,-0.00355658959597349,0.00846780184656382,-0.0114162899553776,0,
00:00:05.396,0.00924802757799625,0.0170979984104633,0.00274280225858092,0,
00:00:05.4,0.00855073239654303,0.00930161215364933,0.00466879084706306,0,
00:00:05.404,0.0168718695640564,-0.0042713126167655,-0.00606236001476645,0,
00:00:05.408,-0.0212269425392151,-0.0156935807317495,0.00754172308370471,0,
00:00:05.412,-0.0317188464105129,-0.0234048943966627,0.0112238526344299,0,
00:00:05.416,0.0152589352801442,0.00337999570183456,-0.0107880383729935,0,
00:00:05.42,0.00442017568275332,0.0134041709825397,-0.0194646138697863,0,
00:00:05.424,0.0191252790391445,0.00498542422428727,0.0106205083429813,0,
00:00:05.428,-0.00266764522530138,0.00163002463523299,0.0186247695237398,0,
00:00:05.432,-0.0143304849043489,-0.00410338910296559,0.000629305955953896,0,
00:00:05.436,-0.00383159052580595,-0.000968673208262771,-0.00761028192937374,0,
00:00:05.44,0.00978781003504992,0.00619225110858679,-0.0201799012720585,0,
00:00:05.444,-0.00243721809238195,0.00896718632429838,0.00600822875276208,0,
00:00:05.448,0.00077898392919451,-0.00986029207706451,0.0185274668037891,0,
00:00:05.452,0.00386852188967168,-0.00890720821917057,-0.0045079761184752,0,
00:00:05.456,0.00329369679093361,-0.000111390530946665,-0.00693843793123961,0,
00:00:05.46,-0.00567509373649955,0.00312954490073025,0.00571974879130721,0,
00:00:05.464,-0.00646368833258748,0.000944755331147462,-0.0084566492587328,0,
00:00:05.468,-0.00279595027677715,-0.000667188025545329,0.000520070141647011,0,
00:00:05.472,0.0158338416367769,0.00973554793745279,0.00957498513162136,0,
00:00:05.476,0.00421243719756603,0.00489193992689252,-0.00324496696703136,0,
00:00:05.48,-0.00941565074026585,-0.00648082932457328,-0.0103068649768829,0,
00:00:05.484,-0.0122123938053846,-0.0145798660814762,0.00266627105884254,0,
00:00:05.488,-0.0209936890751123,-0.00708024017512798,0.0144174415618181,0,
00:00:05.492,-0.00767483469098806,0.000407485465984792,0.00868159253150225,0,
00:00:05.496,0.120493963360786,0.0199267473071814,-0.0260848980396986,0,
00:00:05.5,-0.00918446946889162,0.021916912868619,-0.00659761996939778,0,
00:00:05.504,-0.104900866746902,-0.0175402797758579,0.0103616677224636,0,
00:00:05.508,-0.0113383363932371,-0.0130149126052856,0.00974734406918287,0,
00:00:05.512,0.00577346049249172,-0.00473890407010913,0.00330663588829339,0,
00:00:05.516,0.0120375128462911,0.00388062209822237,-0.00427884049713612,0,
00:00:05.52,0.0376479774713516,-0.00157548021525145,0.00386209064163268,0,
00:00:05.524,0.0194422379136086,0.00631344458088279,-0.0140411984175444,0,
00:00:05.528,-0.0125526254996657,0.00703982263803482,-0.00229438161477447,0,
00:00:05.532,-0.0211943164467812,-0.00102717685513198,0.0122916949912906,0,
00:00:05.536,-0.0058886525221169,-0.00577099667862058,0.00545436842367053,0,
00:00:05.54,0.00421235896646976,-0.00525256106629968,-0.00726066995412111,0,
00:00:05.544,0.00454386789351702,0.00229046610184014,-0.0129230776801705,0,
00:00:05.548,-0.00441882153972983,0.0099856723099947,0.00200484693050385,0,
00:00:05.552,0.0094845974817872,0.00458304909989238,0.00905430503189564,0,
00:00:05.556,-0.00264513702131808,-0.0210502222180367,0.00154729245696217,0,
00:00:05.56,-0.00203332514502108,0.00369435548782349,-0.00400889245793223,0,
00:00:05.564,-0.00166917487513274,0.00294137932360172,0.00821355544030666,0,
00:00:05.568,-0.00506856013089418,0.00498043932020664,0.00139293388929218,0,
00:00:05.572,0.00805544760078192,0.0145985977724195,-0.00108433759305626,0,
00:00:05.576,-0.0104905990883708,-0.0189698301255703,-0.00198368867859244,0,
00:00:05.58,0.0014442540705204,-0.00411378405988216,-0.00620950059965253,0,
00:00:05.584,0.0437806360423565,-0.00423719128593802,-0.0100978324189782,0,
00:00:05.588,-0.0301895402371883,0.0070415185764432,0.00179756816942245,0,
00:00:05.592,-0.0320226475596428,0.0132038621231914,0.00937970634549856,0,
00:00:05.596,0.00954271666705608,-0.00737790577113628,0.00674355076625943,0,
00:00:05.6,0.0159270595759153,-0.00430310796946287,-0.00487733399495482,0,
00:00:05.604,-0.00187959219329059,-0.00242818496190012,0.00337349018082023,0,
00:00:05.608,0.0075599099509418,0.0161978583782911,0.00955564342439175,0,
00:00:05.612,0.00316772656515241,-0.00418340647593141,-0.0141773112118244,0,
00:00:05.616,-0.00892715435475111,-0.0210535079240799,-0.0059943376109004,0,
00:00:05.62,-0.00342747010290623,0.00870933569967747,-0.00196828716434538,0,
00:00:05.624,0.000525254872627556,0.00761862145736814,0.00918772630393505,0,
00:00:05.628,0.00621384382247925,-0.00805389881134033,0.00301568489521742,0,
00:00:05.632,0.00195162382442504,0.0060425796546042,-0.00111633760388941,0,
00:00:05.636,-0.00450878031551838,0.0133433900773525,-0.00662025576457381,0,
00:00:05.64,-0.00596166215837002,-0.00563198188319802,-0.00205197790637612,0,
00:00:05.644,-0.00319884647615254,-0.0178690105676651,0.00256769661791623,0,
00:00:05.648,0.00271854130551219,-0.00205471762456,0.0123091284185648,0,
00:00:05.652,0.0136166531592607,0.0100835813209414,-0.0051583400927484,0,
00:00:05.656,-0.00581769505515695,0.00912392139434814,-0.00397268077358603,0,
00:00:05.66,-0.00123509473633021,-0.00328865018673241,-0.00179870321881026,0,
00:00:05.664,0.0226327832788229,-0.00707727950066328,-0.00410037487745285,0,
00:00:05.668,-0.0199827887117863,0.0035983738489449,0.00493918778374791,0,
00:00:05.672,-0.0537567734718323,-0.00412669265642762,0.0126336086541414,0,
00:00:05.676,0.0441977828741074,-0.00773034570738673,-0.00279598799534142,0,
00:00:05.68,0.0567594431340694,0.0141951544210315,-0.0204395707696676,0,
00:00:05.684,-0.0357038863003254,0.0126270605251193,-0.00880203861743212,0,
00:00:05.688,-0.0446792393922806,-0.0182390324771404,0.0240670833736658,0,
00:00:05.692,-0.0100045325234532,-0.0111282505095005,0.020824883133173,0,
00:00:05.696,0.0367649756371975,0.0105049088597298,-0.0183190759271383,0,
00:00:05.7,0.0261140484362841,0.0177772454917431,-0.0206013079732656,0,
00:00:05.704,-0.0120143154636025,-0.00169310800265521,0.00258946698158979,0,
00:00:05.708,-0.0052587129175663,-0.0119947362691164,0.0157927349209785,0,
00:00:05.712,-0.00211360701359808,-0.0110010607168078,0.00349459494464099,0,
00:00:05.716,-0.00748327793553472,-0.00203268020413816,-0.000583384302444756,0,
00:00:05.72,-0.00151379208546132,0.00278409291058779,-0.00807009171694517,0,
00:00:05.724,0.00141733034979552,0.00657004816457629,-0.000271094759227708,0,
00:00:05.728,-0.00196134182624519,0.0081885289400816,-0.00113902287557721,0,
00:00:05.732,0.00147605000529438,0.00296721188351512,0.00230748695321381,0,
00:00:05.736,0.0100199989974499,0.00199790368787944,-0.00477963918820024,0,
00:00:05.74,0.0077819605357945,-0.00828526820987463,0.00378601509146392,0,
00:00:05.744,-0.011479870416224,-0.0173320397734642,0.0122864441946149,0,
00:00:05.748,-0.0135960932821035,0.00791448075324297,-0.00453119026497006,0,
00:00:05.752,0.00844166986644268,0.0227060560137033,-0.0200158301740885,0,
00:00:05.756,-0.0112654604017735,-0.00752121675759554,0.011748275719583,0,
00:00:05.76,-0.00831049121916294,-0.023841854184866,0.00179642834700644,0,
00:00:05.764,0.0785458013415337,0.0107997991144657,-0.00188582902774215,0,
00:00:05.768,-0.00809269491583109,0.0135676115751266,0.00465646153315902,0,
00:00:05.772,-0.0686989352107048,-0.00561195053160191,0.0107943620532751,0,
00:00:05.776,-0.0238260198384523,-0.00413661822676659,-0.0110107697546482,0,
00:00:05.78,0.0216087885200977,-0.00347416009753942,-0.0115584395825863,0,
00:00:05.784,0.0084734708070755,0.00262782489880919,0.00443600304424763,0,
00:00:05.788,0.0136293098330498,0.00513225188478827,0.00165616034064442,0,
00:00:05.792,0.0199022218585014,0.00557516003027558,0.00215888302773237,0,
00:00:05.796,-0.00130793265998363,-0.00797346327453852,0.0042891027405858,0,
00:00:05.8,-0.0028013268020004,-0.00840094778686762,0.00344550749287009,0,
00:00:05.804,-0.012385293841362,0.00116336136125028,-0.00559807615354657,0,
00:00:05.808,-0.00932418927550316,0.000503971590660512,0.00186496460810304,0,
00:00:05.812,0.00169179472140968,0.00789684429764748,-0.00657182792201638,0,
00:00:05.816,0.000937852950301021,0.00688525196164846,-0.00304841133765876,0,
00:00:05.82,0.00144357513636351,-0.00227522361092269,0.00390437035821378,0,
00:00:05.824,0.0058570122346282,-0.00500193191692233,0.00614879233762622,0,
00:00:05.828,-0.00675648497417569,0.000367756496416405,-0.0002672340197023,0,
00:00:05.832,-0.00701505830511451,-0.0030999833252281,-0.00426424667239189,0,
00:00:05.836,0.00661861756816506,-0.0106414286419749,0.00435737753286958,0,
00:00:05.84,0.0204199776053429,0.00354008097201586,-0.000845552422106266,0,
00:00:05.844,0.000129583524540067,0.013997838832438,-0.0151344900950789,0,
00:00:05.848,-0.0187866892665625,0.00385606149211526,0.0139666385948658,0,
00:00:05.852,-0.0215395819395781,-0.0137111116200686,0.00750536471605301,0,
00:00:05.856,0.00242241844534874,-0.00394370313733816,-0.0013222920242697,0,
00:00:05.86,0.0506746433675289,0.003818100085482,-0.00983821321278811,0,
00:00:05.864,-0.00222223158925772,0.0100758820772171,-0.00953224766999483,0,
00:00:05.868,-0.0038935630582273,0.026857502758503,0.00279848626814783,0,
00:00:05.872,-0.0351283140480518,-0.0119305960834026,-0.000841168512124568,0,
00:00:05.876,-0.0275300350040197,-0.0312350783497095,0.0201723128557205,0,
00:00:05.88,0.00970414746552706,-0.0285479314625263,0.00479938089847565,0,
00:00:05.884,0.0166241228580475,0.00693708891049027,-0.00136358302552253,0,
00:00:05.888,0.0200227275490761,0.0314658470451832,-0.012344435788691,0,
00:00:05.892,0.0153871346265078,0.0230749659240246,-0.0112970313057303,0,
00:00:05.896,0.000143545272294432,-0.00149963435251266,0.00204767589457333,0,
00:00:05.9,-0.0104167005047202,-0.0114854294806719,0.00306725688278675,0,
00:00:05.904,-0.0184263326227665,-0.0151564795523882,0.00152518763206899,0,
00:00:05.908,-0.00386671395972371,0.000425801292294636,0.00471630180254579,0,
00:00:05.912,0.0116201154887676,0.00546755036339164,0.00483052572235465,0,
00:00:05.916,-0.000803596747573465,-0.00200693937949836,-0.00422946317121387,0,
00:00:05.92,-0.00496490718796849,-0.00147318106610328,-0.00369211938232183,0,
00:00:05.924,-0.00324038206599653,-0.00547824380919337,0.00546117685735226,0,
00:00:05.928,0.0024235809687525,0.00580763584002852,-0.000489107624161989,0,
00:00:05.932,0.00507783703505993,0.00864300318062305,-0.00924056768417358,0,
00:00:05.936,-0.00632282299920917,0.00706701725721359,0.00333796348422766,0,
00:00:05.94,0.0360651351511478,-0.00448013190180063,0.0019969844724983,0,
00:00:05.944,0.00406791735440493,-0.0120435738936067,-0.00299564469605684,0,
00:00:05.948,-0.0367222987115383,-0.00164825306273997,-0.0039099408313632,0,
00:00:05.952,-0.0453594848513603,-0.00638841558247805,0.019389009103179,0,
00:00:05.956,0.0229729991406202,0.0164045635610819,0.00694670574739575,0,
00:00:05.96,0.0452855117619038,0.00622554635629058,-0.0241456292569637,0,
00:00:05.964,-0.0134166674688458,-0.0180912632495165,-0.00505292927846313,0,
00:00:05.968,-0.0101370206102729,-0.00786221772432327,0.003790422109887,0,
00:00:05.972,0.00314162159338593,0.013698915950954,0.00349078117869794,0,
00:00:05.976,0.0107203163206577,0.0192630793899298,0.00769837247207761,0,
00:00:05.98,0.00793257541954517,-0.00407197559252381,0.00259228912182152,0,
00:00:05.984,-0.0225360784679651,-0.0175351370126009,-0.0107880802825093,0,
00:00:05.988,-0.00713142333552241,-0.00477196089923382,0.00360051612369716,0,
00:00:05.992,-0.00151871622074395,0.00226799352094531,0.00334983528591692,0,
00:00:05.996,0.00795216485857964,0.00855380296707153,-0.000248853728407994,0,
00:00:06,0.00817086081951857,-0.00261078495532274,-0.00451743975281715,0,
00:00:06.004,0.0122206341475248,-0.00209300708957016,-0.00457245949655771,0,
00:00:06.008,-0.00850357115268707,0.00483960844576359,0.000393911177525297,0,
00:00:06.012,-0.0117468209937215,-0.00185553298797458,0.00987808033823967,0,
00:00:06.016,-0.00614174548536539,0.000522210844792426,-8.03451912361197E-05,0,
00:00:06.02,0.0132463313639164,0.00854950118809938,-0.00706866988912225,0,
00:00:06.024,0.0137678319588304,-0.0125233121216297,-0.0004269746132195,0,
00:00:06.028,-0.0181356836110353,0.000769497186411172,0.00662918528541923,0,
00:00:06.032,-0.0160449743270874,-0.0081776212900877,0.00676957564428449,0,
00:00:06.036,0.00541225774213672,0.00411968678236008,-0.0122765088453889,0,
00:00:06.04,0.0267105828970671,0.0029177563264966,0.000840396562125534,0,
00:00:06.044,0.032503716647625,0.0126471119001508,-0.00238068541511893,0,
00:00:06.048,-0.0613741166889668,0.00822640210390091,-0.00654256995767355,0,
00:00:06.052,-0.00971308536827564,-0.0130049837753177,0.0119391046464443,0,
00:00:06.056,0.0112676844000816,-0.00944563932716846,0.00547168729826808,0,
00:00:06.06,0.0135777704417706,0.00107215810567141,-0.0114352144300938,0,
00:00:06.064,0.00754185719415545,3.10492141579743E-05,-0.00046476861461997,0,
00:00:06.068,-0.0036148875951767,-0.00136188603937626,0.0165909640491009,0,
00:00:06.072,-0.00592780858278275,-0.000764158612582833,-0.00181217328645289,0,
00:00:06.076,0.000704255886375904,0.00497767515480518,-0.0123691046610475,0,
00:00:06.08,0.0043872375972569,0.000155079309479333,-0.00480498233810067,0,
00:00:06.084,0.0056033437140286,0.00318595790304244,-0.00104278768412769,0,
00:00:06.088,-0.00980133470147848,0.00400849524885416,0.0055773719213903,0,
00:00:06.092,-0.00214779051020741,0.00803634710609913,0.00706285471096635,0,
00:00:06.096,0.000852761266287416,-0.013358136638999,0.004011997487396,0,
00:00:06.1,-0.00270424736663699,-0.00831039249897003,-0.00859195552766323,0,
00:00:06.104,0.00703061884269118,0.0050368569791317,-0.0056666717864573,0,
00:00:06.108,0.00787750724703074,-0.0107960971072316,0.00227450602687895,0,
00:00:06.112,-0.00941975135356188,0.00745652057230473,0.00161754863802344,0,
00:00:06.116,-0.0300226993858814,0.0152839962393045,0.012428030371666,0,
00:00:06.12,0.00675585679709911,-0.0102182272821665,-0.00820828694850206,0,
00:00:06.124,0.0897872596979141,0.00176648469641805,-0.0200554374605417,0,
00:00:06.128,-0.0292907059192657,-0.00187308434396982,0.0209116768091917,0,
00:00:06.132,-0.0500659719109535,0.0119628589600325,0.00736498972401023,0,
00:00:06.136,-0.0394417755305767,-0.00460606627166271,-0.00482724467292428,0,
00:00:06.14,0.0161168109625578,-0.0103326765820384,-0.00444978941231966,0,
00:00:06.144,0.0350520312786102,-0.00515092629939318,-0.00759407784789801,0,
00:00:06.148,0.0261517148464918,0.00330019602552056,0.000347710505593568,0,
00:00:06.152,0.000587530841585249,0.00254149781540036,0.00562553480267525,0,
00:00:06.156,-0.0278858616948128,-0.00146615947596729,0.00552695011720061,0,
00:00:06.16,-0.00706863449886441,0.00180365506093949,-0.00814649648964405,0,
00:00:06.164,0.00483553949743509,0.0121005075052381,-0.00382882473058999,0,
00:00:06.168,0.0114065231755376,-0.000774974119849503,0.00659332936629653,0,
00:00:06.172,-0.00400595460087061,-0.00358765944838524,0.00515255983918905,0,
00:00:06.176,-0.0099693676456809,-0.00914587173610926,0.00479100877419114,0,
00:00:06.18,-0.0047549195587635,-0.00187175371684134,-0.00646764505654573,0,
00:00:06.184,0.0122881671413779,-7.33331908122636E-05,-0.00645426986739039,0,
00:00:06.188,0.00797361880540848,0.0049166027456522,-0.000314472883474082,0,
00:00:06.192,0.00167218421120197,0.0120217893272638,-0.00482711056247354,0,
00:00:06.196,-0.015549979172647,-0.00915022101253271,0.00517496652901173,0,
00:00:06.2,-0.00747796148061752,-0.0100430836901069,0.0117916073650122,0,
00:00:06.204,0.0198076646775007,-0.005339449737221,-0.00779484491795301,0,
00:00:06.208,-0.00370755745097995,0.00712049007415771,0.00228846212849021,0,
00:00:06.212,-0.000136500224471092,0.030221177265048,-0.00977514870464802,0,
00:00:06.216,-0.0143321072682738,-0.00388354784809053,0.00339831109158695,0,
00:00:06.22,-0.0117820622399449,-0.0324321538209915,0.0111755887046456,0,
00:00:06.224,0.048310924321413,0.00286724558100104,-0.0079229949042201,0,
00:00:06.228,-0.0150829460471869,0.00669364398345351,-0.00795693136751652,0,
00:00:06.232,-0.00265890266746283,0.00847490597516298,0.0107418177649379,0,
00:00:06.236,-0.0109673533588648,-0.000908845220692456,0.00407821126282215,0,
00:00:06.24,-0.00667054252699018,-0.0146866021677852,-0.00208239583298564,0,
00:00:06.244,-0.00186180963646621,0.00224897777661681,-0.00647571822628379,0,
00:00:06.248,-0.00183496216777712,0.00699569098651409,-0.00350147625431418,0,
00:00:06.252,0.00627411669120193,0.00711921602487564,0.000512327125761658,0,
00:00:06.256,0.0177288837730885,-0.00291108572855592,0.00270576751790941,0,
00:00:06.26,0.00696335732936859,-0.00767022185027599,0.00271191610954702,0,
00:00:06.264,-0.00908679142594337,0.00467801373451948,0.00143357343040407,0,
00:00:06.268,-0.00386228132992983,0.0121909929439425,0.00206717383116484,0,
00:00:06.272,-0.0129710575565696,-0.00794410519301891,-0.000791892176494002,0,
00:00:06.276,-0.0150284860283136,-0.0112219974398613,-0.00466482108458877,0,
00:00:06.28,0.0431746877729893,0.000566972594242543,-0.00666823564097285,0,
00:00:06.284,-0.00769032211974263,0.00362989469431341,0.000267945404630154,0,
00:00:06.288,-0.0305941123515368,-0.00134323909878731,0.011360433883965,0,
00:00:06.292,0.00178612186573446,-0.00128828990273178,0.00571925099939108,0,
00:00:06.296,0.0192430764436722,0.00467632757499814,-0.00396891124546528,0,
00:00:06.3,0.0152781568467617,0.00419538980349898,0.00264472281560302,0,
