Elapsed Time,EMG1,EMG2,EMG3,BioRadio Event,
00:00:00,-0.0871827602386475,-1.09393608570099,2.01973390579224,0,
00:00:00.004,0.089190885424614,1.05967688560486,-1.92821609973907,0,
00:00:00.008,0.044357817620039,0.845502972602844,-1.59385764598846,0,
00:00:00.012,0.0182116068899632,0.068041518330574,-0.16535696387291,0,
00:00:00.016,0.00573708070442081,-0.425993412733078,0.818002820014954,0,
00:00:00.02,-0.0673281997442245,-0.536101996898651,0.993183255195618,0,
00:00:00.024,-0.0528900437057018,-0.319763541221619,0.64570814371109,0,
00:00:00.028,-0.0133814830332994,-0.0617856606841087,0.0618369691073895,0,
00:00:00.032,0.0477025285363197,0.175805822014809,-0.322621792554855,0,
00:00:00.036,0.0296443607658148,0.234116598963737,-0.400302529335022,0,
00:00:00.04,0.00464817695319653,0.1474539488554,-0.285254657268524,0,
00:00:00.044,-0.00806658808141947,0.0601362176239491,-0.101390346884727,0,
00:00:00.048,-0.0185499712824821,-0.073470875620842,0.0552639216184616,0,
00:00:00.052,-0.0213316362351179,-0.0916031822562218,0.131534889340401,0,
00:00:00.056,0.0229855813086033,0.0126782823354006,0.107199743390083,0,
00:00:00.06,0.03555578738451,-0.00564746046438813,0.0401475541293621,0,
00:00:00.064,-0.0128111895173788,-0.00558389769867063,-0.0174841620028019,0,
00:00:00.068,-0.0148886572569609,0.000187953279237263,-0.0286704376339912,0,
00:00:00.072,-0.00286667025648057,-0.00994939915835857,-0.0362145267426968,0,
00:00:00.076,-0.00145947525743395,0.0192395076155663,-0.0112829012796283,0,
00:00:00.08,-0.0263543054461479,-0.00988361332565546,0.0130780888721347,0,
00:00:00.084,0.00239184172824025,-0.00744409393519163,-0.00189993344247341,0,
00:00:00.088,0.0485223978757858,0.0380009785294533,-0.000901592429727316,0,
00:00:00.092,0.0164374597370625,0.0231627989560366,-0.00323522556573153,0,
00:00:00.096,-0.0316736027598381,-0.0332935154438019,0.00843104440718889,0,
00:00:00.1,-0.0118362661451101,-0.0261751785874367,0.0123945446684957,0,
00:00:00.104,-0.0113319922238588,0.00213990593329072,0.0012207591207698,0,
00:00:00.108,0.000701196084264666,-0.0034929714165628,-0.00915313605219126,0,
00:00:00.112,0.00891394261270761,0.0163987521082163,-0.00410671252757311,0,
00:00:00.116,0.0262660682201386,0.0223119631409645,0.01399633474648,0,
00:00:00.12,-0.00208904151804745,-0.00827189907431602,-0.0167559832334518,0,
00:00:00.124,-0.0250155609101057,-0.0260649565607309,-0.00606303010135889,0,
00:00:00.128,-0.0051827747374773,-0.0104032075032592,0.00917572062462568,0,
00:00:00.132,0.00960585009306669,0.0131343072280288,0.000478242232929915,0,
00:00:00.136,0.00369670568034053,0.0371386148035526,0.00230020005255938,0,
00:00:00.14,-0.000501848116982728,0.00773651851341128,0.00558139430359006,0,
00:00:00.144,0.0107408510521054,-0.0201494134962559,-0.00816810503602028,0,
00:00:00.148,0.00379554810933769,-0.0281937662512064,-0.00451664533466101,0,
00:00:00.152,-0.0274174753576517,-0.0236297063529491,0.00570468045771122,0,
00:00:00.156,-0.00693931384012103,0.0261792670935392,0.00457499781623483,0,
00:00:00.16,0.0295349694788456,0.0133905140683055,0.00263352133333683,0,
00:00:00.164,0.00773630104959011,-0.00442709214985371,-4.91280807182193E-05,0,
00:00:00.168,-0.0216873101890087,0.00439485209062696,-0.00212255073711276,0,
00:00:00.172,-0.00558875035494566,0.00757987936958671,-0.0111023262143135,0,
00:00:00.176,0.00782583653926849,0.0229628048837185,-0.00883898977190256,0,
00:00:00.18,0.00418438343331218,-0.0106448857113719,0.00483962381258607,0,
00:00:00.184,0.000943814928177744,-0.0296844970434904,0.00533090112730861,0,
00:00:00.188,0.00108574621845037,0.00275405729189515,0.0131584648042917,0,
00:00:00.192,-0.00142231001518667,-0.00916070211678743,0.00755553599447012,0,
00:00:00.196,-0.00887724943459034,-0.0394343957304955,-0.00314874458126724,0,
00:00:00.2,-0.00861193425953388,0.0293413512408733,-0.0128475986421108,0,
00:00:00.204,0.0161355249583721,0.0650044158101082,-0.00388392712920904,0,
00:00:00.208,0.0110179418697953,0.00379831180907786,-0.00643393490463495,0,
00:00:00.212,-0.00233954167924821,-0.0235955417156219,0.0113214142620564,0,
00:00:00.216,-0.00509854778647423,-0.0332396626472473,0.00463258009403944,0,
00:00:00.22,-0.00794188398867846,-0.00738432258367538,-0.00550609640777111,0,
00:00:00.224,-0.00600752467289567,0.0084500452503562,-0.005953767336905,0,
00:00:00.228,0.00486756907775998,0.0183873064815998,7.92866194387898E-05,0,
00:00:00.232,0.00511371064931154,-0.00836039427667856,0.00205820263363421,0,
00:00:00.236,-0.0145995356142521,-0.0184974819421768,0.0105154635384679,0,
00:00:00.24,0.0109428400173783,0.0239946413785219,0.018595090135932,0,
00:00:00.244,0.0236037652939558,0.0119827436283231,-0.0253443215042353,0,
00:00:00.248,-0.0129620907828212,-0.0122620640322566,-0.0283879432827234,0,
00:00:00.252,-0.00349390786141157,-0.00106770917773247,0.0183001905679703,0,
00:00:00.256,-0.0056957583874464,0.00377957336604595,0.0239001214504242,0,
00:00:00.26,-0.00602767430245876,0.0109910042956471,0.00260469550266862,0,
00:00:00.264,-0.00703516695648432,-0.0272593665868044,-0.0102476123720407,0,
00:00:00.268,0.0176037345081568,-0.0107097430154681,-0.00949781946837902,0,
00:00:00.272,0.00145902018994093,0.00938509590923786,-0.00376632600091398,0,
00:00:00.276,-0.0030078252311796,0.0161733124405146,0.00141689367592335,0,
00:00:00.28,-0.0107543952763081,-0.0304618030786514,-0.000394497677916661,0,
00:00:00.284,0.0072434046305716,0.0411147587001324,0.00318917352706194,0,
00:00:00.288,0.00718971760943532,0.0126649374142289,0.0130154145881534,0,
00:00:00.292,0.00167110632173717,-0.00932107213884592,-0.000466111145215109,0,
00:00:00.296,0.00141640217043459,-0.0228445138782263,-0.00992442108690739,0,
00:00:00.3,-0.0100352223962545,-0.0168285183608532,0.000672070891596377,0,
00:00:00.304,-0.00827355589717627,-0.00343344057910144,0.00719784200191498,0,
00:00:00.308,0.00242341589182615,0.0301480051130056,-0.00457657407969236,0,
00:00:00.312,0.00801219791173935,0.0184797421097755,-0.0187230259180069,0,
00:00:00.316,0.00679661799222231,-0.0202186033129692,0.0067569981329143,0,
00:00:00.32,7.52714840928093E-05,-0.00366735132411122,0.00643205130472779,0,
00:00:00.324,-0.00848956126719713,-0.00337584619410336,0.00536546064540744,0,
00:00:00.328,-0.00288681453093886,-0.0204896442592144,0.00897231046110392,0,
00:00:00.332,0.0026591878850013,0.0180098991841078,-0.00189072475768626,0,
00:00:00.336,-0.00626742327585816,0.00189392373431474,-0.00874373037368059,0,
00:00:00.34,0.00188113865442574,0.0132435848936439,-0.0101903174072504,0,
00:00:00.344,0.0137057993561029,0.00929294992238283,0.00709988363087177,0,
00:00:00.348,-0.00347738899290562,-0.00417010812088847,-0.00234164483845234,0,
00:00:00.352,0.00314344372600317,-0.0134689547121525,0.00436590984463692,0,
00:00:00.356,0.0046378574334085,0.00429997872561216,-0.00060478231171146,0,
00:00:00.36,-0.0236486047506332,-0.0289934203028679,0.00871078204363585,0,
00:00:00.364,-0.0042474428191781,-0.0191773045808077,0.00192361522931606,0,
00:00:00.368,0.00900921691209078,0.0483159720897675,-0.0173027440905571,0,
00:00:00.372,-0.0011401369702071,0.0155529649928212,0.00734938168898225,0,
00:00:00.376,0.0223777983337641,-0.00396708771586418,-0.000462483963929117,0,
00:00:00.38,-0.00257490249350667,-0.0109722204506397,-0.00128985976334661,0,
00:00:00.384,-0.00290079670958221,-0.0238923951983452,-0.00206457753665745,0,
00:00:00.388,-0.00637371884658933,0.0180098805576563,0.0030442769639194,0,
00:00:00.392,-0.00852311961352825,0.0167872495949268,0.000786934047937393,0,
00:00:00.396,-0.0055745467543602,-0.0201845206320286,0.00286260712891817,0,
00:00:00.4,0.00174959294963628,-0.0031320711132139,0.00706821586936712,0,
00:00:00.404,0.00594566389918327,-0.0124469734728336,-0.0134125342592597,0,
00:00:00.408,-0.00673740543425083,0.0079357111826539,0.00523526547476649,0,
00:00:00.412,0.0147155458107591,0.0165538042783737,0.00529215252026916,0,
00:00:00.416,0.0116855865344405,0.0141178341582417,-0.0102270701900125,0,
00:00:00.42,-0.00714495033025742,-0.0186307746917009,-0.0123789589852095,0,
00:00:00.424,0.00115255126729608,0.00171244563534856,0.00730938324704766,0,
00:00:00.428,-0.00633505452424288,0.00932416506111622,0.00831515155732632,0,
00:00:00.432,-0.0180771499872208,-0.0108697973191738,0.00768599193543196,0,
00:00:00.436,0.0013906842796132,-0.0169635340571404,0.00362688442692161,0,
00:00:00.44,0.0185796581208706,-0.00350651633925736,-0.00741039542481303,0,
00:00:00.444,-0.00894964300096035,-0.000202773881028406,-0.00656157871708274,0,
00:00:00.448,-0.00341645744629204,0.0170348659157753,0.00618493836373091,0,
00:00:00.452,0.00308161461725831,0.0223030522465706,-0.00643092161044478,0,
00:00:00.456,0.0156102851033211,0.0125381927937269,-0.00173749588429928,0,
00:00:00.46,0.00819943938404322,-0.0186450518667698,0.00568555947393179,0,
00:00:00.464,-0.0257002897560596,-0.0336227789521217,-0.00968190096318722,0,
00:00:00.468,-0.0144220357760787,-0.0131285795941949,0.0106990011408925,0,
00:00:00.472,0.00969771854579449,0.0229453220963478,0.00706113362684846,0,
00:00:00.476,0.0376930981874466,0.0182675831019878,-0.0177170243114233,0,
00:00:00.48,-0.0232789944857359,-0.000307097274344414,0.00394106796011329,0,
00:00:00.484,-0.0266647804528475,0.0123932296410203,0.0261378698050976,0,
00:00:00.488,0.0164705030620098,-0.0125950500369072,-0.0121016260236502,0,
00:00:00.492,0.022307001054287,-0.0180586073547602,-0.0218454673886299,0,
00:00:00.496,-0.012818687595427,-0.0061321584507823,-0.00252719107083976,0,
00:00:00.5,-0.0135799944400787,0.0112879611551762,0.0096926549449563,0,
00:00:00.504,0.019380247220397,0.0157177336513996,0.0110854934900999,0,
00:00:00.508,0.00192386691924185,-0.00139285391196609,-0.000472413201350719,0,
00:00:00.512,-0.013705843128264,-0.0159348342567682,-0.00308918883092701,0,
00:00:00.516,-0.0125904465094209,-0.00888481922447681,-0.00843929685652256,0,
00:00:00.52,0.00463366415351629,0.00383782363496721,0.0135583691298962,0,
00:00:00.524,0.00924846343696117,0.0306226927787066,0.00152155698742718,0,
00:00:00.528,0.000288035051198676,0.000986676663160324,-0.00314195989631116,0,
00:00:00.532,0.0116733852773905,-0.0356760509312153,-0.0141246933490038,0,
00:00:00.536,-0.0156597495079041,-0.00784946233034134,-0.00298318406566978,0,
00:00:00.54,0.00977947562932968,0.0422168858349323,0.00894204527139664,0,
00:00:00.544,0.0206058919429779,0.000237288171774708,0.00487011717632413,0,
00:00:00.548,-0.0207293685525656,-0.0247420053929091,0.00133549864403903,0,
00:00:00.552,-0.0167293548583984,-0.0087495120242238,-0.00299620116129518,0,
00:00:00.556,-0.0103150848299265,0.00359151302836835,-0.00181246618740261,0,
00:00:00.56,0.00943165272474289,-0.00214615999720991,0.00636092107743025,0,
00:00:00.564,0.0175789669156075,0.0269166957587004,-0.00483437348157167,0,
00:00:00.568,0.012769584544003,0.0173839218914509,-0.00603552535176277,0,
00:00:00.572,-0.016163557767868,-0.0368756279349327,-0.00239511369727552,0,
00:00:00.576,-0.00467584934085608,-0.0114819202572107,0.0202718079090118,0,
00:00:00.58,-0.00119247264228761,0.0170909240841866,0.00241029518656433,0,
00:00:00.584,0.0125985350459814,-0.00197103549726307,-0.0189479030668736,0,
00:00:00.588,-0.00258800690062344,-0.0105824647471309,-0.0125447129830718,0,
00:00:00.592,-0.0101403631269932,0.0196713078767061,0.00219061551615596,0,
00:00:00.596,0.0126917297020555,0.0165526624768972,0.0332067348062992,0,
00:00:00.6,-0.00675283186137676,-0.010344541631639,-0.00560794956982136,0,
00:00:00.604,-0.00743731064721942,-0.0203605815768242,-0.0173865631222725,0,
00:00:00.608,-0.00813771318644285,-0.0268234089016914,-0.00789521168917418,0,
00:00:00.612,0.00460419990122318,0.0200241785496473,0.00708924140781164,0,
00:00:00.616,0.0091102123260498,0.0115024661645293,0.00374269089661539,0,
00:00:00.62,0.0110207824036479,0.0181934516876936,0.0197825115174055,0,
00:00:00.624,-0.00406051333993673,-0.00415767496451736,-0.0199819039553404,0,
00:00:00.628,-0.00341152492910624,-0.0086766704916954,-0.00894610583782196,0,
00:00:00.632,0.00168656778987497,-0.00569818867370486,0.0147809972986579,0,
00:00:00.636,-0.00111761793959886,0.0090384678915143,0.00152937404345721,0,
00:00:00.64,-0.00753024220466614,-0.00421743281185627,-0.00147408794146031,0,
00:00:00.644,-0.00121872813906521,0.00253486866131425,-0.00554769998416305,0,
00:00:00.648,0.00404875911772251,-0.0103542786091566,-0.0010955361649394,0,
00:00:00.652,0.00271751964464784,0.00076828058809042,-0.00168431014753878,0,
00:00:00.656,-0.00392816727980971,-0.0162569768726826,-0.00142746372148395,0,
00:00:00.66,-0.00764735322445631,0.00874338392168283,0.00420302245765924,0,
00:00:00.664,0.00769365485757589,0.0145281068980694,0.00383758265525103,0,
00:00:00.668,0.0181099120527506,0.0319712869822979,0.00752782449126244,0,
00:00:00.672,-0.00329794292338192,-0.00833199359476566,-0.01723238453269,0,
00:00:00.676,-0.0123254349455237,-0.0470534190535545,0.00725613068789244,0,
00:00:00.68,-0.00809222087264061,-0.00604119617491961,0.00216779857873917,0,
00:00:00.684,-0.00921932514756918,0.0116637703031301,-0.00264050788246095,0,
00:00:00.688,0.0117190405726433,0.0262844245880842,0.0068483566865325,0,
00:00:00.692,0.0113672306761146,0.0151458512991667,-0.0073530706577003,0,
00:00:00.696,0.00177997641731054,-0.00746388034895062,-0.0113446759060025,0,
00:00:00.7,0.00347244623117149,-0.0179269574582577,0.0043136547319591,0,
00:00:00.704,-0.00542062893509865,-0.0332670733332634,0.0209996197372675,0,
00:00:00.708,-0.00514853140339255,0.00893354974687099,-0.00605006236582994,0,
00:00:00.712,-0.00223155715502799,0.0395412035286427,-0.00883662793785334,0,
00:00:00.716,-0.0122418701648712,-0.00271791615523398,0.00475337263196707,0,
00:00:00.72,-0.00352296186611056,-0.00682557327672839,-0.000169114995514974,0,
00:00:00.724,0.0142623884603381,-0.00619854545220733,-0.000688104017172009,0,
00:00:00.728,0.0118884099647403,-0.00953502673655748,-0.0107456529513001,0,
00:00:00.732,0.00731830857694149,0.00765998661518097,0.00133132794871926,0,
00:00:00.736,-0.00981220696121454,0.0126947220414877,0.0033201256301254,0,
00:00:00.74,-0.00539634702727199,-0.00720328744500875,0.00433480832725763,0,
00:00:00.744,-0.0178821235895157,-0.0163566172122955,0.00314534013159573,0,
00:00:00.748,0.014486838132143,-0.000934815441723913,0.0174878407269716,0,
00:00:00.752,0.00570928817614913,0.00429648347198963,-0.0230625662952662,0,
00:00:00.756,0.000793050683569163,0.0194308869540691,0.00339554669335485,0,
00:00:00.76,0.00479900883510709,0.0187808852642775,-0.00995156541466713,0,
00:00:00.764,-0.00360128493048251,-0.00213514035567641,-0.00962245557457209,0,
00:00:00.768,-0.0101195489987731,-0.0367809198796749,0.00638754898682237,0,
00:00:00.772,-0.00421819230541587,-0.00115129770711064,0.0142699740827084,0,
00:00:00.776,0.00654779141768813,-0.00310861878097057,0.0216263830661774,0,
00:00:00.78,0.00751040922477841,-0.0119871441274881,-0.00685459328815341,0,
00:00:00.784,-0.000719057105015963,0.018325999379158,-0.0207142177969217,0,
00:00:00.788,-0.0117025496438146,0.0199718941003084,-0.00230926088988781,0,
00:00:00.792,0.00312493206001818,-0.0101152313873172,0.00860354769974947,0,
00:00:00.796,0.00772106973454356,0.00408069044351578,-0.0100346282124519,0,
00:00:00.8,0.000998488045297563,0.0132174463942647,0.00603562965989113,0,
00:00:00.804,0.000113933601824101,-0.00136458221822977,-0.00363476434722543,0,
00:00:00.808,-0.00427895924076438,-0.0246898122131824,-0.00263682729564607,0,
00:00:00.812,-0.00713451905176044,-0.0154231293126941,0.00318551925010979,0,
00:00:00.816,0.00360317714512348,-0.0013821852626279,0.0160460323095322,0,
00:00:00.82,0.000551713921595365,0.0209666918963194,-0.00156810239423066,0,
00:00:00.824,0.0102327708154917,0.0304499138146639,-0.00501638976857066,0,
00:00:00.828,-0.00120599276851863,-0.0126572884619236,-0.00563075207173824,0,
00:00:00.832,-0.00475346762686968,-0.00937610026448965,-0.0160136893391609,0,
00:00:00.836,-0.00165769923478365,-0.0059663187712431,0.00706222141161561,0,
00:00:00.84,-0.0052349497564137,-0.0254720877856016,0.0173812620341778,0,
00:00:00.844,-0.00292749609798193,0.0174914486706257,0.00665674032643437,0,
00:00:00.848,0.00712543725967407,0.0108091486617923,-0.0128182470798492,0,
00:00:00.852,0.0181855652481318,0.0122967744246125,-0.000937927223276347,0,
00:00:00.856,-0.0127618173137307,-0.0129675520583987,-0.0065297563560307,0,
00:00:00.86,-0.0121588353067636,-0.0222986694425344,0.000279445433989167,0,
00:00:00.864,-0.00471697375178337,0.0196175798773766,0.00317397131584585,0,
00:00:00.868,0.00865481980144978,0.0113665089011192,0.00100123242009431,0,
00:00:00.872,0.0102799506857991,0.0170790832489729,0.00351097667589784,0,
00:00:00.876,-0.00112414918839931,-0.027861699461937,0.00571867683902383,0,
00:00:00.88,-0.00346425618045032,-0.0261713657528162,-0.00891736429184675,0,
00:00:00.884,0.00187804910819978,0.019951494410634,0.00495312316343188,0,
00:00:00.888,-0.0023847462143749,0.0152027774602175,-0.0088577987626195,0,
00:00:00.892,-0.000527510652318597,0.00664715794846416,0.0044426154345274,0,
00:00:00.896,-0.00514162238687277,-0.0264638420194387,-0.00482409493997693,0,
00:00:00.9,-0.00337061588652432,-0.0198189690709114,-0.00281334528699517,0,
00:00:00.904,0.00661825342103839,0.036252100020647,0.0285223890095949,0,
00:00:00.908,0.0095838624984026,0.0186027269810438,-0.0217082928866148,0,
00:00:00.912,-0.00282124150544405,-0.0116243278607726,-0.0113825630396605,0,
00:00:00.916,-0.00535352667793632,-0.0125681217759848,0.0102926408872008,0,
00:00:00.92,-0.00121849379502237,-0.00493204034864903,0.00677589233964682,0,
00:00:00.924,-0.000256929430179298,0.00357584049925208,0.00548149459064007,0,
00:00:00.928,-0.00625095935538411,-0.0105766272172332,-0.00830547697842121,0,
00:00:00.932,0.00402657268568873,0.00068161083618179,-0.00448023015633225,0,
00:00:00.936,0.00726568000391126,0.0118687450885773,0.00121319538448006,0,
00:00:00.94,-0.00154182978440076,0.0143100516870618,0.00144060235470533,0,
00:00:00.944,0.00819138064980507,-0.00930300820618868,-0.0120742646977305,0,
00:00:00.948,-0.00843883957713842,0.00530013954266906,0.00528976880013943,0,
00:00:00.952,-0.0179297458380461,-0.0267243795096874,0.0132833747193217,0,
00:00:00.956,-0.00211769388988614,-0.00309069198556244,0.0161330122500658,0,
00:00:00.96,0.0293064638972282,0.0378827936947346,-0.0126746147871017,0,
00:00:00.964,0.0136497970670462,-0.00266601401381195,-0.0210699271410704,0,
00:00:00.968,-0.0128573393449187,-0.0160103943198919,0.00143724237568676,0,
00:00:00.972,-0.0324190631508827,-0.0227467473596334,0.00687521835789084,0,
00:00:00.976,0.00768584944307804,0.015258782543242,0.00907379854470491,0,
00:00:00.98,0.0137763926759362,0.0111558195203543,-0.00263157626613975,0,
00:00:00.984,0.00284557626582682,-0.000183789437869564,-0.0127607518807054,0,
00:00:00.988,0.00319306226447225,0.00439018802717328,-0.00264321244321764,0,
00:00:00.992,0.00276371487416327,0.00774769298732281,0.0127585548907518,0,
00:00:00.996,-0.0143378097563982,-0.0166618395596743,0.00683433515951037,0,
00:00:01,-0.00535085704177618,-0.0241825636476278,0.00464354362338781,0,
00:00:01.004,0.0109611414372921,0.0198485814034939,0.00102795555721968,0,
00:00:01.008,-3.23238673445303E-05,0.0109421033412218,-0.0131582524627447,0,
00:00:01.012,-0.00387097918428481,0.00856937281787395,-0.011582768522203,0,
00:00:01.016,0.00556284049525857,-0.00671842694282532,-0.00345011567696929,0,
00:00:01.02,-0.00162627303507179,-0.0152939576655626,0.0204411130398512,0,
00:00:01.024,-0.00622246321290731,-0.0116142276674509,-0.00684722512960434,0,
00:00:01.028,0.00756618659943342,0.024977620691061,-0.00095375522505492,0,
00:00:01.032,-0.0061826971359551,-0.00495192455127835,0.000120574128231965,0,
00:00:01.036,0.00403380393981934,0.0156591981649399,0.00225747260265052,0,
00:00:01.04,0.00355591322295368,-0.0103828301653266,0.0128606362268329,0,
00:00:01.044,0.000247941847192124,-0.0157570820301771,0.00164801510982215,0,
00:00:01.048,-0.00414677616208792,-0.00440088426694274,-0.016484510153532,0,
00:00:01.052,-0.0046239965595305,0.0139720244333148,-0.0125062111765146,0,
00:00:01.056,0.0124219162389636,0.0112334983423352,-0.00188808725215495,0,
00:00:01.06,-0.00252833007834852,-0.0186218190938234,0.0205815192312002,0,
00:00:01.064,-0.0228263586759567,0.0045717447064817,0.00480938656255603,0,
00:00:01.068,0.0138947004452348,0.0090962341055274,-0.00712791411206126,0,
00:00:01.072,0.0170703828334808,-0.0120645267888904,0.00534846587106586,0,
00:00:01.076,-0.00815149676054716,0.00607861950993538,-0.00392419006675482,0,
00:00:01.08,-0.00727477436885238,0.0245806965976954,-0.0157963689416647,0,
00:00:01.084,0.00748702744022012,0.00360853457823396,0.00697891460731626,0,
00:00:01.088,-0.0131034124642611,-0.0460663139820099,0.00432611024007201,0,
00:00:01.092,-0.0120366672053933,-0.0223780516535044,-0.00130459538195282,0,
00:00:01.096,0.0166728291660547,0.0240613874047995,0.0135068045929074,0,
00:00:01.1,0.0139462696388364,0.0145436832681298,0.00139929156284779,0,
00:00:01.104,-0.00775703275576234,0.0196990072727203,-0.0152976531535387,0,
00:00:01.108,0.00626745773479342,0.00420165341347456,-0.0065665366128087,0,
00:00:01.112,0.00885651260614395,-0.0153120066970587,0.00158573442604393,0,
00:00:01.116,-0.0199895668774843,-0.00484761456027627,0.0156432893127203,0,
00:00:01.12,-0.0181204862892628,-0.0142473103478551,-0.0113645037636161,0,
00:00:01.124,0.0058029699139297,-0.00580471847206354,-0.000166432102560066,0,
00:00:01.128,0.00977194122970104,0.00842190627008677,-0.000591291463933885,0,
00:00:01.132,0.0102376937866211,0.00912998989224434,0.0109769515693188,0,
00:00:01.136,0.00367227429524064,0.0212825313210487,0.014561528339982,0,
00:00:01.14,0.00385156902484596,0.00922419317066669,-0.0178153049200773,0,
00:00:01.144,-0.00875664222985506,-0.0142684048041701,-0.021432850509882,0,
00:00:01.148,-0.0089751398190856,-0.0432209372520447,0.00508444011211395,0,
00:00:01.152,-0.012181400321424,-0.0204752907156944,0.00912342127412558,0,
00:00:01.156,0.000825480790808797,0.0294349640607834,0.0135819520801306,0,
00:00:01.16,0.0203327927738428,0.0328541360795498,0.00328792002983391,0,
00:00:01.164,0.0130978506058455,0.0235138274729252,-0.0138868605718017,0,
00:00:01.168,-0.0104449111968279,-0.00945095531642437,-0.00431793602183461,0,
00:00:01.172,-0.00480888783931732,-0.0283816680312157,0.00506122317165136,0,
00:00:01.176,-0.0141790667548776,-0.0183552112430334,-0.00543317478150129,0,
00:00:01.18,-0.00309950113296509,-0.0207262542098761,-0.00331885134801269,0,
00:00:01.184,0.0173785276710987,0.0305859837681055,0.00773711781948805,0,
00:00:01.188,0.0100878765806556,0.0237760059535503,0.0149679090827703,0,
00:00:01.192,-0.00982585363090038,0.00140337774064392,-0.00415330147370696,0,
00:00:01.196,-0.00394333712756634,0.000275770289590582,-0.00675084395334125,0,
00:00:01.2,0.00732122780755162,-0.00197457917965949,-0.00586514174938202,0,
00:00:01.204,-0.0116663314402103,-0.037722110748291,-0.0131043335422873,0,
00:00:01.208,-0.0059604593552649,0.001126020681113,0.0103609608486295,0,
00:00:01.212,0.00722207175567746,0.00377632025629282,0.0146734118461609,0,
00:00:01.216,0.00945193599909544,0.0262249503284693,-0.00265831663273275,0,
00:00:01.22,0.00708387885242701,0.0401575267314911,-0.0122592449188232,0,
00:00:01.224,-0.0109926033765078,-0.0400396548211575,-0.0080232210457325,0,
00:00:01.228,-0.00421025604009628,-0.0550009906291962,0.0311929192394018,0,
00:00:01.232,-0.000686413957737386,0.0201849471777678,-0.00114611908793449,0,
00:00:01.236,-0.00526130106300116,0.0354536697268486,-0.0250219441950321,0,
00:00:01.24,0.00732226530089974,0.0329725034534931,-0.000847248360514641,0,
00:00:01.244,-0.00643028691411018,-0.0328431092202663,0.00820858776569366,0,
00:00:01.248,0.0108315227553248,-0.0198903512209654,-0.00935549102723598,0,
00:00:01.252,0.0238462556153536,0.013891982845962,0.00778960576280952,0,
00:00:01.256,-0.0186139084398746,-0.0189198572188616,0.00858459435403347,0,
00:00:01.26,-0.0291351918131113,-0.0195335410535336,0.00106417201459408,0,
00:00:01.264,0.00636487361043692,0.00624695466831326,0.00822615902870893,0,
00:00:01.268,0.0199332777410746,0.0508218891918659,0.00189961586147547,0,
00:00:01.272,0.0108388252556324,0.0465928316116333,-0.0240121148526669,0,
00:00:01.276,-0.0119212968274951,-0.0405211672186852,-0.0090245958417654,0,
00:00:01.28,-0.0254722964018583,-0.0655257180333138,0.00953610148280859,0,
00:00:01.284,0.00884753279387951,-0.00906961411237717,0.000510652607772499,0,
00:00:01.288,0.023146091029048,0.0559623055160046,0.00449264934286475,0,
00:00:01.292,0.00445321854203939,0.00859924405813217,0.00238154083490372,0,
00:00:01.296,-0.0149281965568662,-0.027877826243639,-0.00840388704091311,0,
00:00:01.3,0.00307402084581554,0.0322362966835499,0.0129839181900024,0,
00:00:01.304,-0.00313620758242905,-0.00988568738102913,0.0142852514982224,0,
00:00:01.308,-0.0118980230763555,-0.0299149304628372,-0.00361667899414897,0,
00:00:01.312,0.00653316406533122,-0.0100247757509351,-0.0120740924030542,0,
00:00:01.316,0.0116796270012856,0.0329612381756306,-0.0189826432615519,0,
00:00:01.32,0.000919509911909699,0.0265122000128031,-0.00475074630230665,0,
00:00:01.324,-0.00257040210999548,-0.0248351059854031,0.0141837690025568,0,
00:00:01.328,-0.0152866635471582,-0.0331518203020096,0.00170738447923213,0,
00:00:01.332,-0.0170186161994934,-0.0265210326761007,0.0218235682696104,0,
00:00:01.336,0.0181467831134796,0.0294770319014788,-0.000688096100930125,0,
00:00:01.34,0.0340604223310947,0.063724085688591,-0.0130747137591243,0,
00:00:01.344,0.000134263507789001,0.0204162336885929,-0.0169671680778265,0,
00:00:01.348,-0.0190320424735546,-0.0344588160514832,-0.00163210032042116,0,
00:00:01.352,-0.0170475486665964,-0.0435268618166447,0.0156913530081511,0,
00:00:01.356,-0.00217143725603819,-0.0139596443623304,-0.00754273543134332,0,
00:00:01.36,0.0099650789052248,0.0115430066362023,0.00850111525505781,0,
00:00:01.364,0.0115034282207489,0.0156841520220041,0.0105857253074646,0,
00:00:01.368,-0.000471500243293121,0.0160555578768253,0.000134307105327025,0,
00:00:01.372,-0.00784231722354889,0.000340745144058019,-0.0178040191531181,0,
00:00:01.376,-0.0158103462308645,-0.0243483409285545,-0.00464440602809191,0,
00:00:01.38,0.00923525262624025,-0.00264135026372969,0.00745830126106739,0,
00:00:01.384,0.014977521263063,0.0313589684665203,0.0098832855001092,0,
00:00:01.388,-0.00181900267489254,0.00433720648288727,-0.013463263399899,0,
00:00:01.392,-0.00539723271504045,-0.0477326810359955,0.0021818745881319,0,
00:00:01.396,-0.0117330038920045,-0.00199962360784411,0.0048800534568727,0,
00:00:01.4,0.0094963489100337,0.0332628674805164,0.00036943654413335,0,
00:00:01.404,0.00801755022257566,0.0152172613888979,0.00770345749333501,0,
00:00:01.408,-0.00538523169234395,-0.0170681048184633,-0.00835480075329542,0,
00:00:01.412,0.00185966305434704,0.0110432971268892,-0.0150493578985333,0,
00:00:01.416,6.85140330460854E-05,-0.00276583712548018,0.0133731495589018,0,
00:00:01.42,-0.0106299156323075,-0.0330603830516338,0.0143471788614988,0,
00:00:01.424,0.00932467263191938,0.0229896921664476,-0.00799262057989836,0,
00:00:01.428,0.00942644570022821,0.0275599658489227,-0.0137448366731405,0,
00:00:01.432,-0.0207217168062925,-0.0549833327531815,0.00433378107845783,0,
00:00:01.436,-0.00752062629908323,-0.0310293324291706,0.00113998726010323,0,
00:00:01.44,0.00814970023930073,0.0354861170053482,-0.000818329164758325,0,
00:00:01.444,0.0213935263454914,0.0790371298789978,-0.000650799949653447,0,
00:00:01.448,0.00489880284294486,0.00269923429004848,0.00464694807305932,0,
00:00:01.452,-0.0095459558069706,-0.0666730403900146,0.00577545212581754,0,
00:00:01.456,-0.0129104405641556,-0.0200259797275066,0.00702183088287711,0,
00:00:01.46,-0.0119997328147292,0.00497992429882288,-0.00913824606686831,0,
00:00:01.464,0.011841656640172,0.0215464606881142,-0.000759273942094296,0,
00:00:01.468,0.00222444068640471,0.00108899606857449,-0.0152792166918516,0,
00:00:01.472,0.00411864230409265,0.000216955450014211,-0.0109890811145306,0,
00:00:01.476,0.015185184776783,0.00841442868113518,0.0186949893832207,0,
00:00:01.48,-0.0136632667854428,-0.0162853915244341,0.0134666869416833,0,
00:00:01.484,-0.0156619101762772,-0.0135418763384223,0.00524863181635737,0,
00:00:01.488,0.0106495209038258,0.0233407691121101,-0.00212828302755952,0,
00:00:01.492,0.00890910811722279,0.0194621700793505,-0.0101028736680746,0,
00:00:01.496,0.00271037872880697,0.0133356424048543,-0.0165171790868044,0,
00:00:01.5,-0.00876487884670496,-0.0279223471879959,0.0010992435272783,0,
00:00:01.504,-0.0173773653805256,-0.0571482665836811,0.00844191107898951,0,
00:00:01.508,0.00225267070345581,-0.0100207524374127,0.0161291304975748,0,
00:00:01.512,0.00241970736533403,0.0362154319882393,-0.00230785622261465,0,
00:00:01.516,0.025729039683938,0.072359137237072,-0.00721546309068799,0,
00:00:01.52,0.017009237781167,0.0168545357882977,-0.00524844182655215,0,
00:00:01.524,-0.0151006570085883,-0.0296495147049427,0.00483614113181829,0,
00:00:01.528,-0.0196131020784378,-0.0503074526786804,-0.00860251486301422,0,
00:00:01.532,-0.0148971946910024,-0.0344032235443592,-0.00892713945358992,0,
00:00:01.536,-0.00637157680466771,-0.00323422555811703,0.0207148119807243,0,
00:00:01.54,0.0259376857429743,0.0565683580935001,0.00376327731646597,0,
00:00:01.544,0.00804927013814449,0.0226575173437595,-0.00308325327932835,0,
00:00:01.548,-0.00317057780921459,-0.0101084373891354,-1.48004928632872E-05,0,
00:00:01.552,-0.00848904997110367,-0.040582712739706,-0.00243794755078852,0,
00:00:01.556,0.0079394169151783,0.0204954165965319,-0.0078746322542429,0,
00:00:01.56,0.00552377291023731,0.0248791500926018,-0.00501841679215431,0,
00:00:01.564,-0.0116082858294249,-0.00475361384451389,0.0189243275672197,0,
00:00:01.568,-0.00586419925093651,-0.0196484886109829,-0.009727549739182,0,
00:00:01.572,-0.0018861279822886,-0.0251040365546942,-0.00992715638130903,0,
00:00:01.576,0.00335424090735614,-0.00147240003570914,0.00682196673005819,0,
00:00:01.58,0.00936063751578331,0.0284723956137896,0.00762412464246154,0,
00:00:01.584,0.00398979056626558,0.0252974648028612,0.00694504380226135,0,
00:00:01.588,-0.00619476288557053,0.00153279991354793,-0.0118528362363577,0,
00:00:01.592,0.0117541486397386,-0.00645044026896358,-0.0112456744536757,0,
00:00:01.596,-0.026973458006978,-0.0643408372998238,0.0239827316254377,0,
00:00:01.6,-0.00962103251367807,0.00457559293136001,0.00360351009294391,0,
00:00:01.604,0.0213022846728563,0.0541249997913837,-0.0087396577000618,0,
00:00:01.608,0.0200204476714134,0.00520572764798999,-0.0125963976606727,0,
00:00:01.612,-0.00635201670229435,-0.0209246315062046,-0.0204232539981604,0,
00:00:01.616,-0.00496501009911299,0.014206662774086,0.00726468116044998,0,
00:00:01.62,-0.00844512786716223,-0.00599102070555091,0.0209575351327658,0,
00:00:01.624,-0.00953351240605116,-0.00775243155658245,0.0110764959827065,0,
00:00:01.628,0.00128045142628253,-0.0138082141056657,-0.00130938447546214,0,
00:00:01.632,0.00592442788183689,0.00849620345979929,-0.00556549290195107,0,
00:00:01.636,0.00965724978595972,0.0271795429289341,0.00729716941714287,0,
00:00:01.64,-0.00132708717137575,-0.0133483801037073,-0.0104976249858737,0,
00:00:01.644,-0.00565918628126383,-0.0377989076077938,-0.00591287016868591,0,
00:00:01.648,0.00385538837872446,0.000517819309607148,-0.00916863232851028,0,
00:00:01.652,-0.00267169298604131,0.0358970612287521,-0.00876227952539921,0,
00:00:01.656,-0.00852358434349298,-0.00298294704407454,0.0268306136131287,0,
00:00:01.66,0.0016017333837226,-0.00456899916753173,0.0107323667034507,0,
00:00:01.664,0.0184572599828243,0.0345328450202942,-0.0164745040237904,0,
00:00:01.668,-0.0129752727225423,-0.0296221189200878,-0.00645648315548897,0,
00:00:01.672,0.00407624803483486,-0.0215972997248173,0.0116025395691395,0,
00:00:01.676,0.00496262172237039,0.025484649464488,-0.0139337750151753,0,
00:00:01.68,-0.00577344419434667,-0.00216957577504218,0.00532813556492329,0,
00:00:01.684,-0.00361368805170059,0.00204561767168343,0.0132931610569358,0,
00:00:01.688,-0.00587730249390006,-0.0188484359532595,-0.00539271300658584,0,
00:00:01.692,0.00397620582953095,0.000312908348860219,-0.0129195656627417,0,
00:00:01.696,0.000296090060146526,0.00818108487874269,0.00562201626598835,0,
00:00:01.7,-0.00253647449426353,-0.0195931550115347,0.0106592355296016,0,
00:00:01.704,0.0168260540813208,0.0160252172499895,5.32682452103472E-06,0,
00:00:01.708,0.00355787319131196,0.0192263182252645,-0.0114451898261905,0,
00:00:01.712,-0.019498348236084,0.0038392161950469,0.000752061489038169,0,
00:00:01.716,-0.00393285509198904,0.00417852541431785,0.00669019902125001,0,
00:00:01.72,-0.00063702609622851,-0.0125636542215943,-0.00701574236154556,0,
00:00:01.724,0.0130473840981722,-0.0122012542560697,-0.0038395719602704,0,
00:00:01.728,0.00870777573436499,-0.00324109452776611,0.00396484276279807,0,
00:00:01.732,-0.00617407495155931,-0.0111537240445614,0.00259552476927638,0,
00:00:01.736,-0.0163163430988789,-0.0289217513054609,8.5432329797186E-05,0,
00:00:01.74,-0.000349528825609013,0.0330226048827171,0.0114571284502745,0,
00:00:01.744,0.0129788462072611,0.0627919659018517,-0.0063165738247335,0,
00:00:01.748,0.00282132718712091,-0.00732890283688903,-0.0073302099481225,0,
00:00:01.752,-0.00587109895423055,-0.0470449104905128,-0.00273124314844608,0,
00:00:01.756,0.00335748493671417,-0.00694908387959003,0.0139096677303314,0,
00:00:01.76,0.00365875824354589,-0.00593992043286562,-0.00459329877048731,0,
00:00:01.764,-0.00780604360625148,0.00630227196961641,-0.0133657269179821,0,
00:00:01.768,-0.0110252490267158,0.00177368964068592,-0.00144794245716184,0,
00:00:01.772,0.0128956576809287,0.0215056911110878,0.00377055117860436,0,
00:00:01.776,0.00691951951012015,0.000831558951176703,0.0129920272156596,0,
00:00:01.78,-0.0047211404889822,-0.00205933721736073,0.00991643778979778,0,
00:00:01.784,-0.00464580208063126,0.00461612455546856,-0.0150053128600121,0,
00:00:01.788,-0.00125666847452521,-0.0283725559711456,-0.00404352974146605,0,
00:00:01.792,0.00760458223521709,0.00431137625128031,0.000492685358040035,0,
00:00:01.796,-0.00380369601771235,0.00892452709376812,0.00163730746135116,0,
00:00:01.8,0.00274037150666118,0.0124420076608658,0.00333430268801749,0,
00:00:01.804,-0.00409901468083262,-0.0191296692937613,-0.00564654916524887,0,
00:00:01.808,0.0054124603047967,0.0086637306958437,-0.00196075695566833,0,
00:00:01.812,-0.0119310664013028,-0.0152644282206893,0.00877662003040314,0,
00:00:01.816,-0.00476373732089996,0.000518673157785088,0.00427744910120964,0,
00:00:01.82,-0.0016908812103793,-0.00096570752793923,-0.00196604081429541,0,
00:00:01.824,0.0243230517953634,0.0213462598621845,-0.000628440582659096,0,
00:00:01.828,0.00926561094820499,0.0126318000257015,-0.00792981311678886,0,
00:00:01.832,-0.00990769825875759,0.00856935232877731,-0.00888438336551189,0,
00:00:01.836,-0.0118788257241249,-0.00964011624455452,0.000325022032484412,0,
00:00:01.84,-0.00203776080161333,-0.0263811629265547,0.00675549451261759,0,
00:00:01.844,0.00458027049899101,-0.0167119149118662,-0.000971113156992942,0,
00:00:01.848,-0.0114607345312834,0.00776039389893413,0.0160537362098694,0,
00:00:01.852,-0.000805502815637738,0.0335312001407146,0.00255190534517169,0,
00:00:01.856,-0.00159900891594589,-0.0382412225008011,0.000995502807199955,0,
00:00:01.86,0.0135470507666469,-0.0259529575705528,-0.00242659728974104,0,
00:00:01.864,0.0211947448551655,0.0632422938942909,-0.0173002872616053,0,
00:00:01.868,0.000713145185727626,0.0288402084261179,-0.0035405270755291,0,
00:00:01.872,-0.0205377228558064,-0.0124759944155812,-0.0106312101706862,0,
00:00:01.876,-0.00782529823482037,-0.0257724449038506,0.00889111217111349,0,
00:00:01.88,0.00295759760774672,-0.0238792151212692,0.0123914256691933,0,
00:00:01.884,-0.00399571377784014,0.00367585779167712,0.0011549461632967,0,
00:00:01.888,0.00163155375048518,0.00392654305323958,0.00450636213645339,0,
00:00:01.892,-0.00463612144812942,0.00674044713377953,-0.00305361347272992,0,
00:00:01.896,0.00474035507068038,-0.00816198159009218,0.00962656456977129,0,
00:00:01.9,0.0117484936490655,-0.0203178394585848,-0.00449549732729793,0,
00:00:01.904,0.0094167273491621,0.0425197891891003,-0.00293615413829684,0,
00:00:01.908,-0.00425683986395597,0.0279860440641642,-0.0147097101435065,0,
00:00:01.912,-0.0154192252084613,-0.0129750026389956,-0.010826600715518,0,
00:00:01.916,-0.00131726334802806,-0.0214197766035795,0.00528536550700665,0,
00:00:01.92,0.0128267910331488,-0.0182110834866762,0.0154924038797617,0,
00:00:01.924,-0.0180918835103512,-0.0282964799553156,-0.0032161483541131,0,
00:00:01.928,-0.00571351312100887,0.0311039332300425,0.00572776515036821,0,
00:00:01.932,0.015221256762743,0.0317483879625797,0.0187031794339418,0,
00:00:01.936,0.0134026790037751,-0.00369267235510051,-0.00170366989914328,0,
00:00:01.94,-0.00474422238767147,-0.0255200378596783,-0.0309561230242252,0,
00:00:01.944,-0.00513458484783769,0.0126354563981295,-0.00487709231674671,0,
00:00:01.948,-0.0057520498521626,-0.006837397813797,0.00378864631056786,0,
00:00:01.952,0.000500510912388563,-0.00278886104933918,0.00312513369135559,0,
00:00:01.956,0.00407494511455297,0.0159757565706968,0.0100628258660436,0,
00:00:01.96,-0.000550804485101253,-0.0044408137910068,0.00600874330848455,0,
00:00:01.964,0.000818732311017811,-0.0211202073842287,0.00817572977393866,0,
00:00:01.968,-0.00248907622881234,-0.00768572837114334,-0.0159185752272606,0,
00:00:01.972,0.000729016086552292,0.0341833606362343,-0.0110765937715769,0,
00:00:01.976,-0.00566388294100761,-0.00649211602285504,0.00393202947452664,0,
00:00:01.98,-0.000469465565402061,-0.00891282316297293,0.00454424554482102,0,
00:00:01.984,0.00829240307211876,-0.00137498241383582,0.0121020926162601,0,
00:00:01.988,0.00709578674286604,0.0227000433951616,-0.00602964824065566,0,
00:00:01.992,-0.000359360506990924,0.00347239570692182,-0.00254181725904346,0,
00:00:01.996,-0.00725490320473909,-0.0159159526228905,-0.00806413218379021,0,
00:00:02,-0.00351162487640977,-0.0169035270810127,-0.00154225737787783,0,
00:00:02.004,-0.00542567390948534,-0.0118108820170164,0.0125742014497519,0,
00:00:02.008,0.000103431004390586,0.00648347567766905,0.00186464784201235,0,
00:00:02.012,0.0104882717132568,0.0197521019726992,-0.00910538341850042,0,
00:00:02.016,-0.00117124535609037,0.00697303749620914,0.00248640007339418,0,
00:00:02.02,-0.0084662577137351,0.0052903899922967,0.0133633716031909,0,
00:00:02.024,0.0158413462340832,-0.0330721065402031,-0.00533370720222592,0,
00:00:02.028,-0.00199810229241848,0.0146250519901514,-0.0137115251272917,0,
00:00:02.032,-0.00652689952403307,0.0172869544476271,-0.0143617885187268,0,
00:00:02.036,-0.00240718480199575,0.00265851942822337,0.0106598706915975,0,
00:00:02.04,0.00136510981246829,-0.00229186564683914,0.0133515056222677,0,
00:00:02.044,-0.003841333091259,-0.0229002609848976,0.00243582320399582,0,
00:00:02.048,-0.00102791888639331,-0.00967140309512615,0.00100969651248306,0,
00:00:02.052,-0.00402447488158941,-0.000534601975232363,0.000397706258809194,0,
00:00:02.056,0.0153734805062413,0.0136317489668727,-0.00297301518730819,0,
00:00:02.06,-0.00291087292134762,0.0139771597459912,-0.00842890329658985,0,
00:00:02.064,-0.0123814698308706,-0.0122270137071609,0.0132975168526173,0,
00:00:02.068,0.0112398564815521,-0.000612444942817092,-0.00320715410634875,0,
00:00:02.072,0.0145405679941177,0.0304062627255917,-0.0165065191686153,0,
00:00:02.076,-0.000221033595153131,-0.00196567596867681,-0.00808742921799421,0,
00:00:02.08,-0.0168084595352411,-0.0298365242779255,0.00957479141652584,0,
00:00:02.084,-0.0116715403273702,-0.000412429915741086,0.0137121062725782,0,
00:00:02.088,0.00288621964864433,0.000822785485070199,-0.00408014329150319,0,
00:00:02.092,-0.00439593242481351,-0.014414113946259,0.00400507170706987,0,
00:00:02.096,0.0057458053342998,-0.0129045424982905,0.00650478573516011,0,
00:00:02.1,0.0174339152872562,0.0381762385368347,-0.00112598109990358,0,
00:00:02.104,0.0047031519934535,0.0386864021420479,-0.00854009110480547,0,
00:00:02.108,0.00958412326872349,-0.00549373496323824,-0.0150090111419559,0,
00:00:02.112,-0.0404949262738228,-0.0945268869400024,0.00192908686585724,0,
00:00:02.116,-0.0182618666440248,-0.00673546735197306,0.0250610765069723,0,
00:00:02.12,0.0295246932655573,0.0782563090324402,0.00395045429468155,0,
00:00:02.124,0.0321048647165298,0.0434208586812019,-0.0200487915426493,0,
00:00:02.128,-0.00172269123140723,-0.0147985350340605,-0.0123827299103141,0,
00:00:02.132,-0.0143194142729044,-0.0357126854360104,-0.00317867030389607,0,
00:00:02.136,-0.0256844907999039,-0.0388348214328289,0.0104668876156211,0,
00:00:02.14,-0.0152079463005066,-0.018615921959281,0.0202460456639528,0,
00:00:02.144,0.0197066720575094,0.0219287686049938,0.00888290349394083,0,
00:00:02.148,0.023180702701211,0.0348400510847569,-0.0167122427374125,0,
00:00:02.152,-0.00148094329051673,0.0132229309529066,-0.0132970688864589,0,
00:00:02.156,-0.0116993244737387,-0.0153970401734114,0.00159970438107848,0,
00:00:02.16,0.00260838493704796,0.00999522861093283,0.00521802483126521,0,
00:00:02.164,0.00607321131974459,0.00684767635539174,0.00369034381583333,0,
00:00:02.168,-0.00547431921586394,-0.0285496916621923,0.0030272186268121,0,
00:00:02.172,-0.0105145219713449,-0.0301081407815218,-0.00295108184218407,0,
00:00:02.176,-0.00704692304134369,0.019860127940774,-0.00526855001226068,0,
00:00:02.18,0.0102264638990164,0.025151064619422,0.00482897879555821,0,
00:00:02.184,0.0118901804089546,0.00759752234444022,-0.00179449399001896,0,
00:00:02.188,0.00346737564541399,-0.00295300339348614,-0.00384882162325084,0,
00:00:02.192,-0.00379129103384912,-0.0175083819776773,0.00196909951046109,0,
00:00:02.196,-0.0144986202940345,-0.00288322800770402,-0.00129666889552027,0,
00:00:02.2,0.00126473081763834,0.00642346404492855,0.00962409842759371,0,
00:00:02.204,0.00303739588707685,0.00100611406378448,-0.000759699440095574,0,
00:00:02.208,0.0179567225277424,0.000658737611956894,-0.0101766511797905,0,
00:00:02.212,-0.00535282585769892,-0.0158558506518602,0.00693644862622023,0,
00:00:02.216,-0.0169177390635014,-0.000538443215191364,-0.00212240917608142,0,
00:00:02.22,-0.0173727031797171,0.00564949400722981,0.00199957354925573,0,
00:00:02.224,0.0097776735201478,0.0166773367673159,0.0043934634886682,0,
00:00:02.228,0.03118996322155,0.0274990070611238,-0.0097119715064764,0,
00:00:02.232,0.00753048807382584,-0.00518421689048409,-0.00123238703235984,0,
00:00:02.236,-0.0175512637943029,-0.053113080561161,-0.00429630745202303,0,
00:00:02.24,-0.0163258221000433,-0.0114273726940155,0.00397370755672455,0,
00:00:02.244,0.00689631467685103,0.0314494557678699,0.0184429921209812,0,
00:00:02.248,0.00663703074678779,0.0259105209261179,-0.0121793262660503,0,
00:00:02.252,0.000809813034720719,0.0139623582363129,-0.0012709031580016,0,
00:00:02.256,-0.00509520340710878,-0.042827844619751,-0.00362836685962975,0,
00:00:02.26,-0.0221739858388901,-0.0578720606863499,-0.00044353655539453,0,
00:00:02.264,0.0176931340247393,0.0529546514153481,0.0043077333830297,0,
00:00:02.268,0.0190186500549316,0.0406339280307293,0.00281765288673341,0,
00:00:02.272,0.00214655278250575,0.00210745492950082,0.00212004943750799,0,
00:00:02.276,-0.0117918085306883,-0.0359980762004852,-0.00779676577076316,0,
00:00:02.28,-0.0051777632907033,-0.0112836519256234,0.00667122565209866,0,
00:00:02.284,-0.00424342043697834,0.0104246977716684,-0.00805098097771406,0,
00:00:02.288,0.00171398662496358,0.0136921219527721,-0.0102488705888391,0,
00:00:02.292,0.00467629730701447,0.00475828582420945,0.0166872050613165,0,
00:00:02.296,-0.00659520272165537,-0.0120559055358171,0.0168194118887186,0,
00:00:02.3,-0.00154043023940176,-0.0137395681813359,-0.00946776662021875,0,
00:00:02.304,0.0145005453377962,0.00635931687429547,-0.0235104821622372,0,
00:00:02.308,-0.000221281923586503,-0.000788783014286309,0.00307521922513843,0,
00:00:02.312,-0.00466342363506556,-0.00173329759854823,0.00884108524769545,0,
00:00:02.316,-0.0121267884969711,-0.00569158839061856,0.00152465817518532,0,
00:00:02.32,0.00242379237897694,0.0129127465188503,0.00479644956067204,0,
00:00:02.324,0.0153769999742508,0.0398323200643063,0.00522648263722658,0,
00:00:02.328,0.00778076285496354,0.0016902310308069,-0.0126298386603594,0,
00:00:02.332,-0.0275717489421368,-0.0424411781132221,-0.000808094628155231,0,
00:00:02.336,0.0114806033670902,-0.0335981622338295,0.000154610170284286,0,
00:00:02.34,0.0160877909511328,0.01995306648314,-0.00253793923184276,0,
00:00:02.344,-0.0128642562776804,0.027806531637907,0.0038504796102643,0,
00:00:02.348,-0.0122310938313603,-0.0067177158780396,0.0024101275485009,0,
00:00:02.352,0.00141193100716919,-0.0075738625600934,0.0103694507852197,0,
00:00:02.356,-0.0012951745884493,-0.0172246396541595,-0.00268481997773051,0,
00:00:02.36,0.00347661296837032,0.00503703346475959,-0.00453711254522204,0,
00:00:02.364,-0.000232418402447365,0.0120910694822669,-0.0048559489659965,0,
00:00:02.368,0.0106034390628338,0.0258438158780336,-0.00298090069554746,0,
00:00:02.372,0.0146599877625704,-0.000485526194097474,0.00171685637906194,0,
00:00:02.376,-0.00466993264853954,0.00794687587767839,-0.00249817850999534,0,
00:00:02.38,-0.0116330236196518,-0.00778972683474422,-0.00997227989137173,0,
00:00:02.384,-0.00930527970194817,-0.06136105209589,0.0128949452191591,0,
00:00:02.388,-0.00529551180079579,0.00702934386208653,0.0135390749201179,0,
00:00:02.392,-0.00427195196971297,-0.00427546165883541,-0.00141432299278677,0,
00:00:02.396,0.00978403352200985,0.0122654521837831,-0.00190002855379134,0,
00:00:02.4,0.0125368125736713,0.0528064258396626,-0.00899787060916424,0,
00:00:02.404,0.0112423617392778,0.00450330413877964,-0.00121496571227908,0,
00:00:02.408,-0.00637383107095957,-0.0114486403763294,0.000328320515109226,0,
00:00:02.412,-0.0127865308895707,-0.000345839973306283,-0.00180408067535609,0,
00:00:02.416,-0.0135343577712774,-0.0390985570847988,-0.00199017790146172,0,
00:00:02.42,-0.00233808369375765,-0.0205024629831314,0.00381449819542468,0,
00:00:02.424,0.0172000247985125,0.0270994305610657,0.00794848240911961,0,
00:00:02.428,0.0285568330436945,0.0295122675597668,0.00378495175391436,0,
00:00:02.432,-0.0188974440097809,-0.0190340075641871,-0.0202458817511797,0,
00:00:02.436,-0.0214930698275566,-0.00716758007183671,-0.00121011992450804,0,
00:00:02.44,0.00670628342777491,0.0170640554279089,0.00766369048506022,0,
00:00:02.444,0.00363954761996865,0.0065423296764493,0.0244210343807936,0,
00:00:02.448,-0.00469445716589689,-0.0128257311880589,-0.00803896598517895,0,
00:00:02.452,6.12381991231814E-05,-0.0157231818884611,-0.0200013034045696,0,
00:00:02.456,0.0211151652038097,0.010893177241087,-0.00806568283587694,0,
00:00:02.46,-0.00875591859221458,-0.0281253438442945,0.0191137436777353,0,
00:00:02.464,-0.0187950655817986,-0.00110550096724182,0.00205247336998582,0,
00:00:02.468,0.000367432687198743,0.0476753748953342,0.000611987605225295,0,
00:00:02.472,0.0195103511214256,0.02851034514606,-0.00311540998518467,0,
00:00:02.476,0.00912890955805779,-0.0224172454327345,-0.0167228356003761,0,
00:00:02.48,-0.00409293454140425,-0.0132376821711659,0.00490399729460478,0,
00:00:02.484,-0.0141317052766681,-0.011314133182168,0.00719029596075416,0,
00:00:02.488,-0.0126837594434619,-0.018013471737504,0.005476756952703,0,
00:00:02.492,-0.000206793934921734,-0.0234662741422653,0.00609051622450352,0,
00:00:02.496,0.0124189201742411,0.00706019345670938,0.00321742473170161,0,
00:00:02.5,0.0136047573760152,0.0430015288293362,-0.0116673596203327,0,
00:00:02.504,-0.00179979077074677,0.0362582467496395,-0.0154019882902503,0,
00:00:02.508,-0.0003174192388542,0.00576162803918123,0.00410953909158707,0,
00:00:02.512,-0.00493203615769744,-0.0326403081417084,0.0106261996552348,0,
00:00:02.516,-0.0313998721539974,-0.0879769772291183,0.0057587786577642,0,
00:00:02.52,0.00702644372358918,0.027018841356039,-0.00253131752833724,0,
00:00:02.524,0.0268919505178928,0.0603080950677395,-0.005942577496171,0,
00:00:02.528,0.0203008484095335,0.0237637292593718,-0.00647974805906415,0,
00:00:02.532,0.00583903631195426,-0.00683800922706723,0.0115391863510013,0,
00:00:02.536,-0.0406013317406178,-0.03282705321908,0.0042695957235992,0,
00:00:02.54,-0.0276084933429956,-0.0336174480617046,-0.00641548307612538,0,
00:00:02.544,0.018045537173748,0.0184072908014059,-0.00282002426683903,0,
00:00:02.548,0.0262154061347246,0.0270938333123922,-0.00251826434396207,0,
00:00:02.552,5.63526773476042E-05,-0.0107632614672184,0.00690820626914501,0,
00:00:02.556,-0.00550331035628915,-0.0116034774109721,-0.00748222600668669,0,
00:00:02.56,0.00260743102990091,0.00445163249969482,0.00356344156898558,0,
00:00:02.564,0.00376587733626366,0.0164246987551451,0.0164379570633173,0,
00:00:02.568,-0.0159322172403336,-0.00297419191338122,-0.0170197747647762,0,
00:00:02.572,0.00470902537927032,0.00810781214386225,-0.0115462569519877,0,
00:00:02.576,-0.00407426105812192,-0.0113161848857999,0.00970906484872103,0,
00:00:02.58,-0.00507125025615096,-0.0135418931022286,0.00906597636640072,0,
00:00:02.584,0.0132773881778121,0.0122930416837335,0.00219872640445828,0,
00:00:02.588,0.00366862001828849,-0.0158456675708294,-0.00930388644337654,0,
00:00:02.592,-0.00584030942991376,-0.0330682322382927,-0.00691363122314215,0,
00:00:02.596,0.00479115359485149,0.0351226925849915,0.0138793755322695,0,
00:00:02.6,-0.00321648688986897,0.0524077564477921,0.00868524890393019,0,
00:00:02.604,-0.00385945290327072,-0.00810917373746634,-0.0119563760235906,0,
00:00:02.608,0.000460462179034948,-0.0148738380521536,-0.016262898221612,0,
00:00:02.612,0.000752323132473975,-0.0227425694465637,-0.00424793642014265,0,
00:00:02.616,-0.0102063789963722,-0.0303615983575583,0.0232071746140718,0,
00:00:02.62,0.00556132476776838,0.00233680778183043,0.0151500143110752,0,
00:00:02.624,0.00580840837210417,0.0282639265060425,-0.0149674573913217,0,
00:00:02.628,0.0122522199526429,0.0307546351104975,-0.0128596117720008,0,
00:00:02.632,0.00971603021025658,0.00431331526488066,0.00379598559811711,0,
00:00:02.636,-0.0196090843528509,-0.0260009616613388,0.00322376564145088,0,
00:00:02.64,-0.0243308674544096,-0.0367110408842564,0.00397588312625885,0,
00:00:02.644,0.0067957965657115,0.00937864743173122,-0.00558449234813452,0,
00:00:02.648,0.00474633276462555,0.0264730509370565,-0.00428474647924304,0,
00:00:02.652,0.011887357570231,0.00957766640931368,0.0166496485471725,0,
00:00:02.656,0.0158263649791479,0.00379131943918765,0.00389108480885625,0,
00:00:02.66,0.000888848677277565,-0.00492575997486711,-0.0128571139648557,0,
00:00:02.664,-0.0207276977598667,-0.0255194213241339,-0.0178356450051069,0,
00:00:02.668,-0.00836837571114302,-0.0124354576691985,0.000452387757832184,0,
00:00:02.672,0.00926678348332644,0.0337814651429653,0.0211280230432749,0,
00:00:02.676,-0.0151529181748629,-0.018551878631115,0.00734946830198169,0,
00:00:02.68,0.00412115408107638,0.00135117943864316,0.00375325907953084,0,
00:00:02.684,0.0218692570924759,0.017262876033783,-0.00598238781094551,0,
00:00:02.688,0.00752384914085269,0.00560538796707988,-0.0245017483830452,0,
00:00:02.692,-0.00304052862338722,0.00809703022241592,0.00223775347694755,0,
00:00:02.696,-0.0138957155868411,-0.0198485851287842,0.0050958632491529,0,
00:00:02.7,-0.0115535920485854,-0.0368518084287643,0.0107670743018389,0,
00:00:02.704,-0.00351894623599947,0.0289405006915331,0.00726814940571785,0,
00:00:02.708,0.00982620380818844,0.0171480625867844,-0.0137047450989485,0,
00:00:02.712,0.00486843613907695,-0.00703280884772539,-0.000493062601890415,0,
00:00:02.716,0.0114005403593183,-0.0122648114338517,0.00981827359646559,0,
00:00:02.72,0.00385596649721265,0.00158773432485759,-0.00311507890000939,0,
00:00:02.724,-0.00435613188892603,0.0201564226299524,-0.00228740973398089,0,
00:00:02.728,-0.020200464874506,-0.00974616501480341,0.00672314688563347,0,
00:00:02.732,-0.0152333974838257,-0.0127148628234863,-0.00857924018055201,0,
00:00:02.736,0.0103878621011972,0.00539162429049611,-0.0126538164913654,0,
00:00:02.74,0.0174968279898167,-0.00072713172994554,0.00997323635965586,0,
00:00:02.744,0.0136763295158744,-0.00347866653464735,0.00292421667836607,0,
00:00:02.748,-0.000304398126900196,0.0250158235430717,-0.000391946494346485,0,
00:00:02.752,-0.017641618847847,-0.0142061822116375,0.00743264192715287,0,
00:00:02.756,-0.00642165634781122,-0.019677922129631,0.00446692993864417,0,
00:00:02.76,0.0027684522792697,0.0141911637037992,-0.00315525475889444,0,
00:00:02.764,-0.0045683472417295,0.00108331849332899,-0.0171262472867966,0,
00:00:02.768,0.00982696376740932,0.0123745864257216,0.000231490965234116,0,
00:00:02.772,0.00664581777527928,-0.0169225409626961,0.00820225849747658,0,
00:00:02.776,-0.00219757156446576,-0.00658195838332176,0.00131455308292061,0,
00:00:02.78,-0.00222375406883657,0.018921846523881,0.00870426557958126,0,
00:00:02.784,-0.00490485830232501,0.0194053649902344,-0.00311341835185885,0,
00:00:02.788,-0.0147733436897397,-0.0270826704800129,-0.014157303608954,0,
00:00:02.792,0.0146855181083083,-0.0298774465918541,-2.17961005546385E-05,0,
00:00:02.796,0.0163821056485176,0.0200535766780376,0.00791736599057913,0,
00:00:02.8,-0.00855549611151218,0.0329198054969311,-0.00271234707906842,0,
00:00:02.804,-0.00520054157823324,-0.0142220305278897,0.0107700591906905,0,
00:00:02.808,0.00560994260013103,-0.0369260832667351,0.010421053506434,0,
00:00:02.812,-0.00853950716555119,0.0193389914929867,-0.00788186118006706,0,
00:00:02.816,-0.00585775636136532,0.0464938841760159,-0.0182513035833836,0,
00:00:02.82,0.00465163914486766,-0.00683993846178055,-0.00367886130698025,0,
00:00:02.824,-0.00163370673544705,-0.0422845780849457,-0.000142124568810686,0,
00:00:02.828,-0.000842194946017116,-0.0277310330420733,0.00362078449688852,0,
00:00:02.832,0.00569477258250117,0.00960083305835724,0.00927919708192348,0,
00:00:02.836,0.00924969837069511,0.0385564602911472,0.0085604228079319,0,
00:00:02.84,0.00178730592597276,0.0140296816825867,0.00537237711250782,0,
00:00:02.844,-0.00673235533758998,-0.00204977486282587,-0.0062812059186399,0,
00:00:02.848,-0.00851913541555405,-0.00943765975534916,-0.00690613314509392,0,
00:00:02.852,0.00135679438244551,-0.00758078787475824,-0.0140319932252169,0,
00:00:02.856,0.000511974969413131,-0.0161280259490013,-0.00503931334242225,0,
00:00:02.86,0.00314951105974615,-0.00750684784725308,0.0150964595377445,0,
00:00:02.864,-0.0068385498598218,-0.00489183748140931,0.0135288201272488,0,
00:00:02.868,0.00739829055964947,0.0253971014171839,-0.00426307413727045,0,
00:00:02.872,0.00523729156702757,0.0261464063078165,-0.0107950940728188,0,
00:00:02.876,0.00171539129223675,0.00186730572022498,0.0130186518654227,0,
00:00:02.88,-0.0202007479965687,-0.0445730276405811,-0.00423465296626091,0,
00:00:02.884,-0.00197501922957599,-0.0215826034545898,-0.00940025877207518,0,
00:00:02.888,0.0255092512816191,0.0442054718732834,-0.00607564114034176,0,
00:00:02.892,0.0128736877813935,0.0287542305886745,-0.00015971674292814,0,
00:00:02.896,-0.021573243662715,-0.0190042108297348,0.0102926893159747,0,
00:00:02.9,-0.0206964276731014,-0.0357751026749611,0.0116343256086111,0,
00:00:02.904,0.0102799842134118,-0.00707194115966558,-0.00482905702665448,0,
00:00:02.908,0.0136157302185893,0.0389752499759197,-0.0128664085641503,0,
00:00:02.912,-0.00439606932923198,-0.0135830929502845,0.00274109444580972,0,
00:00:02.916,-0.0108586736023426,-0.00286842323839664,0.0177742093801498,0,
00:00:02.92,0.0034567026887089,0.0194318201392889,-0.00713212555274367,0,
00:00:02.924,0.015620113350451,0.00234168209135532,-0.00614265818148851,0,
00:00:02.928,0.00940915383398533,-0.0169178396463394,-0.00458245817571878,0,
00:00:02.932,-0.00743647757917643,-0.0358400270342827,-0.0184488873928785,0,
00:00:02.936,-0.0187200885266066,0.0192913338541985,0.0124493595212698,0,
00:00:02.94,-0.00688982848078012,0.0297069754451513,0.0193394366651773,0,
00:00:02.944,-0.00745009863749146,-0.0129484832286835,0.00285402406007051,0,
00:00:02.948,0.0107458755373955,-0.0012261209776625,-0.000996448565274477,0,
00:00:02.952,0.0203528013080359,0.00882790423929691,-0.0124870324507356,0,
00:00:02.956,0.00659807957708836,-0.00200508092530072,-0.00745041901245713,0,
00:00:02.96,-5.05286516272463E-05,0.0135918743908405,0.00658155605196953,0,
00:00:02.964,-0.0102006094530225,-0.0112155005335808,-0.00526901893317699,0,
00:00:02.968,-0.0224708449095488,-0.0486626401543617,-0.000114913622383028,0,
00:00:02.972,0.00506227416917682,0.00245161796920002,0.0176755450665951,0,
00:00:02.976,0.0105688283219934,0.0508703142404556,0.0168983321636915,0,
00:00:02.98,0.00854132510721684,0.0257243756204844,-0.0305486749857664,0,
00:00:02.984,0.0028746142052114,-0.00361144589260221,-0.0238076150417328,0,
00:00:02.988,-0.00431585498154163,-0.0402056761085987,0.0225426759570837,0,
00:00:02.992,-0.0129951955750585,-0.0373670943081379,0.0016237439122051,0,
00:00:02.996,-0.0175459291785955,0.00582498405128717,0.00324798654764891,0,
00:00:03,0.0132988626137376,0.0269374996423721,0.0161327496170998,0,
00:00:03.004,0.0291997212916613,0.0205070674419403,0.000456834735814482,0,
00:00:03.008,0.0025436885189265,0.0143263805657625,-0.00776773085817695,0,
00:00:03.012,-0.0109437704086304,0.011886402964592,-0.0190880224108696,0,
00:00:03.016,-0.0101578254252672,-0.0248279329389334,-0.012029780074954,0,
00:00:03.02,-0.0149605963379145,-0.0393311157822609,0.0106037054210901,0,
00:00:03.024,-7.66723896958865E-05,0.00578844035044312,0.0195855833590031,0,
00:00:03.028,0.0146630126982927,0.0217893235385418,-0.00291603966616094,0,
00:00:03.032,0.00320243649184704,-0.0101390462368727,-0.00102809583768249,0,
00:00:03.036,0.0022215573117137,0.0131573993712664,-0.00356478430330753,0,
00:00:03.04,-0.00439500994980335,-0.00451284321025014,-0.00404188456013799,0,
00:00:03.044,0.00408676965162158,-0.000688246800564229,0.0144719965755939,0,
00:00:03.048,-0.00297527853399515,0.00192564283497632,-0.00500501878559589,0,
00:00:03.052,-0.000746627920307219,0.0144789358600974,-0.0146903321146965,0,
00:00:03.056,0.00565104698762298,0.00956146232783794,-0.00486616417765617,0,
00:00:03.06,-0.010673220269382,-0.0386965982615948,0.0112668089568615,0,
00:00:03.064,-0.00132669520098716,-0.0131484577432275,0.0108271678909659,0,
00:00:03.068,-0.0013734680833295,0.0104724643751979,-0.00667311949655414,0,
00:00:03.072,0.015444153919816,0.0328135788440704,0.00490679312497377,0,
00:00:03.076,-0.000755498826038092,0.00744659127667546,-0.00595876341685653,0,
00:00:03.08,-0.0246650017797947,-0.0228018686175346,-0.0133597496896982,0,
00:00:03.084,0.0108757261186838,-0.0174446031451225,0.00908451434224844,0,
00:00:03.088,0.0131861018016934,-0.0150652667507529,0.00676926504820585,0,
00:00:03.092,0.0106137683615088,0.0405697785317898,0.00822365190833807,0,
00:00:03.096,-0.00531773595139384,0.0233992747962475,-0.0116643002256751,0,
00:00:03.1,-0.0215559005737305,-0.00721950875595212,-0.00380231044255197,0,
00:00:03.104,-0.0236410293728113,-0.0303849745541811,0.00470718136057258,0,
00:00:03.108,0.0293081272393465,-0.0276742521673441,0.00228413613513112,0,
00:00:03.112,0.0458947792649269,0.0196056682616472,-0.0158088244497776,0,
00:00:03.116,-0.0192192271351814,0.014336165972054,0.00288243242539465,0,
00:00:03.12,-0.0376543812453747,0.0129684032872319,0.0195819418877363,0,
00:00:03.124,-0.0138343097642064,-0.00991622917354107,0.00137469731271267,0,
00:00:03.128,0.00332557992078364,-0.0148040726780891,-0.00607919227331877,0,
00:00:03.132,0.0178151223808527,0.0107286423444748,-0.00419390993192792,0,
00:00:03.136,0.0265770219266415,0.0127907451242208,-0.00512450048699975,0,
00:00:03.14,0.00529457908123732,0.000314675125991926,-0.00355878262780607,0,
00:00:03.144,-0.0246024411171675,-0.0270997639745474,0.0100463684648275,0,
00:00:03.148,-0.00225815898738801,0.00439914921298623,-0.00330905034206808,0,
00:00:03.152,-0.000185767319635488,0.00974213611334562,-0.00455765798687935,0,
00:00:03.156,0.000437630951637402,0.00721431523561478,0.00301220291294158,0,
00:00:03.16,0.00271137757226825,-0.000306133326375857,0.00442502414807677,0,
00:00:03.164,-0.00547894602641463,-0.023477191105485,0.0149164702743292,0,
00:00:03.168,0.00490785948932171,0.0211843680590391,-0.00577479973435402,0,
00:00:03.172,0.00560190295800567,0.0190194360911846,-0.0175543259829283,0,
00:00:03.176,-0.01466297917068,-0.0661298781633377,-0.0183852594345808,0,
00:00:03.18,0.00572409899905324,0.0235426761209965,0.0214008688926697,0,
00:00:03.184,0.00925568491220474,0.0492638424038887,0.0128298662602901,0,
00:00:03.188,0.0024335109628737,-0.00499903038144112,-0.00445118080824614,0,
00:00:03.192,-0.0056526018306613,-0.0219501741230488,0.00302448123693466,0,
00:00:03.196,-0.00957250222563744,0.00591774564236403,-0.00329538714140654,0,
00:00:03.2,0.00186679686885327,-0.0180467627942562,-0.0133413700386882,0,
00:00:03.204,0.0125596076250076,-0.022866940125823,0.00660297181457281,0,
00:00:03.208,-0.0052145728841424,0.0209035817533731,-0.000167529477039352,0,
00:00:03.212,-0.00410730112344027,0.0181405339390039,0.0024000508710742,0,
00:00:03.216,-0.00790995080024004,-0.0127049777656794,-0.000306643429212272,0,
00:00:03.22,0.0105374772101641,0.0242803227156401,0.00432982761412859,0,
00:00:03.224,-0.00373774883337319,0.00362140499055386,-0.00112075416836888,0,
00:00:03.228,-0.0389397107064724,-0.0413276106119156,-0.000447433150839061,0,
00:00:03.232,0.033968411386013,-7.77058958192356E-05,0.00250009912997484,0,
00:00:03.236,0.101698935031891,0.0133203146979213,-0.0121080512180924,0,
00:00:03.24,-0.0295233521610498,0.0257518365979195,-0.00885142851620913,0,
00:00:03.244,-0.103985160589218,-0.00791758019477129,0.0144874323159456,0,
00:00:03.248,-0.0295563861727715,-0.0179268606007099,0.0133417993783951,0,
00:00:03.252,0.0322097912430763,-0.00581934535875916,-0.00676056556403637,0,
00:00:03.256,0.0284099541604519,0.00735950656235218,-0.00308635598048568,0,
00:00:03.26,0.0268020499497652,0.012809063307941,-0.00194535963237286,0,
00:00:03.264,0.0129883568733931,-0.00819129962474108,0.000880286446772516,0,
00:00:03.268,-0.0172253493219614,-0.0110123213380575,-0.00236588250845671,0,
00:00:03.272,-0.0212183389812708,0.0140369357541203,-0.0096590556204319,0,
00:00:03.276,-0.0341657586395741,-0.00472754240036011,0.00835040584206581,0,
00:00:03.28,0.0369377434253693,-0.0264685079455376,0.0183973032981157,0,
00:00:03.284,0.0889670103788376,0.0312715098261833,-0.00569860497489572,0,
00:00:03.288,-0.0363530181348324,0.0387575775384903,-0.0107661420479417,0,
00:00:03.292,-0.0866035223007202,-0.0252772253006697,-0.0127929635345936,0,
00:00:03.296,-0.0353174842894077,-0.0163277890533209,-0.000802822876721621,0,
00:00:03.3,0.0366227738559246,-0.0250320788472891,0.0100923758000135,0,
00:00:03.304,0.0501049347221851,-0.00664501776918769,0.0135597661137581,0,
00:00:03.308,0.0148020405322313,0.0292724519968033,0.00401685060933232,0,
00:00:03.312,0.00248032505623996,0.0464610829949379,-0.00666791247203946,0,
00:00:03.316,-0.0479975268244743,-0.0768897086381912,-0.0117759648710489,0,
00:00:03.32,0.00588673120364547,-0.0137906726449728,0.00612266408279538,0,
00:00:03.324,0.0257229972630739,0.0649086013436317,-0.00680400477722287,0,
00:00:03.328,0.0101943043991923,0.0339564606547356,0.0038141633849591,0,
00:00:03.332,-0.0280226077884436,-0.0278233885765076,-0.00237520225346088,0,
00:00:03.336,-0.011158399283886,-0.0357940681278706,0.00688917329534888,0,
00:00:03.34,0.00635889824479818,-0.0165086630731821,0.001608872320503,0,
00:00:03.344,0.004081173799932,-0.000360147125320509,0.000701200042385608,0,
00:00:03.348,0.0123651856556535,0.0240068100392818,-0.00827840995043516,0,
00:00:03.352,-0.00480397930368781,0.0291804149746895,-0.00129100028425455,0,
00:00:03.356,-0.00327340164221823,-0.0219901259988546,0.00671202968806028,0,
00:00:03.36,0.000901386491023004,-0.015608043409884,0.00332959997467697,0,
00:00:03.364,-0.00166334246750921,0.0157456733286381,-0.00961336866021156,0,
00:00:03.368,-0.00492021255195141,-0.00986714009195566,0.00658251484856009,0,
00:00:03.372,0.00657598627731204,-0.00455836346372962,0.00384980393573642,0,
00:00:03.376,-0.00379732577130198,0.0294384956359863,-0.0121979918330908,0,
00:00:03.38,-0.000687142775859684,-0.0179005116224289,0.00132463756017387,0,
00:00:03.384,0.0259099937975407,-0.00804707407951355,0.00449134036898613,0,
00:00:03.388,-0.0138468174263835,0.00275538582354784,0.00293653807602823,0,
00:00:03.392,-0.0221517458558083,0.0088098868727684,0.00246157310903072,0,
00:00:03.396,0.0087939677760005,0.0173352174460888,-0.00117798428982496,0,
00:00:03.4,0.00512631749734282,-0.0252439212054014,-0.00731620565056801,0,
00:00:03.404,-0.0108260354027152,-0.0376670882105827,0.00117714307270944,0,
00:00:03.408,0.0134683940559626,0.0377865619957447,0.00426139403134584,0,
00:00:03.412,0.0109410509467125,0.0334076173603535,-0.00731152156367898,0,
00:00:03.416,-0.011540062725544,-0.0148561680689454,-0.00225899321958423,0,
00:00:03.42,-0.00899230968207121,-0.0179954115301371,0.0120182251557708,0,
00:00:03.424,0.00131859036628157,-0.0111697157844901,-0.000336896220687777,0,
00:00:03.428,0.0108685493469238,-0.0078352764248848,0.00335530680604279,0,
00:00:03.432,-0.000212277795071714,0.0193835608661175,-0.00771486898884177,0,
00:00:03.436,-0.0120091969147325,0.0353114269673824,-0.0113743459805846,0,
00:00:03.44,0.0131826661527157,-0.0386049300432205,0.0101859122514725,0,
00:00:03.444,0.0143119245767593,-0.00544498674571514,0.00627470808103681,0,
00:00:03.448,-0.0354683957993984,0.0102970842272043,0.00489098951220512,0,
00:00:03.452,6.59972138237208E-05,-0.00165910308714956,-0.000373462360585108,0,
00:00:03.456,0.0209524184465408,0.00752054713666439,-0.0145079782232642,0,
00:00:03.46,-0.0117485811933875,-0.00182630482595414,-0.00942334625869989,0,
00:00:03.464,0.000188379664905369,-0.00779162719845772,0.00233003194443882,0,
00:00:03.468,0.00727286748588085,0.00803664140403271,0.0212050657719374,0,
00:00:03.472,0.00259916088543832,-0.00274326023645699,0.000469669088488445,0,
00:00:03.476,0.0060781822539866,-0.00551924528554082,-0.0101197771728039,0,
00:00:03.48,-0.00535282259806991,0.00936422031372786,-0.0011578988051042,0,
00:00:03.484,-0.0210834145545959,-0.0153734171763062,-0.000688642670866102,0,
00:00:03.488,0.0105249648913741,0.00335109559819102,0.00104514369741082,0,
00:00:03.492,0.0284166373312473,0.0100201489403844,0.00591157283633947,0,
00:00:03.496,-0.0184834748506546,-0.00306020188145339,0.00357061717659235,0,
00:00:03.5,-0.00445930659770966,0.0214385446161032,-0.00474115321412683,0,
00:00:03.504,-0.0185926184058189,0.00297945714555681,-0.0138760209083557,0,
00:00:03.508,-0.00240891519933939,-0.0495506674051285,0.00515754986554384,0,
00:00:03.512,0.0490117892622948,-0.00262676016427577,0.0070321480743587,0,
00:00:03.516,-0.00668985396623611,0.0272674392908812,-0.00117576087359339,0,
00:00:03.52,-0.0307569224387407,0.0194538701325655,0.00503300502896309,0,
00:00:03.524,-0.0120150549337268,-0.0142051028087735,-0.00345963332802057,0,
00:00:03.528,0.00789308547973633,-0.00380667531862855,-0.00574769359081984,0,
00:00:03.532,0.00473389122635126,-0.0115195261314511,-0.00338457408361137,0,
00:00:03.536,0.0188694596290588,0.0195569191128016,0.0127380508929491,0,
00:00:03.54,0.0252366345375776,0.00204699882306159,-0.00285213883034885,0,
00:00:03.544,-0.0219098888337612,-0.0258082076907158,-0.00420929351821542,0,
00:00:03.548,-0.0211736615747213,0.022456880658865,-0.00125994288828224,0,
00:00:03.552,-0.010666654445231,-0.0257593244314194,0.00333855277858675,0,
00:00:03.556,-0.00124274555128068,-0.00872418284416199,0.00208971183747053,0,
00:00:03.56,0.0158727280795574,0.0443148538470268,-0.00022411068493966,0,
00:00:03.564,0.0167899522930384,0.011077837087214,0.000546038907486945,0,
00:00:03.568,0.00351473200134933,-0.0125421052798629,-0.00350062153302133,0,
00:00:03.572,-0.0235955137759447,-0.0123474448919296,0.00382780958898366,0,
00:00:03.576,-0.00224371789954603,-0.0159664824604988,-0.00601278524845839,0,
00:00:03.58,0.0165674369782209,-0.00047869939589873,-0.0076470342464745,0,
00:00:03.584,0.000462184223579243,-0.00241688708774745,0.0133965713903308,0,
00:00:03.588,0.00707282684743404,0.0141249466687441,-0.00727440370246768,0,
00:00:03.592,-0.018771979957819,0.00812764465808868,-0.00117466505616903,0,
00:00:03.596,-0.00970766600221395,0.00748748704791069,0.0100260162726045,0,
00:00:03.6,-0.000595764431636781,-0.00694388709962368,0.00486596906557679,0,
00:00:03.604,0.00934289488941431,-0.0131358597427607,-0.00638377387076616,0,
00:00:03.608,0.0130356717854738,0.0135035589337349,-0.00781178614124656,0,
00:00:03.612,-0.00422370294108987,-0.025141591206193,0.00447035627439618,0,
00:00:03.616,-0.00659000128507614,-0.0296881627291441,0.00130277744028717,0,
00:00:03.62,0.00324958306737244,0.0538338683545589,-0.000457570276921615,0,
00:00:03.624,0.0116966795176268,0.0646226778626442,0.00326550588943064,0,
00:00:03.628,0.000919604673981667,-0.0531211830675602,0.00173513812478632,0,
00:00:03.632,-0.0141729051247239,-0.0489532463252544,-0.0112928058952093,0,
00:00:03.636,-0.00954670086503029,0.00782426167279482,-0.00503054540604353,0,
00:00:03.64,0.00157578894868493,0.0291297305375338,0.00311890267767012,0,
00:00:03.644,-0.00493018701672554,-0.031716525554657,0.0065895039588213,0,
00:00:03.648,0.0166836008429527,0.0184963177889586,0.00945606175810099,0,
00:00:03.652,0.010456770658493,0.0371093563735485,-0.00211860472336411,0,
00:00:03.656,-0.0154488775879145,-0.0240677781403065,-0.00663168681785464,0,
00:00:03.66,0.000162631127750501,-0.00351320626214147,0.00722769275307655,0,
00:00:03.664,0.0057106246240437,-0.0172239262610674,0.00543443486094475,0,
00:00:03.668,9.08764377527405E-06,0.0221990700811148,-0.0174688119441271,0,
00:00:03.672,-0.00211022398434579,0.00911489501595497,-0.0164300110191107,0,
00:00:03.676,0.012562177143991,-0.0165470726788044,0.0121979285031557,0,
00:00:03.68,-0.0105658080428839,-0.0102873276919127,0.00557456770911813,0,
00:00:03.684,-0.0152954077348113,-0.00299391662701964,0.0157617926597595,0,
00:00:03.688,0.00446328334510326,0.00489432038739324,0.000514403567649424,0,
00:00:03.692,-0.00582035630941391,0.0241998285055161,-0.0148417120799422,0,
00:00:03.696,0.00249325227923691,-0.016477458178997,0.00100728473626077,0,
00:00:03.7,0.0254849381744862,0.00270436890423298,0.0131950778886676,0,
00:00:03.704,-0.00112200353760272,-0.00809540785849094,-0.0031131983269006,0,
00:00:03.708,-0.0174579340964556,-0.00858181621879339,-0.0175581593066454,0,
00:00:03.712,0.000448326813057065,0.0161472875624895,-0.00135846610646695,0,
00:00:03.716,0.00600477121770382,0.00690334662795067,-0.00160287448670715,0,
00:00:03.72,3.81598729290999E-05,0.00573732890188694,0.00457244366407394,0,
00:00:03.724,-0.0083316732198,-0.0100314049050212,0.00734013551846147,0,
00:00:03.728,0.00203295634128153,0.00122087728232145,0.00761454645544291,0,
00:00:03.732,0.0166728217154741,-0.0128074241802096,-0.00243574730120599,0,
00:00:03.736,0.00312639493495226,0.00235209311358631,-0.00141794222872704,0,
00:00:03.74,-0.0299190077930689,-0.00252972729504108,0.00242143077775836,0,
00:00:03.744,-0.0169022753834724,0.0176683012396097,-0.00364004261791706,0,
00:00:03.748,0.0248841550201178,-0.0261987838894129,-0.0147804962471128,0,
00:00:03.752,0.0416751950979233,-0.00131300801876932,0.020024823024869,0,
00:00:03.756,-0.0112648820504546,0.00782599020749331,0.00280088698491454,0,
00:00:03.76,-0.0366200469434261,0.0246843677014112,-0.0110929422080517,0,
00:00:03.764,-0.0187059044837952,0.0115869240835309,-0.0185699518769979,0,
00:00:03.768,0.0189788453280926,-0.00920511316508055,-0.00144689041189849,0,
00:00:03.772,0.0150221167132258,-0.00945815443992615,0.0201139040291309,0,
00:00:03.776,-0.00569471251219511,-0.036044392734766,0.0266453772783279,0,
00:00:03.78,0.0132687343284488,0.0054350346326828,-0.0081371832638979,0,
00:00:03.784,0.00955876894295216,0.0339668057858944,-0.0269812121987343,0,
00:00:03.788,-0.0133677059784532,0.00147344672586769,-0.00132363603916019,0,
00:00:03.792,-0.00894631445407867,-0.0235572997480631,0.0121973836794496,0,
00:00:03.796,-0.00873100850731134,-0.00434932764619589,-0.00507143745198846,0,
00:00:03.8,0.00140496576204896,0.0228553488850594,-0.00957823637872934,0,
00:00:03.804,0.00749154621735215,0.0175190940499306,0.00566584896296263,0,
00:00:03.808,0.0029530068859458,-0.0106612369418144,0.0257484819740057,0,
00:00:03.812,-0.00549989193677902,-0.0294218417257071,-0.00811018422245979,0,
00:00:03.816,0.009729721583426,-0.00502444664016366,-0.0126744313165545,0,
00:00:03.82,0.00439885584637523,0.00626283045858145,-0.0123822614550591,0,
00:00:03.824,-0.0239805597811937,0.0129204383119941,0.0110770938917994,0,
00:00:03.828,0.027917604893446,0.00449542980641127,0.0138131296262145,0,
00:00:03.832,-0.000275037426035851,0.00550410989671946,-0.00635362742468715,0,
00:00:03.836,-0.0339601896703243,-0.00225071283057332,-0.00532431760802865,0,
00:00:03.84,0.00783880520612001,-0.00462858844548464,-0.00438543874770403,0,
00:00:03.844,0.029045794159174,0.00460616778582335,-0.00181555422022939,0,
00:00:03.848,-0.0126124331727624,-0.00113195285666734,0.0114076575264335,0,
00:00:03.852,-0.00852846167981625,-0.0162032600492239,0.0115263387560844,0,
00:00:03.856,-0.00160680350381881,0.00424438435584307,-0.0231524109840393,0,
00:00:03.86,0.00495032640174031,0.0121355205774307,0.00070816942024976,0,
00:00:03.864,-0.0147461639717221,-0.0349277518689632,0.00179017428308725,0,
00:00:03.868,0.00413377583026886,0.00496787158772349,0.00556309660896659,0,
00:00:03.872,0.0397118031978607,0.0460779741406441,0.015852689743042,0,
00:00:03.876,0.0117233572527766,0.0189452152699232,-0.0159058310091496,0,
00:00:03.88,-0.0356472283601761,-0.0292689818888903,-0.00576712470501661,0,
00:00:03.884,-0.037098616361618,-0.0262359045445919,-0.00821103062480688,0,
00:00:03.888,-0.00639451388269663,-0.00353306881152093,0.00417888164520264,0,
00:00:03.892,0.061081912368536,-0.00299416831694543,0.021265022456646,0,
00:00:03.896,0.0170779414474964,0.0272914338856936,0.00113642076030374,0,
00:00:03.9,-0.0361199788749218,0.0185172241181135,-0.013804798014462,0,
00:00:03.904,-0.0547311492264271,-0.0121361250057817,-0.00182771589607,0,
00:00:03.908,0.0406888276338577,-0.0330645926296711,-0.00306299631483853,0,
00:00:03.912,0.0892901122570038,-0.0033456461969763,-0.00348013732582331,0,
00:00:03.916,-0.0712592601776123,0.0151254031807184,0.0134308952838182,0,
00:00:03.92,-0.04719253256917,0.0253264755010605,0.0130834905430675,0,
00:00:03.924,0.00774725154042244,0.00707505643367767,-0.0230899155139923,0,
00:00:03.928,0.0290467403829098,-0.00119613250717521,-0.00230527925305068,0,
00:00:03.932,0.00523388385772705,-0.0620053485035896,0.00890897400677204,0,
00:00:03.936,0.000635994947515428,0.0164696332067251,-0.00144595035817474,0,
00:00:03.94,0.00714290654286742,0.0422803312540054,0.000548474898096174,0,
00:00:03.944,0.022033553570509,-0.008690913207829,0.000682023004628718,0,
00:00:03.948,-0.0118052354082465,-0.0102731492370367,0.00430971011519432,0,
00:00:03.952,-0.00943900272250175,-0.00526027521118522,-0.0125663997605443,0,
00:00:03.956,-0.0103536611422896,0.0123844360932708,0.002071165246889,0,
00:00:03.96,-0.0429471917450428,-0.0133527806028724,0.0078358817845583,0,
00:00:03.964,0.0186755787581205,0.00312173739075661,0.0122152781113982,0,
00:00:03.968,0.025389326736331,-0.0022211114410311,-0.0172716844826937,0,
00:00:03.972,0.00820430926978588,0.00875887274742126,0.00402727583423257,0,
00:00:03.976,0.0339031852781773,-0.00697916001081467,-0.00330841611139476,0,
00:00:03.98,-0.0403491705656052,0.00478703575208783,-0.00233175768516958,0,
00:00:03.984,-0.0382283516228199,-0.00133107090368867,-0.00363641744479537,0,
00:00:03.988,0.0256061833351851,-0.01193006336689,-0.00419739354401827,0,
00:00:03.992,0.0203998517245054,-0.000715105386916548,0.0216201357543468,0,
00:00:03.996,-0.000911416078452021,0.0354421995580196,0.0141907902434468,0,
00:00:04,0.00638794433325529,0.0107871349900961,-0.0197840202599764,0,
00:00:04.004,-0.024541012942791,-0.0504723154008389,-0.015980226919055,0,
00:00:04.008,-0.0156155917793512,-0.0269285291433334,0.00988481659442186,0,
00:00:04.012,0.0162548087537289,0.0519510582089424,-0.000880779232829809,0,
00:00:04.016,0.027483344078064,0.0154634146019816,-0.00707471510395408,0,
00:00:04.02,0.0152964051812887,-0.0286125484853983,0.00734786037355661,0,
00:00:04.024,-0.0397989265620708,0.000695837661623955,0.0115601737052202,0,
00:00:04.028,-0.00937758293002844,-0.00289162248373032,0.00265127932652831,0,
00:00:04.032,0.0209259986877441,0.00781121384352446,-0.0174827519804239,0,
00:00:04.036,-0.0124581260606647,0.000729012477677315,0.00267115910537541,0,
00:00:04.04,-0.0101109575480223,0.0283439550548792,0.00293502956628799,0,
00:00:04.044,0.00738747185096145,-0.0322763733565807,-0.00463281152769923,0,
00:00:04.048,0.0129482708871365,-0.0129116512835026,0.0123302200809121,0,
00:00:04.052,0.0191009920090437,0.00318494951352477,-0.00785682816058397,0,
00:00:04.056,-0.0066708130761981,0.00962097104638815,0.000776484666857868,0,
00:00:04.06,-0.0313828177750111,-0.0127686625346541,0.00348527170717716,0,
00:00:04.064,-0.00346959615126252,0.00183281418867409,-0.00206205435097218,0,
00:00:04.068,0.0138976601883769,0.0281525664031506,-0.00277354056015611,0,
00:00:04.072,0.00910561438649893,0.0118976179510355,0.00281710387207568,0,
00:00:04.076,-0.00345107587054372,-0.0139856208115816,-0.00779980793595314,0,
00:00:04.08,0.00824900716543198,-0.0121683515608311,0.0059967334382236,0,
00:00:04.084,-0.00881612859666348,-0.0247017499059439,0.000157771748490632,0,
00:00:04.088,-0.00601441226899624,0.00497011560946703,-0.00681646075099707,0,
00:00:04.092,0.012902102433145,0.0313904844224453,0.00392046291381121,0,
00:00:04.096,0.0108395144343376,0.0104357842355967,0.00746423052623868,0,
00:00:04.1,-0.0300136655569077,-0.0272205993533134,0.0110179129987955,0,
00:00:04.104,-0.00620762258768082,-0.0137082757428288,-0.0141984922811389,0,
00:00:04.108,0.00367823010310531,-0.00505029689520597,-0.0129159931093454,0,
00:00:04.112,0.0272688120603561,0.0337456241250038,0.0197861660271883,0,
00:00:04.116,0.0274201147258282,0.00278372131288052,-0.00843955762684345,0,
00:00:04.12,-0.0360278226435184,0.00367690925486386,-0.0100712524726987,0,
00:00:04.124,-0.0245696939527988,0.000412780529586598,0.0017173308879137,0,
00:00:04.128,-0.00347312819212675,-0.0247983355075121,0.0107821775600314,0,
00:00:04.132,0.00841324217617512,-0.00753104221075773,-0.00237608165480196,0,
00:00:04.136,0.0133018177002668,0.0155550101771951,0.0070052039809525,0,
00:00:04.14,0.00189092883374542,-0.0359975956380367,0.0041023469530046,0,
00:00:04.144,0.0175511725246906,0.0299122799187899,-0.011929364874959,0,
00:00:04.148,0.000253463542321697,0.0286424644291401,-0.00751563953235745,0,
00:00:04.152,-0.00716900173574686,-0.00380160543136299,0.0130152860656381,0,
00:00:04.156,-0.0182742718607187,-0.0240925997495651,-0.00258404738269746,0,
00:00:04.16,0.000643146748188883,0.0031078637111932,-0.00036170898238197,0,
00:00:04.164,0.0023468816652894,0.00455353083088994,-0.00764189520850778,0,
00:00:04.168,-0.00350436102598906,0.00185923383105546,-0.00419269455596805,0,
00:00:04.172,0.00801506359130144,0.00102606497239321,0.00139213271904737,0,
00:00:04.176,0.0266996845602989,-0.00439624488353729,0.0170966684818268,0,
00:00:04.18,-0.0212433598935604,-0.0328734926879406,0.00319733959622681,0,
00:00:04.184,-0.0423657521605492,-0.0171673502773046,-0.00253982935100794,0,
00:00:04.188,0.0116192167624831,0.0570937655866146,0.00417819339782,0,
00:00:04.192,0.0588583163917065,0.0383195541799068,-0.0280287638306618,0,
00:00:04.196,0.00446447730064392,-0.0150067182257771,-0.00316843017935753,0,
00:00:04.2,-0.0493010468780994,-0.0273979008197784,0.0175997149199247,0,
00:00:04.204,-0.00656571239233017,-0.0184726361185312,0.000723701901733875,0,
00:00:04.208,0.0232767555862665,0.0062129027210176,-0.00481137493625283,0,
00:00:04.212,-0.0146786337718368,0.0127575378865004,0.011302562430501,0,
00:00:04.216,-0.00723453843966126,-0.00445943372324109,0.00950454641133547,0,
00:00:04.22,0.0126109309494495,-0.0440196432173252,-0.0114350840449333,0,
00:00:04.224,0.020454827696085,0.0123145747929811,-0.00654240464791656,0,
00:00:04.228,-0.00166100414935499,0.0450846441090107,-0.00507406610995531,0,
00:00:04.232,-0.0136496173217893,0.0275117252022028,0.00391186261549592,0,
00:00:04.236,-0.00432919478043914,-0.00294630043208599,-0.00286111701279879,0,
00:00:04.24,-0.000176052402821369,-0.0355061329901218,-0.00994681473821402,0,
00:00:04.244,0.0054546594619751,-0.0101990336552262,0.0114570921286941,0,
00:00:04.248,-0.0129259768873453,-0.00709218811243773,0.0245043262839317,0,
00:00:04.252,-0.000803239818196744,-0.00653037847951055,0.00923231802880764,0,
00:00:04.256,0.0409831143915653,-0.0119222840294242,-0.0263248942792416,0,
00:00:04.26,-0.0146616082638502,0.0249154157936573,-0.0242023263126612,0,
00:00:04.264,-0.033864751458168,0.0231520216912031,0.00290587753988802,0,
00:00:04.268,-0.0018891264917329,0.0034459822345525,0.0162598360329866,0,
00:00:04.272,0.0187998469918966,0.00624022306874394,0.00210527516901493,0,
00:00:04.276,0.0153466118499637,0.00673941103741527,0.000583754561375827,0,
00:00:04.28,0.00394339999184012,-0.0354046188294888,0.00965799391269684,0,
00:00:04.284,-0.019759476184845,-0.0431423299014568,-0.00461919885128737,0,
00:00:04.288,-0.0153723042458296,0.0186506994068623,-0.00838835164904594,0,
00:00:04.292,0.0267265904694796,0.0330274254083633,-0.00119515100959688,0,
00:00:04.296,-0.00142150605097413,0.0104357823729515,0.0143427280709147,0,
00:00:04.3,-0.0117437075823545,-0.0150272119790316,-0.00966259837150574,0,
00:00:04.304,0.00149854959454387,0.0107479430735111,-0.000372440641513094,0,
00:00:04.308,0.00346115510910749,0.00576629722490907,-0.0151781467720866,0,
00:00:04.312,-0.00467175710946321,-0.0273431781679392,0.00166165025439113,0,
00:00:04.316,0.0013050950365141,0.0184865798801184,0.0157333370298147,0,
00:00:04.32,-0.0131965987384319,-0.0186917595565319,0.00903761945664883,0,
00:00:04.324,0.0079689109697938,-0.0135347163304687,-0.00924179144203663,0,
00:00:04.328,0.0650987029075623,0.0351458825170994,-0.00272681168280542,0,
00:00:04.332,-0.018449142575264,-0.00109422975219786,0.00813231058418751,0,
00:00:04.336,-0.064609095454216,-0.0232068598270416,0.00703181978315115,0,
00:00:04.34,-0.0152666149660945,0.0148970270529389,-0.0243242103606462,0,
00:00:04.344,0.0169735178351402,0.00757523719221354,-0.012463204562664,0,
00:00:04.348,0.0209902990609407,-0.00294880196452141,0.0112468469887972,0,
00:00:04.352,0.0186762996017933,0.00302277132868767,0.0135796684771776,0,
00:00:04.356,0.00243320711888373,-0.00309361098334193,0.00470512034371495,0,
00:00:04.36,-0.0193765684962273,-0.0172847881913185,0.00752293365076184,0,
00:00:04.364,0.0112681342288852,-0.00827284902334213,-0.0090209599584341,0,
00:00:04.368,0.00424332963302732,0.0182975493371487,-0.0159103684127331,0,
00:00:04.372,-0.01716398447752,0.0105395624414086,0.00174530677031726,0,
00:00:04.376,-0.0149995256215334,-0.022535253316164,0.0102991228923202,0,
00:00:04.38,0.000648002955131233,0.0141825722530484,0.00246960739605129,0,
00:00:04.384,0.0211920663714409,0.0203477032482624,-0.00629779975861311,0,
00:00:04.388,0.0099065974354744,-0.00761302839964628,-0.00546868657693267,0,
00:00:04.392,-0.0141806704923511,-0.022399889305234,0.00512485159561038,0,
00:00:04.396,-0.0100394524633884,-0.00327850854955614,0.0111654596403241,0,
00:00:04.4,0.0374988652765751,0.00307039869949222,-0.0107750277966261,0,
00:00:04.404,-0.00220400118269026,0.00618251785635948,0.00153393181972206,0,
00:00:04.408,-0.0401276722550392,0.0198483001440763,-0.0063151903450489,0,
00:00:04.412,-0.00388403097167611,-0.0114869745448232,0.0075502130202949,0,
00:00:04.416,0.00324211036786437,-0.0182890016585588,0.00480675930157304,0,
00:00:04.42,-0.00485791871324182,0.00671255216002464,0.00117592059541494,0,
00:00:04.424,0.0361415296792984,0.00469617545604706,-0.0121597740799189,0,
00:00:04.428,0.0196026284247637,-0.00101043609902263,0.00267810956574976,0,
00:00:04.432,-0.0264874249696732,0.00939603801816702,-0.00296804565005004,0,
00:00:04.436,-0.0136993359774351,0.0155952470377088,0.00215220591053367,0,
00:00:04.44,-0.00398701103404164,-0.00960284378379583,-0.000958720222115517,0,
00:00:04.444,-0.0124691827222705,-0.038832850754261,0.00592774711549282,0,
00:00:04.448,0.014010202139616,-0.0114537514746189,0.00352825177833438,0,
00:00:04.452,0.0171358529478312,0.0364169627428055,-0.00264815194532275,0,
00:00:04.456,0.010444731451571,0.0375108979642391,0.00737206684425473,0,
00:00:04.46,-0.00378888030536473,-0.0397506095468998,-0.0133299510926008,0,
00:00:04.464,-0.0175109580159187,-0.00426597567275167,-0.00397957675158978,0,
00:00:04.468,-0.00844467803835869,0.0101486789062619,0.0059098401106894,0,
00:00:04.472,0.000234554274356924,0.00713404640555382,-0.0023443317040801,0,
00:00:04.476,0.00490717543289065,0.00404551159590483,-0.00251480005681515,0,
00:00:04.48,0.00531823607161641,-0.0212594605982304,0.0105419224128127,0,
00:00:04.484,-0.00100015150383115,0.00306555954739451,-0.00129612628370523,0,
00:00:04.488,0.00441960757598281,-0.00215791771188378,-0.00504789873957634,0,
00:00:04.492,-0.00219605211168528,-0.0272333417087793,0.00270244968123734,0,
00:00:04.496,0.00248501962050796,0.0239643771201372,0.0124305235221982,0,
00:00:04.5,0.000270058226305991,0.0265778582543135,-0.0144304139539599,0,
00:00:04.504,0.0102822966873646,0.00796242244541645,-0.0081587340682745,0,
00:00:04.508,-0.0187172293663025,-0.0123795187100768,0.00470523908734322,0,
00:00:04.512,-0.00757527071982622,-0.014080167748034,0.00135813502129167,0,
00:00:04.516,0.00413211761042476,-0.00123521732166409,0.00208712136372924,0,
00:00:04.52,0.0043413657695055,0.00644037127494812,0.000302430911688134,0,
00:00:04.524,-0.000104361170087941,-0.0188286751508713,0.0138247776776552,0,
00:00:04.528,0.00224835332483053,-0.00595136499032378,-0.00399667909368873,0,
00:00:04.532,0.00349890510551631,0.02146215736866,-0.0129294563084841,0,
00:00:04.536,-0.00593029614537954,0.00820703525096178,-0.00627059303224087,0,
00:00:04.54,0.0329998433589935,1.47009050124325E-05,-0.000206321114092134,0,
00:00:04.544,-0.00207053148187697,0.00456682452932,0.0139909032732248,0,
00:00:04.548,-0.0369082689285278,-0.0119864139705896,-0.00322582712396979,0,
00:00:04.552,-0.0161270145326853,-0.00289653008803725,-0.000575032609049231,0,
00:00:04.556,-0.0063111437484622,-0.00104329991154373,0.0136618204414845,0,
00:00:04.56,0.0213814117014408,-0.0109338769689202,-0.00645915558561683,0,
00:00:04.564,0.0289810206741095,0.0141249150037766,-0.00935727916657925,0,
00:00:04.568,-0.00773923844099045,-0.0136370379477739,-0.0131119871512055,0,
00:00:04.572,0.000225381532800384,0.004058129619807,0.0125835938379169,0,
00:00:04.576,0.00551516190171242,0.0293145980685949,0.0143937589600682,0,
00:00:04.58,-0.0176716260612011,0.00890682730823755,-0.00479512987658381,0,
00:00:04.584,-0.0181756243109703,-0.024548189714551,-0.0102295773103833,0,
00:00:04.588,0.0203598979860544,-0.0276800822466612,-0.0108204977586865,0,
00:00:04.592,0.0149603318423033,0.0123794563114643,0.00763499503955245,0,
00:00:04.596,-0.0270513463765383,0.00613973336294293,0.00536233931779861,0,
00:00:04.6,-0.0085957320407033,0.00663907127454877,0.0147121716290712,0,
00:00:04.604,0.0142547488212585,0.00316780246794224,-0.0014020832022652,0,
00:00:04.608,0.0405768305063248,0.0244201440364122,-0.0143236825242639,0,
00:00:04.612,-0.0168768409639597,-0.0386088825762272,-0.0118013871833682,0,
00:00:04.616,-0.0596548467874527,-0.0518820211291313,0.0220064762979746,0,
00:00:04.62,0.0155625510960817,0.0457979738712311,-0.000255271064816043,0,
00:00:04.624,0.0630037859082222,0.0625330209732056,-0.0131135769188404,0,
00:00:04.628,-0.000106294966826681,0.00200440268963575,-0.0076188687235117,0,
00:00:04.632,-0.0464063324034214,-0.0372638888657093,0.00544838467612863,0,
00:00:04.636,-0.0206301920115948,-0.0392009951174259,0.0170415751636028,0,
00:00:04.64,0.0119986059144139,0.0107278283685446,0.0102597177028656,0,
00:00:04.644,0.0138234244659543,-0.00167099619284272,-0.0154835833236575,0,
00:00:04.648,0.0190194807946682,0.00917512457817793,-0.0130867743864655,0,
00:00:04.652,0.00277083530090749,0.0125942146405578,-0.00703633250668645,0,
00:00:04.656,-0.0201180297881365,0.00410343147814274,0.0128301028162241,0,
00:00:04.66,-0.00626649241894484,-0.00531559390947223,0.0144335702061653,0,
00:00:04.664,0.02803192473948,-0.00564848724752665,-0.0103015610948205,0,
00:00:04.668,-0.0135689871385694,0.0101510267704725,-0.00143161439336836,0,
00:00:04.672,-0.0235556047409773,-0.000488000077893958,0.00281110312789679,0,
00:00:04.676,-0.00465310038998723,-0.00265747541561723,-0.00571756018325686,0,
00:00:04.68,0.0319994874298573,-0.00831308122724295,0.0103322323411703,0,
00:00:04.684,0.0159579329192638,-0.00970093999058008,-0.00743254879489541,0,
00:00:04.688,-0.0122565450146794,0.0245612040162086,-0.00588589208200574,0,
00:00:04.692,-0.0163922552019358,0.00597749138250947,-0.00198490428738296,0,
00:00:04.696,-0.0297166146337986,-0.0374121628701687,-0.000401395809603855,0,
00:00:04.7,0.00952279195189476,0.00550324562937021,0.0241162776947021,0,
00:00:04.704,0.0381167121231556,0.00896850507706404,0.00784533936530352,0,
00:00:04.708,0.0124610783532262,0.0238425061106682,-0.0304751377552748,0,
00:00:04.712,-0.0187830310314894,0.00834074802696705,-0.0102092195302248,0,
00:00:04.716,-0.0162493884563446,-0.0392170175909996,0.0132696609944105,0,
00:00:04.72,-0.0105662783607841,-0.0159460622817278,-0.00380270602181554,0,
00:00:04.724,0.0210074223577976,0.0450278259813786,0.0239931885153055,0,
00:00:04.728,0.00866013113409281,0.0150926494970918,-0.00269814813509583,0,
00:00:04.732,-0.00424597039818764,-0.0219645779579878,-0.0170758962631226,0,
00:00:04.736,-0.000591766962315887,-0.0271550752222538,0.00379566475749016,0,
00:00:04.74,-0.0142916040495038,-0.00306313764303923,-0.0054852357134223,0,
00:00:04.744,-0.00981395319104195,-0.00449498184025288,-0.0104745030403137,0,
00:00:04.748,0.0187699906527996,0.025822177529335,0.00424405559897423,0,
00:00:04.752,0.0122066773474216,0.0312151946127415,0.02319360896945,0,
00:00:04.756,-0.00705998763442039,-0.0157924890518188,0.00731030339375138,0,
00:00:04.76,-0.0168134663254023,-0.0109229069203138,-0.0105885816738009,0,
00:00:04.764,-0.00190361007116735,-0.00340101262554526,-0.0196406431496143,0,
00:00:04.768,0.00540559738874435,-0.0219980981200933,0.00892096664756536,0,
00:00:04.772,0.0148076554760337,0.000403347192332149,-0.000467195466626436,0,
00:00:04.776,0.0335552059113979,0.031816128641367,0.00185165542643517,0,
00:00:04.78,-0.0204829480499029,0.020679634064436,0.00176513148471713,0,
00:00:04.784,-0.0492930002510548,-0.0296323522925377,0.00489240232855082,0,
00:00:04.788,-0.00988036300987005,-0.0345053002238274,-0.00832533091306686,0,
00:00:04.792,0.0314209908246994,0.0207963231950998,-0.00832080282270908,0,
00:00:04.796,0.0176275819540024,0.0200441889464855,0.0101878838613629,0,
00:00:04.8,0.0102101461961865,0.0107964240014553,0.0145051795989275,0,
00:00:04.804,-0.00642352178692818,-0.00851665996015072,-0.00276892515830696,0,
00:00:04.808,-0.0160804856568575,-0.0119306035339832,-0.00671394867822528,0,
00:00:04.812,-0.0133650405332446,-0.0174750648438931,-0.0131756262853742,0,
00:00:04.816,2.09855370485457E-05,0.00507746264338493,-1.77839028765447E-05,0,
00:00:04.82,0.0170739274471998,0.0260693542659283,0.00273536494933069,0,
00:00:04.824,-0.00246527744457126,-0.00956902373582125,-0.00171339861117303,0,
00:00:04.828,-0.00358333950862288,-0.021901547908783,0.0139311878010631,0,
00:00:04.832,0.00432963902130723,0.025702653452754,-0.00560492929071188,0,
00:00:04.836,0.0362006761133671,0.0156421698629856,0.00475118029862642,0,
00:00:04.84,-0.00895239692181349,-0.0228709112852812,0.0041961744427681,0,
00:00:04.844,-0.0458641424775124,-0.00284467148594558,0.00192789733409882,0,
00:00:04.848,-0.0102649331092834,0.00363522605039179,-0.0180058050900698,0,
00:00:04.852,0.00808226130902767,-0.00311767542734742,-0.00663946010172367,0,
00:00:04.856,0.011133287101984,0.00431057438254356,0.00598804745823145,0,
00:00:04.86,0.0142304245382547,-0.00504279555752873,0.0143035808578134,0,
00:00:04.864,0.0183957610279322,-0.0108079761266708,-0.00115951988846064,0,
00:00:04.868,0.00666456576436758,0.00961406901478767,0.00590121187269688,0,
00:00:04.872,-0.0250914338976145,0.00810094270855188,-0.012737256474793,0,
00:00:04.876,-0.0324701443314552,0.00770056201145053,-0.00653798086568713,0,
00:00:04.88,0.0115545392036438,0.00149610638618469,0.00238228007219732,0,
00:00:04.884,0.0235213544219732,-0.00189409358426929,-0.00420070439577103,0,
00:00:04.888,-0.00350496498867869,-0.0203588902950287,0.0105544617399573,0,
00:00:04.892,-0.00397194223478436,-0.000693896668963134,0.0113236214965582,0,
00:00:04.896,-0.0117833130061626,-0.00919506419450045,-0.0122989863157272,0,
00:00:04.9,0.00639977399259806,0.00205094902776182,0.00427811779081821,0,
00:00:04.904,0.0155590930953622,0.0336533337831497,-0.0109331114217639,0,
00:00:04.908,-0.00106723129283637,0.0123875420540571,0.000126570448628627,0,
00:00:04.912,0.00062580726807937,-0.0213374178856611,0.00875638518482447,0,
00:00:04.916,0.00627572322264314,-0.00724853063002229,0.00443401094526052,0,
00:00:04.92,-0.0181664600968361,-0.00557614956051111,-0.00758184632286429,0,
00:00:04.924,-0.0211552958935499,-0.010171027854085,0.00181958510074764,0,
00:00:04.928,0.0032554161734879,0.0135591169819236,-0.000750133476685733,0,
00:00:04.932,0.0181366633623838,-0.00464417040348053,-0.00725251017138362,0,
00:00:04.936,0.0190704744309187,0.0122602488845587,0.0138570396229625,0,
00:00:04.94,-0.00146175117697567,0.00617610430344939,0.00355168199166656,0,
00:00:04.944,-0.0160526745021343,-0.019500469788909,-0.0155192073434591,0,
00:00:04.948,-0.00727783422917128,-0.00375122996047139,-0.00992734637111425,0,
00:00:04.952,0.000623862841166556,0.0231465622782707,0.019581101834774,0,
00:00:04.956,0.00646591745316982,0.00296278111636639,0.0021919603459537,0,
00:00:04.96,0.000211970327654853,-0.00994419865310192,-0.00823724828660488,0,
00:00:04.964,0.0107296500355005,-0.00929747428745031,-0.00635776109993458,0,
00:00:04.968,0.00373162073083222,0.00269198720343411,0.00336044444702566,0,
00:00:04.972,-0.0169550273567438,0.0123915476724505,0.00148045970126987,0,
00:00:04.976,-0.0145540237426758,-0.0187530163675547,0.00748392753303051,0,
00:00:04.98,0.00914935953915119,-0.0226172860711813,0.0119183324277401,0,
00:00:04.984,0.00687986053526402,0.0120815224945545,-0.00526071386411786,0,
00:00:04.988,0.00676853256300092,0.0272655077278614,-0.00838423799723387,0,
00:00:04.992,0.00611714832484722,0.037053719162941,-0.0136756924912333,0,
00:00:04.996,-0.0227427072823048,-0.0428406670689583,-0.00580217922106385,0,
00:00:05,0.0025835616979748,-0.0283163394778967,0.0198897924274206,0,
00:00:05.004,0.0365439057350159,0.0296960156410933,-0.00175922340713441,0,
00:00:05.008,-0.0232304055243731,-0.000145793383126147,-0.0139144351705909,0,
00:00:05.012,0.00636884244158864,0.0115243112668395,0.0180495996028185,0,
00:00:05.016,-0.0176286716014147,-0.00520713021978736,0.00671003013849258,0,
00:00:05.02,-0.035540796816349,-0.0359160415828228,-0.00316911889240146,0,
00:00:05.024,0.0320580564439297,0.019784539937973,-0.0111981732770801,0,
00:00:05.028,0.0417659915983677,0.00352275022305548,-0.00384913245216012,0,
00:00:05.032,-0.015584253706038,0.00770980911329389,-0.00307781482115388,0,
00:00:05.036,-0.0168097708374262,0.0108322305604815,0.0173494685441256,0,
00:00:05.04,-0.0125604970380664,-0.00846627075225115,-0.00807282887399197,0,
00:00:05.044,0.0145227564498782,-0.00058762967819348,-0.0109518794342875,0,
00:00:05.048,-0.00388556555844843,-0.0341963656246662,0.00849063601344824,0,
00:00:05.052,-0.0153361530974507,-0.0209700614213943,0.0185831971466541,0,
00:00:05.056,0.00951684080064297,0.0435160472989082,-0.0037603760138154,0,
00:00:05.06,0.0241055507212877,0.0595655925571918,-0.0213887598365545,0,
00:00:05.064,-0.000396058836486191,-0.0260842442512512,-0.0110099585726857,0,
00:00:05.068,-0.00875757168978453,-0.0329177491366863,0.0176787916570902,0,
00:00:05.072,0.0232320353388786,0.00695885671302676,0.015341523103416,0,
00:00:05.076,-0.0290247146040201,-0.0343264862895012,0.00136992544867098,0,
00:00:05.08,-0.0260114353150129,0.0128671564161777,-0.0246977154165506,0,
00:00:05.084,-0.00747865019366145,0.0308578368276358,-0.00814966298639774,0,
00:00:05.088,0.0234251897782087,-0.000718952214810997,0.0236943159252405,0,
00:00:05.092,0.005787902045995,0.00402463367208838,-0.00162678293418139,0,
00:00:05.096,0.00780093669891357,-0.0178004745393991,0.00387372216209769,0,
00:00:05.1,0.0308602675795555,-0.0215156953781843,-0.00474462565034628,0,
00:00:05.104,-0.00990721490234137,0.0272439830005169,0.00781454145908356,0,
00:00:05.108,-0.0385778024792671,-0.0165856890380383,-0.0135245760902762,0,
00:00:05.112,-0.00236827484332025,0.00929817277938128,-0.00272748712450266,0,
00:00:05.116,0.0087182205170393,0.0239248853176832,-0.00715089263394475,0,
00:00:05.12,0.00994622614234686,0.00909021869301796,0.00367375882342458,0,
00:00:05.124,-0.00698683504015207,-0.0325911156833172,0.00373631250113249,0,
00:00:05.128,0.00563942547887564,-0.00580869847908616,0.0164089798927307,0,
00:00:05.132,-0.00215815147385001,-0.00188082957174629,-0.000589981849770993,0,
00:00:05.136,-0.000826065894216299,-0.00739722605794668,-0.00200552539899945,0,
00:00:05.14,0.00553950713947415,0.019195007160306,-0.00105334457475692,0,
00:00:05.144,0.00213418807834387,0.000341821403708309,-0.0135409701615572,0,
00:00:05.148,0.00833737477660179,0.01377715729177,-0.00237937481142581,0,
00:00:05.152,-0.00524295028299093,0.0103720342740417,-0.00125222431961447,0,
00:00:05.156,-0.0355337671935558,-0.0603589899837971,-0.000335923570673913,0,
00:00:05.16,0.00330928643234074,0.00706993043422699,0.0160700511187315,0,
00:00:05.164,0.0317358858883381,0.0530720092356205,0.00173334102146327,0,
00:00:05.168,0.00689062755554914,0.00765823386609554,-0.00746295182034373,0,
00:00:05.172,-0.0183855257928371,-0.0270646698772907,0.00659325066953897,0,
00:00:05.176,-0.00934998039156199,-0.00819147191941738,0.0015815005172044,0,
00:00:05.18,0.0283769257366657,-0.0177472159266472,-0.0128955980762839,0,
00:00:05.184,0.00608460092917085,-0.00193569832481444,0.00172284559812397,0,
00:00:05.188,-0.0260133128613234,0.0175729356706142,-0.00348747684620321,0,
00:00:05.192,-0.0140724768862128,0.0205266419798136,0.00637001125141978,0,
00:00:05.196,0.00350285810418427,-0.00610275287181139,-0.000315970042720437,0,
00:00:05.2,0.00778708327561617,0.0010621779365465,-0.0132592553272843,0,
00:00:05.204,0.00191408989485353,-0.0288834869861603,0.0141534022986889,0,
00:00:05.208,0.00247564376331866,0.0123563222587109,0.0149623919278383,0,
00:00:05.212,0.0258594416081905,0.0116417910903692,-0.00160005025099963,0,
00:00:05.216,0.0177462976425886,0.0115623036399484,-0.0138633195310831,0,
00:00:05.22,-0.0407278276979923,-0.0112711805850267,-0.00315247988328338,0,
00:00:05.224,-0.0318549126386642,-0.00784028228372335,-0.0132073825225234,0,
00:00:05.228,0.00155869056470692,-0.00646910583600402,-0.00489912508055568,0,
00:00:05.232,0.0131283523514867,-0.0091527197510004,0.0261034108698368,0,
00:00:05.236,0.0231418069452047,0.00304642715491354,0.00898299366235733,0,
00:00:05.24,0.0244866516441107,0.0419019423425198,-0.000633586198091507,0,
00:00:05.244,-0.0135337170213461,-0.0111957108601928,-0.0196066908538342,0,
00:00:05.248,-0.0336096584796906,-0.057078942656517,0.0102631822228432,0,
00:00:05.252,0.00332905515097082,0.0232672449201345,0.00148546369746327,0,
00:00:05.256,0.0175432302057743,0.036796823143959,-0.0124353757128119,0,
00:00:05.26,-0.000938694167416543,0.0204712562263012,-0.0051416396163404,0,
00:00:05.264,-0.00852113962173462,-0.0250265821814537,0.00803045090287924,0,
00:00:05.268,0.0162443891167641,-0.0238007176667452,0.0118422331288457,0,
00:00:05.272,-0.00389425852335989,-0.00186646881047636,-0.00537300482392311,0,
00:00:05.276,-0.0153784174472094,-0.0175531748682261,0.0032044283580035,0,
00:00:05.28,-0.00842057447880507,-0.00632971618324518,-0.00231689866632223,0,
00:00:05.284,0.00173743127379566,0.0376433618366718,-0.0101839024573565,0,
00:00:05.288,0.00962372869253159,0.0296107735484838,0.00115182937588543,0,
00:00:05.292,0.032707467675209,0.0115159219130874,0.00435071298852563,0,
00:00:05.296,-0.00638060551136732,-0.029721288010478,-0.0050242068246007,0,
00:00:05.3,-0.041099589318037,-0.0618032701313496,0.0129985399544239,0,
00:00:05.304,0.00585816940292716,0.00383060146123171,0.0142227960750461,0,
00:00:05.308,0.0202752593904734,0.057463601231575,-0.0179926864802837,0,
00:00:05.312,-0.000575514510273933,0.022617993876338,-0.014855264686048,0,
00:00:05.316,-0.0098438560962677,-0.0193086210638285,0.00174715183675289,0,
00:00:05.32,0.00429175607860088,-0.00769085669890046,0.00460910564288497,0,
00:00:05.324,-0.00110804045107216,-0.0261072516441345,-0.00510645471513271,0,
00:00:05.328,0.000881377025507391,-0.00342896929942071,0.0134350918233395,0,
00:00:05.332,0.000197349378140643,0.0126756615936756,0.0153922950848937,0,
00:00:05.336,-0.019257415086031,-0.0203469153493643,0.000106734587461688,0,
00:00:05.34,0.010843981988728,0.0270648058503866,-0.0294007807970047,0,
00:00:05.344,0.0265824478119612,0.0285554714500904,0.0079752504825592,0,
00:00:05.348,0.00693062366917729,0.00143482722342014,4.23083256464452E-05,0,
00:00:05.352,-0.0175145845860243,-0.0133434012532234,-0.0106353033334017,0,
00:00:05.356,-0.0147398235276341,-0.0111961709335446,0.0110820261761546,0,
00:00:05.36,-0.020921828225255,-0.0259053930640221,0.0163618754595518,0,
00:00:05.364,0.00288716657087207,-0.02854242362082,-0.00144953152630478,0,
00:00:05.368,0.0310693271458149,0.0299857016652822,-0.0126538975164294,0,
00:00:05.372,0.014834669418633,0.0453777760267258,-0.0056802174076438,0,
00:00:05.376,-0.00313972565345466,0.0125755406916142,7.86047166911885E-05,0,
00:00:05.38,-0.0243544410914183,-0.0347475297749043,0.00506427604705095,0,
00:00:05.384,-0.0179067850112915,-0.00881098676472902,0.00329914945177734,0,
00:00:05.388,0.0307505466043949,-0.00415692711248994,-0.00798721145838499,0,
00:00:05.392,0.0233570002019405,0.018308924511075,0.000196870139916427,0,
00:00:05.396,-0.0299744307994843,-0.0152802485972643,0.00872540008276701,0,
00:00:05.4,-0.0240293517708778,-0.00899157300591469,0.00667496584355831,0,
00:00:05.404,-0.000546723778825253,0.00591565389186144,-0.00119155063293874,0,
00:00:05.408,0.0332143902778625,0.0101597774773836,-0.0037818846758455,0,
00:00:05.412,0.0147488471120596,0.0256504192948341,-0.00770575925707817,0,
00:00:05.416,-0.0157712213695049,-0.00602444214746356,-0.014781859703362,0,
00:00:05.42,-0.0126518476754427,-0.0192000940442085,0.0205508954823017,0,
00:00:05.424,-0.0104601755738258,-0.0302593782544136,-0.00886222068220377,0,
00:00:05.428,0.006275265943259,0.00887924805283546,-0.00428149709478021,0,
00:00:05.432,0.00769083993509412,0.0140227219089866,0.0172753259539604,0,
00:00:05.436,0.0184355285018682,0.0202834531664848,0.0128741795197129,0,
00:00:05.44,-0.00955403316766024,-0.000331407936755568,-0.00970485527068377,0,
00:00:05.444,-0.00681783771142364,-0.00955189671367407,-0.0232828203588724,0,
00:00:05.448,-0.00579076213762164,0.00129572942387313,0.00288965529762208,0,
00:00:05.452,0.00117106596007943,-0.00551711348816752,0.00837567541748285,0,
00:00:05.456,0.00691190175712109,-0.00451159104704857,0.00112243706826121,0,
00:00:05.46,6.5186271967832E-05,-0.0051116687245667,-0.00364856561645865,0,
00:00:05.464,-0.00676633464172482,0.0182605944573879,0.00908664055168629,0,
00:00:05.468,0.00165265623945743,0.00250035873614252,0.00227465061470866,0,
00:00:05.472,0.01291249319911,-0.0132338469848037,-0.00469994964078069,0,
00:00:05.476,-0.0254881680011749,-0.0375101417303085,7.64795515806327E-07,0,
00:00:05.48,-0.00323126395232975,0.0176666509360075,-0.00321357068605721,0,
00:00:05.484,0.0232253316789865,0.0385439321398735,-0.000182127550942823,0,
00:00:05.488,0.0111248586326838,0.0291871130466461,-0.00213798927143216,0,
00:00:05.492,-0.00255370885133743,-0.0131982658058405,-0.00240697409026325,0,
00:00:05.496,-0.0112742464989424,-0.0363534763455391,0.0075910659506917,0,
00:00:05.5,0.00178594083990902,-0.0199415478855371,0.00172752712387592,0,
00:00:05.504,-0.0184798147529364,-0.00466932496055961,-0.00374112068675458,0,
00:00:05.508,-0.0143401706591249,-0.00369458342902362,-0.00458852155134082,0,
00:00:05.512,0.0220739785581827,0.0338072963058949,-8.0892990808934E-05,0,
00:00:05.516,0.0340996496379375,0.0272848419845104,0.00513068865984678,0,
00:00:05.52,-0.00865379255264997,-0.00242425221949816,0.00133371516130865,0,
00:00:05.524,-0.0240067094564438,-0.0137495119124651,0.00627795234322548,0,
00:00:05.528,-0.00738679757341743,-0.0109540550038218,-0.00217782286927104,0,
00:00:05.532,0.0178227964788675,-0.0109074153006077,-0.0198073051869869,0,
00:00:05.536,0.00133205414749682,-0.0146823963150382,0.00553843239322305,0,
00:00:05.54,-0.0264883674681187,-0.0125950127840042,0.0224614311009645,0,
00:00:05.544,0.00594890909269452,0.0252870079129934,-0.00223555276170373,0,
00:00:05.548,0.0223029106855392,0.0524886175990105,-0.0120215695351362,0,
00:00:05.552,0.00552446860820055,-0.00509911729022861,-0.0119652161374688,0,
00:00:05.556,-0.0403002388775349,-0.0607643537223339,0.00122786429710686,0,
00:00:05.56,0.0298064183443785,0.00361689040437341,0.0195922963321209,0,
00:00:05.564,0.0515584498643875,0.0419972911477089,-0.00934757385402918,0,
00:00:05.568,-0.0375910103321075,0.00343157397583127,-0.00910464115440845,0,
00:00:05.572,-0.0395433641970158,-0.0179736986756325,0.00958288088440895,0,
00:00:05.576,-0.0147891938686371,-0.0335869528353214,0.0098982397466898,0,
00:00:05.58,0.0104858865961432,0.00505050178617239,0.00503607094287872,0,
00:00:05.584,0.0227274633944035,0.018250361084938,-0.00752075854688883,0,
00:00:05.588,0.0271048489958048,0.00209323992021382,-0.0223495103418827,0,
00:00:05.592,-0.00109500985126942,0.0164130348712206,-0.00230684457346797,0,
00:00:05.596,-0.0170802306383848,-0.0105904387310147,0.025738425552845,0,
00:00:05.6,-0.0251340344548225,-0.0236271638423204,-0.00519279530271888,0,
00:00:05.604,0.00876020640134811,0.023113951086998,0.00536986812949181,0,
00:00:05.608,0.0240306686609983,0.0222931746393442,-0.0129641089588404,0,
00:00:05.612,0.00529423961415887,-0.00154331978410482,-0.010685590095818,0,
00:00:05.616,-0.0149475261569023,-0.025099840015173,0.0151773141697049,0,
00:00:05.62,-0.0268718469887972,-0.0320967324078083,0.010858035646379,0,
00:00:05.624,0.00252495333552361,0.00539952469989657,-0.00613818410784006,0,
00:00:05.628,0.0422715954482555,0.0279061887413263,-0.00683449814096093,0,
00:00:05.632,0.00683513469994068,0.0254095289856195,-0.0024246689863503,0,
00:00:05.636,-0.0168244373053312,0.000799736881162971,-0.00276311370544136,0,
00:00:05.64,-0.0329914689064026,-0.0302641652524471,0.0150242680683732,0,
00:00:05.644,-0.0222803615033627,-0.0534865260124207,0.00373081350699067,0,
00:00:05.648,0.0321967639029026,0.0368684753775597,-0.0114930924028158,0,
00:00:05.652,0.0314944572746754,0.0526850633323193,-0.00376385473646224,0,
00:00:05.656,0.00457951752468944,-0.00200036587193608,-0.00220755604095757,0,
00:00:05.66,-0.0080447681248188,-0.0133471228182316,0.00330523541197181,0,
00:00:05.664,-0.0128136426210403,-0.0121972588822246,-0.0072015393525362,0,
00:00:05.668,-0.00991889648139477,-0.0109808156266809,0.00699013378471136,0,
00:00:05.672,-0.00776697788387537,-0.0164355672895908,0.0138528496026993,0,
00:00:05.676,0.00169519672635943,0.0119841918349266,0.00528021203354001,0,
00:00:05.68,0.0117039103060961,0.00216630543582141,-0.018659258261323,0,
00:00:05.684,-0.00467682536691427,-0.00413938844576478,-0.0110428519546986,0,
00:00:05.688,0.006501330062747,0.00737530505284667,0.018205089494586,0,
00:00:05.692,0.0163349267095327,0.0207725446671247,0.000819128763396293,0,
00:00:05.696,0.00175535236485302,0.0171394404023886,-0.00897436030209064,0,
00:00:05.7,-0.01455969363451,-0.0113648790866137,-0.00211739330552518,0,
00:00:05.704,-0.0107530849054456,-0.033337514847517,-0.00409520883113146,0,
00:00:05.708,-0.0125945080071688,-0.0159236881881952,0.0132907768711448,0,
00:00:05.712,0.00106513791251928,0.00310282642021775,0.00523135624825954,0,
00:00:05.716,0.00435133511200547,0.0277020055800676,-0.00630941521376371,0,
00:00:05.72,0.03587706387043,0.00974800623953342,0.000833963800687343,0,
00:00:05.724,-0.00468426430597901,-0.0223772153258324,-0.00923739839345217,0,
00:00:05.728,-0.0122110713273287,0.0259762033820152,0.002977489028126,0,
00:00:05.732,-0.0096448203548789,0.00291709182783961,-0.000313622906105593,0,
00:00:05.736,-0.00773147959262133,-0.0212198775261641,-0.00100916810333729,0,
00:00:05.74,0.00959520507603884,-0.00481008319184184,0.0145112257450819,0,
00:00:05.744,0.000970828346908093,-0.000969515880569816,-0.0043423343449831,0,
00:00:05.748,0.00652208505198359,0.0147951440885663,-0.0114603415131569,0,
00:00:05.752,-0.00273607112467289,-0.0145445736125112,0.00223673530854285,0,
00:00:05.756,-0.00981760676950216,-0.0156521108001471,-0.000377053336706012,0,
00:00:05.76,0.00235890061594546,0.0188849419355392,0.00124328979291022,0,
00:00:05.764,0.0178384650498629,0.0375769250094891,0.00442463764920831,0,
00:00:05.768,-0.00626246631145477,-0.00550526613369584,0.00203241570852697,0,
00:00:05.772,-0.0300894714891911,-0.059496633708477,0.00326374638825655,0,
00:00:05.776,0.0216677468270063,0.00444035977125168,-0.00206265598535538,0,
00:00:05.78,0.0240527410060167,0.0180856492370367,-0.00922865234315395,0,
00:00:05.784,-0.0175079554319382,0.0121016697958112,-0.012818899936974,0,
00:00:05.788,-0.00942857004702091,0.0297731254249811,0.0115289324894547,0,
00:00:05.792,0.00398971186950803,0.00244594574905932,0.00913952104747295,0,
00:00:05.796,-0.00170719576999545,-0.0240561347454786,0.00112742034252733,0,
00:00:05.8,-0.00346235744655132,-0.0341550298035145,0.000336622935719788,0,
00:00:05.804,-0.00166049553081393,-0.021436145529151,9.44997009355575E-05,0,
00:00:05.808,0.00526598328724504,0.0268371254205704,0.00132800557184964,0,
00:00:05.812,-0.00316965114325285,0.0273059085011482,-0.0139450812712312,0,
00:00:05.816,0.00579875661060214,0.00253323162905872,-0.00814774353057146,0,
00:00:05.82,0.0262064952403307,0.00362795544788241,0.0141722559928894,0,
00:00:05.824,-0.0120668029412627,-0.00638801930472255,0.00804135389626026,0,
00:00:05.828,-0.0202868282794952,-0.0047744233161211,-0.00794187188148499,0,
00:00:05.832,-0.0161957871168852,-0.0100399227812886,-0.000234681720030494,0,
00:00:05.836,0.00375086278654635,-0.0213997978717089,-0.00218562898226082,0,
00:00:05.84,0.0128492563962936,0.00704988557845354,0.0135916322469711,0,
00:00:05.844,0.0197901204228401,0.038324736058712,0.011970859952271,0,
00:00:05.848,-0.000893675838597119,0.00027910791686736,-0.025024626404047,0,
00:00:05.852,-0.00588632561266422,-0.0160130187869072,-0.0104911373928189,0,
00:00:05.856,-0.00284631759859622,0.00197076983749866,-0.00518730888143182,0,
00:00:05.86,-0.00867315754294395,-0.0107385981827974,0.00622218754142523,0,
00:00:05.864,-0.00870864279568195,0.00124721264000982,0.0132344253361225,0,
00:00:05.868,0.00498651992529631,0.00315001583658159,0.0171236768364906,0,
00:00:05.872,0.00946349650621414,-0.00243066321127117,-0.00658094277605414,0,
00:00:05.876,0.0107563147321343,0.00406400253996253,-0.0126491338014603,0,
00:00:05.88,-0.0131817180663347,-0.00150433159433305,-0.0042099840939045,0,
00:00:05.884,-0.0110032837837934,0.00995044875890017,0.00519345328211784,0,
00:00:05.888,0.00475728046149015,-0.0273172650486231,0.00105840677861124,0,
00:00:05.892,0.0141286179423332,0.0215663146227598,-0.000722486525774002,0,
00:00:05.896,0.00292656850069761,0.0194414053112268,-0.00503869680687785,0,
00:00:05.9,-0.000325452710967511,-0.0101265786215663,0.00983570609241724,0,
00:00:05.904,-0.0143104335293174,-0.0194723922759295,-0.000337981880875304,0,
00:00:05.908,-0.0137541498988867,-0.0192431975156069,-0.0122760254889727,0,
00:00:05.912,0.0120732616633177,0.0129479458555579,0.00251771020703018,0,
00:00:05.916,0.0181510057300329,0.0293798316270113,0.0116769913583994,0,
00:00:05.92,-0.0126153407618403,-0.0176739506423473,-0.00688498048111796,0,
00:00:05.924,-0.00442232610657811,-0.00292156101204455,-0.00503806304186583,0,
00:00:05.928,0.0122578833252192,0.0146376043558121,0.00493838731199503,0,
00:00:05.932,-0.00184050109237432,0.0114395814016461,0.0166216436773539,0,
00:00:05.936,-0.00946345645934343,-0.02631875872612,-0.0133713847026229,0,
00:00:05.94,0.00248142541386187,0.00743380934000015,-0.00780881522223353,0,
00:00:05.944,0.000776370405219495,-0.00815545115619898,-0.00599830457940698,0,
00:00:05.948,0.00853985082358122,-0.0130564738065004,-0.0022526690736413,0,
00:00:05.952,-0.00981011893600225,0.00170952070038766,0.0166145190596581,0,
00:00:05.956,-0.0106335077434778,0.0181131809949875,0.00338029046542943,0,
00:00:05.96,0.00909354165196419,0.0248123873025179,-0.00181535317096859,0,
00:00:05.964,0.00865364540368319,0.00183983682654798,0.00127638760022819,0,
00:00:05.968,-0.00397477019578218,-0.0362861454486847,-0.001888019265607,0,
00:00:05.972,0.00726889865472913,-0.00879339314997196,-0.00600798614323139,0,
00:00:05.976,-0.00127715349663049,0.00962716992944479,-0.00551587855443358,0,
00:00:05.98,-0.0140260672196746,0.00105444923974574,-0.00187861279118806,0,
00:00:05.984,-0.00356156611815095,0.00931176729500294,0.00601021246984601,0,
00:00:05.988,0.00205058744177222,-0.00738976895809174,0.0205497033894062,0,
00:00:05.992,0.0103325741365552,0.0087854852899909,-0.00500743882730603,0,
00:00:05.996,0.00606980267912149,0.0117684248834848,-0.0223975591361523,0,
00:00:06,-0.000372023874660954,-0.00323438947089016,-0.00476269517093897,0,
00:00:06.004,-0.00205095042474568,-0.0121499001979828,0.0082653621211648,0,
00:00:06.008,-0.00220309221185744,-0.000500633963383734,0.00468566827476025,0,
00:00:06.012,-0.00597731489688158,-0.0117892948910594,0.00605255551636219,0,
00:00:06.016,-0.00351469567976892,-0.0073983739130199,0.0067107742652297,0,
00:00:06.02,-0.0142505094408989,-0.00883948709815741,-0.00105066853575408,0,
00:00:06.024,0.0144114578142762,0.0258007869124413,-0.0145448027178645,0,
00:00:06.028,0.0205913241952658,0.0420607067644596,0.00358051736839116,0,
00:00:06.032,-0.00335412402637303,-0.0212750062346458,-0.000795519095845521,0,
00:00:06.036,-0.0108849601820111,-0.0208152290433645,0.00336741260252893,0,
00:00:06.04,0.000170426268596202,-0.000926432781852782,0.000625097600277513,0,
00:00:06.044,0.000530523131601512,-0.00235174829140306,-0.00809131748974323,0,
00:00:06.048,-0.00107498303987086,0.0145405195653439,-0.00253127724863589,0,
00:00:06.052,-0.00368819246068597,0.00499553186818957,0.00353575544431806,0,
00:00:06.056,0.00104501401074231,-0.0161900296807289,0.00964297074824572,0,
00:00:06.06,-0.00443218788132072,-0.0431321933865547,-0.000129272899357602,0,
00:00:06.064,0.00493422197178006,0.0202646572142839,-0.00247057131491601,0,
00:00:06.068,0.00711902091279626,0.0328966565430164,0.00640840316191316,0,
00:00:06.072,-0.000186522098374553,0.0212793350219727,-0.00860309693962336,0,
00:00:06.076,-0.00282207550480962,-0.00169189483858645,-0.00643213931471109,0,
00:00:06.08,-0.000516726751811802,-0.015434886328876,0.00593323772773147,0,
00:00:06.084,-0.00317152193747461,-0.0224100295454264,-0.00640861317515373,0,
00:00:06.088,-0.00150103378109634,0.00330663681961596,-0.000969886779785156,0,
00:00:06.092,-0.00349348108284175,-0.015700813382864,0.013230194337666,0,
00:00:06.096,0.0035739706363529,-0.0122380126267672,0.0106366593390703,0,
00:00:06.1,0.00677096704021096,0.0405241660773754,-0.00664565106853843,0,
00:00:06.104,0.00475134467706084,0.0388586521148682,-0.0144206965342164,0,
00:00:06.108,-0.00155737751629204,-0.0129258772358298,-0.00449169240891933,0,
00:00:06.112,-0.0154169509187341,-0.0481211356818676,-0.00584763241931796,0,
00:00:06.116,-0.00720359478145838,0.00427419506013393,0.0128713864833117,0,
00:00:06.12,0.0325524993240833,0.0136526646092534,0.0147624192759395,0,
00:00:06.124,0.00996825471520424,-0.0200074780732393,0.00462475745007396,0,
00:00:06.128,-0.0327631756663322,0.0141289457678795,-0.00687477458268404,0,
00:00:06.132,-0.0196125414222479,0.00740997260436416,-0.0251989532262087,0,
00:00:06.136,0.0112268636003137,0.0111434366554022,-0.004068398848176,0,
00:00:06.14,0.0176408421248198,0.00211043003946543,0.0175588354468346,0,
00:00:06.144,0.00442657899111509,-0.018490819260478,0.00596713460981846,0,
00:00:06.148,-0.00582899060100317,-0.0298685822635889,-0.00545116560533643,0,
00:00:06.152,0.000534776016138494,0.0291034411638975,0.00872438121587038,0,
00:00:06.156,0.000517078093253076,0.0251529347151518,0.00950982514768839,0,
00:00:06.16,-0.00506949378177524,-0.0147115280851722,-0.0120184300467372,0,
00:00:06.164,0.00645556347444654,-0.00824092421680689,-0.0179831963032484,0,
00:00:06.168,6.10482311458327E-05,0.0073810969479382,0.00404540076851845,0,
00:00:06.172,-0.00957203842699528,-0.0135865462943912,0.00791823118925095,0,
00:00:06.176,0.00468091201037169,0.00180712121073157,-0.00371927418746054,0,
00:00:06.18,0.00358211505226791,0.00444894330576062,0.0123920161277056,0,
00:00:06.184,-0.00255389581434429,-0.00581774348393083,0.00260843150317669,0,
00:00:06.188,-0.00690589053556323,0.00800137314945459,-0.00690266909077764,0,
00:00:06.192,-0.00725585874170065,-0.00701596168801188,-0.0129093592986465,0,
00:00:06.196,0.00784101989120245,-0.00726101221516728,-0.000866397400386631,0,
00:00:06.2,0.0181307587772608,0.0279087368398905,0.00380246434360743,0,
00:00:06.204,0.0033991145901382,0.0224825534969568,0.00642015691846609,0,
00:00:06.208,-0.00896075833588839,-0.043318685144186,0.0154728228226304,0,
00:00:06.212,-0.0135376742109656,-0.0284691397100687,-0.00817751232534647,0,
00:00:06.216,-0.00265145511366427,0.0374596826732159,-0.00751324323937297,0,
00:00:06.22,0.0120434146374464,0.0155076328665018,0.00470494059845805,0,
00:00:06.224,-0.000617177167441696,-0.0164340734481812,-0.00156676350161433,0,
00:00:06.228,-0.00297976611182094,0.0019702804274857,-0.0187524668872356,0,
00:00:06.232,-0.00142197450622916,-0.00623790826648474,0.00858368724584579,0,
00:00:06.236,-0.00364502449519932,-0.00847368966788054,0.0149870999157429,0,
00:00:06.24,0.00328120426274836,-0.00631445599719882,-0.0037277399096638,0,
00:00:06.244,0.00441120518371463,0.0120624424889684,-0.00529555277898908,0,
00:00:06.248,0.0107067488133907,0.0243024434894323,0.00246295565739274,0,
00:00:06.252,-0.00182753789704293,0.00713346665725112,-0.000470764993224293,0,
00:00:06.256,-0.0142162861302495,-0.0219538863748312,-0.00500157102942467,0,
00:00:06.26,-0.0096549978479743,-0.0323786176741123,0.0015494127292186,0,
00:00:06.264,0.00149051193147898,-0.00897803530097008,0.00131406215950847,0,
00:00:06.268,0.016180194914341,0.0314300917088985,0.0167443938553333,0,
00:00:06.272,0.0101853217929602,0.0418672002851963,-0.00776575412601233,0,
00:00:06.276,-0.0106508368626237,0.00020257655705791,-0.0147860730066895,0,
00:00:06.28,-0.0156578626483679,-0.0467695035040379,-0.000980634475126863,0,
00:00:06.284,0.0141396569088101,-0.00943384319543839,0.00863978080451488,0,
00:00:06.288,0.00246002012863755,0.0116418497636914,-0.00349749275483191,0,
00:00:06.292,-0.00694259582087398,0.0191316772252321,-0.00113931973464787,0,
00:00:06.296,-0.00147517642471939,-0.00630891602486372,0.00476975739002228,0,
00:00:06.3,-0.000550971482880414,-0.00252003804780543,0.0121460193768144,0,
00:00:06.304,0.00413536932319403,-0.00709111848846078,-0.00924528203904629,0,
00:00:06.308,0.00301827047951519,-0.0214912239462137,0.00201353966258466,0,
00:00:06.312,0.00248085614293814,0.0218670684844255,-0.00318467919714749,0,
00:00:06.316,-0.00962368305772543,0.0231120325624943,-0.010762145742774,0,
00:00:06.32,0.000368336128303781,-0.0108894957229495,-0.000932049995753914,0,
00:00:06.324,0.0158713757991791,-0.0137970503419638,-0.00352662475779653,0,
00:00:06.328,-0.00716088665649295,0.00492283655330539,0.0114007024094462,0,
00:00:06.332,-0.015359403565526,0.00940087996423244,0.016005864366889,0,
