Elapsed Time,EMG1,EMG2,EMG3,BioRadio Event,
00:00:00,-0.153607726097107,-0.959010422229767,1.78932237625122,0,
00:00:00.004,0.137870743870735,0.910523176193237,-1.70480370521545,0,
00:00:00.008,0.12110935151577,0.756447613239288,-1.42384457588196,0,
00:00:00.012,0.0296460874378681,0.0894602313637733,-0.139012709259987,0,
00:00:00.016,-0.0508340522646904,-0.377478897571564,0.747380018234253,0,
00:00:00.02,-0.0821240767836571,-0.493001103401184,0.874544322490692,0,
00:00:00.024,-0.0652728155255318,-0.298570841550827,0.508152604103088,0,
00:00:00.028,-0.0282037630677223,-0.0356328375637531,0.0851538926362991,0,
00:00:00.032,0.042246837168932,0.149179428815842,-0.25449612736702,0,
00:00:00.036,0.0650131106376648,0.192132487893105,-0.352114081382751,0,
00:00:00.04,-0.0079283881932497,0.134393736720085,-0.25490328669548,0,
00:00:00.044,-0.00787686835974455,0.0532195866107941,-0.0984954908490181,0,
00:00:00.048,0.041697446256876,-0.0161247365176678,0.0340267680585384,0,
00:00:00.052,-0.0207088924944401,-0.044966671615839,0.108406841754913,0,
00:00:00.056,-0.0516846217215061,-0.0737553834915161,0.0992828086018562,0,
00:00:00.06,0.0074494038708508,-0.042218666523695,0.041226327419281,0,
00:00:00.064,0.0368626080453396,0.00177024444565177,0.0130680250003934,0,
00:00:00.068,-0.0361218005418777,0.0275201927870512,-0.0127389654517174,0,
00:00:00.072,0.0139786563813686,0.0401693023741245,-0.0579645782709122,0,
00:00:00.076,0.0213110465556383,0.0177829973399639,-0.0406569615006447,0,
00:00:00.08,0.0096998754888773,0.000349387351889163,-0.00274192192591727,0,
00:00:00.084,-0.00161142065189779,-0.0229126140475273,0.017285417765379,0,
00:00:00.088,-0.0125593617558479,-0.0327256359159946,0.0266574807465076,0,
00:00:00.092,-0.0283542275428772,-0.00406962959095836,0.0176742430776358,0,
00:00:00.096,-0.0125777712091804,0.0132058495655656,0.0175985656678677,0,
00:00:00.1,0.0313738733530045,0.0223363824188709,-0.0194372292608023,0,
00:00:00.104,0.0129297105595469,0.0101018045097589,-0.030772453173995,0,
00:00:00.108,-4.24067111453041E-05,-0.00542610790580511,-0.0157924648374319,0,
00:00:00.112,-0.010150876827538,-0.00775490747764707,0.000573862518649548,0,
00:00:00.116,-0.00227483222261071,-0.0154590606689453,0.0170468613505363,0,
00:00:00.12,0.00192131113726646,0.00610171817243099,0.0214056968688965,0,
00:00:00.124,-0.00603885110467672,0.000329510599840432,0.00875189434736967,0,
00:00:00.128,0.00648173922672868,0.00119587336666882,0.00214410852640867,0,
00:00:00.132,-0.0132375257089734,0.00450106244534254,-0.0200567804276943,0,
00:00:00.136,0.0327721647918224,-0.00390714546665549,-0.0119431642815471,0,
00:00:00.14,0.0122708203271031,0.0198871996253729,-0.00360508472658694,0,
00:00:00.144,-0.0734200552105904,-0.0151276551187038,0.0152427861467004,0,
00:00:00.148,-0.00653085298836231,-0.00276444689370692,0.00832574255764484,0,
00:00:00.152,0.0586312226951122,-0.00324134109541774,-0.0184949561953545,0,
00:00:00.156,0.0170196574181318,-0.0118517130613327,0.00484923692420125,0,
00:00:00.16,-0.0208222270011902,0.00435545202344656,0.00906429346650839,0,
00:00:00.164,-0.0168844033032656,0.00574429240077734,0.000295803794870153,0,
00:00:00.168,0.0135119734331965,0.0156561378389597,-0.00778311723843217,0,
00:00:00.172,0.00287796789780259,0.0119282621890306,-0.0141855515539646,0,
00:00:00.176,-0.0128538534045219,-0.0170866642147303,0.0237548984587193,0,
00:00:00.18,-0.0146831506863236,-0.0164150446653366,0.00223242840729654,0,
00:00:00.184,0.027282202616334,0.00719279702752829,0.00264150463044643,0,
00:00:00.188,0.00814242474734783,0.00926887337118387,-0.0176858827471733,0,
00:00:00.192,-0.0288346912711859,-0.0110824219882488,-0.0113373817875981,0,
00:00:00.196,0.00526479398831725,-0.000846279843244702,0.013198803178966,0,
00:00:00.2,0.0168514028191566,0.00630109664052725,0.0088220527395606,0,
00:00:00.204,0.00741543062031269,0.0170286204665899,-0.00447713118046522,0,
00:00:00.208,-0.0328399464488029,-0.0257454738020897,0.00508294301107526,0,
00:00:00.212,0.00836898293346167,0.00604868028312922,-0.00731420889496803,0,
00:00:00.216,-0.0101240649819374,0.00587691459804773,-0.00825106259435415,0,
00:00:00.22,0.0554957427084446,0.00134481897111982,0.0218942202627659,0,
00:00:00.224,-0.00418419856578112,0.00212939502671361,-0.00446939235553145,0,
00:00:00.228,-0.0533807128667831,-0.0192225482314825,-0.00722942780703306,0,
00:00:00.232,-0.000837093044538051,0.000572482123970985,-0.00911743938922882,0,
00:00:00.236,0.0154430167749524,0.0152319427579641,-0.00343801942653954,0,
00:00:00.24,-0.00596530502662063,0.00652263546362519,-0.00984857324510813,0,
00:00:00.244,0.00515202479436994,0.00281659001484513,0.0422498546540737,0,
00:00:00.248,0.025430541485548,-0.00478001032024622,0.0077080219052732,0,
00:00:00.252,-0.00768955191597342,-0.0160326473414898,-0.0194605849683285,0,
00:00:00.256,-0.0121050234884024,0.000141046999488026,-0.0238562058657408,0,
00:00:00.26,0.0127376494929194,0.00494885956868529,-0.00217823102138937,0,
00:00:00.264,-0.0315552465617657,3.80709170713089E-05,0.0107797235250473,0,
00:00:00.268,-0.0156011059880257,0.00148791598621756,0.0224441811442375,0,
00:00:00.272,0.0377212241292,0.00267977453768253,-0.0035790263209492,0,
00:00:00.276,0.033967312425375,0.00627849344164133,-0.0191895142197609,0,
00:00:00.28,-0.0141749903559685,-0.00129444384947419,-0.0103468215093017,0,
00:00:00.284,-0.0309666153043509,0.00221612094901502,0.00631697615608573,0,
00:00:00.288,0.00296768499538302,-0.0113503308966756,0.0112255960702896,0,
00:00:00.292,0.00188178138341755,-0.0208680424839258,0.0203215200453997,0,
00:00:00.296,-0.00944369658827782,0.0215789172798395,-0.00803176872432232,0,
00:00:00.3,0.0188777428120375,0.0236451178789139,-0.01686767116189,0,
00:00:00.304,-0.000977904186584055,-0.0123699121177197,0.00296644004993141,0,
00:00:00.308,-0.000817433930933475,-0.00566420191898942,-0.00295395124703646,0,
00:00:00.312,-0.0191473420709372,-0.00637291418388486,-0.00082113966345787,0,
00:00:00.316,0.0192308500409126,-0.00711120059713721,0.0207554157823324,0,
00:00:00.32,-0.00473277969285846,-0.00563202565535903,-0.0147203179076314,0,
00:00:00.324,0.00020990299526602,0.0201537180691957,-0.0208906307816505,0,
00:00:00.328,0.0101088145747781,0.00956682302057743,0.00689474353566766,0,
00:00:00.332,0.00163012079428881,-0.00853783264756203,0.0113632315769792,0,
00:00:00.336,-0.0103401271626353,-0.00821928773075342,0.0231556035578251,0,
00:00:00.34,-0.0121495379135013,0.00164434022735804,-0.00686679827049375,0,
00:00:00.344,0.0127836018800735,0.0043389773927629,-0.0196695141494274,0,
00:00:00.348,-0.0220158733427525,-0.00982631556689739,-0.00687065161764622,0,
00:00:00.352,0.00416886899620295,-0.00291714305058122,0.0241101197898388,0,
00:00:00.356,0.0233262348920107,0.0173767488449812,-0.0147180734202266,0,
00:00:00.36,0.012890606187284,-0.000505143951158971,-0.0150664830580354,0,
00:00:00.364,0.00413454277440906,-0.0028908362146467,0.0222422275692225,0,
00:00:00.368,-0.0204037167131901,0.000686068378854543,0.00464897276833653,0,
00:00:00.372,-0.00295548490248621,-0.0146358078345656,0.00437414273619652,0,
00:00:00.376,-0.0250589773058891,0.00392514374107122,-0.0321097671985626,0,
00:00:00.38,0.0268620997667313,0.0172317232936621,-0.0129234297201037,0,
00:00:00.384,0.00191430759150535,-0.00838324148207903,0.0583109259605408,0,
00:00:00.388,-0.0108006643131375,-0.00447107059881091,-0.00284919422119856,0,
00:00:00.392,-0.00548356398940086,-0.00566181866452098,-0.0153270838782191,0,
00:00:00.396,0.00662061478942633,-0.00803979765623808,-0.0224131271243095,0,
00:00:00.4,0.035716038197279,0.0206256620585918,-0.0151348002254963,0,
00:00:00.404,-0.0166296027600765,0.0117002110928297,0.0214943662285805,0,
00:00:00.408,-0.0295937918126583,-0.000884485489223152,0.0148697681725025,0,
00:00:00.412,-0.0299029015004635,-0.0373007282614708,0.0110413637012243,0,
00:00:00.416,0.0564931109547615,0.00846497807651758,-0.00879241805523634,0,
00:00:00.42,0.0211310181766748,0.0132303014397621,0.00367061677388847,0,
00:00:00.424,-0.0117630930617452,0.0115020126104355,-0.0194249525666237,0,
00:00:00.428,-0.0294046215713024,-0.00172626960556954,-0.0133683430030942,0,
00:00:00.432,-0.00248734164051712,-0.00925574265420437,0.008271224796772,0,
00:00:00.436,0.00386301195248961,-0.000219418536289595,0.0030485677998513,0,
00:00:00.44,0.00764198414981365,-0.0132527966052294,0.0183970723301172,0,
00:00:00.444,-0.0165203530341387,0.0036064509768039,-0.00744118541479111,0,
00:00:00.448,0.0426177643239498,0.0120855700224638,-0.00838997401297092,0,
00:00:00.452,0.00695200031623244,0.0056973067112267,0.0208911579102278,0,
00:00:00.456,-0.0595028176903725,-0.0101732881739736,0.0105612399056554,0,
00:00:00.46,-0.0140611389651895,-0.0119718965142965,-0.0286555793136358,0,
00:00:00.464,0.0391006655991077,0.00953488796949387,-0.0233345720916986,0,
00:00:00.468,0.0253059044480324,0.0141886528581381,0.00841581076383591,0,
00:00:00.472,-0.0108905080705881,0.00555086042732,0.0260253045707941,0,
00:00:00.476,-0.00740968808531761,-0.00364937842823565,-0.00365967303514481,0,
00:00:00.48,0.0402893647551537,-0.0140799945220351,-0.0146352117881179,0,
00:00:00.484,-0.052679356187582,-0.0134178353473544,0.0146987000480294,0,
00:00:00.488,-0.0577777214348316,-0.00929061509668827,0.00510600442066789,0,
00:00:00.492,0.040233138948679,0.0283582098782063,-0.00267265061847866,0,
00:00:00.496,0.0302116554230452,0.00428215134888887,0.00477655651047826,0,
00:00:00.5,0.00763567537069321,-0.00329352915287018,-0.0289008282124996,0,
00:00:00.504,0.0136161744594574,0.00462718028575182,0.0164215005934238,0,
00:00:00.508,-0.00311935250647366,-0.00352145405486226,0.00584918120875955,0,
00:00:00.512,-0.0211684573441744,-0.0230280309915543,-0.0186720192432404,0,
00:00:00.516,-0.0279678162187338,0.0152639457955956,0.007073731161654,0,
00:00:00.52,0.0148289743810892,0.00181391322985291,0.0014751743292436,0,
00:00:00.524,0.0159153118729591,-0.002511833794415,0.0223564226180315,0,
00:00:00.528,0.000723851786460727,0.00441362289711833,-0.00912627391517162,0,
00:00:00.532,-0.0125442566350102,0.00477329455316067,-0.0160558149218559,0,
00:00:00.536,0.00422911485657096,0.00152020831592381,-0.00293326145038009,0,
00:00:00.54,-0.00505089713260531,-0.0184994842857122,0.0134782213717699,0,
00:00:00.544,-0.00521222362294793,0.010202419012785,0.00919552333652973,0,
00:00:00.548,0.0367993265390396,0.00571287143975496,-0.0144719127565622,0,
00:00:00.552,0.0181970372796059,-0.00723291141912341,-0.00243574450723827,0,
00:00:00.556,-0.0339148975908756,-0.0024642595089972,0.0104786809533834,0,
00:00:00.56,-0.0506729632616043,0.00517287477850914,-0.00734147988259792,0,
00:00:00.564,-0.00495679816231132,-0.00373154599219561,-0.0135800903663039,0,
00:00:00.568,0.035560667514801,-0.00984358787536621,0.0191330853849649,0,
00:00:00.572,0.0447132587432861,0.00976313091814518,0.00933668669313192,0,
00:00:00.576,-0.0126260593533516,0.024148752912879,-0.0216211378574371,0,
00:00:00.58,0.00329260504804552,-0.0068627567961812,-0.00113470072392374,0,
00:00:00.584,-0.0268809180706739,-0.0122351497411728,0.0132222091779113,0,
00:00:00.588,-0.00631750049069524,-0.0238742791116238,0.0151790380477905,0,
00:00:00.592,-0.00486013060435653,0.000369210145436227,-0.0162099190056324,0,
00:00:00.596,0.0113504352048039,0.0256791170686483,-0.0091502508148551,0,
00:00:00.6,-0.00449013197794557,0.0182456709444523,-0.00573769258335233,0,
00:00:00.604,0.000138977280585095,-0.0147915417328477,0.00702390447258949,0,
00:00:00.608,0.00354510266333818,-0.0210262089967728,0.00539988232776523,0,
00:00:00.612,0.0248314924538136,0.0116738099604845,0.0093705365434289,0,
00:00:00.616,0.0118229128420353,0.000919309328310192,0.00304578198119998,0,
00:00:00.62,-0.0270638838410378,-0.0112879574298859,-0.0222498457878828,0,
00:00:00.624,-0.0395684503018856,0.018224136903882,-0.00304972822777927,0,
00:00:00.628,-0.0086188055574894,0.00333204073831439,0.027578504756093,0,
00:00:00.632,0.0366407334804535,-0.0107834665104747,-0.0096719041466713,0,
00:00:00.636,0.0510778613388538,-0.00625266414135695,-0.0119400909170508,0,
00:00:00.64,-0.0142087591812015,0.00726026482880116,-0.00334635213948786,0,
00:00:00.644,-0.035253681242466,0.00713287619873881,0.0101645374670625,0,
00:00:00.648,-0.0192066133022308,-0.00430904421955347,0.00230920920148492,0,
00:00:00.652,-0.000559590640477836,-0.00923243816941977,-0.010885207913816,0,
00:00:00.656,0.023045789450407,-0.000122992627439089,0.0046770959161222,0,
00:00:00.66,0.0170939341187477,0.0165929645299912,0.028021328151226,0,
00:00:00.664,-0.00533898174762726,-0.00150185788515955,-0.0119310617446899,0,
00:00:00.668,-0.00770783377811313,-0.0200629066675901,-0.0232129525393248,0,
00:00:00.672,-0.00184247375000268,0.00995679944753647,0.00196162960492074,0,
00:00:00.676,-0.00846099108457565,0.00624400656670332,0.00260956864804029,0,
00:00:00.68,-0.00888698734343052,-0.0210483558475971,0.00589867262169719,0,
00:00:00.684,0.0114830797538161,0.0035599663387984,-0.00681391917169094,0,
00:00:00.688,-0.00800338946282864,0.0164207424968481,0.00394697301089764,0,
00:00:00.692,0.0209663175046444,0.0160155203193426,0.0124517874792218,0,
00:00:00.696,0.0200999602675438,0.00396818714216352,0.00590113690122962,0,
00:00:00.7,-0.00936864223331213,-0.0214439574629068,-0.0172390341758728,0,
00:00:00.704,-0.0221454817801714,-0.0221833363175392,0.0190881155431271,0,
00:00:00.708,-0.0172172896564007,0.00958133209496737,-0.0216576457023621,0,
00:00:00.712,-0.00860931538045406,0.012045462615788,-0.0128297917544842,0,
00:00:00.716,0.0187392365187407,0.00494840834289789,-0.00447464361786842,0,
00:00:00.72,0.0457622930407524,-0.0120098311454058,0.0219896845519543,0,
00:00:00.724,-0.00128955522086471,0.00350931030698121,0.010809987783432,0,
00:00:00.728,-0.0399931482970715,0.00460852729156613,-0.00356262805871665,0,
00:00:00.732,-0.0441322475671768,0.00123122369404882,-0.00110939587466419,0,
00:00:00.736,0.0260422416031361,-0.0120174996554852,0.00570010673254728,0,
00:00:00.74,0.0433068946003914,0.00116891099605709,-0.0195525903254747,0,
00:00:00.744,0.00940510723739862,0.00827831588685513,0.000945788575336337,0,
00:00:00.748,-0.0197783298790455,0.0135423969477415,0.00103950942866504,0,
00:00:00.752,-0.00454665627330542,-0.00161587016191334,-0.00320725841447711,0,
00:00:00.756,-0.0251999329775572,-0.00947409123182297,0.0155882360413671,0,
00:00:00.76,0.00023833972227294,-0.0152276968583465,0.0115416217595339,0,
00:00:00.764,0.0355691313743591,0.00189133430831134,-0.00979054253548384,0,
00:00:00.768,0.00971055310219526,0.00188664509914815,-0.0203897785395384,0,
00:00:00.772,-0.0338117219507694,-0.00405870331451297,0.00400151591747999,0,
00:00:00.776,-0.0157538130879402,0.00830266624689102,0.0054332697764039,0,
00:00:00.78,0.00178137188777328,0.0111790774390101,-0.00882922764867544,0,
00:00:00.784,0.0381422452628613,0.0207895487546921,0.00885992217808962,0,
00:00:00.788,0.0150809194892645,-0.0187164060771465,0.0111493123695254,0,
00:00:00.792,-0.029662536457181,-0.0253834538161755,0.0175783410668373,0,
00:00:00.796,-0.0111840255558491,0.00349811860360205,-0.0220994222909212,0,
00:00:00.8,0.0198180321604013,0.00954922288656235,-0.0119650587439537,0,
00:00:00.804,-0.00966844521462917,-0.000127085178974085,-0.00680917594581842,0,
00:00:00.808,-0.0154830515384674,0.0027620957698673,0.00716501008719206,0,
00:00:00.812,0.0279803033918142,0.0129029871895909,0.00415970152243972,0,
00:00:00.816,-0.0115262139588594,-0.00492301816120744,0.00402677338570356,0,
00:00:00.82,-0.0320150963962078,-0.0129888961091638,-0.00328892795369029,0,
00:00:00.824,0.0293997004628181,-0.00365558615885675,0.0192944463342428,0,
00:00:00.828,0.0172255747020245,0.0108836386352777,-0.00993873458355665,0,
00:00:00.832,-0.0257890429347754,-0.0199277885258198,-0.00295226904563606,0,
00:00:00.836,0.0402289666235447,0.014788655564189,-0.0220312774181366,0,
00:00:00.84,-0.0161741822957993,0.0178710520267487,0.0164164770394564,0,
00:00:00.844,-0.00927567202597857,0.000647094915620983,0.0192328095436096,0,
00:00:00.848,-0.0124600268900394,-0.0173938032239676,-0.013915978372097,0,
00:00:00.852,-0.0305435247719288,-0.0102550834417343,-0.0128938732668757,0,
00:00:00.856,0.036211084574461,0.00710645643994212,-0.00242516864091158,0,
00:00:00.86,0.0181124433875084,0.00937077961862087,0.00951060093939304,0,
00:00:00.864,-0.0290157776325941,-0.00585441244766116,0.00531299132853746,0,
00:00:00.868,0.0142880622297525,0.000493235420435667,-0.00890883896499872,0,
00:00:00.872,0.0360659845173359,0.00781030487269163,0.00463596964254975,0,
00:00:00.876,-0.0252692736685276,-0.00940654240548611,0.0329607650637627,0,
00:00:00.88,-0.0222314819693565,0.00279187737032771,-0.0296474639326334,0,
00:00:00.884,-0.0224789809435606,2.89295385300647E-05,-0.010771119967103,0,
00:00:00.888,0.00151560723315924,-0.0176228638738394,0.00790140684694052,0,
00:00:00.892,0.0532722845673561,0.0253931079059839,-0.0143479444086552,0,
00:00:00.896,0.0231695249676704,0.01147535815835,0.00342778651975095,0,
00:00:00.9,-0.0548130013048649,-0.0266763456165791,0.00575976725667715,0,
00:00:00.904,-0.00552862323820591,-0.0120740681886673,0.0202033016830683,0,
00:00:00.908,0.00318116974085569,0.0155041897669435,0.00213499064557254,0,
00:00:00.912,0.00812400598078966,0.0150065878406167,-0.0163268707692623,0,
00:00:00.916,0.01782569848001,-0.00375044997781515,-0.00779619347304106,0,
00:00:00.92,0.00401068385690451,-0.00914562307298183,0.0131110306829214,0,
00:00:00.924,-0.0166022256016731,0.00617695041000843,-0.000901365943718702,0,
00:00:00.928,-0.0222896318882704,-0.00447438796982169,-0.00711060408502817,0,
00:00:00.932,0.0106199504807591,-0.00644617388024926,0.00460734125226736,0,
00:00:00.936,0.0264546256512403,0.00107394903898239,-0.00895879045128822,0,
00:00:00.94,-0.0138367377221584,0.00145489780697972,-0.0115240076556802,0,
00:00:00.944,0.0130573716014624,0.0131539078429341,0.00781465135514736,0,
00:00:00.948,-0.011499522253871,-0.00103121320717037,0.017161151394248,0,
00:00:00.952,-0.0183230470865965,-0.0170389413833618,0.0129227600991726,0,
00:00:00.956,-0.0209207832813263,-0.00214484543539584,0.000419959047576413,0,
00:00:00.96,0.0299947299063206,0.00576758896932006,-0.00431484030559659,0,
00:00:00.964,0.0373315177857876,0.00879582855850458,-0.0328971818089485,0,
00:00:00.968,-0.0217915587127209,0.0058843744918704,-0.0047664362937212,0,
00:00:00.972,-0.00621501728892326,-0.00142705987673253,0.0121063506230712,0,
00:00:00.976,-0.00753309996798635,-0.00971399247646332,0.0208601336926222,0,
00:00:00.98,-0.0197231248021126,-0.00759648531675339,0.00235294224694371,0,
00:00:00.984,0.0109200747683644,0.00874216202646494,-0.00481797941029072,0,
00:00:00.988,0.039088137447834,0.0037280002143234,-0.0181571301072836,0,
00:00:00.992,-0.000151848973473534,-0.0110536422580481,-0.0126188909634948,0,
00:00:00.996,-0.0321006439626217,0.00946882460266352,0.0221954733133316,0,
00:00:01,-0.00726804742589593,0.00623183790594339,0.00323946052230895,0,
00:00:01.004,-0.000471107545308769,-0.0117382192984223,0.0101683065295219,0,
00:00:01.008,-0.00229676370508969,0.00447881827130914,0.0027539087459445,0,
00:00:01.012,0.0362188257277012,0.00328615307807922,-0.0197021216154099,0,
00:00:01.016,0.00428097788244486,-0.00529541028663516,-0.00468784337863326,0,
00:00:01.02,-0.038915429264307,-0.00977359898388386,0.0067425318993628,0,
00:00:01.024,-0.00913859717547894,0.00209316401742399,0.00251544569619,0,
00:00:01.028,0.0224737953394651,0.00940931774675846,-0.00211189989931881,0,
00:00:01.032,0.0256264973431826,0.0167720094323158,-0.00929333176463842,0,
00:00:01.036,-0.0199856404215097,-0.00495883682742715,0.0108429361134768,0,
00:00:01.04,-0.02990941144526,-0.013203707523644,0.00413079326972365,0,
00:00:01.044,0.00716527132317424,-0.00395344803109765,0.00640711188316345,0,
00:00:01.048,0.0299941543489695,-0.0106261661276221,-0.015912739560008,0,
00:00:01.052,0.00879036448895931,0.0048976126126945,0.00515112746506929,0,
00:00:01.056,-0.0214644409716129,0.0116424635052681,0.00904037710279226,0,
00:00:01.06,0.0184135399758816,0.00703426776453853,-0.00218768697232008,0,
00:00:01.064,-0.00285181473009288,0.00442472426220775,-0.00877849664539099,0,
00:00:01.068,-0.0265708975493908,-0.00580632174387574,-0.0117088900879025,0,
00:00:01.072,-0.0340171046555042,-0.0139964502304792,0.00173618143890053,0,
00:00:01.076,0.0264958571642637,0.00324156507849693,0.016465300694108,0,
00:00:01.08,0.0425413101911545,-0.00384398060850799,-0.00446091871708632,0,
00:00:01.084,-0.0221397876739502,-0.00327326264232397,0.00702839158475399,0,
00:00:01.088,-0.0196125619113445,0.0172089282423258,-2.07905377465067E-05,0,
00:00:01.092,0.0656877681612968,0.0129354353994131,3.60767444362864E-05,0,
00:00:01.096,-0.00378022692166269,-0.00310167064890265,-0.0145588973537087,0,
00:00:01.1,-0.0539737120270729,-0.026660667732358,-0.0100727900862694,0,
00:00:01.104,-0.0330115407705307,-0.0161344893276691,0.0103638423606753,0,
00:00:01.108,0.0181039497256279,0.0264536738395691,0.0159302707761526,0,
00:00:01.112,-0.00197102874517441,-0.000897278776392341,0.00757928099483252,0,
00:00:01.116,0.045609924942255,0.0109029645100236,-0.018909765407443,0,
00:00:01.12,0.0159321576356888,-0.000933750241529197,-7.8719858720433E-05,0,
00:00:01.124,-0.022082032635808,-0.00334554049186409,0.00736241322010756,0,
00:00:01.128,-0.0116446278989315,-0.00686305016279221,0.00565965194255114,0,
00:00:01.132,-0.00163177389185876,0.00861923769116402,-0.0161445681005716,0,
00:00:01.136,-0.0158018935471773,-0.0240933578461409,-0.0107381660491228,0,
00:00:01.14,-0.0044298879802227,-0.00580770568922162,0.0195007994771004,0,
00:00:01.144,0.0265134908258915,0.027671417221427,-0.00347340013831854,0,
00:00:01.148,0.015031585469842,0.0204068068414927,-0.00156429491471499,0,
00:00:01.152,-0.00697218021377921,-0.0209140703082085,0.00741050206124783,0,
00:00:01.156,-0.0227139741182327,-0.0144178764894605,0.00447200518101454,0,
00:00:01.16,0.0223270133137703,0.0130059206858277,-0.0197851713746786,0,
00:00:01.164,-0.0340337716042995,-0.00321932532824576,0.00290709780529141,0,
00:00:01.168,-0.0176740624010563,-0.00378745468333364,0.0179330483078957,0,
00:00:01.172,0.0573188960552216,-0.00220866617746651,-0.00959923025220633,0,
00:00:01.176,0.016605157405138,0.000295681064017117,-6.89559456077404E-05,0,
00:00:01.18,-0.0186291094869375,0.022891828790307,-0.0186315160244703,0,
00:00:01.184,-0.0215669833123684,-0.0026254253461957,0.0164392180740833,0,
00:00:01.188,-0.0189525876194239,-0.011729302816093,0.0048501743003726,0,
00:00:01.192,0.00281865522265434,-0.0116971265524626,0.00867997016757727,0,
00:00:01.196,0.0138038694858551,-0.0178050231188536,-0.000746219069696963,0,
00:00:01.2,0.0235497914254665,0.0177557207643986,-0.0179607346653938,0,
00:00:01.204,-0.00569585571065545,0.0138130523264408,0.00187327654566616,0,
00:00:01.208,-0.00517167523503304,0.0060348566621542,0.00197770074009895,0,
00:00:01.212,0.0123539492487907,0.0010826732032001,-0.00505087804049253,0,
00:00:01.216,-0.0433033518493176,-0.00665471144020557,0.0105999149382114,0,
00:00:01.22,0.0264008454978466,0.00388371129520237,-0.0133509542793036,0,
00:00:01.224,0.0154837369918823,-0.0129481004551053,0.0132659450173378,0,
00:00:01.228,-0.0171286873519421,0.000414551672292873,0.0212825760245323,0,
00:00:01.232,-0.0144111700356007,-0.00875218026340008,-0.0217409525066614,0,
00:00:01.236,0.0231208987534046,0.00387852056883276,-0.0176238548010588,0,
00:00:01.24,0.00449166120961308,0.00533595960587263,-0.00398655002936721,0,
00:00:01.244,-0.0465549677610397,0.0155661255121231,0.00863139890134335,0,
00:00:01.248,0.0222175307571888,-0.00696739740669727,0.0182477012276649,0,
00:00:01.252,0.0175565350800753,-0.0164435282349586,0.0227585788816214,0,
00:00:01.256,-0.00253532896749675,0.00930854771286249,-0.0108479922637343,0,
00:00:01.26,0.0129706859588623,0.00656345160678029,-0.0260868966579437,0,
00:00:01.264,0.0295952595770359,0.000957826909143478,-0.0222038011997938,0,
00:00:01.268,-0.0319112241268158,-0.00275356764905155,0.00145845068618655,0,
00:00:01.272,-0.038815762847662,0.00480836536735296,0.0269749462604523,0,
00:00:01.276,-0.0158940926194191,-0.00802750419825315,0.0137218311429024,0,
00:00:01.28,0.0183703154325485,-0.0255043301731348,-0.00297891907393932,0,
00:00:01.284,0.0324311405420303,0.0123340105637908,0.0144489137455821,0,
00:00:01.288,0.0107422573491931,0.0321117490530014,-0.0179295763373375,0,
00:00:01.292,-0.00672975135967135,-0.00282273907214403,-0.0155818862840533,0,
00:00:01.296,-0.0230684000998735,-0.016627736389637,-0.0121071049943566,0,
00:00:01.3,0.017019122838974,-0.00743570365011692,0.00872470065951347,0,
00:00:01.304,-0.0123624382540584,0.00480478722602129,0.00335427396930754,0,
00:00:01.308,0.00504744192585349,0.00467122858390212,0.0103657394647598,0,
00:00:01.312,0.00587084563449025,0.00746959308162332,-0.00143325747922063,0,
00:00:01.316,-0.013336013071239,-0.0176250487565994,0.0251154564321041,0,
00:00:01.32,-0.00141634850297123,-0.00324681447818875,-0.0108972946181893,0,
00:00:01.324,0.0172866526991129,0.0144339641556144,-0.0170953813940287,0,
00:00:01.328,-0.0022501228377223,0.00624179188162088,-0.00963800027966499,0,
00:00:01.332,-0.000511304708197713,0.00051228713709861,-0.00839322339743376,0,
00:00:01.336,-0.026782214641571,-0.0132558830082417,0.0072993659414351,0,
00:00:01.34,-0.00606124801561236,-0.00435585435479879,0.0396509394049644,0,
00:00:01.344,0.0181254856288433,-0.00361112458631396,-0.00809765327721834,0,
00:00:01.348,0.0460855476558208,0.021322850137949,-0.0309046898037195,0,
00:00:01.352,-0.014925797469914,0.00299872714094818,0.00243022688664496,0,
00:00:01.356,0.00123984226956964,-0.00839631073176861,-0.00778114935383201,0,
00:00:01.36,-0.0317836701869965,-0.00971416663378477,0.0270469319075346,0,
00:00:01.364,-0.0145596405491233,-0.000744169461540878,0.000976991839706898,0,
00:00:01.368,0.0150441220030189,0.00732679665088654,-0.00440296763554215,0,
00:00:01.372,-0.0192945394665003,-0.015025706961751,0.00514146452769637,0,
00:00:01.376,-0.00386111834086478,0.0145457675680518,-0.0173685289919376,0,
00:00:01.38,0.0828312635421753,0.0134816635400057,-0.0154083147644997,0,
00:00:01.384,-0.00220617884770036,0.000558753090444952,0.0133325885981321,0,
00:00:01.388,-0.0662226229906082,-0.0124017829075456,0.0144372181966901,0,
00:00:01.392,-0.0226764753460884,-0.0157238785177469,0.0139303924515843,0,
00:00:01.396,0.0172168668359518,0.00797664932906628,-0.0167310871183872,0,
00:00:01.4,0.0255074296146631,0.000233855229453184,-0.00264512072317302,0,
00:00:01.404,0.0156683344393969,0.0104060918092728,-0.00919596198946238,0,
00:00:01.408,0.00987605843693018,0.00428749807178974,-0.0039812927134335,0,
00:00:01.412,-0.0324523411691189,-0.00917491596192122,0.0109910238534212,0,
00:00:01.416,-0.00726336427032948,-0.00197291607037187,0.0188481099903584,0,
00:00:01.42,0.000737508409656584,-0.00799223408102989,-0.0146756274625659,0,
00:00:01.424,0.00687779067084193,0.000276834034593776,0.00247025233693421,0,
00:00:01.428,0.00509296031668782,0.0232546404004097,-0.021035335958004,0,
00:00:01.432,-0.0276866629719734,-0.00453598937019706,0.0110492166131735,0,
00:00:01.436,0.0222221799194813,-0.00726115331053734,0.01127078384161,0,
00:00:01.44,0.0373185686767101,-0.00704250251874328,-0.0119716664776206,0,
00:00:01.444,0.00487776100635529,-0.00351210567168891,0.0159529466181993,0,
00:00:01.448,-0.0314805693924427,0.0110713867470622,-0.000182473726454191,0,
00:00:01.452,-0.0430435612797737,-0.00654376298189163,-0.00531868496909738,0,
00:00:01.456,-0.000150632942677476,0.00382383563555777,-0.0172578282654285,0,
00:00:01.46,0.0308609157800674,0.0186312086880207,-0.0174195431172848,0,
00:00:01.464,0.0256560407578945,-0.0107448594644666,0.0272538531571627,0,
00:00:01.468,0.00126465514767915,-0.0151067646220326,0.0232123788446188,0,
00:00:01.472,-0.0412535667419434,-0.0116110732778907,-0.00155018386431038,0,
00:00:01.476,0.00390578410588205,0.0180881395936012,-0.0202335137873888,0,
00:00:01.48,0.025545870885253,0.00444013858214021,-0.00741139380261302,0,
00:00:01.484,0.00646210368722677,0.00189746031537652,0.00328432582318783,0,
00:00:01.488,-0.0149458386003971,0.00516346422955394,0.00682619446888566,0,
00:00:01.492,-0.0188914369791746,-0.010507638566196,0.0172537919133902,0,
00:00:01.496,0.0195831377059221,-0.0114518012851477,-0.0276543628424406,0,
00:00:01.5,0.0146198850125074,0.00798836909234524,-0.00878816191107035,0,
00:00:01.504,-0.0293128825724125,-0.000507346820086241,0.0143962651491165,0,
00:00:01.508,-0.00688739214092493,0.00988367479294539,0.00723481643944979,0,
00:00:01.512,0.0508161932229996,0.0144080370664597,-0.00247505772858858,0,
00:00:01.516,-0.0222518872469664,-0.0192000642418861,0.000253908074228093,0,
00:00:01.52,-0.0348374545574188,-0.00824692193418741,0.00676795048639178,0,
00:00:01.524,-0.0104678953066468,-0.0193015541881323,-0.00402393843978643,0,
00:00:01.528,0.0476793833076954,0.0230808742344379,-0.011880025267601,0,
00:00:01.532,0.0511021614074707,0.0249333567917347,0.0236265882849693,0,
00:00:01.536,-0.026180699467659,-0.0199834741652012,-0.0230211913585663,0,
00:00:01.54,-0.100759848952293,-0.00190572557039559,-0.0143301617354155,0,
00:00:01.544,0.0270611252635717,0.00993132963776588,0.0144150098785758,0,
00:00:01.548,0.0394304171204567,-0.00336900702677667,0.00573593471199274,0,
00:00:01.552,0.00120438449084759,-0.0157489981502295,0.0226862151175737,0,
00:00:01.556,0.0141052324324846,-0.0118062244728208,-0.009049984626472,0,
00:00:01.56,-6.89914440954453E-06,0.0216364599764347,-0.02036720700562,0,
00:00:01.564,-0.00740923592820764,0.0147457206621766,-0.00598088139668107,0,
00:00:01.568,-0.0291957911103964,-0.0188842676579952,0.0110408570617437,0,
00:00:01.572,-0.000278135354164988,0.00661326572299004,0.00228088907897472,0,
00:00:01.576,0.00381490821018815,0.000969835964497179,0.0197035949677229,0,
00:00:01.58,0.0279740020632744,7.39930110285059E-05,-0.0146114053204656,0,
00:00:01.584,0.0144626423716545,-0.00642816536128521,-0.0119186621159315,0,
00:00:01.588,-0.0126480115577579,-0.00303680240176618,-0.0072958767414093,0,
00:00:01.592,-0.0145533438771963,0.00347313866950572,0.00958589185029268,0,
00:00:01.596,-0.00303511531092227,0.0055923224426806,0.00491373799741268,0,
00:00:01.6,-0.0181988775730133,0.00145307765342295,-0.00342589197680354,0,
00:00:01.604,0.0104844234883785,-0.00420597195625305,0.0152270598337054,0,
00:00:01.608,0.0275511331856251,-0.0011460977839306,0.00687074242159724,0,
00:00:01.612,-0.0286088231950998,-0.00457951705902815,-0.0214501488953829,0,
00:00:01.616,-0.0157143827527761,-0.000373156653949991,-0.0130907278507948,0,
00:00:01.62,0.0240723341703415,-0.000975910457782447,0.0119108697399497,0,
00:00:01.624,0.0314817354083061,0.0201653074473143,0.00175936392042786,0,
00:00:01.628,0.0074710575863719,-0.0209341868758202,0.0116125028580427,0,
00:00:01.632,-0.0196987167000771,0.0189013257622719,-0.00784986093640327,0,
00:00:01.636,-0.0160418935120106,-0.000229775469051674,0.00178062764462084,0,
00:00:01.64,-0.0135612208396196,-0.014878174290061,-2.55367449426558E-05,0,
00:00:01.644,-0.0250087678432465,-0.0104316184297204,-0.0213819332420826,0,
00:00:01.648,0.0115340882912278,0.00751716876402497,0.018872918561101,0,
00:00:01.652,0.0155215682461858,0.00639367569237947,0.0113607170060277,0,
00:00:01.656,0.0488149337470531,0.00342771108262241,-0.01576067507267,0,
00:00:01.66,0.00276735308580101,0.000425122852902859,-0.00656465953215957,0,
00:00:01.664,-0.0445512197911739,0.000646291940938681,0.00952997151762247,0,
00:00:01.668,-0.0249162446707487,-0.0059221894480288,0.0281629730015993,0,
00:00:01.672,0.0288285780698061,-0.0051369252614677,-0.0251977480947971,0,
00:00:01.676,0.0199009124189615,0.00291043589822948,-0.0142086148262024,0,
00:00:01.68,-0.00105070369318128,0.0044766366481781,-0.00135489786043763,0,
00:00:01.684,-0.0482561141252518,0.01302470266819,-0.00625773007050157,0,
00:00:01.688,-0.00625766906887293,-0.0138998534530401,0.0254691783338785,0,
00:00:01.692,0.0518587678670883,-0.00575027195736766,0.0167642701417208,0,
00:00:01.696,0.0178599692881107,0.0068170465528965,-0.0152110261842608,0,
00:00:01.7,-0.049167200922966,-0.00464237108826637,-0.0101455580443144,0,
00:00:01.704,0.015732865780592,-0.00605183001607656,-0.00168544182088226,0,
00:00:01.708,0.0676547363400459,0.0230026450008154,-0.00925465393811464,0,
00:00:01.712,-0.0682166293263435,0.00391590874642134,0.0114242229610682,0,
00:00:01.716,-0.0379777401685715,-0.0177107006311417,0.00932692922651768,0,
00:00:01.72,-0.00507793528959155,-0.0288472380489111,-0.00895500741899014,0,
00:00:01.724,0.0117914555594325,0.0192308984696865,0.00369675061665475,0,
00:00:01.728,0.029379777610302,0.0200278572738171,0.00910122506320477,0,
00:00:01.732,0.0477949343621731,0.00404871255159378,-0.00885533262044191,0,
00:00:01.736,-0.0023596363607794,-0.00974800996482372,-0.00384489819407463,0,
00:00:01.74,-0.0402895919978619,-0.00183169718366116,-0.00361389294266701,0,
00:00:01.744,-0.0176699925214052,-0.0122528411448002,-0.000145304526085965,0,
00:00:01.748,0.0153392655774951,-0.000824516464490443,-0.00378707051277161,0,
00:00:01.752,-0.0170669760555029,0.0124254850670695,0.0192497689276934,0,
00:00:01.756,-0.0239889603108168,0.0093218507245183,-0.0092777693644166,0,
00:00:01.76,0.0402150824666023,-0.00489770108833909,-0.00135644874535501,0,
00:00:01.764,0.0323054902255535,-0.0132189486175776,0.0153391361236572,0,
00:00:01.768,0.00256944797001779,-0.00202062004245818,-0.0173908248543739,0,
00:00:01.772,-0.0175359919667244,0.0234508980065584,-0.00559247750788927,0,
00:00:01.776,-0.0518081560730934,-0.00983434822410345,-0.00668467814102769,0,
00:00:01.78,0.00073426024755463,-0.0258124563843012,0.00381371774710715,0,
00:00:01.784,0.0517276711761951,0.0149903539568186,0.0263411235064268,0,
00:00:01.788,0.0248631313443184,0.00934252422302961,0.000923439336474985,0,
00:00:01.792,-0.0514755845069885,0.0182936135679483,-0.0220010913908482,0,
00:00:01.796,-0.00499300193041563,-0.00819770433008671,0.00447715353220701,0,
00:00:01.8,0.00173585419543087,-0.014012330211699,-0.0111756455153227,0,
00:00:01.804,0.00241367961280048,-0.0150514068081975,0.0137991709634662,0,
00:00:01.808,0.0253765154629946,0.0131384944543242,0.0158097017556429,0,
00:00:01.812,-0.0106462882831693,-0.00922031421214342,-0.00236442778259516,0,
00:00:01.816,0.00161481194663793,0.00925659015774727,-0.0279200673103333,0,
00:00:01.82,-0.023971239104867,0.00668946327641606,-0.00699523789808154,0,
00:00:01.824,0.0109796961769462,0.000164257158758119,0.0290103554725647,0,
00:00:01.828,-0.00127047428395599,-0.00560301030054688,-0.00319630955345929,0,
00:00:01.832,0.00179800146725029,0.00469016516581178,-0.0119562670588493,0,
00:00:01.836,0.0509829446673393,0.010871384292841,0.0112431030720472,0,
00:00:01.84,-0.00303142587654293,-0.00115393940359354,-0.00278542586602271,0,
00:00:01.844,-0.063246838748455,-0.0325093641877174,-0.0125136310234666,0,
00:00:01.848,-0.0261950958520174,-0.000532048870809376,-0.00182811729609966,0,
00:00:01.852,0.0246829222887754,0.0211627390235662,0.0280974730849266,0,
00:00:01.856,0.0414153300225735,0.0107417711988091,0.00167862593661994,0,
00:00:01.86,-0.0101574389263988,0.00142118125222623,-0.0211084857583046,0,
00:00:01.864,-0.00374579918570817,-0.014774726703763,-0.00334707135334611,0,
00:00:01.868,0.0090530002489686,-0.00650612078607082,0.00680113397538662,0,
00:00:01.872,-0.0107916872948408,0.00735494121909142,-0.0111716305837035,0,
00:00:01.876,0.00737028941512108,0.00492232525721192,0.0124934930354357,0,
00:00:01.88,-0.0197234805673361,-0.0107600223273039,0.00418664468452334,0,
00:00:01.884,-0.0158689878880978,-0.00581309432163835,-0.00954068545252085,0,
00:00:01.888,0.0317661352455616,0.0170204043388367,0.000598742219153792,0,
00:00:01.892,0.00731738656759262,0.00951859727501869,0.0100501058623195,0,
00:00:01.896,-0.011821249499917,0.00370042049326003,-0.00513872178271413,0,
00:00:01.9,-0.0107469102367759,-0.0249292962253094,-0.0127810118719935,0,
00:00:01.904,-0.00492662005126476,-0.0132341384887695,0.022205326706171,0,
00:00:01.908,0.00156464416068047,0.00799294374883175,-0.00481971865519881,0,
00:00:01.912,0.0427906475961208,0.0186784192919731,-0.00404778914526105,0,
00:00:01.916,0.00760270701721311,0.00193681905511767,0.0113396486267447,0,
00:00:01.92,-0.0302281770855188,0.000395984359784052,-0.0154517339542508,0,
00:00:01.924,-0.0405709445476532,-0.00372430658899248,-0.0197806879878044,0,
00:00:01.928,-0.0271175373345613,-0.0113780926913023,0.0181035324931145,0,
00:00:01.932,0.0484929755330086,-0.00186220137402415,-0.0106448139995337,0,
00:00:01.936,0.0405581779778004,0.00379639468155801,0.0165168605744839,0,
00:00:01.94,0.00487520778551698,0.0110971564427018,0.0224652476608753,0,
00:00:01.944,-0.0107447439804673,-0.002901591360569,-0.0158734321594238,0,
00:00:01.948,-0.0118671534582973,0.00174283748492599,-0.0118231233209372,0,
00:00:01.952,-0.0392577573657036,-0.0119638433679938,-0.00656534871086478,0,
00:00:01.956,-0.0136374477297068,0.00384004670195282,-0.00705101666972041,0,
00:00:01.96,0.0531052760779858,0.0046613784506917,0.0174731779843569,0,
00:00:01.964,0.0154851377010345,0.00533999316394329,0.00783427990972996,0,
00:00:01.968,-0.0342258214950562,-0.013824631460011,0.0061985207721591,0,
00:00:01.972,0.0028410165105015,0.0065037589520216,-0.0182685479521751,0,
00:00:01.976,0.00755444634705782,-0.00124269176740199,0.0110374828800559,0,
00:00:01.98,-0.0123494612053037,-0.00736215431243181,-0.00427495548501611,0,
00:00:01.984,0.017338277772069,0.00242053065448999,-0.0109832659363747,0,
00:00:01.988,-0.00262745912186801,0.0166889633983374,0.00679616816341877,0,
00:00:01.992,-0.00438157748430967,0.00544866500422359,-0.00386073929257691,0,
00:00:01.996,-0.00347409537062049,-0.0167131032794714,-0.00977420434355736,0,
00:00:02,-0.0075368988327682,-0.00869735609740019,0.0083835618570447,0,
00:00:02.004,0.00448389677330852,0.000501514703501016,0.0167286563664675,0,
00:00:02.008,0.0126217231154442,0.00740304077044129,-0.0069951917976141,0,
00:00:02.012,-0.00445004180073738,0.00133318291045725,0.0125259105116129,0,
00:00:02.016,-0.0154064297676086,0.00516420975327492,-0.00551918335258961,0,
00:00:02.02,0.00460488768294454,0.00762196071445942,-0.0316727720201015,0,
00:00:02.024,0.0305882655084133,-0.00836074352264404,0.0141305476427078,0,
00:00:02.028,-0.00918748788535595,-0.00861697550863028,0.012810816988349,0,
00:00:02.032,-0.030085040256381,-0.00734747014939785,0.00314603559672832,0,
00:00:02.036,0.0180622674524784,0.0181840155273676,-0.0143781369552016,0,
00:00:02.04,0.0147673552855849,-0.00883108470588923,-9.8313030321151E-05,0,
00:00:02.044,-0.0274231564253569,-0.0229823980480433,0.0104484725743532,0,
00:00:02.048,-0.0216861218214035,0.0300505179911852,-0.00253531290218234,0,
00:00:02.052,0.0671564564108849,0.02192741073668,-0.0163934305310249,0,
00:00:02.056,-0.0181871522217989,-0.00856806430965662,0.0104142297059298,0,
00:00:02.06,-0.0352220050990582,-0.0251699667423964,0.0149535723030567,0,
00:00:02.064,0.00429511908441782,-0.0142745645716786,-0.00104298151563853,0,
00:00:02.068,0.0111561054363847,0.00545054394751787,-0.000688486034050584,0,
00:00:02.072,0.00845922995358706,0.0188898164778948,-0.0119940023869276,0,
00:00:02.076,0.00893098115921021,0.0166489221155643,-0.00532777886837721,0,
00:00:02.08,-0.016107652336359,-0.0049219187349081,-0.00998217239975929,0,
00:00:02.084,0.00760050676763058,-0.0204560235142708,0.00705640809610486,0,
00:00:02.088,-0.00493633421137929,-0.00776707893237472,0.0281742662191391,0,
00:00:02.092,-0.00882845930755138,0.00741899898275733,-0.00183307088445872,0,
00:00:02.096,0.00115128676407039,0.00169016560539603,-0.023900780826807,0,
00:00:02.1,0.00752785475924611,0.00924789067357779,-0.0120119545608759,0,
00:00:02.104,0.00289031653665006,0.0039760866202414,0.0246495138853788,0,
00:00:02.108,0.00657384563237429,-0.00854252278804779,0.025094922631979,0,
00:00:02.112,0.00142630189657211,0.000873816781677306,-0.0168524123728275,0,
00:00:02.116,-0.0245220009237528,0.000734679459128529,-0.0349620021879673,0,
00:00:02.12,-0.00242748553864658,0.000991064589470625,0.00487287156283855,0,
00:00:02.124,0.0238359291106462,-0.00996911618858576,0.0184437427669764,0,
00:00:02.128,-0.00759410299360752,-0.00310421921312809,-0.0025585878174752,0,
00:00:02.132,0.0103740533813834,0.00230211485177279,0.004494390450418,0,
00:00:02.136,-0.00183935032691807,0.0232600085437298,0.00487453769892454,0,
00:00:02.14,-0.0132731422781944,-0.00752916233614087,-0.000647571869194508,0,
00:00:02.144,0.0102254813537002,-0.0083096781745553,-0.0147539498284459,0,
00:00:02.148,-0.0217623133212328,0.00228733848780394,0.01155701931566,0,
00:00:02.152,0.0260832477360964,0.00273288739845157,-0.000120331242214888,0,
00:00:02.156,0.00154573726467788,-0.00620091427117586,-0.0205361694097519,0,
00:00:02.16,-0.0300351977348328,-0.00862404610961676,0.0106565207242966,0,
00:00:02.164,-0.00788413546979427,0.00181976438034326,0.012368842959404,0,
00:00:02.168,-0.000420675583882257,0.00194484973326325,0.0104145715013146,0,
00:00:02.172,0.0480767339468002,0.011307186447084,-0.00285997590981424,0,
00:00:02.176,0.0223130509257317,-0.000694514892529696,-0.0229924917221069,0,
00:00:02.18,-0.0359047278761864,0.0018676248146221,-0.0124766221269965,0,
00:00:02.184,0.0019092740258202,-0.000834582489915192,0.0173325948417187,0,
00:00:02.188,-0.0205456130206585,0.00319722620770335,0.0263391640037298,0,
00:00:02.192,-0.0102085405960679,-0.0111187370494008,-0.0199927147477865,0,
00:00:02.196,0.00239354581572115,-0.0108810933306813,-0.00991024915128946,0,
00:00:02.2,0.0322871059179306,0.00910420995205641,-0.0108185186982155,0,
00:00:02.204,-0.00582715729251504,0.008811105042696,0.0247234348207712,0,
00:00:02.208,-0.00591178145259619,0.0046098381280899,-0.000977725023403764,0,
00:00:02.212,-0.00756644643843174,-0.010683748871088,0.00342394830659032,0,
00:00:02.216,0.00318441353738308,-0.00392176071181893,-0.00985626503825188,0,
00:00:02.22,0.0103730801492929,0.00786319188773632,0.000620385282672942,0,
00:00:02.224,-0.0146680260077119,-0.000166914061992429,-0.00267765508033335,0,
00:00:02.228,0.00208000559359789,-0.00610701972618699,0.00181592290755361,0,
00:00:02.232,0.0140636619180441,0.00276984716765583,0.00213156896643341,0,
00:00:02.236,-0.0106993541121483,0.00745241297408938,-0.00115504290442914,0,
00:00:02.24,0.0200893990695477,-0.00497127696871758,-0.00659421179443598,0,
00:00:02.244,-0.00936840008944273,-0.000179671435034834,0.0211851950734854,0,
00:00:02.248,-0.0311258118599653,-0.00235191965475678,-0.00584128499031067,0,
00:00:02.252,0.00591253768652678,0.00102109019644558,-0.0123999491333961,0,
00:00:02.256,-0.00488648936152458,-0.00344153260812163,-0.0117275826632977,0,
00:00:02.26,0.0161780882626772,0.005859415512532,0.00183408975135535,0,
00:00:02.264,0.0363334007561207,-0.00338397221639752,0.020575163885951,0,
00:00:02.268,-0.00148896989412606,-0.0060202912427485,0.0353763289749622,0,
00:00:02.272,-0.0359086953103542,0.0155446827411652,-0.0392548479139805,0,
00:00:02.276,-0.0133777679875493,7.05903366906568E-05,-0.0238429568707943,0,
00:00:02.28,0.00579859502613544,-0.00991671159863472,0.00483835022896528,0,
00:00:02.284,0.0169195830821991,-0.00541203748434782,0.0142999654635787,0,
00:00:02.288,0.0161636210978031,0.00311098620295525,0.00896997656673193,0,
00:00:02.292,-0.0228908192366362,-0.00388286611996591,-0.00103804189711809,0,
00:00:02.296,-0.0164414327591658,0.0145245315507054,-0.0122469058260322,0,
00:00:02.3,0.00852161925286055,0.00891350768506527,0.000642808154225349,0,
00:00:02.304,0.0339254476130009,-0.00778889795765281,0.00527328439056873,0,
00:00:02.308,0.000356187811121345,-0.0163440778851509,0.0043236343190074,0,
00:00:02.312,-0.019708639010787,0.000458498019725084,-0.000815888110082597,0,
00:00:02.316,-0.0446655265986919,0.0050913724116981,0.0110131539404392,0,
00:00:02.32,0.0174216777086258,-0.00632948754355311,-0.000234563180129044,0,
00:00:02.324,0.0464370213449001,0.0175324808806181,-0.0178205128759146,0,
00:00:02.328,0.0099237123504281,0.00582716381177306,-0.0273468662053347,0,
00:00:02.332,-0.0519136935472488,-0.0218260604888201,0.0187620110809803,0,
00:00:02.336,0.0132119823247194,0.00685374671593308,0.0146888634189963,0,
00:00:02.34,0.014310771599412,0.00667010387405753,0.0138463657349348,0,
00:00:02.344,-0.0203394033014774,-0.0209565944969654,0.00713561056181788,0,
00:00:02.348,0.00727494712918997,0.013222049921751,-0.00601448863744736,0,
00:00:02.352,0.0348352082073689,0.0118761509656906,-0.0310930646955967,0,
00:00:02.356,-0.0117359403520823,-0.00899761915206909,-0.0177168939262629,0,
00:00:02.36,-0.0237822588533163,-0.000213822640944272,0.025708869099617,0,
00:00:02.364,-0.0215596817433834,-0.00122437940444797,0.0036343359388411,0,
00:00:02.368,-0.00582759408280253,0.00588808534666896,0.022978575900197,0,
00:00:02.372,0.0065567446872592,-0.00749990111216903,0.000550756056327373,0,
00:00:02.376,0.0436389707028866,0.00399950053542852,-0.0292804818600416,0,
00:00:02.38,0.0133195845410228,0.00394048960879445,-0.0144306616857648,0,
00:00:02.384,0.0150811783969402,-0.0080138947814703,0.0113948760554194,0,
00:00:02.388,-0.0496166720986366,-0.0112530784681439,0.0207093115895987,0,
00:00:02.392,-0.00641601532697678,0.015023467130959,-0.00260776467621326,0,
00:00:02.396,0.00940728932619095,-0.000956682721152902,0.00262046162970364,0,
00:00:02.4,-0.0159485414624214,-0.00624255696311593,0.00204041367396712,0,
00:00:02.404,-0.00281455414369702,0.0167420189827681,-0.0157930925488472,0,
00:00:02.408,0.019359303638339,-0.0129811875522137,-0.0129569517448545,0,
00:00:02.412,-0.0062422682531178,-0.00821398198604584,0.0328588970005512,0,
00:00:02.416,-0.0174077264964581,0.0168531779199839,-0.0107124429196119,0,
00:00:02.42,0.0577820986509323,0.0103036183863878,-0.0323989167809486,0,
00:00:02.424,0.00391116132959723,-0.0125758582726121,0.0160688031464815,0,
00:00:02.428,-0.04478420317173,-0.0180144794285297,0.0259081143885851,0,
00:00:02.432,-0.00576880807057023,-0.00374444969929755,0.00161095114890486,0,
00:00:02.436,0.0266777500510216,0.0163878388702869,-0.0151234641671181,0,
00:00:02.44,-0.0159516576677561,0.0176470875740051,-0.0116387018933892,0,
00:00:02.444,-0.0181531310081482,0.00125611352268606,0.00186239671893418,0,
00:00:02.448,-0.011081226170063,-0.0311440266668797,0.0215087048709393,0,
00:00:02.452,0.0217264294624329,0.00573868304491043,0.00237636943347752,0,
00:00:02.456,0.0299767646938562,0.00550136948004365,-0.0193021968007088,0,
00:00:02.46,-0.00149738998152316,-0.00515216821804643,-0.00242189620621502,0,
00:00:02.464,0.0162268485873938,0.00243568350560963,-0.00982322543859482,0,
00:00:02.468,-0.0285160429775715,0.018027251586318,0.010438634082675,0,
00:00:02.472,-0.033219862729311,0.00485165743157268,0.0193636622279882,0,
00:00:02.476,-0.000557463383302093,-0.0289831254631281,-0.0139136062934995,0,
00:00:02.48,0.0127595253288746,-0.00470137596130371,0.0034186951816082,0,
00:00:02.484,0.0173804201185703,0.0140360249206424,0.00281367870047688,0,
00:00:02.488,0.0243430081754923,0.00994226336479187,0.00678843818604946,0,
00:00:02.492,-0.0343633443117142,-0.00119613530114293,-0.0241337530314922,0,
00:00:02.496,0.0108625460416079,-0.0050086872652173,0.00623800838366151,0,
00:00:02.5,0.0151162222027779,0.00202576606534421,-0.00840837135910988,0,
00:00:02.504,-0.0212110299617052,-0.0137799708172679,0.0220866557210684,0,
00:00:02.508,-0.0146737527102232,0.00579625926911831,-0.00178908545058221,0,
00:00:02.512,0.00279944180510938,5.75509766349569E-05,-0.0102285156026483,0,
00:00:02.516,0.0411585383117199,-0.000848536263220012,0.000731776061002165,0,
00:00:02.52,-0.0208695940673351,0.00865720771253109,0.00772634334862232,0,
00:00:02.524,-0.0189458597451448,0.00612329924479127,0.0046354359947145,0,
00:00:02.528,-0.0121272075921297,7.82659190008417E-05,-0.00489137601107359,0,
00:00:02.532,0.0194406118243933,-0.0187624637037516,-0.0126079106703401,0,
00:00:02.536,0.027248315513134,-0.00378926051780581,-0.0121317962184548,0,
00:00:02.54,0.00263696443289518,0.0115189952775836,0.0146905547007918,0,
00:00:02.544,-0.0466580055654049,0.00758052943274379,0.0307607147842646,0,
00:00:02.548,0.0117395715788007,4.55228946520947E-05,0.0011359176132828,0,
00:00:02.552,0.0108948592096567,-0.023038586601615,-0.0453873984515667,0,
00:00:02.556,-0.0133255505934358,0.0111087886616588,0.0163290537893772,0,
00:00:02.56,0.0281651020050049,0.0227091405540705,-0.00236326735466719,0,
00:00:02.564,0.00825934670865536,-0.0231117252260447,-0.0103804022073746,0,
00:00:02.568,-0.0219074096530676,0.00143802037928253,0.0101457387208939,0,
00:00:02.572,-0.00100649299565703,0.00369637133553624,0.00891648232936859,0,
00:00:02.576,-0.0212326981127262,0.00668278709053993,0.00214625475928187,0,
00:00:02.58,0.0190115999430418,0.00897381734102964,0.0118099199607968,0,
00:00:02.584,-0.00496036978438497,-0.014057089574635,-0.0156365465372801,0,
00:00:02.588,0.0192985534667969,-0.00944348331540823,-0.015911940485239,0,
00:00:02.592,-0.0125412689521909,-0.0226006172597408,0.0279967449605465,0,
00:00:02.596,-0.0323296673595905,0.0211907718330622,0.00436423951759934,0,
00:00:02.6,0.0701892077922821,0.0359032787382603,-0.0488638691604137,0,
00:00:02.604,-0.0145367085933685,-0.00475845020264387,0.0175837874412537,0,
00:00:02.608,-0.0311630554497242,-0.0189527180045843,0.00949976965785027,0,
00:00:02.612,-0.00694562029093504,-0.00890842173248529,0.00223625428043306,0,
00:00:02.616,-0.0210397522896528,-0.0104741109535098,0.0176557824015617,0,
00:00:02.62,0.0219536814838648,-0.00887158419936895,0.0122555112466216,0,
00:00:02.624,0.0263435114175081,0.0360837839543819,-0.0297488234937191,0,
00:00:02.628,0.0104348808526993,0.0105788027867675,-0.0180947482585907,0,
00:00:02.632,-0.00304481759667397,-0.0150630157440901,0.00630802242085338,0,
00:00:02.636,-0.018113361671567,-0.0126341609284282,0.0109785879030824,0,
00:00:02.64,-0.00189032289199531,0.00538883591070771,-0.00559759233146906,0,
00:00:02.644,-0.011631696484983,-0.00585618894547224,0.00469301268458366,0,
00:00:02.648,0.0073991846293211,0.00338964536786079,0.0297579318284988,0,
00:00:02.652,0.00634896196424961,0.0153061747550964,-0.00955903064459562,0,
00:00:02.656,0.00505574373528361,0.00321213039569557,-0.0222363732755184,0,
00:00:02.66,-0.0147739797830582,-0.0264907628297806,-0.013580490835011,0,
00:00:02.664,-0.0272780731320381,-0.0071341902948916,-0.00448882905766368,0,
00:00:02.668,0.00766649795696139,0.0263713225722313,0.0162838101387024,0,
00:00:02.672,0.0765524655580521,0.000340966711519286,0.0318495407700539,0,
00:00:02.676,-0.0116340601816773,-0.000146925682201982,-0.00176305952481925,0,
00:00:02.68,-0.0389901474118233,-0.0104922354221344,-0.0261056963354349,0,
00:00:02.684,-0.0140820499509573,-0.0140485465526581,-0.000466368306661025,0,
00:00:02.688,-0.0218847021460533,-0.00961238238960505,0.00418829545378685,0,
00:00:02.692,0.041390672326088,0.0395098589360714,-0.0232104286551476,0,
00:00:02.696,0.0403276346623898,0.0205244887620211,0.00386070040985942,0,
00:00:02.7,-0.0358800999820232,-0.0197913851588964,0.0207829009741545,0,
00:00:02.704,-0.0211696494370699,-0.0150257255882025,0.0105213802307844,0,
00:00:02.708,-0.0113743646070361,-0.0146073354408145,-0.00442123459652066,0,
00:00:02.712,-0.00731473183259368,-0.00382943754084408,-0.0106057897210121,0,
00:00:02.716,0.0480966977775097,0.0182119160890579,0.0147473430261016,0,
00:00:02.72,-0.00621103635057807,0.00169495528098196,-0.000769997190218419,0,
00:00:02.724,-0.0058945850469172,0.0103722903877497,-0.0219244491308928,0,
00:00:02.728,0.00890003237873316,-0.0169399213045836,0.000580426654778421,0,
00:00:02.732,-0.021545646712184,0.00532247545197606,-0.000415155809605494,0,
00:00:02.736,-0.0124257355928421,0.0126307010650635,-0.00859369896352291,0,
00:00:02.74,0.0261211562901735,0.00352528318762779,0.021790774539113,0,
00:00:02.744,0.00854313094168901,-0.0221013762056828,0.0185470022261143,0,
00:00:02.748,-0.0250404346734285,-0.01352234557271,0.0140218446031213,0,
00:00:02.752,0.0152447689324617,0.0099504366517067,-0.0516049116849899,0,
00:00:02.756,0.00378740229643881,0.0254546962678432,-0.0202525462955236,0,
00:00:02.76,-0.0099004078656435,-0.00499209947884083,0.0454827062785625,0,
00:00:02.764,0.0232581906020641,-0.00810181628912687,-0.00516685144975781,0,
00:00:02.768,-0.020350394770503,-0.00747686997056007,-0.00791830942034721,0,
00:00:02.772,-0.0159635953605175,0.00687877601012588,0.00248984969221056,0,
00:00:02.776,0.00352534907869995,-0.00688149919733405,0.00965208001434803,0,
00:00:02.78,-0.0404846295714378,0.00373964942991734,-0.00278440583497286,0,
00:00:02.784,0.0564512461423874,0.0100950766354799,-0.010110879316926,0,
00:00:02.788,0.0372996628284454,-0.0236357916146517,-0.0249647293239832,0,
00:00:02.792,-0.0078131752088666,0.013627665117383,0.0429144650697708,0,
00:00:02.796,-0.0414290353655815,-2.63799029198708E-05,0.0121730556711555,0,
00:00:02.8,-0.0258880499750376,0.0256003271788359,-0.0349419824779034,0,
00:00:02.804,0.0309314914047718,-0.00638892175629735,-0.00523527199402452,0,
00:00:02.808,0.0298345424234867,-0.0309157967567444,0.0139140374958515,0,
00:00:02.812,-0.0231113750487566,-0.00246562343090773,0.011276513338089,0,
00:00:02.816,-0.0352392494678497,0.0103072049096227,-0.0020230240188539,0,
00:00:02.82,0.0041834213770926,-0.00184564164374024,0.00119387044105679,0,
00:00:02.824,0.0244754068553448,-0.00194043584633619,-0.0179742202162743,0,
00:00:02.828,0.0241283979266882,0.0181928426027298,-0.00679669110104442,0,
00:00:02.832,0.0205627642571926,0.00897771399468184,-0.00660226121544838,0,
00:00:02.836,-0.0335377342998981,-0.00186219450552016,0.0138339707627892,0,
00:00:02.84,-0.0390201508998871,-0.0141623290255666,0.0333946831524372,0,
00:00:02.844,0.0279650036245584,-0.0147240646183491,-0.00493596587330103,0,
00:00:02.848,0.00471526989713311,0.00573870679363608,-0.0225589796900749,0,
00:00:02.852,-0.011915409937501,0.0114315133541822,-0.008659478276968,0,
00:00:02.856,-0.0143759623169899,-0.0113394651561975,-0.0072823385708034,0,
00:00:02.86,0.0153385270386934,0.00573834497481585,0.0151674197986722,0,
00:00:02.864,0.0313465632498264,0.00346402171999216,-0.00914228521287441,0,
00:00:02.868,-0.00485613662749529,-0.00762353977188468,0.0297355633229017,0,
00:00:02.872,-0.0164223834872246,0.0130480136722326,0.0137709937989712,0,
00:00:02.876,-0.0437041521072388,-0.0174744483083487,-0.0294813103973866,0,
00:00:02.88,0.0365847758948803,0.0126323159784079,-0.00938793178647757,0,
00:00:02.884,0.0539651438593864,0.00907570309937,-0.016194399446249,0,
00:00:02.888,-0.0158578883856535,-0.0159147139638662,0.00698023987933993,0,
00:00:02.892,-0.0518279112875462,0.00646133627742529,0.0240552891045809,0,
00:00:02.896,-0.0187924243509769,0.00439324416220188,0.0146047929301858,0,
00:00:02.9,0.022917129099369,-0.00824558269232512,-0.0234004352241755,0,
00:00:02.904,0.0327119939029217,-0.00122411653865129,-0.0216413177549839,0,
00:00:02.908,0.0065405392087996,0.00488684000447392,0.0111799389123917,0,
00:00:02.912,-0.0472028031945229,-0.00929590035229921,0.0238449759781361,0,
00:00:02.916,-0.00520340539515018,-0.000929063477087766,0.0144012300297618,0,
00:00:02.92,0.0376490391790867,0.0108997011557221,-0.0318814739584923,0,
00:00:02.924,0.0094692213460803,-0.00256097805686295,-0.0123713510110974,0,
00:00:02.928,0.00824564415961504,8.5705156379845E-05,0.00829312577843666,0,
00:00:02.932,-0.0306042544543743,0.00316413352265954,0.0253859516233206,0,
00:00:02.936,-0.0193788092583418,0.000808673037681729,-0.0185740906745195,0,
00:00:02.94,-0.00926086865365505,0.00868779607117176,0.000119242140499409,0,
00:00:02.944,0.0394328534603119,-0.0165171641856432,0.0137848732993007,0,
00:00:02.948,0.0223486497998238,-0.00602727569639683,0.00183817464858294,0,
00:00:02.952,-0.0232391431927681,-0.000143329438287765,-0.0253116674721241,0,
00:00:02.956,-0.0130996694788337,0.000891208532266319,-0.00917542353272438,0,
00:00:02.96,-0.00495032267645001,0.00992743950337172,0.00876481737941504,0,
00:00:02.964,0.0177698060870171,0.0193754322826862,0.0210333969444036,0,
00:00:02.968,-0.0218701623380184,-0.000713064684532583,0.00648939236998558,0,
00:00:02.972,0.0303410738706589,-0.0253442041575909,-0.0215315632522106,0,
00:00:02.976,0.015273111872375,-0.0139151886105537,0.000761596485972404,0,
00:00:02.98,-0.0419726446270943,0.00468659121543169,0.00823618657886982,0,
00:00:02.984,-0.0210614502429962,0.00926502235233784,0.00814548041671515,0,
00:00:02.988,0.0109807122498751,0.015250951051712,0.000795505824498832,0,
00:00:02.992,0.0243554823100567,0.00722044566646218,-0.0132560255005956,0,
00:00:02.996,0.00210695574060082,-0.00874224863946438,-0.0171025861054659,0,
00:00:03,0.0393241755664349,-0.0184173826128244,-0.000689359556417912,0,
00:00:03.004,-0.00950735993683338,0.00692594237625599,0.0216862000524998,0,
00:00:03.008,-0.0685507580637932,0.00918016210198402,0.0153733538463712,0,
00:00:03.012,-0.0218406282365322,-0.00513503700494766,-0.0046621561050415,0,
00:00:03.016,0.0751277431845665,0.00117567274719477,-0.004199193790555,0,
00:00:03.02,0.00265487120486796,-0.0129999062046409,-0.0199027620255947,0,
00:00:03.024,-0.0309768132865429,0.00749460980296135,0.00488444371148944,0,
00:00:03.028,-0.019138190895319,-0.0068518971092999,0.00662615383043885,0,
00:00:03.032,0.0515500828623772,0.0137291811406612,-0.00213976460509002,0,
00:00:03.036,0.00208838935941458,0.000575494195800275,-0.0122202252969146,0,
00:00:03.04,-0.0102274836972356,0.00483279395848513,0.00835988111793995,0,
00:00:03.044,-0.0234569124877453,0.00802937895059586,0.00594790186733007,0,
00:00:03.048,0.0154524203389883,-0.00834167003631592,-0.00419016601517797,0,
00:00:03.052,-0.0185291059315205,-0.0198667217046022,0.0218248795717955,0,
00:00:03.056,-0.0273757856339216,0.00107259617652744,0.00200612377375364,0,
00:00:03.06,0.0264421198517084,0.00214225519448519,-0.015239835716784,0,
00:00:03.064,0.0237023569643497,0.0108001912012696,-0.00690473057329655,0,
00:00:03.068,-0.00667423335835338,-0.0115796914324164,-0.0164402686059475,0,
00:00:03.072,-0.0288803353905678,-0.00471243541687727,0.00214070454239845,0,
00:00:03.076,0.038774449378252,0.0302216913551092,0.010510915890336,0,
00:00:03.08,0.0308633539825678,0.0061323894187808,0.00770926382392645,0,
00:00:03.084,-0.0236848145723343,-0.00997444242238998,0.0148030631244183,0,
00:00:03.088,-0.0110202571377158,-0.0178378485143185,0.00538396090269089,0,
00:00:03.092,-0.0678491666913033,-0.0111222192645073,-0.0198907610028982,0,
00:00:03.096,0.00609937170520425,0.00353465368971229,-0.0297139901667833,0,
00:00:03.1,0.0842107608914375,0.00470260763540864,0.00916857644915581,0,
00:00:03.104,-0.00454147672280669,0.0112996147945523,0.0427049212157726,0,
00:00:03.108,-0.0427535474300385,0.00210887449793518,-0.0226924903690815,0,
00:00:03.112,0.0066327778622508,0.00332864257507026,-0.00610932242125273,0,
00:00:03.116,0.0652323812246323,0.0153078688308597,0.00128949736244977,0,
00:00:03.12,-0.0401468947529793,-0.0202791187912226,0.000893435324542224,0,
00:00:03.124,-0.0649386271834373,-0.0321184359490871,0.00181467505171895,0,
00:00:03.128,-0.00891095958650112,0.0142344180494547,0.00596086960285902,0,
00:00:03.132,0.061347484588623,0.0143839847296476,-0.00513322930783033,0,
00:00:03.136,0.00936919543892145,0.00777209224179387,0.0130211804062128,0,
00:00:03.14,-0.0154143804684281,-0.00350806559436023,-0.0134183848276734,0,
00:00:03.144,0.0314800404012203,0.00033445461303927,-0.0189057141542435,0,
00:00:03.148,-0.0282691400498152,-0.0135760568082333,0.0238367989659309,0,
00:00:03.152,-0.0191640891134739,0.0321557745337486,-0.0115974619984627,0,
00:00:03.156,0.0290921963751316,-0.0142692290246487,-0.0101075889542699,0,
00:00:03.16,-0.00610384484753013,-0.0264672581106424,0.0155687509104609,0,
00:00:03.164,-0.0109319686889648,-0.00306264613755047,0.0403695814311504,0,
00:00:03.168,0.00375652406364679,0.0166954975575209,-0.0229393932968378,0,
00:00:03.172,-0.00776272406801581,0.012706533074379,-0.0185699332505465,0,
00:00:03.176,-0.00358455022796988,0.010897820815444,-0.00569225661456585,0,
00:00:03.18,0.0134092643857002,-0.0249771941453218,-0.0277078896760941,0,
00:00:03.184,0.0233493577688932,0.000858194660395384,0.00449143070727587,0,
00:00:03.188,-0.0201663784682751,-0.00558337196707726,0.0602994561195374,0,
00:00:03.192,-0.0131516447290778,0.005444067530334,0.00713188946247101,0,
00:00:03.196,-0.00858214218169451,0.0170923583209515,-0.0270134806632996,0,
00:00:03.2,0.0147743914276361,-0.00440592737868428,-0.0343350991606712,0,
00:00:03.204,-0.0155348731204867,-0.00852552242577076,0.00612211646512151,0,
00:00:03.208,0.0148636251688004,-0.0153740169480443,0.0350208319723606,0,
00:00:03.212,0.063445545732975,0.0138002783060074,0.00186460709664971,0,
00:00:03.216,-0.023606801405549,0.0089779319241643,-0.0306121595203877,0,
00:00:03.22,-0.0643508657813072,0.00282439682632685,-0.000104643979284447,0,
00:00:03.224,-0.0178186539560556,-0.0103822760283947,0.00527112139388919,0,
00:00:03.228,0.0323618203401566,-0.00465523358434439,0.00547437882050872,0,
00:00:03.232,0.0124259823933244,0.00231075217016041,0.0116819078102708,0,
00:00:03.236,0.0122760208323598,0.00273606856353581,-0.000697375042364001,0,
00:00:03.24,-0.00328478054143488,-0.00300243706442416,0.0221607983112335,0,
00:00:03.244,-0.0134982690215111,-0.00461683981120586,-0.0217058528214693,0,
00:00:03.248,0.00712686264887452,0.00621238257735968,-0.0375428237020969,0,
00:00:03.252,0.0103635312989354,0.0164433494210243,-0.00496321357786655,0,
00:00:03.256,0.00627652835100889,-0.0100373597815633,0.0183197353035212,0,
00:00:03.26,0.00112320960033685,-0.00386123941279948,0.0326051488518715,0,
00:00:03.264,-0.0373771339654922,-0.00228415289893746,0.0029707420617342,0,
00:00:03.268,-0.0190394576638937,-0.00966195669025183,-0.00991786830127239,0,
00:00:03.272,0.021589569747448,0.0117768747732043,-0.0151426456868649,0,
00:00:03.276,0.0229121576994658,-0.00502697564661503,-0.0064174528233707,0,
00:00:03.28,-0.00280559784732759,0.00434454437345266,0.0148958237841725,0,
00:00:03.284,0.0025901144836098,-0.004567532800138,0.0110320849344134,0,
00:00:03.288,0.00272376858629286,0.0249010156840086,-0.024470366537571,0,
00:00:03.292,0.0412637777626514,0.00120743457227945,-0.014352192170918,0,
00:00:03.296,-0.0488701686263084,-0.0516865067183971,0.0285680070519447,0,
00:00:03.3,-0.0539190955460072,0.00954844523221254,0.00207952130585909,0,
00:00:03.304,0.0239432193338871,0.0252374652773142,-0.008620984852314,0,
00:00:03.308,0.00919509306550026,0.0018126389477402,0.00482922606170177,0,
00:00:03.312,-0.000818680156953633,0.00472067715600133,-0.0178801864385605,0,
00:00:03.316,0.0570405907928944,-0.00216436176560819,0.0180371999740601,0,
00:00:03.32,0.0393600463867188,-0.00257827062159777,0.0332769826054573,0,
00:00:03.324,-0.0636470466852188,-0.0248252097517252,-0.0232737231999636,0,
00:00:03.328,-0.0543394275009632,0.00347618036903441,-0.0260703898966312,0,
00:00:03.332,-0.00401113601401448,0.00959537085145712,-0.0138602927327156,0,
00:00:03.336,0.0202759951353073,0.00662268092855811,0.00948716886341572,0,
00:00:03.34,0.0334666669368744,0.008109494112432,0.00479376129806042,0,
00:00:03.344,0.0103165339678526,0.0052366042509675,0.0056921043433249,0,
00:00:03.348,0.00702354963868856,-0.00859411060810089,0.055670253932476,0,
00:00:03.352,-0.00808327924460173,-0.011396823450923,-0.0164184328168631,0,
00:00:03.356,-0.0112980073317885,-0.00241144164465368,-0.0451588705182076,0,
00:00:03.36,-0.0331790186464787,0.00656120665371418,-0.0194548796862364,0,
00:00:03.364,-0.00873761344701052,-0.00443481141701341,0.010689870454371,0,
00:00:03.368,0.0292076170444489,-0.00287262932397425,0.0287082400172949,0,
00:00:03.372,0.00162996689323336,0.0118865445256233,-0.00959818065166473,0,
00:00:03.376,0.0446386821568012,0.0170020293444395,-0.00141165754757822,0,
00:00:03.38,-0.00172850769013166,-0.00325973751023412,0.0358409881591797,0,
00:00:03.384,-0.0530380271375179,-0.0345398895442486,-0.010001927614212,0,
00:00:03.388,-0.0209281146526337,-0.0094183785840869,-0.0302939061075449,0,
00:00:03.392,0.00399375054985285,0.0146237667649984,-0.00710004521533847,0,
00:00:03.396,0.0199848767369986,0.0186299607157707,0.00587213132530451,0,
00:00:03.4,0.0490997396409512,0.00633081281557679,-0.0159629173576832,0,
00:00:03.404,0.00114776531700045,0.00171695009339601,0.0213451534509659,0,
00:00:03.408,-0.0314534604549408,-0.00587074924260378,0.0184554923325777,0,
00:00:03.412,-0.0224539507180452,-0.00853603333234787,-0.000241873334744014,0,
00:00:03.416,-0.0185408163815737,-0.014465861953795,0.000923036364838481,0,
00:00:03.42,0.0263578053563833,0.00410372577607632,-0.0192466862499714,0,
00:00:03.424,0.00206005154177547,0.0125369615852833,0.00192282267380506,0,
00:00:03.428,0.0105490041896701,0.00792782660573721,-0.00760189490392804,0,
00:00:03.432,0.00559096643701196,-0.0162657424807549,0.00929734390228987,0,
00:00:03.436,-0.0119112273678184,-0.0054385052062571,-0.00443099439144135,0,
00:00:03.44,-0.00387998600490391,0.00676373951137066,0.000811111531220376,0,
00:00:03.444,0.0211272407323122,0.0246309228241444,0.00356759689748287,0,
00:00:03.448,0.0258365366607904,-0.00563252018764615,0.00735002616420388,0,
00:00:03.452,-0.0559565387666225,-0.0176816619932652,-0.0110546704381704,0,
00:00:03.456,-0.0206179432570934,0.00291533349081874,0.00179137825034559,0,
00:00:03.46,0.00353167438879609,-0.0168558806180954,0.0355382971465588,0,
00:00:03.464,0.0250084288418293,-0.00317134731449187,-0.0252273175865412,0,
00:00:03.468,0.0172766260802746,0.010476135648787,-0.0208620093762875,0,
00:00:03.472,0.0155652975663543,0.0241064988076687,-0.0122910067439079,0,
00:00:03.476,-0.00366700300946832,0.0256714802235365,-0.000793156505096704,0,
00:00:03.48,-0.0280303973704576,-0.024714719504118,0.0266934037208557,0,
00:00:03.484,-0.020001782104373,-0.0285299904644489,0.018132908269763,0,
00:00:03.488,0.016114478930831,-0.0188430231064558,-0.000643379986286163,0,
00:00:03.492,-0.0201021581888199,0.00783619284629822,0.00495762377977371,0,
00:00:03.496,0.033427968621254,0.0379152148962021,-0.0298814531415701,0,
00:00:03.5,0.0439361594617367,0.0107304640114307,-0.0192607846111059,0,
00:00:03.504,-0.0101770451292396,-0.0143295014277101,0.0133179659023881,0,
00:00:03.508,-0.0376768968999386,-0.0121780671179295,0.00966050382703543,0,
00:00:03.512,-0.0512912198901176,-0.00552927842363715,0.0152607904747128,0,
00:00:03.516,-0.00582900131121278,-0.00359750771895051,0.0015149733517319,0,
00:00:03.52,0.0440086498856544,0.00555184110999107,-0.0191987976431847,0,
00:00:03.524,0.0594845488667488,0.0215028300881386,-0.00238750642165542,0,
00:00:03.528,0.00354675063863397,-0.0118571249768138,0.0296453405171633,0,
00:00:03.532,-0.0401058122515678,-0.0154825998470187,-0.0144479367882013,0,
00:00:03.536,-0.0230275373905897,0.0103689702227712,-0.0191862396895885,0,
00:00:03.54,-0.0219524092972279,0.00650968169793487,-0.0140902623534203,0,
00:00:03.544,-0.0157208312302828,-0.00593697419390082,0.0244786348193884,0,
00:00:03.548,0.0598418414592743,-0.00154417008161545,0.0173164326697588,0,
00:00:03.552,0.041904091835022,0.00527226692065597,-0.013960275799036,0,
00:00:03.556,-0.0296380557119846,0.0019138497300446,-0.00419257767498493,0,
00:00:03.56,-0.0308741852641106,-0.00414072116836905,-0.0078387726098299,0,
00:00:03.564,-0.00865751318633556,-0.00145082408562303,0.0116740884259343,0,
00:00:03.568,0.00211854395456612,-0.00492122257128358,0.0203021038323641,0,
00:00:03.572,0.00210624025203288,0.0160847567021847,-0.0187082104384899,0,
00:00:03.576,0.0143102975562215,-0.00632109679281712,-0.0198802817612886,0,
00:00:03.58,0.00539798196405172,-0.0254744961857796,-0.000221348236664198,0,
00:00:03.584,0.00267597148194909,-0.00654853787273169,0.0167745836079121,0,
00:00:03.588,-0.00599555997177958,0.0368195399641991,0.023752810433507,0,
00:00:03.592,0.0100387251004577,0.0123360110446811,-0.0150836501270533,0,
00:00:03.596,0.00185209035407752,-0.00694998214021325,-0.0220507904887199,0,
00:00:03.6,-0.0218146909028292,-0.00520941847935319,0.00521572260186076,0,
00:00:03.604,0.00206354353576899,-0.00759726297110319,0.0197606161236763,0,
00:00:03.608,-0.0364232398569584,-0.0130299227312207,-0.0010021337075159,0,
00:00:03.612,0.0205213185399771,-0.00755565799772739,-0.0127809122204781,0,
00:00:03.616,0.0554849095642567,0.0136418314650655,-0.0116357346996665,0,
00:00:03.62,-0.0131092136725783,0.0139830224215984,0.0025462587364018,0,
00:00:03.624,-0.0293115824460983,-0.00275441608391702,0.00847481936216354,0,
00:00:03.628,0.00688979541882873,-0.0051965550519526,0.0218550898134708,0,
00:00:03.632,0.0152469528838992,0.0056487382389605,-0.0088320467621088,0,
00:00:03.636,0.0139401704072952,-0.00153669121209532,-0.0271388106048107,0,
00:00:03.64,-0.0608525462448597,-0.0110274665057659,0.00364520004950464,0,
00:00:03.644,-0.0334375090897083,-0.0208816081285477,0.039359126240015,0,
00:00:03.648,0.0317259468138218,0.0274847522377968,-0.0125870816409588,0,
00:00:03.652,0.0833502188324928,0.0323628187179565,-0.0358025282621384,0,
00:00:03.656,0.00696928007528186,-0.022049268707633,0.00714628305286169,0,
00:00:03.66,-0.0373583808541298,-0.0244700573384762,0.0219561420381069,0,
00:00:03.664,-0.0200186707079411,-0.00441780081018806,0.00338129512965679,0,
00:00:03.668,-0.00470772292464972,0.016581192612648,-0.0107515621930361,0,
00:00:03.672,-0.0153762679547071,0.00925234518945217,0.00251772929914296,0,
00:00:03.676,-0.0169638469815254,-0.00351785542443395,0.00395603990182281,0,
00:00:03.68,0.019508833065629,-0.0023881474044174,-0.00539129041135311,0,
00:00:03.684,0.0286577790975571,-0.00165987084619701,-0.000413465226301923,0,
00:00:03.688,0.0219018273055553,0.009482198394835,-0.0192902106791735,0,
00:00:03.692,0.00335306813940406,-0.0100616337731481,0.00425118627026677,0,
00:00:03.696,-0.0385253690183163,-0.0307555366307497,0.0487745217978954,0,
00:00:03.7,-0.0239846780896187,0.0212915502488613,-0.00806625001132488,0,
00:00:03.704,-0.00334445387125015,0.0309397485107183,-0.0444425866007805,0,
00:00:03.708,0.0378752499818802,-0.000652866205200553,-0.00743962405249476,0,
00:00:03.712,0.0057005388662219,-0.000248404568992555,0.0123648103326559,0,
00:00:03.716,-0.0056451577693224,-0.0235687382519245,0.0240007415413857,0,
00:00:03.72,-0.0106691904366016,-0.0212688781321049,0.0118903797119856,0,
00:00:03.724,0.017076263204217,0.0101120118051767,-0.00919365137815475,0,
00:00:03.728,-0.0107359699904919,0.0144925573840737,-0.0215050466358662,0,
00:00:03.732,-0.0216071531176567,-0.00247575156390667,-0.00436878250911832,0,
00:00:03.736,0.0172645915299654,-0.00652029877528548,-0.00300987716764212,0,
00:00:03.74,-0.00398915633559227,0.0240452382713556,0.0236292015761137,0,
00:00:03.744,0.000584430177696049,0.00344734219834208,0.0201464965939522,0,
00:00:03.748,0.00414026901125908,-0.00878791231662035,-0.0185621660202742,0,
00:00:03.752,0.00823716260492802,-0.0150567274540663,-0.0292582642287016,0,
00:00:03.756,0.00192693085409701,-0.0151256304234266,-0.0110172554850578,0,
00:00:03.76,0.00439326139166951,0.0184789579361677,0.0390524379909039,0,
00:00:03.764,-0.0218624472618103,0.00734364800155163,0.0258674062788486,0,
00:00:03.768,0.00774627737700939,0.000217112406971864,-0.0237071514129639,0,
00:00:03.772,-0.000880515028256923,0.00752129638567567,-0.0309843998402357,0,
00:00:03.776,-0.0109216095879674,-0.0148931266739964,0.00359556311741471,0,
00:00:03.78,0.00687183020636439,-0.0160958431661129,0.0113393990322948,0,
00:00:03.784,-0.0214877780526876,0.00446723680943251,0.00793832913041115,0,
00:00:03.788,0.0283086448907852,0.0178492534905672,0.0251030325889587,0,
00:00:03.792,0.0358773954212666,0.0114743942394853,-0.0191500205546618,0,
00:00:03.796,-0.00259250798262656,0.00662334868684411,-0.0184697303920984,0,
00:00:03.8,-0.0505611747503281,-0.0274008996784687,0.00150276580825448,0,
00:00:03.804,-0.0121768042445183,-0.013956094160676,-0.00402736524119973,0,
00:00:03.808,0.0240630600601435,0.00686838990077376,0.0164926443248987,0,
00:00:03.812,0.00343709578737617,0.00915846321731806,0.00952066760510206,0,
00:00:03.816,-0.000708341831341386,0.0133288707584143,-0.0121471080929041,0,
00:00:03.82,-0.00810780469328165,0.00311625795438886,0.00215442688204348,0,
00:00:03.824,0.0153540074825287,-0.00775252329185605,-0.0177556443959475,0,
00:00:03.828,-0.00651742145419121,-0.0186240002512932,-0.00750525901094079,0,
00:00:03.832,-0.00636404380202293,-0.0148845752701163,0.0725081115961075,0,
00:00:03.836,0.0286550931632519,0.0367755144834518,-0.0178904924541712,0,
00:00:03.84,-0.0176585838198662,0.0227687172591686,-0.0533303022384644,0,
00:00:03.844,-0.0100383637472987,-0.0178324822336435,-0.0102664045989513,0,
00:00:03.848,0.0103103509172797,-0.0228190571069717,0.0059042414650321,0,
00:00:03.852,-0.0194975212216377,-0.013380984775722,0.0206917244940996,0,
00:00:03.856,0.0164982136338949,0.0101219043135643,0.0180455259978771,0,
00:00:03.86,0.00851768814027309,0.0174175351858139,-0.00555265648290515,0,
00:00:03.864,-0.0295519027858973,-0.000808274780865759,-0.000136546601424925,0,
00:00:03.868,-0.00469935778528452,0.00500768609344959,0.00888726394623518,0,
00:00:03.872,0.0389153175055981,0.00120812689419836,-0.011098331771791,0,
00:00:03.876,0.0350640304386616,-0.0200532451272011,-0.0156442858278751,0,
00:00:03.88,-0.0286951661109924,0.00638973014429212,-0.000481637805933133,0,
00:00:03.884,-0.0507761500775814,-0.00366193591617048,0.0117454398423433,0,
00:00:03.888,-0.0163934826850891,0.00224488484673202,-0.00243914662860334,0,
00:00:03.892,0.0266416203230619,0.0106799993664026,-0.00211214134469628,0,
00:00:03.896,0.0280573517084122,-0.00464640837162733,-0.00511104939505458,0,
00:00:03.9,0.0375519655644894,0.00833900272846222,0.00242020934820175,0,
00:00:03.904,-0.0472360737621784,-0.00573970703408122,0.0296458099037409,0,
00:00:03.908,-0.0291563477367163,-0.0176272708922625,-0.00764976069331169,0,
00:00:03.912,0.0322047583758831,0.000282327819149941,-0.0158097669482231,0,
00:00:03.916,0.013414372690022,0.0233033541589975,0.000430387503001839,0,
00:00:03.92,-0.0110653098672628,-0.0052618058398366,-0.0172534957528114,0,
00:00:03.924,0.00242289714515209,-0.00756458844989538,-0.00183036457747221,0,
00:00:03.928,-0.0119932033121586,0.00616481574252248,0.024219186976552,0,
00:00:03.932,0.00206196890212595,-0.00345890130847692,0.00206106225959957,0,
00:00:03.936,-0.0056227627210319,-0.00498340465128422,-0.00840818230062723,0,
00:00:03.94,-0.00218477635644376,0.0123611828312278,-0.00182822823990136,0,
00:00:03.944,0.0402099825441837,-0.00223170034587383,0.00393725512549281,0,
00:00:03.948,-0.0220701787620783,-0.0100239999592304,0.00250617740675807,0,
00:00:03.952,-0.0434318073093891,-0.0060946955345571,-0.00244122231379151,0,
00:00:03.956,0.00834199693053961,0.00467959558591247,-0.00837080180644989,0,
00:00:03.96,0.0454553999006748,0.0215645972639322,0.0199286732822657,0,
00:00:03.964,0.0238362979143858,-0.013561924919486,-0.0145018454641104,0,
00:00:03.968,-0.014343592338264,-0.00491165183484554,-0.0103646460920572,0,
00:00:03.972,-0.053345512598753,-0.00619009090587497,0.0117947701364756,0,
00:00:03.976,-0.0162197053432465,0.00990056432783604,0.0209756400436163,0,
00:00:03.98,0.0299070607870817,0.0109418397769332,-0.0243969652801752,0,
00:00:03.984,0.0222228858619928,-0.0124727943912148,0.00501746824011207,0,
00:00:03.988,-0.00484862131997943,-0.00392754096537828,-0.0108846435323358,0,
00:00:03.992,0.00788709800690413,0.00350265996530652,0.000581878295633942,0,
00:00:03.996,0.0198538899421692,0.0156631581485271,0.00139243633020669,0,
00:00:04,-0.026244979351759,-0.0152372736483812,0.0175126399844885,0,
00:00:04.004,-0.0295467656105757,-0.0215140748769045,0.00613589864224195,0,
00:00:04.008,-0.00391725962981582,0.0186222977936268,-0.0186729114502668,0,
00:00:04.012,0.0336241200566292,0.0201939735561609,-0.00904613640159369,0,
00:00:04.016,0.00453311996534467,-0.00360850850120187,-0.00240146298892796,0,
00:00:04.02,-0.0186046082526445,-0.0147261237725616,0.00670238770544529,0,
00:00:04.024,-0.0113308187574148,-0.0101704420521855,0.0239118207246065,0,
00:00:04.028,0.0454632192850113,0.015337142162025,0.00481199519708753,0,
00:00:04.032,0.00958311930298805,-0.00656599504873157,-0.030698923394084,0,
00:00:04.036,-0.0497615151107311,0.00210262183099985,5.10856989421882E-05,0,
00:00:04.04,-0.0368498452007771,-0.00347267743200064,0.0115946959704161,0,
00:00:04.044,0.0342848412692547,-0.00361263821832836,0.00730583444237709,0,
00:00:04.048,0.0397792682051659,0.0139602888375521,-0.00645884312689304,0,
00:00:04.052,-0.0143207451328635,0.0073464959859848,-0.0134690571576357,0,
00:00:04.056,-0.00242044380865991,0.00772507628425956,-0.00942878518253565,0,
00:00:04.06,0.0251943804323673,-0.019520340487361,0.0326900258660316,0,
00:00:04.064,-0.0434085056185722,-0.0295456126332283,-0.00839153397828341,0,
00:00:04.068,-0.0107817044481635,0.0116449156776071,0.00418171379715204,0,
00:00:04.072,0.0114708347246051,0.0266910772770643,-0.011432615108788,0,
00:00:04.076,0.00399644346907735,0.00437609246000648,-0.00877837184816599,0,
00:00:04.08,0.0279308818280697,-0.0064354445785284,0.00330023770220578,0,
00:00:04.084,0.00212603015825152,0.000184379736310802,0.00512896431609988,0,
00:00:04.088,-0.0454712621867657,-0.0418305583298206,0.011519399471581,0,
00:00:04.092,-0.00723007507622242,0.00800074636936188,0.0054333284497261,0,
00:00:04.096,0.035787109285593,0.0466803684830666,-0.004432353656739,0,
00:00:04.1,0.00302095012739301,0.0149175114929676,-0.0232030656188726,0,
00:00:04.104,-0.00334743992425501,-0.0145889800041914,0.00488437339663506,0,
00:00:04.108,0.0103051671758294,-0.0301909297704697,0.00911686569452286,0,
00:00:04.112,-0.00828691944479942,-0.0190691202878952,0.000410741689847782,0,
00:00:04.116,-0.0368959866464138,0.011467901058495,-0.00699704792350531,0,
00:00:04.12,0.00631097983568907,0.0161527208983898,0.0204619280993938,0,
00:00:04.124,0.0419041775166988,0.0134755373001099,-0.0125029198825359,0,
00:00:04.128,-0.0220655761659145,-0.00934466812759638,-0.0127802044153214,0,
00:00:04.132,0.00781415961682796,-0.00377126969397068,0.0241593010723591,0,
00:00:04.136,0.00142026308458298,-0.00908251572400332,-0.0141791151836514,0,
00:00:04.14,-0.00105323106981814,0.0145434401929379,0.00113716290798038,0,
00:00:04.144,-0.016511332243681,0.00120709964539856,0.00128742295783013,0,
00:00:04.148,0.00141287210863084,0.000213494437048212,-0.0116571020334959,0,
00:00:04.152,0.0343691259622574,-0.00789255555719137,-0.00273482920601964,0,
00:00:04.156,-0.0321638584136963,-0.0196066703647375,0.0104981223121285,0,
00:00:04.16,0.0152478963136673,0.0158978849649429,0.00894764065742493,0,
00:00:04.164,-0.00114107434637845,0.0271846111863852,-0.0057633756659925,0,
00:00:04.168,-0.0331276319921017,-0.0190341230481863,-0.00518057076260448,0,
00:00:04.172,0.0043793385848403,-0.00346014997921884,0.0305310003459454,0,
00:00:04.176,0.0110378842800856,-0.00890015438199043,-0.00625897478312254,0,
00:00:04.18,0.0468958541750908,0.00495733367279172,-0.0370587185025215,0,
00:00:04.184,0.00671680038794875,0.00558802299201488,0.0058548147790134,0,
00:00:04.188,-0.0728567689657211,-0.00211629108525813,-0.00547428242862225,0,
00:00:04.192,-0.0412636622786522,-0.00542458612471819,0.0162561126053333,0,
00:00:04.196,0.0715760812163353,0.0131118083372712,0.00302363652735949,0,
00:00:04.2,0.0526322722434998,0.00332068209536374,0.0168662220239639,0,
00:00:04.204,-0.0238750595599413,-0.0109339114278555,-0.0136259747669101,0,
00:00:04.208,0.00277746142819524,-0.00923631805926561,-0.0193103291094303,0,
00:00:04.212,-0.049355648458004,0.0062415162101388,0.00871849711984396,0,
00:00:04.216,-0.0135073559358716,0.0083493310958147,0.00317791081033647,0,
00:00:04.22,-0.0103284269571304,-0.00433144764974713,-2.93038810923463E-05,0,
00:00:04.224,0.0560717023909092,-0.0015440983697772,0.00552722252905369,0,
00:00:04.228,0.00941500067710876,0.00222251960076392,0.0127143738791347,0,
00:00:04.232,-0.0342430844902992,0.000832172518130392,-0.0157139971852303,0,
00:00:04.236,-0.00281115365214646,-0.00717814359813929,-0.00976144894957542,0,
00:00:04.24,0.00332290166988969,-0.00599092105403543,0.00156067998614162,0,
00:00:04.244,0.0296183843165636,0.011686191894114,0.00720588816329837,0,
00:00:04.248,0.0132682956755161,0.0167912039905787,9.02093670447357E-05,0,
00:00:04.252,-0.0451596640050411,-0.00955277774482965,-0.000201485148863867,0,
00:00:04.256,0.00958385691046715,-0.00734854908660054,-0.00760088348761201,0,
00:00:04.26,0.00134687032550573,-0.0107686575502157,0.0295903477817774,0,
00:00:04.264,-0.0291408207267523,0.0046240147203207,-0.0127403670921922,0,
00:00:04.268,0.0197736322879791,0.00613146647810936,-0.0263194721192122,0,
00:00:04.272,0.00886021554470062,-0.00756650604307652,0.0248426143079996,0,
00:00:04.276,0.0376317650079727,0.0135322585701942,-0.0120643936097622,0,
00:00:04.28,-0.0237139295786619,-0.00397481489926577,-0.00635196827352047,0,
00:00:04.284,-0.0201462674885988,0.0141770355403423,0.00305139273405075,0,
00:00:04.288,0.0140801072120667,-0.0184794887900352,0.0176931452006102,0,
00:00:04.292,-0.00323053612373769,-0.0128102898597717,-0.00181976787280291,0,
00:00:04.296,-0.0348116382956505,0.00280457362532616,-0.00195392244495451,0,
00:00:04.3,0.0126608666032553,0.00886118970811367,-0.00381500646471977,0,
00:00:04.304,0.0275464151054621,0.0157748013734818,-0.0183485392481089,0,
00:00:04.308,0.00629471661522985,-0.00918702781200409,0.022122448310256,0,
00:00:04.312,-0.00881967879831791,0.000207172881346196,0.00372957321815193,0,
00:00:04.316,-0.00147035880945623,-0.000540020992048085,-0.0116711808368564,0,
00:00:04.32,-0.00830359011888504,-0.00245016068220139,-0.00897484645247459,0,
00:00:04.324,0.00703021045774221,-0.00472821947187185,-0.00726204831153154,0,
00:00:04.328,-0.00973482429981232,-0.00562240509316325,0.0335466898977757,0,
00:00:04.332,0.00855058897286654,0.00572436721995473,0.00810586009174585,0,
00:00:04.336,0.0192050077021122,0.00832522194832563,-0.0310000963509083,0,
00:00:04.34,-0.0451491922140121,-0.00764519488438964,-0.0159368962049484,0,
00:00:04.344,-0.00363900093361735,0.0115897227078676,0.0242995955049992,0,
00:00:04.348,0.0377073511481285,0.00414152024313807,0.0288950577378273,0,
00:00:04.352,-0.00165659573394805,-0.00956159457564354,-0.0209388472139835,0,
00:00:04.356,-0.00539506739005446,-0.0109113892540336,-0.0293308198451996,0,
00:00:04.36,0.0012249939609319,-0.00925341807305813,-0.0021073732059449,0,
00:00:04.364,-0.0145734883844852,0.00556973228231072,0.017061360180378,0,
00:00:04.368,0.0178586672991514,-0.00166018470190465,0.0393951721489429,0,
00:00:04.372,0.0277277212589979,0.0303563270717859,-0.00871070753782988,0,
00:00:04.376,-0.00634072162210941,0.0209972150623798,-0.0477125234901905,0,
00:00:04.38,-0.0481644421815872,-0.0253105815500021,0.00085714494343847,0,
00:00:04.384,-0.0448043383657932,-0.020880663767457,0.0174312107264996,0,
00:00:04.388,0.0464409999549389,-0.0107085984200239,0.00209373026154935,0,
00:00:04.392,0.0204034298658371,0.00640800734981894,-0.0042560463771224,0,
00:00:04.396,0.0147282900288701,0.00531366234645247,0.0196337625384331,0,
00:00:04.4,-0.00668782275170088,-0.000319612794555724,0.0121110323816538,0,
00:00:04.404,0.00431167846545577,0.00843735691159964,-0.0149588119238615,0,
00:00:04.408,-0.00114987604320049,0.0108066098764539,-0.0266459006816149,0,
00:00:04.412,-0.0319993011653423,0.00979817844927311,0.00269394251517951,0,
00:00:04.416,-0.00728059932589531,-0.0347047075629234,0.0226131193339825,0,
00:00:04.42,0.0301001612097025,0.0116194887086749,-0.0045052389614284,0,
00:00:04.424,0.0211192891001701,0.0067806476727128,-0.00374482944607735,0,
00:00:04.428,-0.0053572254255414,-0.00897061079740524,-0.0277016963809729,0,
00:00:04.432,-0.0544215552508831,0.00147966016083956,0.0308331251144409,0,
00:00:04.436,-0.00394203420728445,0.00257045915350318,0.0163562819361687,0,
00:00:04.44,0.0478212498128414,-0.00537174707278609,-0.0216321013867855,0,
00:00:04.444,0.0218254383653402,-0.00509557360783219,0.00730727473273873,0,
00:00:04.448,-0.0185297206044197,0.024105828255415,-0.00910473521798849,0,
00:00:04.452,-0.0236113741993904,0.00232716393657029,-0.00552099896594882,0,
00:00:04.456,0.0380579121410847,-0.0200768653303385,0.00779847940430045,0,
00:00:04.46,-0.0246260091662407,-0.00927289668470621,-0.00685263285413384,0,
00:00:04.464,-0.0369353592395782,0.00209886464290321,0.00791885983198881,0,
00:00:04.468,-0.00571829685941339,0.00743838585913181,0.0107615273445845,0,
00:00:04.472,0.0237307008355856,0.00468356441706419,0.00107033224776387,0,
00:00:04.476,0.0480152554810047,0.0153634147718549,-0.0146811325103045,0,
00:00:04.48,-0.00308504630811512,-0.00482454849407077,-0.00598457315936685,0,
00:00:04.484,-0.0297652073204517,-0.0147357834503055,0.00382221676409245,0,
00:00:04.488,0.0268982145935297,-0.00781892612576485,0.00099632260389626,0,
00:00:04.492,-0.0150609202682972,0.00532592227682471,0.0150853907689452,0,
00:00:04.496,-0.0762895792722702,0.0144158117473125,-0.00867106486111879,0,
00:00:04.5,0.0147530008107424,-0.0155940521508455,-0.0203602146357298,0,
00:00:04.504,0.0516137890517712,0.000673479051329196,0.0440585389733315,0,
00:00:04.508,0.0499056987464428,0.00539038330316544,-0.0138725144788623,0,
00:00:04.512,-0.00445823417976499,0.00400465447455645,-0.0226383991539478,0,
00:00:04.516,-0.0439237989485264,0.000855576014146209,-0.0106531111523509,0,
00:00:04.52,-0.0246011447161436,-0.0014941900735721,0.0177476909011602,0,
00:00:04.524,-0.0106912534683943,-0.0084402272477746,0.000648763496428728,0,
00:00:04.528,0.0332208313047886,0.00428718002513051,-0.00142464227974415,0,
00:00:04.532,0.0286082215607166,0.00851469207555056,0.0153277609497309,0,
00:00:04.536,-0.0388471856713295,-0.00724073080345988,-0.00517225405201316,0,
00:00:04.54,0.00722866505384445,-0.00113887886982411,0.00356598128564656,0,
00:00:04.544,0.0047275903634727,0.002570238430053,-0.0187315661460161,0,
00:00:04.548,-0.00665572518482804,0.000575776037294418,-0.00741139054298401,0,
00:00:04.552,-0.0157209020107985,0.000659508281387389,0.0290166698396206,0,
00:00:04.556,0.00978812389075756,-0.00377583689987659,0.00606739846989512,0,
00:00:04.56,0.00373441842384636,-0.0171401388943195,-0.0152855245396495,0,
00:00:04.564,0.032167986035347,0.00964875239878893,-0.0188058987259865,0,
00:00:04.568,0.0272279046475887,0.0233823526650667,0.000936090480536222,0,
00:00:04.572,-0.0371282435953617,0.00683253398165107,0.0113402754068375,0,
00:00:04.576,-0.0413258858025074,-0.0171871799975634,0.00257626478560269,0,
00:00:04.58,-0.0261863153427839,-0.0266139041632414,0.00628167996183038,0,
00:00:04.584,0.00229217810556293,0.00639149686321616,0.0230995956808329,0,
00:00:04.588,0.0400093719363213,0.0207766313105822,-0.0197759941220284,0,
00:00:04.592,0.0440038852393627,0.00599907524883747,-0.0265832636505365,0,
00:00:04.596,0.0154630281031132,-0.00294166663661599,-0.000783006544224918,0,
00:00:04.6,-0.0204440150409937,-0.00581143470481038,0.00808366760611534,0,
00:00:04.604,-0.0287403874099255,-0.00037659949157387,0.00810810178518295,0,
00:00:04.608,-0.0211410820484161,0.000613013166002929,0.0191385205835104,0,
00:00:04.612,0.0165053103119135,-0.00636199023574591,-0.0232723243534565,0,
00:00:04.616,-0.0238526687026024,-0.00953876134008169,0.0116182109341025,0,
00:00:04.62,-0.015212151221931,-0.00314093171618879,0.0224465485662222,0,
00:00:04.624,0.053378663957119,0.0123032284900546,-0.0231333710253239,0,
00:00:04.628,0.0148081770166755,0.0264368187636137,-0.0288300067186356,0,
00:00:04.632,6.31357470410876E-05,0.00330647802911699,0.00581199349835515,0,
00:00:04.636,-0.0228152330964804,-0.0277262851595879,0.0231899041682482,0,
00:00:04.64,-0.0298386421054602,-0.0251370631158352,0.0027556421700865,0,
00:00:04.644,0.0661816522479057,0.0235905051231384,-0.018343398347497,0,
00:00:04.648,-0.0224606264382601,0.0143683645874262,0.00379047309979796,0,
00:00:04.652,-0.0574691519141197,-0.0134275602176785,0.0240452196449041,0,
00:00:04.656,0.00426984950900078,0.00516386656090617,0.0109511548653245,0,
00:00:04.66,0.0281056426465511,0.00608025770634413,-0.0206241235136986,0,
00:00:04.664,0.0201534572988749,-0.00322692352347076,-0.0274949818849564,0,
00:00:04.668,0.00872926879674196,-0.00577263999730349,-0.00255413912236691,0,
00:00:04.672,-0.00403597438707948,-0.0163343511521816,0.013298325240612,0,
00:00:04.676,0.00432942807674408,0.0174386166036129,0.0152228055521846,0,
00:00:04.68,-0.0189617332071066,0.00151611061301082,-0.00206714984960854,0,
00:00:04.684,-0.0324403643608093,-0.00159328896552324,-0.000772211875300854,0,
00:00:04.688,-0.0130777964368463,-0.00063934427453205,0.0186125934123993,0,
00:00:04.692,0.048689890652895,0.0108937034383416,-0.00558937899768353,0,
00:00:04.696,0.00752678234130144,-0.00701507134363055,-0.0356827713549137,0,
00:00:04.7,0.0194180961698294,-0.0139661505818367,-0.0128447916358709,0,
00:00:04.704,-0.0152231948450208,0.00122304540127516,0.0242814216762781,0,
00:00:04.708,-0.0155748529359698,0.0130014540627599,0.0192265417426825,0,
00:00:04.712,-0.00419368501752615,-0.00638219993561506,0.0225233100354671,0,
00:00:04.716,-0.00890346709638834,0.00729247275739908,-0.0121757453307509,0,
00:00:04.72,0.00213784328661859,0.00971917808055878,-0.0379713885486126,0,
00:00:04.724,0.000865007110405713,-0.0126828672364354,-0.00912721455097198,0,
00:00:04.728,0.0121780252084136,-0.0103486906737089,0.0159127656370401,0,
00:00:04.732,-0.0256971027702093,0.00672953436151147,0.00884430017322302,0,
00:00:04.736,0.0125109320506454,0.00503516383469105,0.0157282371073961,0,
00:00:04.74,0.0304760616272688,-0.00643171695992351,0.000520079454872757,0,
00:00:04.744,-0.00100751803256571,-0.0158202107995749,-0.0168506447225809,0,
00:00:04.748,-0.00558148324489594,0.0115542877465487,-0.00565085234120488,0,
00:00:04.752,-0.0288948081433773,0.00766989821568131,0.00534124439582229,0,
00:00:04.756,0.000260761735262349,0.0285661853849888,-0.0105864861980081,0,
00:00:04.76,0.0100778648629785,-0.0088369008153677,0.00571453804150224,0,
00:00:04.764,0.0190475005656481,-0.024718901142478,0.0257480833679438,0,
00:00:04.768,0.0182371158152819,-0.0067897061817348,-0.00413337722420692,0,
00:00:04.772,-0.0459196679294109,-0.00189062079880387,-0.0209630057215691,0,
00:00:04.776,-0.00405767746269703,0.0049854964017868,-0.00555498246103525,0,
00:00:04.78,0.00499252881854773,0.00956106930971146,0.0123028000816703,0,
00:00:04.784,0.000126978120533749,0.00151428673416376,-0.00118372670840472,0,
00:00:04.788,0.0313008204102516,0.00624846667051315,0.00446682097390294,0,
00:00:04.792,-0.00432905042544007,0.00438012694939971,-0.0136005878448486,0,
00:00:04.796,-0.0338625982403755,-0.0150649575516582,0.0111861797049642,0,
00:00:04.8,0.0170537810772657,0.00105166912544519,0.00179525767453015,0,
00:00:04.804,0.00883617531508207,-0.0110863381996751,-0.00116984825581312,0,
00:00:04.808,-0.0184770356863737,0.00242946553044021,0.00691643916070461,0,
00:00:04.812,0.0404838658869267,0.0219744592905045,-0.0148828141391277,0,
00:00:04.816,-0.0257545690983534,-0.0118664428591728,-0.000784838222898543,0,
00:00:04.82,-0.032922524958849,-0.0136757008731365,0.0168385822325945,0,
00:00:04.824,0.0203326679766178,0.0127917714416981,-0.00360323931090534,0,
00:00:04.828,0.0269845072180033,0.0143025610595942,-0.0266693290323019,0,
00:00:04.832,-0.00661779334768653,-0.00340024312026799,0.0254832226783037,0,
00:00:04.836,-0.0118744792416692,-0.0111187743023038,0.00909950491040945,0,
00:00:04.84,-0.0123807489871979,-0.00700665498152375,-0.0175512321293354,0,
00:00:04.844,0.016839137300849,-0.00256941607221961,-0.0105782458558679,0,
00:00:04.848,-0.00716980034485459,0.00976845063269138,0.00404245220124722,0,
00:00:04.852,0.00844917912036181,-0.00418555922806263,0.00868082512170076,0,
00:00:04.856,0.0100301550701261,0.00348385469987988,0.0126738641411066,0,
00:00:04.86,-0.0215252079069614,0.0103721041232347,-0.00415323162451386,0,
00:00:04.864,-0.00311592477373779,-0.00426207249984145,-0.00275651016272604,0,
00:00:04.868,0.00470931734889746,-0.00172295770607889,-0.0037540765479207,0,
00:00:04.872,0.00552556570619345,-0.00670470017939806,-0.00960726942867041,0,
00:00:04.876,-0.00318592204712331,0.0013450620463118,-0.00814784225076437,0,
00:00:04.88,0.0143772708252072,0.006013841368258,0.0150364115834236,0,
00:00:04.884,0.00165737455245107,-0.0117839789018035,0.0159507393836975,0,
00:00:04.888,-0.0200779587030411,-0.00629400229081512,0.00609680078923702,0,
00:00:04.892,0.000701235607266426,0.0237182136625052,-0.0310363247990608,0,
00:00:04.896,-0.00162052549421787,0.00449715321883559,-0.00202976376749575,0,
00:00:04.9,0.00644609378650784,-0.00878396071493626,0.0224620010703802,0,
00:00:04.904,-0.00967955775558949,-0.0172678362578154,-0.0106257125735283,0,
00:00:04.908,0.00845541432499886,-0.00634297309443355,-0.00666685635223985,0,
00:00:04.912,0.030025877058506,0.0154971880838275,0.0216806028038263,0,
00:00:04.916,-0.0123094255104661,0.0165419336408377,-0.00855271518230438,0,
00:00:04.92,-0.0331855155527592,0.000576978723984212,-0.0176762007176876,0,
00:00:04.924,0.0310445968061686,-0.0100966095924377,-0.000538123131264001,0,
00:00:04.928,-0.0175713691860437,-0.00669056549668312,-0.000926999258808792,0,
00:00:04.932,-0.0324083901941776,-0.00721483211964369,0.00506992731243372,0,
00:00:04.936,0.0236988663673401,-0.0021290872246027,0.0326811335980892,0,
00:00:04.94,0.0281240325421095,0.011248866096139,-0.00117014569696039,0,
00:00:04.944,0.0199780017137527,0.00766882905736566,-0.0107566481456161,0,
00:00:04.948,-0.0358080379664898,0.00672964146360755,-0.028187770396471,0,
00:00:04.952,-0.0123798856511712,-0.0203183740377426,0.00459564803168178,0,
00:00:04.956,0.0193075574934483,-0.00382831320166588,0.00740003073588014,0,
00:00:04.96,-0.0118891382589936,0.00685075763612986,-0.0118690310046077,0,
00:00:04.964,0.0326763316988945,0.00637569790706038,0.0150330290198326,0,
00:00:04.968,-0.0293572191148996,0.00634977221488953,0.0183988977223635,0,
00:00:04.972,-0.0242223963141441,-0.00532608525827527,-0.0127153340727091,0,
00:00:04.976,0.0108277108520269,-0.00606367830187082,-0.0196223501116037,0,
00:00:04.98,0.00630630971863866,0.00774479936808348,0.0205504316836596,0,
00:00:04.984,0.00487383455038071,-0.0194866806268692,0.00566618237644434,0,
00:00:04.988,0.0411670282483101,-0.00217774347402155,-0.00463360268622637,0,
00:00:04.992,-0.00624869717285037,0.0175299234688282,-0.00749131618067622,0,
00:00:04.996,-0.0503493212163448,0.00912168528884649,-0.00508371973410249,0,
00:00:05,0.0188220422714949,-0.000284802401438355,-0.0113666104152799,0,
00:00:05.004,-0.00149351311847568,0.00492242397740483,0.0119651649147272,0,
00:00:05.008,-0.0140245677903295,-0.019851827993989,0.0196194220334291,0,
00:00:05.012,0.0202893912792206,-0.00963882729411125,-0.0170583464205265,0,
00:00:05.016,-0.00475688790902495,-0.00212588789872825,-2.05988544621505E-05,0,
00:00:05.02,-0.0163738131523132,0.0242020841687918,0.00571124721318483,0,
00:00:05.024,0.0240798275917768,-0.0012555627617985,-4.22441953560337E-05,0,
00:00:05.028,0.0128907356411219,-0.0101770348846912,-0.00214794906787574,0,
00:00:05.032,-0.0218265820294619,0.00275828805752099,0.00222515757195652,0,
00:00:05.036,0.00859176088124514,0.0119215119630098,-0.00680151069536805,0,
00:00:05.04,0.00659274822100997,-0.00713981548324227,0.00312805664725602,0,
00:00:05.044,-0.0231708642095327,-0.0102501409128308,-0.00602682260796428,0,
00:00:05.048,-0.00849323626607656,-0.00510901212692261,-0.000887729111127555,0,
00:00:05.052,0.0251537673175335,0.00956009887158871,0.006397501565516,0,
00:00:05.056,0.00665402365848422,0.00115481880493462,0.0116878654807806,0,
00:00:05.06,-0.0217616148293018,-0.00128363806288689,-0.00642446056008339,0,
00:00:05.064,0.0262414421886206,0.0179270971566439,-0.00465445918962359,0,
00:00:05.068,-0.0246680602431297,-0.00278494204394519,0.00229781586676836,0,
00:00:05.072,-0.000520732428412884,-0.0170453898608685,0.0150166498497128,0,
00:00:05.076,0.00756693677976727,-0.0135147385299206,-0.0260866321623325,0,
00:00:05.08,-0.00214605662040412,0.00747385108843446,-0.00603007432073355,0,
00:00:05.084,-0.00926444306969643,0.0106241395696998,0.00147390330675989,0,
00:00:05.088,-0.000732297892682254,0.00589461950585246,0.0166459735482931,0,
00:00:05.092,0.0211906246840954,0.0022103707306087,0.00311470916494727,0,
00:00:05.096,0.0128798699006438,-0.00315188337117434,-0.00364885618910193,0,
00:00:05.1,-0.00992278009653091,-0.0093899192288518,0.00377102615311742,0,
00:00:05.104,-0.00453733187168837,-0.00209699617698789,0.00638696225360036,0,
00:00:05.108,-0.00241330312564969,0.00401418097317219,-0.0137337986379862,0,
00:00:05.112,-0.0185012966394424,0.00515283877030015,-0.00740365637466311,0,
00:00:05.116,-0.0294693894684315,0.000681706122122705,-0.00820363499224186,0,
00:00:05.12,0.0367688685655594,-0.0192074924707413,0.0018509904621169,0,
00:00:05.124,0.0344796814024448,0.00857026781886816,0.0273711364716291,0,
00:00:05.128,-0.0135625777766109,0.0133464261889458,0.0140013610944152,0,
00:00:05.132,-0.0108927777037024,0.00266301701776683,-0.00882400292903185,0,
00:00:05.136,0.00196960452012718,-0.00781559012830257,-0.0247657988220453,0,
00:00:05.14,0.0130960382521152,0.00708213681355119,-0.0146725596860051,0,
00:00:05.144,-0.0395848080515862,-0.0122877592220902,-0.00149298831820488,0,
00:00:05.148,0.0057106064632535,0.00513885729014874,0.0285832621157169,0,
00:00:05.152,-0.00296984147280455,-0.0163177214562893,0.00118585606105626,0,
00:00:05.156,-0.0223132185637951,0.00260923150926828,0.0107463961467147,0,
00:00:05.16,0.0732332915067673,0.0182038117200136,-0.00327710062265396,0,
00:00:05.164,0.0385750234127045,0.00658394675701857,-0.0231140200048685,0,
00:00:05.168,-0.0584003776311874,-0.00339602213352919,-0.0123008713126183,0,
00:00:05.172,-0.0453281104564667,-0.00725858798250556,0.013394801877439,0,
00:00:05.176,-0.00626526214182377,-0.0100108180195093,0.019984932616353,0,
00:00:05.18,0.0178007744252682,-0.00235838862136006,-0.00899636372923851,0,
00:00:05.184,0.0326806455850601,0.00422309106215835,0.00253150635398924,0,
00:00:05.188,0.02692118473351,0.018571836873889,0.00449137529358268,0,
00:00:05.192,-0.0318080745637417,-0.00347511610016227,-0.00928468815982342,0,
00:00:05.196,-0.0188596285879612,-0.0252542067319155,-0.00544344028457999,0,
00:00:05.2,0.0263335928320885,0.0163880176842213,-0.00332370866090059,0,
00:00:05.204,-0.0456206984817982,-0.00396229000762105,-0.000487197190523148,0,
00:00:05.208,0.00108965125400573,0.00674732960760593,0.00416281586512923,0,
00:00:05.212,0.0719794631004334,0.0144334398210049,0.00961637776345015,0,
00:00:05.216,-0.0245017632842064,-0.0151051292195916,-0.000367088563507423,0,
00:00:05.22,-0.040974386036396,-0.0102078383788466,-0.00683882180601358,0,
00:00:05.224,0.0277502983808517,-0.00551804574206471,0.00609824620187283,0,
00:00:05.228,0.0102500487118959,0.0124600706622005,0.0152306267991662,0,
00:00:05.232,-0.0153561690822244,0.0193093381822109,-0.016472652554512,0,
00:00:05.236,-0.0128465136513114,-0.0112783527001739,-0.014606399461627,0,
00:00:05.24,0.000106569270428736,-0.00667470833286643,-0.0154516892507672,0,
00:00:05.244,-0.0143955545499921,-0.0271754208952188,-0.00718906754627824,0,
00:00:05.248,0.0660754293203354,0.00753348134458065,0.0729738920927048,0,
00:00:05.252,-0.00450105452910066,0.0306087341159582,0.00724884122610092,0,
00:00:05.256,-0.0301022902131081,0.0076817125082016,-0.0380371287465096,0,
00:00:05.26,-0.0122304065153003,-2.98722115985584E-05,-0.0394488647580147,0,
00:00:05.264,-0.000515419291332364,-0.00578223308548331,0.00191815360449255,0,
00:00:05.268,-0.026399889960885,-0.0347187407314777,0.0313387289643288,0,
00:00:05.272,0.013918518088758,0.000770430371630937,0.0140458550304174,0,
00:00:05.276,0.0451283119618893,0.0153351528570056,-0.0118733728304505,0,
00:00:05.28,0.000550060765817761,0.00358955725096166,-0.00931647978723049,0,
00:00:05.284,-0.00534977810457349,0.0071169501170516,0.0137992724776268,0,
00:00:05.288,-0.0137824146077037,0.00948561728000641,-0.00307849049568176,0,
00:00:05.292,-0.0155877033248544,0.000884323788341135,-0.0166895613074303,0,
00:00:05.296,-0.0108038336038589,-0.0188662391155958,0.0125679299235344,0,
00:00:05.3,0.0255601610988379,-0.00472856499254704,0.0086654694750905,0,
00:00:05.304,0.00582802947610617,-0.00248068035580218,-0.0118229929357767,0,
00:00:05.308,-0.00625072699040174,0.00950724072754383,-0.00738895451650023,0,
00:00:05.312,-0.0187222305685282,-5.61236765861395E-06,0.00138627947308123,0,
00:00:05.316,-0.0173406004905701,-0.0105370003730059,0.0164355617016554,0,
00:00:05.32,0.0472739599645138,0.0152528220787644,-0.00632374221459031,0,
00:00:05.324,0.031916294246912,0.0244850311428308,0.00865207985043526,0,
00:00:05.328,-0.045248631387949,-0.01731794513762,-0.00569579005241394,0,
00:00:05.332,-0.0146359270438552,-0.0298841986805201,-0.00980534125119448,0,
00:00:05.336,0.04096894338727,0.00236132717691362,-0.0061438987031579,0,
00:00:05.34,-0.0325192771852016,0.0119660636410117,0.00610561994835734,0,
00:00:05.344,-0.00640867138281465,0.0135904708877206,-0.00593317998573184,0,
00:00:05.348,-0.0396461747586727,0.00327937840484083,0.0166765823960304,0,
00:00:05.352,-0.00268517667427659,-0.011337268166244,0.0133101502433419,0,
00:00:05.356,0.0709387809038162,-0.0139777474105358,-0.0130481561645865,0,
00:00:05.36,0.0474270172417164,0.00963142514228821,-0.0166547130793333,0,
00:00:05.364,-0.0158546697348356,0.00918527599424124,0.00436222646385431,0,
00:00:05.368,-0.0245282780379057,0.00201110262423754,0.0110416477546096,0,
00:00:05.372,-0.0472454540431499,-0.00134538556449115,-0.000881314626894891,0,
00:00:05.376,-0.0183575712144375,-0.0129959266632795,-0.0103080058470368,0,
00:00:05.38,0.00947471242398024,0.00113052362576127,0.00102801178582013,0,
00:00:05.384,0.0236333925276995,-0.0020511751063168,0.00441690441220999,0,
00:00:05.388,0.0352724306285381,0.012785748578608,0.0033564034383744,0,
00:00:05.392,-0.0278699994087219,0.00557882944121957,-0.0053253686055541,0,
00:00:05.396,0.0010558235226199,-0.00764741329476237,-0.00754230143502355,0,
00:00:05.4,0.00740329548716545,-0.0281204301863909,0.0337671786546707,0,
00:00:05.404,-0.0256857108324766,0.0152106685563922,-0.0170348081737757,0,
00:00:05.408,0.0295806117355824,0.0160333830863237,0.0015029211062938,0,
00:00:05.412,0.0180680826306343,0.00459017278626561,0.00582095421850681,0,
00:00:05.416,-0.0136336218565702,0.0183103680610657,-0.0439079105854034,0,
00:00:05.42,-0.0180709734559059,-0.020602660253644,-0.00383249437436461,0,
00:00:05.424,-0.0286494251340628,-0.0225514136254787,0.0296322032809258,0,
00:00:05.428,0.000990628963336349,-0.00905665196478367,0.024332158267498,0,
00:00:05.432,0.0279206763952971,0.0106791444122791,-0.00402694940567017,0,
00:00:05.436,0.0104218292981386,0.021547582000494,-0.00446395901963115,0,
00:00:05.44,-0.000618835969362408,-0.0024810153990984,-0.00527272652834654,0,
00:00:05.444,0.00332919182255864,-0.0103103946894407,-0.0110096735879779,0,
00:00:05.448,0.00205820589326322,0.00305475271306932,-0.0054245381616056,0,
00:00:05.452,-0.016226876527071,0.0142408916726708,0.00562808895483613,0,
00:00:05.456,-0.00735830515623093,-0.00080203142715618,-0.00715850759297609,0,
00:00:05.46,0.00768262566998601,-0.0386541709303856,0.00331290019676089,0,
00:00:05.464,0.0100945513695478,0.00984241254627705,0.0188611764460802,0,
00:00:05.468,-0.0261537097394466,0.0203503184020519,-0.00702120689675212,0,
00:00:05.472,0.0157704316079617,0.00794937554746866,0.0125361727550626,0,
00:00:05.476,0.0126322526484728,-0.00217901729047298,0.00311336782760918,0,
00:00:05.48,-0.0104324212297797,-0.00655346736311913,-0.0184615235775709,0,
00:00:05.484,0.00643599359318614,-0.00794642139226198,-0.0203626118600369,0,
00:00:05.488,0.00906836241483688,0.00134406250435859,0.0076072127558291,0,
00:00:05.492,-0.00725586200132966,0.00424489611759782,0.00501865753903985,0,
00:00:05.496,-0.0459131263196468,-0.0115895643830299,-0.0047774794511497,0,
00:00:05.5,0.00444311648607254,0.00582810305058956,0.0165892355144024,0,
00:00:05.504,0.115852922201157,0.0198219027370214,0.00211409572511911,0,
00:00:05.508,-0.0383268967270851,-0.00466750049963593,0.0108933355659246,0,
00:00:05.512,-0.0810118764638901,-0.0213003009557724,-0.00325893331319094,0,
00:00:05.516,-0.01774618960917,0.00669224839657545,-0.018965981900692,0,
00:00:05.52,0.0177925080060959,-0.017672423273325,-0.0121478922665119,0,
00:00:05.524,0.0377758778631687,0.0163780376315117,0.0122905727475882,0,
00:00:05.528,0.0330891832709312,0.0243199151009321,0.00615401798859239,0,
00:00:05.532,0.00615993374958634,-0.00336001790128648,0.00579529441893101,0,
00:00:05.536,-0.0294139049947262,-0.0116234058514237,-0.00485329097136855,0,
00:00:05.54,-0.0299228262156248,-0.0132033713161945,-0.0028879689052701,0,
00:00:05.544,0.00372181413695216,0.00513686751946807,-0.00363177410326898,0,
00:00:05.548,0.018151618540287,-0.00494875386357307,-0.0253628473728895,0,
00:00:05.552,-0.00581891182810068,0.00896575953811407,0.0444495640695095,0,
00:00:05.556,0.000941351288929582,0.00832852255553007,0.0169823821634054,0,
00:00:05.56,0.00975167192518711,-0.016456114128232,-0.0270068012177944,0,
00:00:05.564,0.0071467817761004,0.0105133475735784,-0.0152671104297042,0,
00:00:05.568,-0.00596982939168811,0.0115129193291068,-0.0135376052930951,0,
00:00:05.572,-0.0241126101464033,-0.0118287364020944,0.0143849672749639,0,
00:00:05.576,-0.0257860627025366,-0.00390453916043043,0.00864610075950623,0,
00:00:05.58,0.0648577287793159,-0.0034976361785084,0.0096197621896863,0,
00:00:05.584,0.0231888424605131,-0.00659296289086342,0.000212583385291509,0,
00:00:05.588,-0.0453636422753334,-0.00233320775441825,0.010422327555716,0,
00:00:05.592,-0.0150637673214078,0.0196714159101248,-0.0162455067038536,0,
00:00:05.596,-0.0103553673252463,0.0149847147986293,-0.0286639556288719,0,
00:00:05.6,0.00742431404069066,-0.0168722495436668,0.0125449737533927,0,
00:00:05.604,0.011861078441143,-0.0132482443004847,0.0228907726705074,0,
00:00:05.608,0.0231853518635035,0.00476860674098134,-0.00480753649026155,0,
00:00:05.612,0.00583473918959498,0.00861479621380568,0.00102236750535667,0,
00:00:05.616,-0.0182960983365774,0.0027953265234828,-0.0122324293479323,0,
00:00:05.62,-0.0295689236372709,-0.00258920853957534,-0.0150336921215057,0,
00:00:05.624,0.0223838668316603,-0.00641526700928807,0.0180769339203835,0,
00:00:05.628,0.000119721866212785,0.00513522000983357,0.0508602187037468,0,
00:00:05.632,-0.00358587712980807,-0.00704462500289083,-0.0264469720423222,0,
00:00:05.636,0.00761455623432994,-0.0181878637522459,-0.0445409491658211,0,
00:00:05.64,-0.003485391382128,0.0117182284593582,-0.0113404532894492,0,
00:00:05.644,0.0175302624702454,0.0347072668373585,0.0148084368556738,0,
00:00:05.648,-0.00728768948465586,-0.00945870764553547,0.0260794889181852,0,
00:00:05.652,-0.0115050347521901,-0.015688655897975,0.000305505382129923,0,
00:00:05.656,0.00195506517775357,-0.00155704258941114,0.000961258774623275,0,
00:00:05.66,-0.026407403871417,0.00750721711665392,0.00325577356852591,0,
00:00:05.664,0.00899212155491114,-0.017693780362606,0.012082451954484,0,
00:00:05.668,0.0244337506592274,0.0109746847301722,-0.0199747234582901,0,
00:00:05.672,0.0167203191667795,0.00302578206174076,-0.0233845077455044,0,
00:00:05.676,0.00598856620490551,-0.00393853988498449,-1.06949019027525E-05,0,
00:00:05.68,-0.0358827002346516,0.00350377545692027,0.0133726159110665,0,
00:00:05.684,-0.0165445692837238,0.00705028185620904,0.0138211892917752,0,
00:00:05.688,0.0616675242781639,-0.00379467010498047,0.000525341718457639,0,
00:00:05.692,-0.0381360352039337,-0.00296750804409385,-0.00353598315268755,0,
00:00:05.696,-0.0670661926269531,-0.0064892964437604,-0.00953622069209814,0,
00:00:05.7,0.0372603721916676,-0.00342149683274329,0.00425166031345725,0,
00:00:05.704,0.0456422567367554,0.00519688427448273,0.019285324960947,0,
00:00:05.708,0.00439939741045237,0.0184875559061766,-0.00438350532203913,0,
00:00:05.712,-0.00800530612468719,-0.0067368121817708,-0.00877948105335236,0,
00:00:05.716,-0.00199803803116083,-0.0225751735270023,-0.0265173204243183,0,
00:00:05.72,0.00185600796248764,0.0110826650634408,-0.0129806594923139,0,
00:00:05.724,-0.0159674324095249,0.00675598392263055,0.0325637497007847,0,
00:00:05.728,0.00903197936713696,0.00155977776739746,0.0128970537334681,0,
00:00:05.732,-0.010572649538517,-0.00175535841844976,0.00129364104941487,0,
00:00:05.736,-0.00328695354983211,0.00358567549847066,-0.0042941365391016,0,
00:00:05.74,-0.0154548799619079,-0.0119249066337943,-0.00329976435750723,0,
00:00:05.744,0.016828864812851,0.000602659245487303,-0.00991533789783716,0,
00:00:05.748,0.00571104930713773,-0.000750809966120869,0.00922181736677885,0,
00:00:05.752,0.0105592347681522,0.00623140670359135,0.00815030187368393,0,
00:00:05.756,0.0283894222229719,0.0182648189365864,-0.0221436787396669,0,
00:00:05.76,-0.0150886382907629,-0.0224731136113405,-0.0186364520341158,0,
00:00:05.764,-0.0673816725611687,-0.0269561912864447,0.0285296812653542,0,
00:00:05.768,0.0185288824141026,0.0224778838455677,0.024546355009079,0,
00:00:05.772,0.0219659879803658,0.0155045073479414,0.000599518010858446,0,
00:00:05.776,0.0120280515402555,0.0178947411477566,-0.0295831505209208,0,
00:00:05.78,0.00962794199585915,-0.0122788744047284,-0.0192677825689316,0,
00:00:05.784,0.0164674706757069,-0.0115747814998031,-0.000200076945475303,0,
00:00:05.788,-0.0356038324534893,-0.00574099132791162,0.0326091013848782,0,
00:00:05.792,-0.0184312015771866,-0.00655698636546731,0.0061657503247261,0,
00:00:05.796,-2.57518672697188E-06,8.15959283499978E-05,-0.00768440263345838,0,
00:00:05.8,0.00806629564613104,0.000972778478171676,-0.00570722855627537,0,
00:00:05.804,0.0337798707187176,0.00992256216704845,-0.00115885527338833,0,
00:00:05.808,-0.0345711670815945,0.00493048969656229,-0.0111414762213826,0,
00:00:05.812,-0.0187784060835838,0.00918099470436573,-0.00130787875968963,0,
00:00:05.816,0.0609545446932316,0.000754871289245784,0.0197617374360561,0,
00:00:05.82,0.0117030823603272,-0.0128119476139545,0.00941438041627407,0,
00:00:05.824,-0.0423872396349907,-0.0252514742314816,-0.004214056301862,0,
00:00:05.828,-0.0187745280563831,0.000314467877615243,-0.0207156278192997,0,
00:00:05.832,0.0220589637756348,0.0224975198507309,-0.00292331073433161,0,
00:00:05.836,-0.0130642522126436,0.0129034863784909,0.0027193536516279,0,
00:00:05.84,-0.0142235970124602,-0.00728142959997058,0.011906836181879,0,
00:00:05.844,0.0312643088400364,0.00586598971858621,0.00113995047286153,0,
00:00:05.848,0.00238366005942225,-0.00687940698117018,0.00782726239413023,0,
00:00:05.852,-0.00191066367551684,-0.00738270254805684,-0.00616883905604482,0,
00:00:05.856,0.0138798765838146,-0.00105524819809943,-0.0298040993511677,0,
00:00:05.86,-0.00143803143873811,0.00735640991479158,-0.000123255638754927,0,
00:00:05.864,-0.0303182788193226,-0.000312941963784397,0.0259492639452219,0,
00:00:05.868,0.0118541233241558,-0.00158878916408867,0.0204948522150517,0,
00:00:05.872,-0.00586238410323858,-0.0092378705739975,-0.00405902788043022,0,
00:00:05.876,-0.017934288829565,-0.00890703499317169,-0.0174385253340006,0,
00:00:05.88,0.0101617993786931,0.0100218085572124,-0.0260050538927317,0,
00:00:05.884,-0.0166506059467793,0.0133083667606115,0.0186418406665325,0,
00:00:05.888,0.021099342033267,-0.0073289037682116,0.0314558893442154,0,
00:00:05.892,0.0509867556393147,0.0130820786580443,-0.0149364080280066,0,
00:00:05.896,-0.00483172154054046,-0.00250564282760024,-0.024853028357029,0,
00:00:05.9,-0.0352837033569813,-0.0180317964404821,-0.00954469852149487,0,
00:00:05.904,-0.00757824489846826,0.010016331449151,0.02492412365973,0,
00:00:05.908,-0.0150029994547367,0.00645355880260468,0.00756319193169475,0,
00:00:05.912,0.0164519138634205,-0.0169315747916698,-0.00762283988296986,0,
00:00:05.916,0.00815449096262455,-0.00106874899938703,-0.00255854218266904,0,
00:00:05.92,-0.00565630104392767,0.0161194410175085,0.0093586714938283,0,
00:00:05.924,-0.00137802213430405,0.000131836233776994,0.00861908216029406,0,
00:00:05.928,0.00765740172937512,-0.00934315379709005,-0.0151099693030119,0,
00:00:05.932,0.0106481201946735,-0.000400713965063915,-0.0204841587692499,0,
00:00:05.936,-0.0154587114229798,-0.00223843869753182,0.00591169483959675,0,
00:00:05.94,-0.00774014741182327,-0.00079609575914219,0.0140457274392247,0,
00:00:05.944,-0.0236514434218407,0.00756034487858415,0.00799674820154905,0,
00:00:05.948,0.0228870492428541,0.0090267937630415,-0.0104689262807369,0,
00:00:05.952,0.0158455017954111,8.62052256707102E-05,-0.0010519502684474,0,
00:00:05.956,0.0164095778018236,-0.00212537008337677,0.0132310148328543,0,
00:00:05.96,0.0254514645785093,-0.0254301372915506,0.0031892484985292,0,
00:00:05.964,-0.0558866634964943,-0.00570631446316838,-0.0255835074931383,0,
00:00:05.968,-0.0654941722750664,0.0230948515236378,0.00618223426863551,0,
00:00:05.972,0.0591790527105331,0.0132901426404715,0.0107174059376121,0,
00:00:05.976,0.0494642779231071,-0.00189803831744939,-0.00571883423253894,0,
00:00:05.98,-0.0245736818760633,-0.00954377930611372,-0.00871705543249846,0,
00:00:05.984,-0.0200858730822802,0.00168284401297569,0.0147790014743805,0,
00:00:05.988,-0.00648985104635358,-0.00919557176530361,-0.00107333844061941,0,
00:00:05.992,0.0290958732366562,0.00198359903879464,-0.0105765294283628,0,
00:00:05.996,0.00302658462896943,-0.0117153376340866,0.0158570799976587,0,
00:00:06,-0.0166092403233051,0.0126753551885486,-0.00894650630652905,0,
00:00:06.004,-0.00767312292009592,0.0108643835410476,-0.00792254693806171,0,
00:00:06.008,0.00510671222582459,-0.000139589959871955,-0.00670881848782301,0,
00:00:06.012,-0.0116350455209613,-0.00675963331013918,0.0187462884932756,0,
00:00:06.016,-0.0059185829013586,0.00154544494580477,0.00837113428860903,0,
00:00:06.02,0.0246906653046608,-0.00460639270022511,-0.0153579190373421,0,
00:00:06.024,0.0101852174848318,0.00320508307777345,0.00603838823735714,0,
00:00:06.028,-0.000725252262782305,-0.0160638839006424,0.00114500743802637,0,
00:00:06.032,-0.0105251632630825,0.0113542908802629,-0.0218949597328901,0,
00:00:06.036,-0.0217332355678082,0.010291506536305,0.0158346947282553,0,
00:00:06.04,0.0103222206234932,-0.0107463961467147,0.00643733562901616,0,
00:00:06.044,-0.000938138109631836,-0.00298311840742826,0.00202808203175664,0,
00:00:06.048,0.0277971904724836,0.0223150812089443,-0.00903527718037367,0,
00:00:06.052,-0.0134253548458219,0.0020009430591017,-0.00268516363576055,0,
00:00:06.056,-0.0102136572822928,-0.027540996670723,0.00565260834991932,0,
00:00:06.06,-0.0116858454421163,-0.0152619769796729,0.00711186975240707,0,
00:00:06.064,0.00354282977059484,0.0201649907976389,-0.00505730323493481,0,
00:00:06.068,0.0287835653871298,0.010238453745842,-0.00830258429050446,0,
00:00:06.072,-0.0155611718073487,0.0108061023056507,-0.0111753512173891,0,
00:00:06.076,0.0169839225709438,-0.00591940805315971,0.0207189954817295,0,
00:00:06.08,-0.00167773745488375,-0.0100659355521202,0.00737424520775676,0,
00:00:06.084,-0.0444560050964355,-0.00883715134114027,-0.0244779959321022,0,
00:00:06.088,-0.00205889786593616,0.000610123388469219,-0.00244805659167469,0,
00:00:06.092,0.0305204372853041,5.04929812450428E-05,0.0223524514585733,0,
00:00:06.096,0.0296709481626749,-0.000381998455850407,0.0197929386049509,0,
00:00:06.1,-0.0327068492770195,0.00284136645495892,-0.020074650645256,0,
00:00:06.104,-0.0103097902610898,0.0230892077088356,-0.00371729000471532,0,
00:00:06.108,0.0209532342851162,0.00439305044710636,-0.0203712731599808,0,
00:00:06.112,-0.000801795104052871,-0.0146469306200743,-0.0033768021967262,0,
00:00:06.116,-0.00247809384018183,-0.0162504315376282,0.0116553641855717,0,
00:00:06.12,-0.0169838294386864,-0.0142170190811157,0.00841699168086052,0,
00:00:06.124,-0.000399489537812769,-0.00292796432040632,0.0228001400828362,0,
00:00:06.128,0.0182499866932631,0.0343101657927036,-0.0215077195316553,0,
00:00:06.132,-0.0142833767458797,0.0189464222639799,0.00618448667228222,0,
00:00:06.136,0.046993862837553,-0.00611904822289944,0.00673887087032199,0,
00:00:06.14,-0.0312371365725994,-0.0160467140376568,-0.0236448105424643,0,
00:00:06.144,-0.0333435423672199,-0.0195967014878988,0.0028717324603349,0,
00:00:06.148,0.00297272927127779,0.000812175567261875,-0.00423233723267913,0,
00:00:06.152,0.00781069695949554,-0.00305416830815375,0.00609317934140563,0,
00:00:06.156,0.0176091864705086,0.0122402813285589,0.0194094814360142,0,
00:00:06.16,0.036704745143652,0.0131562426686287,-0.0228966884315014,0,
00:00:06.164,-0.0117241991683841,-0.00224300543777645,-0.00467240437865257,0,
00:00:06.168,-0.0352770760655403,-0.00431561982259154,0.0303780268877745,0,
00:00:06.172,-0.022191671654582,0.00812476314604282,-0.00153387244790792,0,
00:00:06.176,0.0241907350718975,-0.00380562781356275,-0.0182170197367668,0,
00:00:06.18,0.00416852254420519,-0.0113103967159986,-0.00595477689057589,0,
00:00:06.184,-0.00929389521479607,0.00529687432572246,0.0036990677472204,0,
00:00:06.188,0.0304231829941273,-0.0118059506639838,0.000341271283105016,0,
00:00:06.192,0.0172388274222612,0.00753118051216006,-0.00837425887584686,0,
00:00:06.196,-0.0430723465979099,-0.0132413469254971,0.0211843512952328,0,
00:00:06.2,-0.0222989674657583,0.0196472443640232,0.00877871830016375,0,
00:00:06.204,0.0161500051617622,0.0181100778281689,-0.00479846727102995,0,
00:00:06.208,0.00911904033273458,-6.27944973530248E-05,-0.0166225824505091,0,
00:00:06.212,0.0186743400990963,-0.0267459899187088,-0.012829496525228,0,
00:00:06.216,-0.0148646384477615,-0.00157221266999841,0.0222584381699562,0,
00:00:06.22,-0.0203945077955723,0.00624195020645857,-0.0178791303187609,0,
00:00:06.224,0.0197700206190348,-0.0114645464345813,0.00379030359908938,0,
00:00:06.228,0.0224537905305624,-0.00155178725253791,0.0203590393066406,0,
00:00:06.232,-0.00649378588423133,0.0271791089326143,0.00327161396853626,0,
00:00:06.236,0.00501311104744673,0.000996406306512654,-0.00264182966202497,0,
00:00:06.24,-0.0375336743891239,-0.00205442262813449,-0.0188400857150555,0,
00:00:06.244,-0.0173507370054722,-0.0219371132552624,-0.00686216400936246,0,
00:00:06.248,0.0383653901517391,0.00586731685325503,0.0119177559390664,0,
00:00:06.252,0.0203182119876146,0.00916777551174164,-0.0126307113096118,0,
00:00:06.256,-0.0272956509143114,-0.0192999634891748,0.0115624042227864,0,
00:00:06.26,-0.013287759386003,0.0112581104040146,0.0301908422261477,0,
00:00:06.264,0.00899060536175966,0.00273467809893191,-0.0144961951300502,0,
00:00:06.268,0.00847788900136948,0.0100739905610681,-0.0185428280383348,0,
00:00:06.272,-0.0101468274369836,-0.00418764958158135,-0.0140935322269797,0,
00:00:06.276,0.0201281253248453,-0.00986860785633326,0.0169499795883894,0,
00:00:06.28,0.00932212639600039,0.00332325557246804,0.00656213844195008,0,
00:00:06.284,-0.0104257166385651,0.00792538747191429,-0.00352840940468013,0,
00:00:06.288,-0.0172885935753584,-0.00120812258683145,0.0103350197896361,0,
00:00:06.292,-0.00534107396379113,-0.0069444845430553,-0.0109443282708526,0,
00:00:06.296,0.00321309384889901,-0.0103879729285836,-0.00563825620338321,0,
00:00:06.3,0.00841593742370605,0.0102804759517312,0.0109315495938063,0,
00:00:06.304,0.00734305754303932,0.00585542153567076,-0.0103600919246674,0,
00:00:06.308,-0.0242266412824392,0.000376729643903673,-0.0048857550136745,0,
00:00:06.312,-0.00509370770305395,-0.00475254841148853,0.00591416656970978,0,
00:00:06.316,0.072036124765873,-0.00304961646907032,0.0281736794859171,0,
00:00:06.32,-0.0082874707877636,0.00825741980224848,-0.0158380102366209,0,
00:00:06.324,-0.0653394907712936,-0.0289799366146326,-0.0105608021840453,0,
00:00:06.328,0.0111096547916532,0.0253821425139904,-0.00440951948985457,0,
00:00:06.332,0.00465706596150994,0.0125925606116652,-0.00568392733111978,0,
00:00:06.336,-0.00283318804576993,-0.0032007354311645,0.00483128754422069,0,
00:00:06.34,-0.0012357768137008,-0.0123004065826535,0.0141538716852665,0,
00:00:06.344,0.0256255157291889,0.00381580251269042,0.0016973806777969,0,
00:00:06.348,-0.0124120116233826,-0.000676735886372626,-0.0118354978039861,0,
00:00:06.352,-0.0233965385705233,-0.00931384973227978,0.00175040296744555,0,
