Elapsed Time,EMG1,EMG2,EMG3,BioRadio Event,
00:00:00,-0.581218421459198,-0.0643491819500923,4.15571165084839,0,
00:00:00.004,0.553090274333954,0.0591592155396938,-3.9545955657959,0,
00:00:00.008,0.459772020578384,0.0508028753101826,-3.2894458770752,0,
00:00:00.012,0.0474949851632118,0.0111813377588987,-0.354531437158585,0,
00:00:00.016,-0.231914728879929,-0.0242052488029003,1.69284880161285,0,
00:00:00.02,-0.285994738340378,-0.0382154658436775,2.04678606987,0,
00:00:00.024,-0.184149876236916,-0.0212616194039583,1.27411007881165,0,
00:00:00.028,-0.0215779729187489,0.00434520095586777,0.169861361384392,0,
00:00:00.032,0.0913504660129547,0.00266406871378422,-0.607668042182922,0,
00:00:00.036,0.112134478986263,0.00453245313838124,-0.830199956893921,0,
00:00:00.04,0.0771163627505302,0.0168045554310083,-0.618328273296356,0,
00:00:00.044,0.0340578779578209,0.0151321766898036,-0.2000732421875,0,
00:00:00.048,-0.00486153550446033,-0.00506126927211881,0.0950865224003792,0,
00:00:00.052,-0.0374915786087513,-0.00700396578758955,0.226147323846817,0,
00:00:00.056,-0.032668124884367,-0.00370104960165918,0.219213992357254,0,
00:00:00.06,-0.0165332965552807,-0.000634163152426481,0.116661004722118,0,
00:00:00.064,0.00175777950789779,-0.00552352797240019,0.00379982963204384,0,
00:00:00.068,0.00512436730787158,-0.0100441575050354,-0.0570353306829929,0,
00:00:00.072,0.00900362245738506,0.0124234948307276,-0.0572638139128685,0,
00:00:00.076,0.0125574637204409,0.00857239030301571,-0.0599291808903217,0,
00:00:00.08,0.00253904727287591,0.00622863648459315,-0.0146751133725047,0,
00:00:00.084,-0.00325405155308545,-0.00444121658802032,0.00150563369970769,0,
00:00:00.088,-0.00270210485905409,-0.0113461734727025,0.0239745751023293,0,
00:00:00.092,-0.00543597619980574,-0.00924117956310511,0.0136845475062728,0,
00:00:00.096,-0.00696299225091934,0.00805135630071163,0.0139709655195475,0,
00:00:00.1,0.00444210506975651,0.0127650750800967,0.00536821875721216,0,
00:00:00.104,0.00764711620286107,0.00143088516779244,-0.0134122855961323,0,
00:00:00.108,0.00067481811856851,-0.00891136657446623,0.0112085063010454,0,
00:00:00.112,-0.00208214297890663,-0.0036585652269423,-0.00809923373162746,0,
00:00:00.116,-0.00218523130752146,0.00420574890449643,-0.00276813725940883,0,
00:00:00.12,0.000955451338086277,-0.00218660174869001,-0.00512642227113247,0,
00:00:00.124,-0.00403926288709044,-0.00561114586889744,-0.00698839128017426,0,
00:00:00.128,-0.00109047756996006,0.00460903765633702,0.0023305166978389,0,
00:00:00.132,0.00416528480127454,0.00713205803185701,0.00777099095284939,0,
00:00:00.136,0.00517849903553724,0.00201796041801572,-0.0014703196939081,0,
00:00:00.14,-0.00153685070108622,-0.00673274789005518,-0.00627745036035776,0,
00:00:00.144,-0.00513152265921235,-7.98112669144757E-05,0.0122290067374706,0,
00:00:00.148,0.00204988149926066,0.000421892589656636,0.00952846929430962,0,
00:00:00.152,0.00346261076629162,-0.00452250009402633,0.00473142322152853,0,
00:00:00.156,-0.00672272359952331,0.0011621224693954,-0.0161445122212172,0,
00:00:00.16,-0.00126230879686773,-0.00347988214343786,-0.013105895370245,0,
00:00:00.164,-0.004370775539428,0.00581932533532381,-0.00504287891089916,0,
00:00:00.168,0.00841354113072157,0.00945539306849241,0.00885641295462847,0,
00:00:00.172,0.00857562012970448,0.0016230404144153,0.00892177876085043,0,
00:00:00.176,0.000892449112143368,-0.00492711318656802,-0.00855936575680971,0,
00:00:00.18,-0.00888350792229176,-0.00852576177567244,0.0109927365556359,0,
00:00:00.184,-0.00385972647927701,-0.00213726283982396,0.00880826264619827,0,
00:00:00.188,0.00179697806015611,-0.00104734557680786,-0.00592392077669501,0,
00:00:00.192,-0.000430180574767292,0.00199625082314014,-0.0103260818868876,0,
00:00:00.196,0.000186293604201637,0.00339271500706673,-0.002721116412431,0,
00:00:00.2,0.00101240247022361,0.000659125333186239,-0.000653601833619177,0,
00:00:00.204,0.00115746958181262,0.00510447705164552,0.00675230473279953,0,
00:00:00.208,0.00070873653749004,-0.00497249374166131,0.00803847797214985,0,
00:00:00.212,-0.00198820559307933,0.00331556587480009,-0.00650230655446649,0,
00:00:00.216,0.00369748543016613,-0.000900789338629693,-0.0123762069270015,0,
00:00:00.22,-0.000816793006379157,-0.00421145418658853,0.00655543431639671,0,
00:00:00.224,-0.0039047293830663,0.00250869197770953,0.00516690313816071,0,
00:00:00.228,0.00288813817314804,-0.000700700911693275,0.00213742163032293,0,
00:00:00.232,-0.000472935702418908,-0.000929259520489722,-0.00460644299164414,0,
00:00:00.236,-0.00093263213057071,0.00190451892558485,0.00226176041178405,0,
00:00:00.24,-0.000341160106472671,0.000582541222684085,0.00165440270211548,0,
00:00:00.244,0.00234430213458836,0.00120229774620384,-0.000510970538016409,0,
00:00:00.248,-0.00146439182572067,-0.0115280579775572,-0.00171745324041694,0,
00:00:00.252,-0.00330992275848985,-0.00278979772701859,0.00672283628955483,0,
00:00:00.256,-0.000127953506307676,0.016381623223424,-0.0127443708479404,0,
00:00:00.26,0.00437957141548395,0.00253077177330852,-0.000324230932164937,0,
00:00:00.264,0.00265821139328182,-0.000742887030355632,-0.00284207938238978,0,
00:00:00.268,-0.000209648263989948,-0.00130098452791572,0.0026005080435425,0,
00:00:00.272,-0.00188169721513987,-0.0014736580196768,0.0161374267190695,0,
00:00:00.276,0.000110633976873942,-0.0119159175083041,-0.000899956212379038,0,
00:00:00.28,-0.00304910726845264,0.000219116380321793,-0.0063225794583559,0,
00:00:00.284,-0.00166690908372402,0.00688321096822619,-0.0114641627296805,0,
00:00:00.288,0.00045988176134415,0.00249075028114021,0.00816613435745239,0,
00:00:00.292,-0.000463983131339774,0.0024683028459549,0.00395254790782928,0,
00:00:00.296,0.00560294790193439,-0.00247764238156378,-0.0026266691274941,0,
00:00:00.3,0.000456258072517812,-0.00650301948189735,-0.00476108258590102,0,
00:00:00.304,-0.00358108966611326,0.00530052976682782,-0.000821727036964148,0,
00:00:00.308,0.000420812633819878,0.00188909249845892,0.0086615476757288,0,
00:00:00.312,0.000849444943014532,-0.000275897415122017,0.00134587625507265,0,
00:00:00.316,0.00225444370880723,-0.00319234188646078,-0.00283293821848929,0,
00:00:00.32,-0.00444880314171314,0.00305221113376319,-0.00969956535845995,0,
00:00:00.324,-0.000201202114112675,0.00128821365069598,-0.0043594678863883,0,
00:00:00.328,0.00113059266004711,-0.00336845451965928,0.0189954601228237,0,
00:00:00.332,0.00306024309247732,-0.00231243693269789,-0.0059440340846777,0,
00:00:00.336,-0.00368844973854721,0.0020732197444886,0.0025994258467108,0,
00:00:00.34,0.00224986090324819,-0.00260258023627102,0.000572455523069948,0,
00:00:00.344,-0.00295872217975557,-0.00221220194362104,-0.010767157189548,0,
00:00:00.348,0.0010371005628258,0.00634016562253237,0.0129193579778075,0,
00:00:00.352,0.00151668291073292,0.00644907960668206,-0.00756991608068347,0,
00:00:00.356,0.000661142868921161,0.000144830759381875,-0.00628530560061336,0,
00:00:00.36,-0.000238047650782391,-0.00840482953935862,0.000139145224238746,0,
00:00:00.364,-0.000655151787213981,-0.00289311702363193,0.00423697521910071,0,
00:00:00.368,-0.00266177020967007,0.00259041041135788,0.00450166035443544,0,
00:00:00.372,0.00378409447148442,-0.000112221088784281,0.0148087851703167,0,
00:00:00.376,0.00179356057196856,6.95491107762791E-05,-0.0140998158603907,0,
00:00:00.38,-0.00529197603464127,0.00275695999152958,-0.0158282127231359,0,
00:00:00.384,-0.00045318083721213,-0.00321278488263488,0.00869217421859503,0,
00:00:00.388,0.00142033421434462,0.000865093083120883,0.0152928717434406,0,
00:00:00.392,0.00144301622640342,0.00360997160896659,-0.00559013523161411,0,
00:00:00.396,0.000682180281728506,-0.00122707802802324,-0.00789804290980101,0,
00:00:00.4,-8.9350447524339E-05,-0.00391083024442196,-0.00544021651148796,0,
00:00:00.404,-0.000497411878313869,0.00111132056917995,0.00116662809159607,0,
00:00:00.408,-0.000510583864524961,-0.000259264139458537,0.00904157664626837,0,
00:00:00.412,-0.000289492716547102,0.00490260263904929,0.00277651869691908,0,
00:00:00.416,-3.00386200251523E-05,-0.000550180964637548,-0.00103293207939714,0,
00:00:00.42,0.000137650888063945,-0.000126830273075029,-0.00653607631102204,0,
00:00:00.424,0.000178011454408988,0.00462365010753274,-0.00427682884037495,0,
00:00:00.428,0.00427729170769453,-0.0162807665765285,0.0187098365277052,0,
00:00:00.432,-0.00598507700487971,-0.00660374294966459,-0.00444309134036303,0,
00:00:00.436,-0.00548603991046548,0.0138656990602612,-0.0128339249640703,0,
00:00:00.44,0.00726049672812223,0.0106113012880087,-0.000827444484457374,0,
00:00:00.444,0.00519981468096375,-0.000597341102547944,0.00354755041189492,0,
00:00:00.448,-0.00207382254302502,-0.00697289034724236,0.00971295218914747,0,
00:00:00.452,-0.00534586422145367,-0.00255463737994432,-0.00635310960933566,0,
00:00:00.456,0.000133131645270623,-0.000482363859191537,-0.00103301159106195,0,
00:00:00.46,0.00158394535537809,0.0024913726374507,-0.00611587055027485,0,
00:00:00.464,0.0032411701977253,-0.00131626927759498,0.00180695171002299,0,
00:00:00.468,-0.00377309648320079,-0.00109849858563393,0.000463326257886365,0,
00:00:00.472,-2.18418481381377E-05,0.00011121485295007,0.0178811438381672,0,
00:00:00.476,0.000928821100387722,0.00296882353723049,-0.0014463480329141,0,
00:00:00.48,0.00271535920910537,-0.00103703257627785,-0.00878620427101851,0,
00:00:00.484,0.00017963293066714,-0.00113317929208279,-0.0117827421054244,0,
00:00:00.488,-0.00597930792719126,-0.000178705449798144,-0.0031365673057735,0,
00:00:00.492,-0.000197632165509276,-0.00155711849220097,0.000289015588350594,0,
00:00:00.496,1.18670686788391E-05,-0.00153476453851908,0.0211401674896479,0,
00:00:00.5,0.0039893202483654,0.0080365864560008,0.00242867483757436,0,
00:00:00.504,0.00255523179657757,0.00148775184061378,-0.0104880323633552,0,
00:00:00.508,0.0020735205616802,-0.000295306090265512,-0.00737809669226408,0,
00:00:00.512,-0.00356629933230579,-0.00515789771452546,0.00331999314948916,0,
00:00:00.516,-0.00342283118516207,-0.00368836824782193,-0.000591215852182359,0,
00:00:00.52,-0.00123280042316765,0.00151753949467093,0.000737073365598917,0,
00:00:00.524,0.000715401256456971,0.00382906524464488,0.00201639928855002,0,
00:00:00.528,0.0036032113712281,-0.00546139618381858,0.0081004211679101,0,
00:00:00.532,-0.00275380699895322,-0.00203588418662548,-0.00514836516231298,0,
00:00:00.536,-0.00117623375263065,0.000381490070139989,-0.00322667369619012,0,
00:00:00.54,0.00331184384413064,0.0101325763389468,-0.0014336429303512,0,
00:00:00.544,0.00216961279511452,0.000497078930493444,0.00206277798861265,0,
00:00:00.548,-0.000137411843752488,-0.000471000646939501,0.00294332904741168,0,
00:00:00.552,0.000544550886843354,-0.00230552977882326,-0.00884584337472916,0,
00:00:00.556,-0.00567309558391571,0.00142685638274997,0.00524715939536691,0,
00:00:00.56,0.00151356018614024,-0.00364382821135223,-0.00414072535932064,0,
00:00:00.564,-0.000537290994543582,-0.00768232112750411,0.00153023318853229,0,
00:00:00.568,-9.56820949795656E-05,0.00277364603243768,0.00772814592346549,0,
00:00:00.572,0.000649107620120049,0.0043370658531785,-0.00960090477019548,0,
00:00:00.576,0.000886150111909956,-0.00175557134207338,0.0114339143037796,0,
00:00:00.58,0.000615553697571158,-9.91048073046841E-05,0.0137368123978376,0,
00:00:00.584,0.00222506583668292,0.00190707913134247,-0.0263595432043076,0,
00:00:00.588,-0.00634692003950477,0.00422002421692014,0.00149210391100496,0,
00:00:00.592,0.00402365112677217,0.00113391689956188,-0.00142574484925717,0,
00:00:00.596,-0.00124196207616478,-0.00186866556759924,-0.00111711991485208,0,
00:00:00.6,0.00139242492150515,0.00128615321591496,0.00497613893821836,0,
00:00:00.604,0.00289635732769966,-0.00397114222869277,0.00055965268984437,0,
00:00:00.608,-0.00228482251986861,-0.010038941167295,0.00997709203511477,0,
00:00:00.612,-0.00253431755118072,0.00253314105793834,-0.00353824067860842,0,
00:00:00.616,-0.000976039387751371,0.0100230108946562,-0.000931387825403363,0,
00:00:00.62,0.00257500470615923,-0.00184526504017413,-0.00634040776640177,0,
00:00:00.624,-0.00291292229667306,-0.00232986407354474,-0.000824035378172994,0,
00:00:00.628,-0.000760494265705347,-9.23997795325704E-05,-0.00480357417836785,0,
00:00:00.632,0.00179893861059099,0.00548975309357047,0.015900656580925,0,
00:00:00.636,0.00661889929324389,-0.000543529924470931,-0.0040590288117528,0,
00:00:00.64,-0.000345504697179422,-0.00268669193610549,-0.0038860565982759,0,
00:00:00.644,-0.00308750057592988,-0.000194770967937075,-0.0019409287488088,0,
00:00:00.648,-0.000746068661101162,-0.000750391045585275,-1.24819116535946E-05,0,
00:00:00.652,-0.00321098719723523,-0.00736053427681327,-0.00103268341626972,0,
00:00:00.656,-0.00342199951410294,0.00311240670271218,0.0093553839251399,0,
00:00:00.66,0.0028787141200155,0.0069157974794507,-0.0098253795877099,0,
00:00:00.664,0.00355783151462674,-0.00137802609242499,0.00750391837209463,0,
00:00:00.668,0.00180696544703096,0.00237481319345534,-0.00681969430297613,0,
00:00:00.672,0.0019274284131825,-0.00420230254530907,0.00273008714430034,0,
00:00:00.676,-0.00320252985693514,-0.000440313131548464,-0.00166724727023393,0,
00:00:00.68,-0.00501305237412453,0.00265007466077805,0.00391447963193059,0,
00:00:00.684,0.00105137727223337,-0.0035887451376766,0.0037443651817739,0,
00:00:00.688,0.00239967135712504,0.00458304630592465,-0.0095068346709013,0,
00:00:00.692,0.00362992216832936,-0.00470448564738035,-0.000254102516919374,0,
00:00:00.696,-0.00380452442914248,-0.000476776564028114,0.0027970913797617,0,
00:00:00.7,-0.000284874899080023,0.00344343576580286,0.00241752108559012,0,
00:00:00.704,0.00272044888697565,-0.00258017983287573,-0.00122233794536442,0,
00:00:00.708,-0.0035849108826369,-0.00100195780396461,-0.000582810316700488,0,
00:00:00.712,-0.00169681268744171,0.00545679777860641,0.000504921365063638,0,
00:00:00.716,0.00529299583286047,0.000171898980624974,0.0112118432298303,0,
00:00:00.72,0.000425203761551529,-0.00183922750875354,-0.0135469883680344,0,
00:00:00.724,-0.00143005012068897,-0.00175828998908401,-0.00226042256690562,0,
00:00:00.728,-0.00142333225812763,-0.000798263819888234,0.00826871953904629,0,
00:00:00.732,-0.000645989726763219,0.00014151273353491,-0.00342995161190629,0,
00:00:00.736,0.000123311168863438,0.00477809924632311,-0.0118609750643373,0,
00:00:00.74,0.00259278272278607,-0.00539672188460827,0.0116222864016891,0,
00:00:00.744,-0.00146143243182451,0.00111878721509129,-0.0037873147521168,0,
00:00:00.748,-0.00136005331296474,-0.00273075420409441,0.020129319280386,0,
00:00:00.752,-0.0022333818487823,-0.00212712516076863,-0.00963691528886557,0,
00:00:00.756,0.000596735975705087,0.00640986021608114,-0.00318604218773544,0,
00:00:00.76,0.00653982441872358,0.00438476074486971,-0.0161198172718287,0,
00:00:00.764,0.000349789275787771,0.00417449278756976,-0.00205443892627954,0,
00:00:00.768,-0.000188545222044922,-0.00460824696347117,0.0138781564310193,0,
00:00:00.772,-0.00429513026028872,-0.0145412748679519,0.00548807391896844,0,
00:00:00.776,-0.00488678319379687,0.00422361074015498,0.00280258525162935,0,
00:00:00.78,0.00185862113721669,0.00636879913508892,0.00468652183189988,0,
00:00:00.784,0.00532018439844251,0.00279909186065197,-0.0138531113043427,0,
00:00:00.788,6.50679503451101E-05,-0.0049283504486084,-0.0127044515684247,0,
00:00:00.792,-0.00341604021377862,-0.00459616025909781,0.0214706230908632,0,
00:00:00.796,0.000952299742493778,0.00516524678096175,-0.00427477713674307,0,
00:00:00.8,0.00136530655436218,0.00651776418089867,-0.00659828539937735,0,
00:00:00.804,0.000437120092101395,-0.00118535361252725,0.000375055824406445,0,
00:00:00.808,-0.000424263416789472,-0.00355833629146218,0.000521526671946049,0,
00:00:00.812,-0.000731269654352218,-0.00276189460419118,-0.00214655697345734,0,
00:00:00.816,-0.00263007124885917,0.00118628994096071,0.0186383686959744,0,
00:00:00.82,0.00387301645241678,0.00281293201260269,-0.0073278034105897,0,
00:00:00.824,0.00188228802289814,-0.0064184688962996,-0.00957074668258429,0,
00:00:00.828,-0.0052391760982573,0.00164553103968501,-0.00369703909382224,0,
00:00:00.832,0.00163273909129202,0.000630641472525895,0.00186638731975108,0,
00:00:00.836,-0.000573749304749072,-0.00505560915917158,0.00618442799896002,0,
00:00:00.84,-0.00437806313857436,0.00514578679576516,0.00759823713451624,0,
00:00:00.844,0.00235925894230604,0.00974980834871531,0.00404518516734242,0,
00:00:00.848,0.00808066502213478,0.00230370764620602,-0.01564547047019,0,
00:00:00.852,0.000554003810975701,-0.0106219388544559,-0.0073825353756547,0,
00:00:00.856,-0.00302242976613343,0.00170797621831298,-0.00905152969062328,0,
00:00:00.86,-0.00119951937813312,-0.0013287621550262,0.0154941044747829,0,
00:00:00.864,-0.00374835450202227,-0.00202726083807647,0.0197834819555283,0,
00:00:00.868,0.000396445044316351,-0.00312180235050619,-0.000349917681887746,0,
00:00:00.872,-0.0011279343161732,-0.00392548879608512,-0.0113839041441679,0,
00:00:00.876,-0.00373975117690861,0.00460062129423022,-0.00923514645546675,0,
00:00:00.88,0.00559960631653667,0.0103265680372715,-0.00705674849450588,0,
00:00:00.884,0.0049686012789607,0.00379181373864412,0.00822346843779087,0,
00:00:00.888,0.00331411906518042,-0.00713557237759233,-0.00079433829523623,0,
00:00:00.892,-0.00371600431390107,-0.00582295283675194,0.0162856634706259,0,
00:00:00.896,-0.00433812988922,0.000745765864849091,-0.00348107772879303,0,
00:00:00.9,-0.00217906967736781,0.00409400789067149,-0.00976880080997944,0,
00:00:00.904,0.000182354429853149,0.00132033042609692,-0.00490336865186691,0,
00:00:00.908,0.00148191279731691,-0.00556121999397874,0.00515553960576653,0,
00:00:00.912,0.00156594160944223,0.00173645210452378,-4.82540672237519E-05,0,
00:00:00.916,0.000907924200873822,-0.000236967171076685,0.00238598790019751,0,
00:00:00.92,0.00218693376518786,9.4361646915786E-05,0.00135277945082635,0,
00:00:00.924,-0.00446550128981471,0.000644927786197513,-0.00234009325504303,0,
00:00:00.928,-0.000216102649574168,-0.00134257692843676,0.00704296166077256,0,
00:00:00.932,0.0010703019797802,0.000318649515975267,-0.00335258129052818,0,
00:00:00.936,-0.00119154830463231,0.0077692111954093,-0.013545036315918,0,
00:00:00.94,0.00431002443656325,-0.000338340731104836,-0.00122154771815985,0,
00:00:00.944,-0.000565566413570195,-0.00834882259368896,0.0188942272216082,0,
00:00:00.948,-0.00186677894089371,0.00201312568970025,-0.00449229869991541,0,
00:00:00.952,0.000746991485357285,-0.00669672666117549,-0.0037334687076509,0,
00:00:00.956,-0.00434484845027328,0.00514773139730096,0.00311600766144693,0,
00:00:00.96,0.000792746897786856,-0.00143208762165159,-0.0010470156557858,0,
00:00:00.964,0.00215331395156682,0.00491420365869999,0.00431707361713052,0,
00:00:00.968,0.00152859999798238,0.00308299018070102,-0.0112081943079829,0,
00:00:00.972,-0.00171813694760203,0.00169323175214231,-0.00515434052795172,0,
00:00:00.976,0.00147301284596324,-0.00440349150449038,0.0136006912216544,0,
00:00:00.98,0.0029426806140691,-0.00414617173373699,0.00102942413650453,0,
00:00:00.984,-0.00238238833844662,-0.00153960753232241,-0.00474015204235911,0,
00:00:00.988,-0.00269372994080186,0.00288998172618449,-0.00236101006157696,0,
00:00:00.992,-0.00109725038055331,-0.00221194489859045,-0.00331876263953745,0,
00:00:00.996,0.000462100841104984,0.00401811627671123,0.0144636984914541,0,
00:00:01,0.00324927759356797,0.000238132459344342,-0.000771604885812849,0,
00:00:01.004,-0.000926446868106723,-0.000720869458746165,-0.00767183862626553,0,
00:00:01.008,-0.00322458962909877,-0.00263156881555915,-0.00253983167931437,0,
00:00:01.012,-0.000341621751431376,0.00389753072522581,-0.00188413984142244,0,
00:00:01.016,0.00408647116273642,-0.00229538604617119,0.009447674266994,0,
00:00:01.02,0.00452306820079684,0.00483762566000223,-0.00513942074030638,0,
00:00:01.024,-0.000179835871676914,-0.00114893075078726,-0.0103859174996614,0,
00:00:01.028,-0.00545649416744709,-0.0073452265933156,0.0145136155188084,0,
00:00:01.032,-0.00576913636177778,-0.00469087110832334,0.00830462761223316,0,
00:00:01.036,-0.000428308587288484,0.00861092563718557,-0.0171694085001946,0,
00:00:01.04,0.00550246937200427,0.00200022896751761,0.00584996398538351,0,
00:00:01.044,0.00411303527653217,6.51386944809929E-05,0.000449178798589855,0,
00:00:01.048,0.000791089900303632,0.00380466668866575,-0.00362407695502043,0,
00:00:01.052,-0.00159311306197196,-0.00227424432523549,-0.00348848639987409,0,
00:00:01.056,-0.00222670845687389,0.00057632353855297,-0.00296567706391215,0,
00:00:01.06,0.000526147428900003,-0.00619290489703417,0.00783429574221373,0,
00:00:01.064,-0.00447492906823754,-0.0035727615468204,0.0109544433653355,0,
00:00:01.068,0.00286250258795917,-0.0034651302266866,0.00407305685803294,0,
00:00:01.072,-0.00179594941437244,0.00701551837846637,-0.00946368090808392,0,
00:00:01.076,0.00200888211838901,0.00631791492924094,-0.0068928049877286,0,
00:00:01.08,0.0019486170494929,0.00608283141627908,-0.00739936111494899,0,
00:00:01.084,0.000585227739065886,-0.00568537088111043,-2.39511537074577E-05,0,
00:00:01.088,-0.000581835629418492,-0.00637489650398493,0.00943195447325706,0,
00:00:01.092,-0.0010095484321937,-0.00696268863976002,0.00202789483591914,0,
00:00:01.096,-0.00079502712469548,0.0067598638124764,0.000192582912859507,0,
00:00:01.1,-0.0023772525601089,0.00582509161904454,-0.000108928943518549,0,
00:00:01.104,0.00210876297205687,-0.000975007540546358,0.00806999392807484,0,
00:00:01.108,0.00405728630721569,-0.00651973206549883,-0.00206721038557589,0,
00:00:01.112,-0.00147989206016064,0.00248730997554958,-0.0150566939264536,0,
00:00:01.116,-0.00438947696238756,0.00519410613924265,-0.00409982865676284,0,
00:00:01.12,0.000782720919232816,-0.000990200904197991,0.00419832533225417,0,
00:00:01.124,0.00176826503593475,-0.00256271939724684,0.0067178662866354,0,
00:00:01.128,0.00101665162947029,-0.00176495790947229,0.00895479414612055,0,
00:00:01.132,1.61804236995522E-05,-0.000354087416781113,0.00356755265966058,0,
00:00:01.136,-0.000558818399440497,0.00272635952569544,-0.00863312650471926,0,
00:00:01.14,-0.00061185919912532,-0.00103403849061579,-0.0139811858534813,0,
00:00:01.144,-0.000345318811014295,-0.000956790870986879,0.00547984056174755,0,
00:00:01.148,-1.98082852875814E-05,0.00212443107739091,0.0048411856405437,0,
00:00:01.152,0.00226605054922402,0.000794236082583666,0.00247602467425168,0,
00:00:01.156,-0.00173871184233576,-0.00497408676892519,-0.00186741107609123,0,
00:00:01.16,-0.00147783546708524,-0.00156035623513162,0.00505974609404802,0,
00:00:01.164,-0.00220075924880803,7.93314320617355E-05,-0.00565422000363469,0,
00:00:01.168,0.000706559338141233,0.0094187343493104,0.00429691327735782,0,
00:00:01.172,0.0066490569151938,0.00197504321113229,-0.00564043177291751,0,
00:00:01.176,0.000412304536439478,-0.00265518133528531,-0.0121035063639283,0,
00:00:01.18,-0.00433159805834293,-0.00171731784939766,0.00838435348123312,0,
00:00:01.184,0.00170458783395588,-0.00662550330162048,0.00750227412208915,0,
00:00:01.188,-0.00361386430449784,0.00385992811061442,0.00987992621958256,0,
00:00:01.192,0.00262062437832356,0.000433333334513009,-0.00410755723714828,0,
00:00:01.196,-0.00060229649534449,-0.00287632457911968,-0.0176930259913206,0,
00:00:01.2,-0.000809343415312469,-0.0048731230199337,0.0112779596820474,0,
00:00:01.204,-9.79762189672329E-05,0.00760095193982124,0.0138095272704959,0,
00:00:01.208,0.00047359662130475,0.00147958821617067,-0.0203175246715546,0,
00:00:01.212,0.000596612284425646,0.00220352550968528,-0.00815541110932827,0,
00:00:01.216,-0.00169603154063225,-0.00200130790472031,0.00927726272493601,0,
00:00:01.22,0.00203782808966935,0.0023777992464602,0.00177786475978792,0,
00:00:01.224,0.00355089362710714,-0.00236873421818018,0.00153136532753706,0,
00:00:01.228,-0.00411255517974496,-0.00278444541618228,0.00196786737069488,0,
00:00:01.232,-0.000691630411893129,0.00285885576158762,-0.000695821072440594,0,
00:00:01.236,0.00244039250537753,-0.00571254501119256,0.0042175049893558,0,
00:00:01.24,-0.00156424939632416,-0.000151674088556319,0.00710719684138894,0,
00:00:01.244,-0.0014711560215801,0.00451101688668132,-0.0064676427282393,0,
00:00:01.248,0.00186803878750652,-0.00155382417142391,-0.0125677501782775,0,
00:00:01.252,-0.00331236841157079,-0.000478716741781682,-0.00675033451989293,0,
00:00:01.256,-0.000791776401456445,0.00543078361079097,0.0137022295966744,0,
00:00:01.26,0.00613415380939841,-0.00225838436745107,0.000381700810976326,0,
00:00:01.264,-0.00126894190907478,-0.00234368187375367,-0.00109635875560343,0,
00:00:01.268,0.000450026156613603,0.00367097440175712,0.00658549554646015,0,
00:00:01.272,-0.000140300166094676,-0.00102491420693696,-0.00883028749376535,0,
00:00:01.276,-0.000841082714032382,-0.00209386250935495,0.0103905135765672,0,
00:00:01.28,-0.000945253123063594,0.00285533000715077,-0.0132015608251095,0,
00:00:01.284,0.00151958607602865,-0.00403472082689404,0.0062421546317637,0,
00:00:01.288,-0.00201329565607011,-0.00464806845411658,0.00487797800451517,0,
00:00:01.292,-0.00132428645156324,0.00249563623219728,-0.00905078556388617,0,
00:00:01.296,0.000233074024436064,0.00391253689303994,-0.000143472629133612,0,
00:00:01.3,-0.000934683717787266,0.00238823355175555,0.000688453787006438,0,
00:00:01.304,0.00311240367591381,0.000250737910391763,0.00225355825386941,0,
00:00:01.308,0.00222632871009409,0.000923474261071533,0.00650352891534567,0,
00:00:01.312,0.00221755495294929,-0.003444061614573,0.00142567092552781,0,
00:00:01.316,-0.00322698289528489,-0.00264659733511508,-0.0115367118269205,0,
00:00:01.32,-0.00521071208640933,-0.000464287615614012,0.00344370794482529,0,
00:00:01.324,0.00293909385800362,-0.000968734559137374,0.00365197868086398,0,
00:00:01.328,-0.00172994937747717,0.00555660016834736,-0.00184905622154474,0,
00:00:01.332,0.00192152056843042,-0.00137891783379018,-0.00630010291934013,0,
00:00:01.336,0.00180492457002401,0.000774985644966364,0.00743491109460592,0,
00:00:01.34,0.000493345549330115,0.000299298175377771,0.00622338382527232,0,
00:00:01.344,0.00149333802983165,0.00152666587382555,-0.0139346532523632,0,
00:00:01.348,-0.00499359285458922,-0.000787631666753441,-0.00844947993755341,0,
00:00:01.352,-0.000376239797333255,-0.00221726018935442,0.0226260647177696,0,
00:00:01.356,0.00330258393660188,-0.00608762353658676,-0.00793512165546417,0,
00:00:01.36,-0.000797441403847188,-0.00505188666284084,0.0120251681655645,0,
00:00:01.364,-0.00320139224641025,0.00961158145219088,-0.00628591980785131,0,
00:00:01.368,0.00377195770852268,0.00791533943265677,-0.0151510834693909,0,
00:00:01.372,-0.0019665586296469,0.00573899177834392,-0.000701091485098004,0,
00:00:01.376,0.00323092332109809,-0.00501581421121955,0.00751241995021701,0,
00:00:01.38,-0.000917380559258163,-0.0117651838809252,-0.00057475664652884,0,
00:00:01.384,-0.00156211480498314,-0.0031104504596442,0.000963406870141625,0,
00:00:01.388,-0.00287480815313756,0.00231410912238061,0.0110781351104379,0,
00:00:01.392,0.00414821226149797,0.00399970728904009,-0.00335452472791076,0,
00:00:01.396,0.00023581892310176,0.00097061472479254,-0.00153609167318791,0,
00:00:01.4,-0.000897613237611949,0.0051449560560286,-0.00710911210626364,0,
00:00:01.404,-0.000724489975254983,0.00327292643487453,-0.00128614925779402,0,
00:00:01.408,-0.000192555831745267,-0.00669045746326447,-0.00898327492177486,0,
00:00:01.412,0.00020654356922023,-0.00960758049041033,0.0201229359954596,0,
00:00:01.416,-0.00174672226421535,0.000752985186409205,0.00580028956755996,0,
00:00:01.42,0.00428947200998664,0.00942009408026934,-0.00920678675174713,0,
00:00:01.424,-0.00026409505517222,0.005045544821769,-0.0105383321642876,0,
00:00:01.428,-0.00153204251546413,-0.00516022741794586,0.00141039781738073,0,
00:00:01.432,-0.0011413375614211,-0.00221259170211852,0.00187617726624012,0,
00:00:01.436,-0.000287695409497246,0.00352760357782245,-0.00163619569502771,0,
00:00:01.44,0.00034883021726273,-0.00377982435747981,0.00813883543014526,0,
00:00:01.444,0.000553127669263631,-0.00491248164325953,0.00228532636538148,0,
00:00:01.448,0.00041574111673981,0.00410197768360376,-0.00353290163911879,0,
00:00:01.452,0.0022194623015821,-0.000502253649756312,-0.00486225355416536,0,
00:00:01.456,-0.00621141586452723,0.00260068941861391,0.00349077512510121,0,
00:00:01.46,0.00212326878681779,0.00388137390837073,0.0047373790293932,0,
00:00:01.464,0.00501656206324697,-0.00399980042129755,0.00408711703494191,0,
00:00:01.468,-0.000862806453369558,-0.000786130025517195,-0.0115120802074671,0,
00:00:01.472,-0.00230020703747869,0.00222361274063587,-0.0133313750848174,0,
00:00:01.476,-0.00155284232459962,-0.00386532605625689,0.0172267649322748,0,
00:00:01.48,-0.000280024891253561,0.000353143841493875,0.00462789181619883,0,
00:00:01.484,0.000600242172367871,0.00138272263575345,-0.00832976493984461,0,
00:00:01.488,0.00083316583186388,0.000940533995162696,-0.00204871781170368,0,
00:00:01.492,0.000586511974688619,0.000165209115948528,0.00211877422407269,0,
00:00:01.496,0.000173422653460875,0.00171732681337744,0.00721378065645695,0,
00:00:01.5,-0.000152129257912748,-0.00246002245694399,-0.00623802561312914,0,
00:00:01.504,-0.000281829619780183,-0.00404507014900446,0.00700011104345322,0,
00:00:01.508,-0.00231442856602371,0.0037942233029753,0.0062840897589922,0,
00:00:01.512,0.00393945770338178,0.000616581994108856,-0.0183058846741915,0,
00:00:01.516,-0.000322915293509141,-0.00233889068476856,-0.00333321536891162,0,
00:00:01.52,-0.00138776528183371,0.00380216632038355,0.00389777985401452,0,
00:00:01.524,-0.000936575641389936,0.00169998675119132,0.00312407058663666,0,
00:00:01.528,-0.000133923022076488,-0.00543176522478461,0.00525028631091118,0,
00:00:01.532,0.000407322979299352,-0.000595558725763112,0.0022621511016041,0,
00:00:01.536,-0.00154483655933291,-0.000765225500799716,0.00104657211340964,0,
00:00:01.54,0.00233124499209225,0.00543442135676742,-0.00662907026708126,0,
00:00:01.544,0.00172956986352801,0.000335812743287534,-0.00197320012375712,0,
00:00:01.548,6.25896864221431E-05,0.000537418061867356,-0.00169046793598682,0,
00:00:01.552,-0.00102980399969965,-0.00346789648756385,0.00730148237198591,0,
00:00:01.556,0.000897362537216395,-0.00231894594617188,-0.00128320988733321,0,
00:00:01.56,-0.00267128692939878,-0.00213827798143029,-0.00468446500599384,0,
00:00:01.564,-0.00171126262284815,0.0033341150265187,0.00493067782372236,0,
00:00:01.568,0.000176554385689087,0.00110693369060755,-0.0039955428801477,0,
00:00:01.572,-0.000770635204389691,0.00513789802789688,-4.24129575549159E-06,0,
00:00:01.576,0.00333639606833458,0.000997125520370901,-0.00270540057681501,0,
00:00:01.58,0.00446552550420165,-0.00284176995046437,0.00106943456921726,0,
00:00:01.584,-0.00177555065602064,-0.00793478451669216,0.0159993302077055,0,
00:00:01.588,-0.00499800313264132,-0.00261289207264781,-0.00244967499747872,0,
00:00:01.592,0.0023143058642745,0.00690712034702301,-0.0146102048456669,0,
00:00:01.596,-0.00256188143976033,0.00274771242402494,-0.000583320914302021,0,
00:00:01.6,0.00341920694336295,-0.0018652694998309,-0.00114311184734106,0,
00:00:01.604,-0.00241497065871954,0.00101852917578071,0.00215423293411732,0,
00:00:01.608,0.000976931536570191,0.00261060264892876,0.00590977584943175,0,
00:00:01.612,0.00115855503827333,-0.00457698944956064,0.00109297584276646,0,
00:00:01.616,-0.00176593358628452,-0.000686415238305926,0.00564506929367781,0,
00:00:01.62,0.00363437575288117,0.00270496378652751,-0.00271556084044278,0,
00:00:01.624,0.00109606562182307,-0.00127148150932044,-0.0138067854568362,0,
00:00:01.628,-0.00598286325111985,0.000782282091677189,0.00382631458342075,0,
00:00:01.632,0.00125691562425345,-0.00215204106643796,0.00548947509378195,0,
00:00:01.636,-0.000557619845494628,-0.000972735928371549,-2.06935383175733E-05,0,
00:00:01.64,2.03625077119796E-05,0.000674789596814662,0.000886463618371636,0,
00:00:01.644,0.00076423556311056,-0.00484038796275854,-0.0047336257994175,0,
00:00:01.648,-0.00322542269714177,0.00912223011255264,0.00246239849366248,0,
00:00:01.652,0.00452954228967428,0.00749916257336736,-0.00214762054383755,0,
00:00:01.656,0.00543521670624614,-0.00531611684709787,-0.00445177499204874,0,
00:00:01.66,-0.00190909008961171,-0.00654747476801276,0.0077653699554503,0,
00:00:01.664,-0.00372491450980306,-0.00310580269433558,0.0117222275584936,0,
00:00:01.668,-0.000457683665445074,0.000550096796359867,-0.00386974308639765,0,
00:00:01.672,-0.00251382403075695,0.00449984241276979,-0.0103997644037008,0,
00:00:01.676,0.00133363832719624,-0.00374253396876156,-0.006026198156178,0,
00:00:01.68,-0.00496054720133543,0.00149169832002372,-0.00398866925388575,0,
00:00:01.684,0.0020821550861001,0.00924539379775524,0.00567987374961376,0,
00:00:01.688,0.00854851584881544,-0.00601204158738256,0.00940786954015493,0,
00:00:01.692,-0.000759991293307394,0.00137783365789801,0.00855834223330021,0,
00:00:01.696,0.00158731278497726,0.000174978762515821,-0.00105436251033098,0,
00:00:01.7,-0.00346475373953581,-0.00394919095560908,-0.0154607798904181,0,
00:00:01.704,-0.00343787670135498,-0.000314694916596636,-0.00351252104155719,0,
00:00:01.708,0.000681257573887706,-0.00379447918385267,0.000646450207568705,0,
00:00:01.712,-0.00349578354507685,0.00214864127337933,0.0062141022644937,0,
00:00:01.716,0.00180551246739924,0.00543634686619043,0.00667430274188519,0,
00:00:01.72,0.00489529268816113,-0.00197640457190573,-0.00303243612870574,0,
00:00:01.724,-0.0023501634132117,-0.00150130072142929,-0.00542410602793098,0,
00:00:01.728,0.000497568864375353,0.00453553767874837,0.000954130489844829,0,
00:00:01.732,0.000637117307633162,-0.000585532397963107,0.0169960223138332,0,
00:00:01.736,0.00205673510208726,-0.0021641943603754,-0.0102272825315595,0,
00:00:01.74,-0.0045647588558495,-0.00168400106485933,-0.015503485687077,0,
00:00:01.744,0.00182495114859194,-0.000518903776537627,-0.00182385288644582,0,
00:00:01.748,-0.00293533550575376,0.000422400102252141,0.00627472484484315,0,
00:00:01.752,0.00131408183369786,0.000788304663728923,0.00958000868558884,0,
00:00:01.756,0.00182390341069549,0.00272830831818283,0.0086813997477293,0,
00:00:01.76,0.00293034268543124,0.000384037382900715,-0.00716630695387721,0,
00:00:01.764,-0.00216936250217259,-0.00575290014967322,-0.0115445032715797,0,
00:00:01.768,-0.00235937931574881,-8.16936444607563E-05,0.0054611717350781,0,
00:00:01.772,-0.000860575120896101,-9.41051439440344E-06,0.00909251999109983,0,
00:00:01.776,-0.00157637253869325,0.00388243584893644,-0.00574979232624173,0,
00:00:01.78,0.00302289170213044,0.00243638036772609,-0.0102764135226607,0,
00:00:01.784,0.00250541348941624,-8.07712931418791E-05,-0.0019892668351531,0,
00:00:01.788,0.00052024150500074,-0.00161372974980623,0.013307529501617,0,
00:00:01.792,-0.000975965114776045,-0.00176171294879168,0.00703310174867511,0,
00:00:01.796,0.000680723751429468,-0.00102056260220706,-0.0061547658406198,0,
00:00:01.8,-0.00295828701928258,0.00197795173153281,-0.0107350060716271,0,
00:00:01.804,-0.00191828794777393,0.000613786396570504,-0.000675797287840396,0,
00:00:01.808,0.0001044807213475,-0.00295223179273307,0.00849386211484671,0,
00:00:01.812,0.00134277285542339,-0.00134422304108739,0.00275130453519523,0,
00:00:01.816,0.00144670205190778,0.000827891693916172,0.00540716666728258,0,
00:00:01.82,0.000824669026769698,-0.00237070838920772,-0.0121657326817513,0,
00:00:01.824,-0.00201416620984674,0.00748649192973971,-0.00478389719501138,0,
00:00:01.828,0.00361358863301575,0.00184439402073622,0.00194539315998554,0,
00:00:01.832,-0.000888208858668804,-0.00159552146214992,0.00671643065288663,0,
00:00:01.836,-0.00185629620682448,-0.00464688939973712,0.00388222606852651,0,
00:00:01.84,-0.00114967417903244,0.00425614509731531,-0.000190013422979973,0,
00:00:01.844,-0.000106897117802873,-0.000820669869426638,-0.00461619766429067,0,
00:00:01.848,0.00263878563418984,-0.0087942173704505,-0.00280108768492937,0,
00:00:01.852,-0.00335607607848942,0.00197001174092293,0.0104075446724892,0,
00:00:01.856,-0.00128799793310463,0.00449938885867596,-0.00409425003454089,0,
00:00:01.86,0.00354583258740604,0.00504264514893293,-0.0146084688603878,0,
00:00:01.864,0.0025105164386332,-0.0035612559877336,0.00688674487173557,0,
00:00:01.868,0.00219757528975606,0.00120921805500984,-0.000925573287531734,0,
00:00:01.872,-0.00340566574595869,-0.00214134808629751,0.00774151366204023,0,
00:00:01.876,-0.00329886050894856,-0.00176081608515233,-3.48548019246664E-05,0,
00:00:01.88,-0.00117175886407495,-0.000323633081279695,0.000645576510578394,0,
00:00:01.884,0.000721461838111281,0.000745410332456231,-0.00488893873989582,0,
00:00:01.888,0.00150326755829155,-0.00104858120903373,0.000204508862225339,0,
00:00:01.892,-0.000807707256171852,0.00476096756756306,0.00785722769796848,0,
00:00:01.896,0.00459871860221028,-0.00222100061364472,0.00350461318157613,0,
00:00:01.9,-0.000465849618194625,0.00236946297809482,-0.0147918229922652,0,
00:00:01.904,-0.00195091252680868,-0.00172300671692938,-0.00779978511855006,0,
00:00:01.908,-0.00358522334136069,0.000120730852358975,0.000519153312779963,0,
00:00:01.912,0.00358226732350886,-0.000660200545098633,0.022075779736042,0,
00:00:01.916,0.00209708348847926,-0.00531065417453647,-0.00140691793058068,0,
00:00:01.92,-0.00277465861290693,-0.00311367842368782,-0.000591892923694104,0,
00:00:01.924,-0.00627096137031913,0.00909791886806488,-0.0104774972423911,0,
00:00:01.928,0.00588872702792287,0.00369628751650453,-0.0056976773776114,0,
00:00:01.932,0.00248303776606917,-0.00261879619210958,0.00942413508892059,0,
00:00:01.936,-0.00199769414030015,0.00158382870722562,-0.00323118059895933,0,
00:00:01.94,0.000919610261917114,-0.00269300863146782,-0.00214501866139472,0,
00:00:01.944,0.00257888645865023,-0.000590299663599581,0.00137827172875404,0,
00:00:01.948,-0.00245275115594268,-0.00296824588440359,0.00715628825128078,0,
00:00:01.952,-0.00256402208469808,-0.00108127249404788,0.00048865977441892,0,
00:00:01.956,-0.000913738796953112,-0.00100681686308235,-0.00459116930142045,0,
00:00:01.96,-0.00148381921462715,0.00598749006167054,-0.00281087984330952,0,
00:00:01.964,0.00318758981302381,0.00120923633221537,0.00421393942087889,0,
00:00:01.968,0.00473344698548317,-0.000892951793503016,-0.000226710515562445,0,
00:00:01.972,-0.00136712635867298,-0.00131462176796049,-0.00566878309473395,0,
00:00:01.976,-0.00260158162564039,-0.0029663008172065,0.00285183847881854,0,
00:00:01.98,-0.00160299870185554,0.00171452132053673,0.00101963430643082,0,
00:00:01.984,-0.00226079672574997,0.00183693959843367,0.0111125288531184,0,
00:00:01.988,0.00269315764307976,0.00260871462523937,-0.00519815646111965,0,
00:00:01.992,0.00461732223629951,-0.000459016067907214,-0.0161620453000069,0,
00:00:01.996,-0.00121153355576098,-0.0066091944463551,0.00578605756163597,0,
00:00:02,-0.00235353992320597,-0.00466621853411198,0.00080034660641104,0,
00:00:02.004,-0.00348301348276436,0.00813913159072399,-0.00229656812734902,0,
00:00:02.008,0.00394728407263756,0.00562501698732376,0.0150075880810618,0,
00:00:02.012,0.000363913888577372,-0.00209745299071074,0.00369886634871364,0,
00:00:02.016,-0.000636826094705611,-0.00352209457196295,-0.0115874400362372,0,
00:00:02.02,-0.0005033437628299,-0.00209789047949016,-0.00812432169914246,0,
00:00:02.024,-9.3190094048623E-05,-0.00226798211224377,-0.000609648181125522,0,
00:00:02.028,-0.00188581750262529,0.00296584749594331,0.00623669428750873,0,
00:00:02.032,0.00222609844058752,0.00284734321758151,0.00699132215231657,0,
00:00:02.036,0.00179922592360526,0.00509905954822898,-0.00280020153149962,0,
00:00:02.04,0.00227382127195597,-0.0025589601136744,-0.00327341840602458,0,
00:00:02.044,-0.00289333006367087,-0.0065684667788446,0.00310115562751889,0,
00:00:02.048,-0.00277258269488811,-0.00305120972916484,-0.00318496488034725,0,
00:00:02.052,-0.000884024833794683,-0.00305339577607811,-0.00612513208761811,0,
00:00:02.056,-0.00134338473435491,0.00494154868647456,0.0190104283392429,0,
00:00:02.06,0.00331535772420466,0.0100719360634685,-0.00457285903394222,0,
00:00:02.064,0.00478722900152206,0.00123959709890187,-0.0155408279970288,0,
00:00:02.068,-0.00138631195295602,-0.00343950558453798,-0.00357888708822429,0,
00:00:02.072,-0.00265845796093345,-0.00417433865368366,0.00483170710504055,0,
00:00:02.076,-0.00165891170036048,-0.000496451742947102,0.0111585194244981,0,
00:00:02.08,-0.000216888074646704,-0.000334689626470208,0.000749569153413177,0,
00:00:02.084,0.000713553978130221,-0.00466025248169899,-0.0106128370389342,0,
00:00:02.088,0.000913170515559614,0.00161052483599633,0.0223388411104679,0,
00:00:02.092,0.000605065142735839,0.00338255637325346,-0.00822982378304005,0,
00:00:02.096,0.000144421224831603,0.0065876143053174,-0.0165851842612028,0,
00:00:02.1,-0.000198028748854995,-0.00746834371238947,-0.00616646651178598,0,
00:00:02.104,-0.000318453821819276,-0.00216293963603675,0.00853405799716711,0,
00:00:02.108,-0.0023300473112613,0.00365463015623391,0.0190210100263357,0,
00:00:02.112,0.0018670434365049,0.0047588050365448,-0.0105330059304833,0,
00:00:02.116,0.00374123593792319,-0.00184362730942667,-0.00552760902792215,0,
00:00:02.12,-0.00170791277196258,-0.00524526974186301,-0.000997737632133067,0,
00:00:02.124,-0.00239402358420193,-0.00203080312348902,-0.00053345481865108,0,
00:00:02.128,-0.00322841736488044,0.00758316600695252,-0.000117356437840499,0,
00:00:02.132,0.00219455640763044,0.000881824875250459,0.0110682267695665,0,
00:00:02.136,0.00256575108505785,-0.0068311826325953,0.00184443360194564,0,
00:00:02.14,0.00107875256799161,-0.00111318286508322,-0.00832563359290361,0,
00:00:02.144,-0.000373623159248382,0.00168963533360511,-0.00554822012782097,0,
00:00:02.148,-0.00103359331842512,0.00627751462161541,-0.000196787004824728,0,
00:00:02.152,-0.000922874314710498,-0.00683081988245249,0.00513413036242127,0,
00:00:02.156,-0.000421142409322783,0.000823927519377321,0.00555856246501207,0,
00:00:02.16,7.75449007051066E-05,0.00442746328189969,0.00250678299926221,0,
00:00:02.164,0.00242428714409471,0.00138036091811955,-0.0114386370405555,0,
00:00:02.168,-0.00161225709598511,-0.00378275336697698,-0.00361682916991413,0,
00:00:02.172,-0.00142408674582839,-0.00693517317995429,0.00243359617888927,0,
00:00:02.176,-0.00221257167868316,0.00363698485307395,0.00651780841872096,0,
00:00:02.18,0.00273725530132651,0.00462686084210873,0.0116967391222715,0,
00:00:02.184,0.00255276402458549,0.00200241012498736,-0.0105738136917353,0,
00:00:02.188,0.000719731498975307,-0.000661008292809129,-0.00728619983419776,0,
00:00:02.192,-0.000794258899986744,-0.00190069596283138,-0.00376282772049308,0,
00:00:02.196,-0.00339138624258339,0.000357336917659268,-0.00202596955932677,0,
00:00:02.2,0.00304607301950455,-0.00277557619847357,0.0150779299438,0,
00:00:02.204,-0.0006851467769593,-0.00774375349283218,0.00772286392748356,0,
00:00:02.208,-0.00333529338240623,0.0105374306440353,-0.00888898875564337,0,
00:00:02.212,0.00348718487657607,0.0045674592256546,-0.00791298411786556,0,
00:00:02.216,-0.000105846986116376,-0.00329058198258281,-0.00408321898430586,0,
00:00:02.22,-0.00293157086707652,-0.00381230236962438,0.00861682277172804,0,
00:00:02.224,0.00358497956767678,-0.0016381477471441,0.00561968516558409,0,
00:00:02.228,0.00182186590973288,0.00256552128121257,0.0017912263283506,0,
00:00:02.232,-0.00307492376305163,-0.00673195393756032,-0.00562862819060683,0,
00:00:02.236,-0.00438730232417583,0.00769055262207985,-0.00949053280055523,0,
00:00:02.24,0.00178141030482948,0.00546582648530602,-0.00426054932177067,0,
00:00:02.244,0.00285631534643471,-0.000270238728262484,0.0020365254022181,0,
00:00:02.248,0.00161777308676392,-0.0057923523709178,0.0115613769739866,0,
00:00:02.252,0.00210046721622348,-0.00602754019200802,0.0199232995510101,0,
00:00:02.256,-0.00497980648651719,-0.00053392059635371,-0.00738921901211143,0,
00:00:02.26,-0.0007248530164361,0.00758695416152477,-0.018143218010664,0,
00:00:02.264,0.000814291764982045,0.00219209888018668,-0.00948874093592167,0,
00:00:02.268,0.00298158405348659,-0.000804189767222852,0.00142253434751183,0,
00:00:02.272,-0.00360681861639023,-0.00590537115931511,0.0113187385722995,0,
00:00:02.276,-0.00176814489532262,0.00255542295053601,0.00515108462423086,0,
00:00:02.28,0.003171032294631,0.00688993697986007,-0.00170536292716861,0,
00:00:02.284,0.00446155481040478,-0.00133527151774615,-0.00223575718700886,0,
00:00:02.288,-0.00176141457632184,-0.00642052292823792,0.00110115471761674,0,
00:00:02.292,-0.000808207667432725,-0.00771380076184869,0.000209182864637114,0,
00:00:02.296,-0.00571694504469633,0.0044511747546494,0.0051787355914712,0,
00:00:02.3,0.000266961316810921,0.0060224081389606,-0.00522742001339793,0,
00:00:02.304,0.00237268069759011,0.0072511532343924,-0.00984837114810944,0,
00:00:02.308,0.00415332056581974,-0.00211912277154624,-0.00236950209364295,0,
00:00:02.312,-0.00112797587644309,-0.00941827241331339,0.00643705110996962,0,
00:00:02.316,-0.00398718006908894,-0.0022056947927922,0.00222920929081738,0,
00:00:02.32,0.000999018084257841,0.00191226252354681,0.00668393960222602,0,
00:00:02.324,0.00173308956436813,0.00296508008614182,0.000403787096729502,0,
00:00:02.328,0.000814658065792173,0.00414183875545859,0.00394377810880542,0,
00:00:02.332,-0.000216531683690846,-0.00349336233921349,-0.0105626154690981,0,
00:00:02.336,-0.00279526086524129,-0.00233707646839321,0.00374826905317605,0,
00:00:02.34,0.00130955316126347,0.00657284632325172,-0.000972089706920087,0,
00:00:02.344,0.00340249622240663,-0.00419258745387197,-0.0135271064937115,0,
00:00:02.348,-0.00175243115518242,-0.00338044366799295,0.00746613228693604,0,
00:00:02.352,-0.0043120514601469,0.00209640967659652,0.00158940372057259,0,
00:00:02.356,0.00103618390858173,0.00845014303922653,-0.00642097415402532,0,
00:00:02.36,0.00409361394122243,-0.00525105744600296,0.0164523869752884,0,
00:00:02.364,-0.000817810592707247,-0.0117794601246715,0.0146508170291781,0,
00:00:02.368,-0.00160885357763618,0.00433268863707781,-0.0138275548815727,0,
00:00:02.372,-0.0028743336442858,0.00874270219355822,-0.0187558550387621,0,
00:00:02.376,0.00419957516714931,0.0034791452344507,-0.00157930434215814,0,
00:00:02.38,0.000290474214125425,-0.00403432408347726,0.00195452594198287,0,
00:00:02.384,-0.000873730750754476,-0.00425006076693535,0.00651255110278726,0,
00:00:02.388,-0.000736106827389449,-0.00385602563619614,0.0151260932907462,0,
00:00:02.392,-0.000224337127292529,0.00254162470810115,0.00204473407939076,0,
00:00:02.396,0.000174328233697452,0.00328670954331756,-0.00637761270627379,0,
00:00:02.4,0.00030936801340431,0.0016696733655408,-0.0100037083029747,0,
00:00:02.404,0.00023403340310324,0.00401472905650735,-0.0132888443768024,0,
00:00:02.408,0.00215132557787001,-0.00299335899762809,0.00877811387181282,0,
00:00:02.412,-0.00203250837512314,-0.0126522304490209,0.0230140760540962,0,
00:00:02.416,-0.00590750202536583,0.00327558140270412,-0.0133941750973463,0,
00:00:02.42,0.00367391295731068,0.00638379622250795,-0.00308348657563329,0,
00:00:02.424,0.0061534745618701,0.00584129337221384,-0.00631137145683169,0,
00:00:02.428,-0.000592218188103288,-0.00179064786061645,0.00207387050613761,0,
00:00:02.432,-0.0047423979267478,-0.00571119831874967,0.0131476316601038,0,
00:00:02.436,-0.000141063734190539,0.00155637855641544,-0.000102335121482611,0,
00:00:02.44,0.00302029750309885,-0.000918058445677161,-0.011592079885304,0,
00:00:02.444,-0.00133764662314206,-0.0027525988407433,0.000987926498055458,0,
00:00:02.448,-0.00156132155098021,0.00217384449206293,0.000804630224592984,0,
00:00:02.452,-0.000428547558840364,0.00444775959476829,-0.00300064054317772,0,
00:00:02.456,0.000553441874217242,0.00307415938004851,-0.00532900728285313,0,
00:00:02.46,0.00295324227772653,-0.00398291973397136,0.0137921292334795,0,
00:00:02.464,-0.00132697157096118,-0.0147782452404499,0.027309725061059,0,
00:00:02.468,-0.0035163750872016,0.00586880231276155,-0.0251300446689129,0,
00:00:02.472,0.00163048959802836,0.0108094243332744,-0.0155536020174623,0,
00:00:02.476,0.00216179573908448,0.00237005692906678,-0.00338773592375219,0,
00:00:02.48,0.000924362859223038,-0.00228849472478032,0.00675118342041969,0,
00:00:02.484,-0.000349305046256632,-0.00344374007545412,0.00290483492426574,0,
00:00:02.488,-0.000941221544053406,-0.0024081883020699,0.00536810560151935,0,
00:00:02.492,-0.000846056849695742,-0.000692990375682712,0.00514707341790199,0,
00:00:02.496,-0.000394561211578548,0.0026984594296664,-0.00833870284259319,0,
00:00:02.5,5.95855090068653E-05,-0.000854278274346143,0.00216630659997463,0,
00:00:02.504,0.000310703821014613,0.00135812512598932,0.00443393643945456,0,
00:00:02.508,0.000329389324178919,-0.00589666981250048,-0.0041855052113533,0,
00:00:02.512,-0.0018747323192656,0.00722973933443427,-0.00149219727609307,0,
00:00:02.516,0.00409152405336499,0.00193554779980332,0.00160888279788196,0,
00:00:02.52,0.00167182669974864,-0.00791615433990955,-0.00819373596459627,0,
00:00:02.524,-0.00562138948589563,-0.000892279844265431,0.00662151025608182,0,
00:00:02.528,-0.0028426144272089,0.00501143140718341,0.00727634318172932,0,
00:00:02.532,0.00322414701804519,0.00130842905491591,0.00646535633131862,0,
00:00:02.536,0.00306970626115799,0.00624912651255727,-0.0188073311001062,0,
00:00:02.54,0.00301739620044827,-0.00632832618430257,-0.00824722647666931,0,
00:00:02.544,-0.00487902294844389,-0.00335080549120903,-0.000987485283985734,0,
00:00:02.548,-0.00111958023626357,0.00120579963549972,0.0121303535997868,0,
00:00:02.552,0.000346362590789795,-0.00128456554375589,0.0164627563208342,0,
00:00:02.556,0.00270819873549044,-0.00248904852196574,-0.00283639342524111,0,
00:00:02.56,-0.00362711609341204,0.00487938290461898,-0.0161307156085968,0,
00:00:02.564,0.000455426314147189,0.000960641191340983,0.0166782159358263,0,
00:00:02.568,0.00138353800866753,-0.000494263600558043,-0.00901497527956963,0,
00:00:02.572,0.000876396137755364,-0.000711938249878585,-0.00538569409400225,0,
00:00:02.576,8.09899720479734E-05,-0.000438879564171657,-0.00208814651705325,0,
00:00:02.58,-0.000425669801188633,0.00197478965856135,-0.00360793177969754,0,
00:00:02.584,0.00155821617227048,-0.00186583283357322,-0.0024198757018894,0,
00:00:02.588,-0.00230353977531195,0.00059436954325065,0.0173697583377361,0,
00:00:02.592,-0.0017048460431397,-0.00412198575213552,0.00220073969103396,0,
00:00:02.596,-5.00880050822161E-05,0.0011965794255957,-0.0143712442368269,0,
00:00:02.6,-0.00104598782490939,0.000374734838260338,0.0094790905714035,0,
00:00:02.604,0.00314638717100024,0.001487628207542,0.0141836600378156,0,
00:00:02.608,0.00232949387282133,0.00798766687512398,-0.0186211671680212,0,
00:00:02.612,0.00231648562476039,-0.00492437370121479,-0.0196692757308483,0,
00:00:02.616,-0.00317309517413378,-0.00292620016261935,0.0121585251763463,0,
00:00:02.62,-0.00520629249513149,0.000826486735604703,0.00940613355487585,0,
00:00:02.624,0.000836940133012831,0.000101775964139961,0.00469389744102955,0,
00:00:02.628,0.00436390563845634,-0.00918220542371273,0.00647003576159477,0,
00:00:02.632,-0.00456135766580701,0.00486934650689363,0.00829094834625721,0,
00:00:02.636,0.00471738167107105,0.00817478261888027,-0.0319390147924423,0,
00:00:02.64,0.000610591028816998,0.00265474338084459,-0.0119003746658564,0,
00:00:02.644,-0.00120240612886846,-0.0045991437509656,0.0193255487829447,0,
00:00:02.648,-0.00137164944317192,-0.00232791341841221,0.00843703560531139,0,
00:00:02.652,0.00133723730687052,-0.00567603297531605,-0.00265891617164016,0,
00:00:02.656,-0.00405885931104422,0.00116730737499893,0.00400553038343787,0,
00:00:02.66,0.00076272850856185,0.00332618923857808,-0.00359906442463398,0,
00:00:02.664,0.00196172622963786,0.00260458514094353,-0.00341061246581376,0,
00:00:02.668,-0.000738294620532542,0.00502142356708646,0.00105085968971252,0,
00:00:02.672,0.00638476433232427,-0.00244129658676684,0.00301491003483534,0,
00:00:02.676,-0.00280922278761864,-0.0126491906121373,0.00412137573584914,0,
00:00:02.68,-0.00589507957920432,0.00292959623038769,-0.012445505708456,0,
00:00:02.684,0.000267229275777936,0.00181731604970992,0.00234908377751708,0,
00:00:02.688,6.2946266552899E-05,0.00950893107801676,-0.00265094824135304,0,
00:00:02.692,0.00369725376367569,0.00555836921557784,0.00279631349258125,0,
00:00:02.696,0.00429130205884576,-0.00509150885045528,-0.00044317648280412,0,
00:00:02.7,-8.09846387710422E-05,-0.0113901039585471,0.00193735223729163,0,
00:00:02.704,-0.00726073700934649,-0.00255389651283622,0.00317016546614468,0,
00:00:02.708,-0.00147397222463042,0.00272789248265326,0.0208926051855087,0,
00:00:02.712,0.00349765783175826,0.00204991106875241,-0.0175142977386713,0,
00:00:02.716,-0.00201844167895615,0.00282798055559397,-0.0119329318404198,0,
00:00:02.72,-0.000394798116758466,0.00448803557083011,-0.00324115226976573,0,
00:00:02.724,0.00376385590061545,0.00315367779694498,0.00303526245988905,0,
00:00:02.728,0.0043213339522481,-0.00193901092279702,0.00308063579723239,0,
00:00:02.732,-0.00227509322576225,-0.00456525105983019,0.0018311656313017,0,
00:00:02.736,-0.00339494226500392,-0.00805517844855785,0.0112576885148883,0,
00:00:02.74,-0.00195417110808194,0.000354487332515419,-0.00113527488429099,0,
00:00:02.744,0.00197646161541343,0.00394221907481551,-0.00750216422602534,0,
00:00:02.748,-0.00301213446073234,0.0037965732626617,-0.000557566178031266,0,
00:00:02.752,0.00156244658865035,-0.000221544411033392,0.00200143875554204,0,
00:00:02.756,0.00224888371303678,0.0018189261900261,-0.00682118535041809,0,
00:00:02.76,-0.000888166250661016,0.00243383343331516,-0.00672817649319768,0,
00:00:02.764,0.00396100385114551,-0.00318946037441492,0.0128753064200282,0,
00:00:02.768,-0.00115129514597356,-0.00333616137504578,-4.76263885502703E-05,0,
00:00:02.772,-0.0044173588976264,-0.00344622228294611,0.0112625304609537,0,
00:00:02.776,0.000439704861491919,0.00664811953902245,-0.00947342440485954,0,
00:00:02.78,0.00346255139447749,-0.0029829777777195,-0.0107444785535336,0,
00:00:02.784,-0.00117344467435032,-0.00192986312322319,0.00218182802200317,0,
00:00:02.788,-0.00370367243885994,0.00512066017836332,0.00498392898589373,0,
00:00:02.792,0.00345332780852914,0.000455198955023661,0.00525849219411612,0,
00:00:02.796,-0.0020094106439501,-0.00131281337235123,-0.00358898960985243,0,
00:00:02.8,0.00131072150543332,0.000733196153305471,-0.00096968375146389,0,
00:00:02.804,0.00334816379472613,-0.00470145000144839,-0.00229687779210508,0,
00:00:02.808,-0.00173424615059048,0.00246250396594405,-0.00226801470853388,0,
00:00:02.812,-0.00220152013935149,-0.00215644109994173,0.0117531288415194,0,
00:00:02.816,-0.000944112369325012,-0.000273118552286178,-0.0107812732458115,0,
00:00:02.82,-0.00175279891118407,0.0038823198992759,0.0129186566919088,0,
00:00:02.824,0.00495735742151737,0.0064440006390214,-0.0106108784675598,0,
00:00:02.828,0.000479412963613868,-0.010486519895494,-0.00569331040605903,0,
00:00:02.832,-0.00316816195845604,0.00293712317943573,0.0111054573208094,0,
00:00:02.836,0.000888581445906311,0.00287598907016218,-0.00583021342754364,0,
00:00:02.84,0.00322600547224283,-0.000268893461907282,-0.0167718604207039,0,
00:00:02.844,-0.00379780982621014,-0.00216876086778939,0.0252614840865135,0,
00:00:02.848,0.0019218820380047,-0.0103868283331394,0.00603498518466949,0,
00:00:02.852,-0.00119178742170334,0.000810979399830103,-0.00292807701043785,0,
00:00:02.856,-0.003149967873469,0.0129026621580124,-0.0138209005817771,0,
00:00:02.86,0.00189805426634848,0.0067157126031816,-0.00491597037762403,0,
00:00:02.864,0.00227661430835724,-0.00177787931170315,-0.000155127214384265,0,
00:00:02.868,0.00301143038086593,-0.00602193409577012,0.00245950743556023,0,
00:00:02.872,-0.00235187308862805,-0.00758099602535367,0.00952458847314119,0,
00:00:02.876,-0.0026052575558424,-0.00671317707747221,0.00305151427164674,0,
00:00:02.88,-0.00310003315098584,0.00818832311779261,-0.00727092009037733,0,
00:00:02.884,0.0024388269521296,0.00946799106895924,0.0156755186617374,0,
00:00:02.888,0.00690073659643531,5.86625028518029E-05,-0.00525994645431638,0,
00:00:02.892,-0.00489357020705938,-0.0121027603745461,-0.0125238001346588,0,
00:00:02.896,-0.00173517293296754,-0.00196314649656415,-0.00274340249598026,0,
00:00:02.9,-0.00191782554611564,0.00876541994512081,-0.00533941108733416,0,
00:00:02.904,0.00283285323530436,0.00794177036732435,0.00161528610624373,0,
00:00:02.908,0.00239440659061074,0.000181511655682698,0.000190710779861547,0,
00:00:02.912,0.000490866950713098,-0.00713830720633268,0.0185084845870733,0,
00:00:02.916,-0.000935416028369218,-0.00574509659782052,0.0104674827307463,0,
00:00:02.92,-0.00131972576491535,0.000475249311421067,-0.0168621670454741,0,
00:00:02.924,-0.000911707116756588,-0.000281803804682568,7.7246964792721E-05,0,
00:00:02.928,0.0018423511646688,-0.000856209371704608,-0.00869946088641882,0,
00:00:02.932,-0.00375951803289354,0.00404509995132685,0.000678273674566299,0,
00:00:02.936,0.000820912071503699,0.00335250119678676,0.00101075938437134,0,
00:00:02.94,0.00186424260027707,0.00501155527308583,0.000231560887186788,0,
00:00:02.944,0.00327412178739905,-0.009237390011549,0.000288985611405224,0,
00:00:02.948,-0.00389259052462876,-0.00322798523120582,0.00294279446825385,0,
00:00:02.952,-0.00227433419786394,0.00350198615342379,0.00969540141522884,0,
00:00:02.956,0.00482690241187811,0.00730685936287045,0.00218095700256526,0,
00:00:02.96,0.00229626195505261,0.000980767770670354,-0.00697332434356213,0,
00:00:02.964,-0.00337763992138207,-0.0103592928498983,-0.00279929745011032,0,
00:00:02.968,-0.00292015564627945,-0.00739135267212987,-0.00699138734489679,0,
00:00:02.972,-0.00275122607126832,0.00374440709128976,-0.00245413510128856,0,
00:00:02.976,0.000949089182540774,0.0109728602692485,0.000350229063769802,0,
00:00:02.98,0.0072469818405807,0.00285806483589113,0.0063630104996264,0,
00:00:02.984,0.000949621899053454,-7.32387416064739E-05,0.00308621022850275,0,
00:00:02.988,-0.00406995881348848,-0.00562454620376229,-0.000648769491817802,0,
00:00:02.992,0.00168680865317583,-0.00229193177074194,0.0103741623461246,0,
00:00:02.996,0.000361077458364889,-0.000996569986455143,-0.0133418748155236,0,
00:00:03,-0.00567665696144104,-0.00636290805414319,0.00661984831094742,0,
00:00:03.004,-0.00213418179191649,0.00227952422574162,0.00481993006542325,0,
00:00:03.008,0.00614394014701247,0.0076074069365859,-0.0162002965807915,0,
00:00:03.012,-0.000427948427386582,0.00238565402105451,-0.00398868368938565,0,
00:00:03.016,0.00141566782258451,0.00387591193430126,0.00380887556821108,0,
00:00:03.02,0.000473211868666112,-0.00118119432590902,-0.000237850137636997,0,
00:00:03.024,0.00136964570265263,-0.00454170955345035,0.0101920375600457,0,
00:00:03.028,-0.0031292918138206,-0.00648496486246586,-8.8522931037005E-05,0,
00:00:03.032,-0.00252143596298993,-0.00012617013999261,0.00942038279026747,0,
00:00:03.036,0.00160794076509774,-0.0041672857478261,0.00670788390561938,0,
00:00:03.04,-0.0029943163972348,0.00382633018307388,-0.0174759682267904,0,
00:00:03.044,-0.00027693051379174,0.00796518754214048,-0.0179360527545214,0,
00:00:03.048,0.00446198834106326,0.00602453434839845,0.00360646285116673,0,
00:00:03.052,0.00294379331171513,-0.00501425890251994,0.00303105125203729,0,
00:00:03.056,6.54176401440054E-05,-0.0011081958655268,0.0127431796863675,0,
00:00:03.06,-0.00176013086456805,-0.00390031724236906,0.0028706134762615,0,
00:00:03.064,-0.0020101445261389,-0.00028610322624445,-0.00116288312710822,0,
00:00:03.068,0.000863538356497884,0.000163340722792782,-0.00432479521259665,0,
00:00:03.072,-0.00214202795177698,3.14706958306488E-05,-0.00199749600142241,0,
00:00:03.076,-0.00109187432099134,-0.00617397669702768,0.00881313532590866,0,
00:00:03.08,-0.0015026293694973,0.00614279368892312,0.00189473852515221,0,
00:00:03.084,0.00544642051681876,0.00112354522570968,-0.00919260364025831,0,
00:00:03.088,-0.00117878033779562,-0.00346825621090829,0.00559679651632905,0,
00:00:03.092,0.001052773790434,0.0089003536850214,-0.0148741248995066,0,
00:00:03.096,0.000483802548842505,0.00393164437264204,-0.00877852644771338,0,
00:00:03.1,-0.000511698657646775,-0.00497329561039805,0.00669958861544728,0,
00:00:03.104,0.00111551349982619,-0.00585626484826207,0.0112891281023622,0,
00:00:03.108,-0.00275997212156653,-0.000931928399950266,0.00795113109052181,0,
00:00:03.112,-0.00194479094352573,-0.00175933935679495,0.00604445300996304,0,
00:00:03.116,-0.00211177975870669,0.00041264109313488,-0.00676667410880327,0,
00:00:03.12,0.00525284511968493,0.00827911775559187,-0.00572822615504265,0,
00:00:03.124,0.0031122004147619,0.000414586247643456,-0.0204978547990322,0,
00:00:03.128,-0.000544288894161582,-0.0159203670918942,0.0288969669491053,0,
00:00:03.132,-0.00868614856153727,-0.0041176239028573,0.00617134850472212,0,
00:00:03.136,-0.00259210797958076,0.0180457942187786,-0.0164248887449503,0,
00:00:03.14,0.00985267385840416,0.00712801143527031,-0.00932274758815765,0,
00:00:03.144,0.00370109709911048,0.00307268742471933,0.00179909507278353,0,
00:00:03.148,-0.00107067567296326,-0.00462690833956003,0.00511584198102355,0,
00:00:03.152,-0.00303511787205935,-0.00986022967845201,-4.17123446823098E-05,0,
00:00:03.156,-0.00264668557792902,-0.00605873949825764,0.0035064818803221,0,
00:00:03.16,-0.00115652335807681,0.00172484596259892,0.000646519067231566,0,
00:00:03.164,0.00234758039005101,0.00135896226856858,0.000387182924896479,0,
00:00:03.168,-0.00303548574447632,0.00239203637465835,0.000275678612524644,0,
00:00:03.172,0.00343245291151106,0.00454432610422373,-0.000104282880784012,0,
00:00:03.176,8.04068258730695E-05,0.00158757402095944,-0.000503540155477822,0,
00:00:03.18,-0.00053823459893465,-0.0034250202588737,0.00140111509244889,0,
00:00:03.184,-0.00024098574067466,-0.00462330831214786,0.00783111434429884,0,
00:00:03.188,0.000108604574052151,-0.00251842709258199,-0.00560161704197526,0,
00:00:03.192,-0.00184119527693838,0.00669482443481684,-0.0164318438619375,0,
00:00:03.196,0.00213813665322959,0.00480669597163796,0.00128296762704849,0,
00:00:03.2,0.00166020565666258,0.000305421912344173,0.00464424537494779,0,
00:00:03.204,8.36212348076515E-05,-0.00265735201537609,0.00540988892316818,0,
00:00:03.208,-0.000971040106378496,-0.00105067656841129,-0.00260763242840767,0,
00:00:03.212,-0.00112562614958733,-0.00180346216075122,0.00891738384962082,0,
00:00:03.216,-0.000670467677991837,-0.00387851893901825,-0.00652209902182221,0,
00:00:03.22,-7.1012407715898E-05,0.00113202247302979,0.0131307207047939,0,
00:00:03.224,0.00448808865621686,-0.000113636968308128,-0.00566459400579333,0,
00:00:03.228,-0.00558266928419471,0.00318817631341517,-0.0130037814378738,0,
00:00:03.232,-0.000986865488812327,-0.00431827455759048,-0.00299529545009136,0,
00:00:03.236,-0.000673078116960824,-0.000424989906605333,0.0220322627574205,0,
00:00:03.24,0.00378288608044386,0.00751653034240007,-0.0148273501545191,0,
00:00:03.244,0.0027241378556937,0.00407783221453428,-0.0113846529275179,0,
00:00:03.248,0.000291932607069612,-0.00110316358041018,0.00501564517617226,0,
00:00:03.252,-0.00137077213730663,-0.00175723037682474,0.00636047683656216,0,
00:00:03.256,-0.001712218625471,-0.00351839396171272,0.00306303356774151,0,
00:00:03.26,-0.00111292826477438,-0.0032949703745544,0.00828636810183525,0,
00:00:03.264,0.00183861423283815,-0.0035747152287513,-0.000957708107307553,0,
00:00:03.268,-0.0036463406868279,0.000376221491023898,-0.00736127141863108,0,
00:00:03.272,0.000953866983763874,0.00316391768865287,0.00314424536190927,0,
00:00:03.276,0.00195171125233173,0.00134913763031363,-0.00882710330188274,0,
00:00:03.28,0.00122168415691704,0.00600452022626996,-0.0066724824719131,0,
00:00:03.284,0.00221013440750539,-0.000213837833143771,0.0101708332076669,0,
00:00:03.288,-0.00254870112985373,-0.00670651253312826,-0.00118268688675016,0,
00:00:03.292,-0.00444088922813535,0.00363145885057747,-0.00237998506054282,0,
00:00:03.296,-0.000758328300435096,0.000150606530951336,0.0185944922268391,0,
00:00:03.3,0.00641635246574879,0.000855526828672737,-0.00130799645558,0,
00:00:03.304,0.00102188857272267,-0.00310353096574545,-0.0178750231862068,0,
00:00:03.308,0.000646017491817474,-0.00206596706993878,-0.00273734633810818,0,
00:00:03.312,-0.0058174324221909,-0.0040936516597867,0.00516081182286143,0,
00:00:03.316,-0.00277266884222627,0.00533335050567985,-0.00235246913507581,0,
00:00:03.32,0.00333006982691586,0.00687771756201983,-0.00580879021435976,0,
00:00:03.324,0.00521532073616982,-0.000741375319194049,0.013438768684864,0,
00:00:03.328,-0.00308098155073822,-0.0032464899122715,0.00664529064670205,0,
00:00:03.332,-0.000491204205900431,0.00147024320904166,-0.00291972933337092,0,
00:00:03.336,0.00208315812051296,-0.00702522695064545,0.00343887670896947,0,
00:00:03.34,-1.39710107305291E-06,-0.00293463235720992,-0.00905775092542171,0,
00:00:03.344,-0.00589400483295321,0.004353994037956,-0.0135166374966502,0,
00:00:03.348,-0.00207292893901467,0.00448168255388737,0.00660067098215222,0,
00:00:03.352,0.00425813207402825,0.00394160533323884,0.00804197136312723,0,
00:00:03.356,0.00585292652249336,-0.00469028111547232,0.00116022536531091,0,
00:00:03.36,-0.000850837386678904,-0.00147914967965335,-0.00341469934210181,0,
00:00:03.364,-0.00269065005704761,-0.000200591501197778,0.000443200202425942,0,
00:00:03.368,-0.00200138380751014,0.000200269103515893,-0.00125729211140424,0,
00:00:03.372,-0.00265625049360096,0.00439151050522923,0.00208683242090046,0,
00:00:03.376,0.00455495622009039,-0.00586593989282846,0.00115940754767507,0,
00:00:03.38,0.000556258310098201,-0.0033146315254271,-0.000434910092735663,0,
00:00:03.384,-0.00283729028888047,0.00534807238727808,-0.00122786569409072,0,
00:00:03.388,0.00330469734035432,0.00151288253255188,0.00306978868320584,0,
00:00:03.392,-0.000624234438873827,0.00180680816993117,-0.006473817396909,0,
00:00:03.396,-0.00135536154266447,-0.00484322942793369,0.000939509249292314,0,
00:00:03.4,-0.000743045704439282,-0.00031441921601072,-0.0064220973290503,0,
00:00:03.404,5.06434917042498E-05,0.00118751835543662,0.00870594661682844,0,
00:00:03.408,0.000493979372549802,0.0010599207598716,0.0084153525531292,0,
00:00:03.412,0.000515676685608923,-0.00170005217660218,-0.00602092314511538,0,
00:00:03.416,-0.0017918044468388,0.00383915961720049,-0.00149293907452375,0,
00:00:03.42,0.00406287144869566,0.00128929864149541,-0.0093643544241786,0,
00:00:03.424,-0.000493755913339555,-0.00589967658743262,0.000582205539103597,0,
00:00:03.428,-0.00373689038679004,-0.000852804339956492,0.0159886460751295,0,
00:00:03.432,0.00289700459688902,0.00339497649110854,0.00171473121736199,0,
00:00:03.436,-0.000559255015105009,-0.00456410367041826,-0.0117918886244297,0,
00:00:03.44,-0.00311277178116143,0.00318971881642938,-0.00450022192671895,0,
00:00:03.444,0.00156421063002199,0.00732966931536794,-0.00279428181238472,0,
00:00:03.448,0.00396655686199665,-0.00318203121423721,0.015945989638567,0,
00:00:03.452,-0.00126933946739882,-0.00446628918871284,0.00262928451411426,0,
00:00:03.456,-0.00204452383331954,-0.00420044269412756,-0.00897080916911364,0,
00:00:03.46,-0.00102830457035452,0.000318416859954596,-0.0062220455147326,0,
00:00:03.464,-0.00193208013661206,0.00946452841162682,0.00373457930982113,0,
00:00:03.468,0.00480680353939533,-0.00257985363714397,0.0034411025699228,0,
00:00:03.472,-0.00166111194994301,-0.00115613336674869,-0.00144087302032858,0,
00:00:03.476,0.00297419494017959,-0.000632083450909704,-0.00762362312525511,0,
00:00:03.48,-0.00343904783949256,-0.00243028346449137,0.00584451202303171,0,
00:00:03.484,7.54173524910584E-05,0.00392421381548047,0.0119777470827103,0,
00:00:03.488,0.00280699995346367,0.00179317477159202,-0.00445915432646871,0,
00:00:03.492,-0.00162311096210033,-0.00329696899279952,-0.011087229475379,0,
00:00:03.496,-0.00175545923411846,-0.00251409527845681,0.00655872048810124,0,
00:00:03.5,-0.000495853077154607,-0.000267021096078679,-0.006499367300421,0,
00:00:03.504,0.000577862025238574,0.00126765295863152,-0.000268457544734702,0,
00:00:03.508,0.000937135599087924,-0.000520311994478107,0.00555763486772776,0,
00:00:03.512,-0.00137726927641779,0.00294892024248838,0.00385387102141976,0,
00:00:03.516,0.00219758204184473,0.00387432123534381,0.00453140679746866,0,
00:00:03.52,0.00354375061579049,-0.00222073774784803,-0.010038266889751,0,
00:00:03.524,-0.00214106775820255,-0.00308140926063061,-0.00171526672784239,0,
00:00:03.528,-0.00486018601804972,-0.00580605259165168,-0.00274493359029293,0,
00:00:03.532,0.000622760446276516,0.008140679448843,0.00154008460231125,0,
00:00:03.536,0.00393362017348409,0.00241666240617633,0.0123415943235159,0,
00:00:03.54,-0.00076181028271094,-0.00380133395083249,0.00599161675199866,0,
00:00:03.544,0.000625011511147022,-0.00510346982628107,-0.0192697960883379,0,
00:00:03.548,-0.00677550211548805,-0.000557976134587079,-0.00368963251821697,0,
00:00:03.552,0.00253792526200414,0.00496399868279696,0.0143897039815784,0,
00:00:03.556,0.00373658654280007,0.00562752597033978,-0.00450449017807841,0,
00:00:03.56,0.0017475247150287,0.000544440350495279,-0.00701826391741633,0,
00:00:03.564,0.00165138638112694,-0.00529196253046393,0.00566506385803223,0,
00:00:03.568,-0.00347375520505011,-0.00394167378544807,0.000429067004006356,0,
00:00:03.572,-0.00305448635481298,-0.000718268274795264,0.00422886852174997,0,
00:00:03.576,-0.000872665899805725,-0.00257547455839813,0.00284998724237084,0,
00:00:03.58,-0.00117309635970742,0.00819049309939146,-0.00858837086707354,0,
00:00:03.584,0.00557489320635796,0.00279585877433419,-0.00713442685082555,0,
00:00:03.588,0.000844904046971351,-0.0029755630530417,0.0091042397543788,0,
00:00:03.592,-0.00311268609948456,0.00173054891638458,0.00186041067354381,0,
00:00:03.596,0.000735910842195153,-0.000244640512391925,-0.00287808128632605,0,
00:00:03.6,0.00301575823687017,-0.00430900137871504,0.0028926229570061,0,
00:00:03.604,-0.00187623396050185,-0.00247852667234838,-0.00512338941916823,0,
00:00:03.608,-0.00426040217280388,0.000364179111784324,0.00243857642635703,0,
00:00:03.612,0.00321871903724968,0.00197157706134021,0.000467405567178503,0,
00:00:03.616,0.000120118667837232,0.00199594255536795,0.0128342481330037,0,
00:00:03.62,-0.000465466204332188,-0.00308298110030591,-0.0155799388885498,0,
00:00:03.624,-0.00224678404629231,0.00810966361314058,-0.00984004326164722,0,
00:00:03.628,0.00215247040614486,-0.00131728732958436,0.0102159762755036,0,
00:00:03.632,0.00193984771613032,-0.00370342331007123,0.0127145359292626,0,
00:00:03.636,0.000388284359360114,-0.000484398013213649,-0.00464625377207994,0,
00:00:03.64,0.0012783930869773,-0.00249725091271102,-0.00703944219276309,0,
00:00:03.644,-0.00308944704011083,-0.00279588461853564,-0.00556215923279524,0,
00:00:03.648,-0.00448300549760461,0.00520832231268287,-0.00373802939429879,0,
00:00:03.652,0.00368360965512693,-0.00267828162759542,0.0163732450455427,0,
00:00:03.656,-0.00338966329582036,0.00382023537531495,0.00586172798648477,0,
00:00:03.66,0.00600492814555764,0.00267107645049691,-0.00996233243495226,0,
00:00:03.664,0.00333400815725327,-0.000194506006664596,-0.00959640927612782,0,
00:00:03.668,-0.00529191456735134,0.00217536790296435,0.00319743459112942,0,
00:00:03.672,-0.00145671039354056,-0.00605352316051722,0.00527843507006764,0,
00:00:03.676,0.00027746261912398,-0.00445580715313554,0.000802342605311424,0,
00:00:03.68,0.000747451151255518,-0.00247759325429797,0.00191457103937864,0,
00:00:03.684,0.000577102997340262,0.0064117000438273,-0.00215004687197506,0,
00:00:03.688,0.0022901885677129,0.00047716053086333,0.00653280224651098,0,
00:00:03.692,-0.00412650965154171,0.00442285137251019,-0.0103268511593342,0,
00:00:03.696,0.000137044335133396,-0.00100651849061251,-0.00605896767228842,0,
00:00:03.7,-0.000782089889980853,-0.00652708020061255,0.00992755405604839,0,
00:00:03.704,0.00291836448013783,0.00641199620440602,0.010099807754159,0,
00:00:03.708,0.00391745613887906,0.00095226033590734,-0.0155074251815677,0,
00:00:03.712,-0.00213204883038998,-0.00860608834773302,-0.00651318905875087,0,
00:00:03.716,-0.00296862213872373,0.00310020474717021,0.0114360973238945,0,
00:00:03.72,-0.00154903123620898,-0.000731814128812402,0.00120016396977007,0,
00:00:03.724,-0.00196529598906636,0.00253813993185759,0.00117499695625156,0,
00:00:03.728,0.0050883824005723,0.0018028182676062,-0.000376764626707882,0,
00:00:03.732,0.000766877259593457,0.00218889652751386,0.0027246274985373,0,
00:00:03.736,-0.000831471174024045,-0.00298171234317124,-0.00956988055258989,0,
00:00:03.74,-0.000951239373534918,-0.00075971003388986,-0.00431279698386788,0,
00:00:03.744,-0.000487128592794761,-0.00496812723577023,0.0109728286042809,0,
00:00:03.748,2.58807585851173E-06,-0.00101981067564338,0.00596705777570605,0,
00:00:03.752,0.000267688796157017,0.0089352373033762,-0.00802526529878378,0,
00:00:03.756,0.00236345687881112,0.00186348659917712,-0.0141239026561379,0,
00:00:03.76,-0.00181290181353688,-0.00655603082850575,0.0119070215150714,0,
00:00:03.764,-0.00370585080236197,0.000642992672510445,0.0184290930628777,0,
00:00:03.768,0.00378928449936211,-0.00708442460745573,-0.0149322552606463,0,
00:00:03.772,-0.0016728340415284,0.00591409858316183,-0.00145872309803963,0,
00:00:03.776,-0.000611877185292542,0.00784678943455219,-0.00830144993960857,0,
00:00:03.78,0.0052805133163929,-0.00252276612445712,0.000632574723567814,0,
00:00:03.784,-0.00231902464292943,0.000471043604193255,0.0132586229592562,0,
00:00:03.788,0.00187191041186452,-0.00148253235965967,-0.00937039125710726,0,
00:00:03.792,-0.00221264408901334,-0.00483577745035291,0.00779300648719072,0,
00:00:03.796,-0.00218674656935036,-0.00439853314310312,-7.91904094512574E-05,0,
00:00:03.8,-0.000709856278263032,0.00282607297413051,-0.00283513660542667,0,
00:00:03.804,0.000595697027165443,0.00407424429431558,-0.00663328776136041,0,
00:00:03.808,0.00110799027606845,0.0024116113781929,0.00300065008923411,0,
00:00:03.812,-0.00117079203482717,0.00022648210870102,0.0140799358487129,0,
00:00:03.816,0.00442376639693975,-0.00116203387733549,-0.0126388017088175,0,
00:00:03.82,-0.000448216625954956,0.000628785928711295,-0.00500879948958755,0,
00:00:03.824,-0.0018246101681143,-0.00293947453610599,-0.00334559706971049,0,
00:00:03.828,-0.00137228076346219,-0.00189099949784577,0.00931089092046022,0,
00:00:03.832,-0.000383659440558404,0.000109593187517021,0.00222165673039854,0,
00:00:03.836,0.00244871457107365,0.00340032461099327,-0.00417710281908512,0,
00:00:03.84,-0.0034140283241868,-0.000556500861421227,0.00338071258738637,0,
00:00:03.844,0.000831905985251069,-0.00291628483682871,0.013054832816124,0,
00:00:03.848,0.00165535393171012,-0.00230262940749526,-0.0141826765611768,0,
00:00:03.852,-0.00113509478978813,0.00599863193929195,0.0082211596891284,0,
00:00:03.856,0.0019538882188499,0.00394108053296804,-0.009542316198349,0,
00:00:03.86,0.0010512659791857,0.00183438370004296,-0.0142917325720191,0,
00:00:03.864,0.0016002026386559,-0.00265586143359542,-0.00132428272627294,0,
00:00:03.868,-0.00320742907933891,-0.00652504060417414,0.0129850171506405,0,
00:00:03.872,-0.00272470922209322,-0.00340644177049398,0.012884265743196,0,
00:00:03.876,-0.000636032549664378,0.000644602638203651,0.00124643929302692,0,
00:00:03.88,0.000995148089714348,0.00491438992321491,-0.00876669678837061,0,
00:00:03.884,0.00357610709033906,0.000845937174744904,-0.00150314287748188,0,
00:00:03.888,-0.000873775396030396,-0.00221395422704518,-0.000108678665128537,0,
00:00:03.892,-0.0054380833171308,0.00389458611607552,-0.00862925685942173,0,
00:00:03.896,0.00351591152139008,-0.00246041500940919,0.0177905820310116,0,
00:00:03.9,0.00568427983671427,0.000473884661914781,-0.00567355658859015,0,
00:00:03.904,-0.00312338070943952,-0.00361360446549952,-0.00545853236690164,0,
00:00:03.908,-0.000945382285863161,0.00589338736608624,0.00602149637416005,0,
00:00:03.912,-0.000502407783642411,0.00281600677408278,-0.0113791842013597,0,
00:00:03.916,0.00167125393636525,-0.0038243334274739,-0.00263498746789992,0,
00:00:03.92,-0.00220704032108188,-0.00170582241844386,0.00438452744856477,0,
00:00:03.924,-0.00164025765843689,-0.00332640437409282,0.0103652225807309,0,
00:00:03.928,0.00207881326787174,-0.00288359634578228,0.00221451045945287,0,
00:00:03.932,-0.00297083449549973,0.00561600690707564,-0.00247360114008188,0,
00:00:03.936,0.00154772959649563,-9.37804943532683E-05,-0.00784009788185358,0,
00:00:03.94,0.000105639745015651,0.00632822094485164,-0.000757053319830447,0,
00:00:03.944,0.00514646619558334,-0.0028484771028161,0.00858620461076498,0,
00:00:03.948,-0.000505042786244303,-0.00999981164932251,0.00279468740336597,0,
00:00:03.952,-0.00440702494233847,0.00633276300504804,-0.00964928511530161,0,
00:00:03.956,0.00214308360591531,0.00341808400116861,-0.0077159833163023,0,
00:00:03.96,-0.00102085876278579,0.000343509804224595,0.0092499116435647,0,
00:00:03.964,-0.00111683132126927,0.00275583518669009,0.000331307935994118,0,
00:00:03.968,0.00184964609798044,-0.00767754949629307,-0.000366575841326267,0,
00:00:03.972,-0.00353831378743052,-0.00230161217041314,0.000665117288008332,0,
00:00:03.976,0.00106073752976954,-0.000917847675736994,0.00938189122825861,0,
00:00:03.98,0.00198080809786916,0.00429196935147047,-0.00309543474577367,0,
00:00:03.984,0.0011675248388201,0.00554067967459559,-0.0126725221052766,0,
00:00:03.988,3.92192996514495E-05,0.000953749695327133,-0.00262511917389929,0,
00:00:03.992,-0.00065980909857899,-0.00477201724424958,0.00600226316601038,0,
00:00:03.996,-0.000771099294070154,-0.00776149937883019,0.00347047368995845,0,
00:00:04,-0.000487342709675431,0.00536174839362502,0.00812342669814825,0,
00:00:04.004,-9.94962247204967E-05,0.0027365698479116,-0.00546759320423007,0,
00:00:04.008,0.000177318448550068,0.000664758845232427,-0.00347854755818844,0,
00:00:04.012,0.000266691407887265,0.00361458002589643,0.00261645624414086,0,
00:00:04.016,0.00228181062266231,-0.00483977235853672,-0.00603616749867797,0,
00:00:04.02,-0.00189263606444001,-0.00810814835131168,-0.000503166229464114,0,
00:00:04.024,-0.00374259217642248,0.00334891001693904,0.000137242299388163,0,
00:00:04.028,0.00172134477179497,0.00507588079199195,0.000291934557026252,0,
00:00:04.032,0.00241036247462034,0.00267415842972696,0.0152768362313509,0,
00:00:04.036,0.00116367603186518,-0.000182943505933508,-0.00435930350795388,0,
00:00:04.04,-0.000216026892303489,0.0003063979675062,-0.011946527287364,0,
00:00:04.044,-0.000926454085856676,-0.00176302006002516,-0.000375977368094027,0,
00:00:04.048,0.001169019844383,-0.00674673868343234,-0.0007960046059452,0,
00:00:04.052,-0.00452443771064281,-0.00200593285262585,0.0110463323071599,0,
00:00:04.056,-0.00173846783582121,0.00482152029871941,0.00253869080916047,0,
00:00:04.06,0.00580865982919931,0.00437255436554551,-0.00741493375971913,0,
00:00:04.064,0.00102737720590085,0.0035469641443342,-0.0028134067542851,0,
00:00:04.068,-0.0010551786981523,-0.00297837122343481,0.000122415585792623,0,
00:00:04.072,-0.00135556061286479,-0.0036199283786118,-0.00693093007430434,0,
00:00:04.076,-0.000794337887782604,-0.00388157623820007,0.0175648164004087,0,
00:00:04.08,-0.00216714548878372,0.00629756739363074,-0.00683483574539423,0,
00:00:04.084,0.0044052517041564,-0.00107326486613601,0.000104271588497795,0,
00:00:04.088,0.000117413444968406,-0.00597876682877541,0.00877595786005259,0,
00:00:04.092,-0.00116096367128193,0.00554734515026212,-0.00855823326855898,0,
00:00:04.096,-0.000937925884500146,-5.20710127602797E-05,-0.00365155609324574,0,
00:00:04.1,-0.00234699412249029,0.00174585799686611,-0.0118496064096689,0,
00:00:04.104,0.00222338177263737,0.00257252412848175,0.00158591975923628,0,
00:00:04.108,0.0020686904899776,-0.000792951672337949,0.017115518450737,0,
00:00:04.112,0.00258118705824018,-0.00706521049141884,0.00674141012132168,0,
00:00:04.116,-0.00270141707733274,-0.000850045587867498,-0.00660967407748103,0,
00:00:04.12,-0.00273437332361937,0.004084846470505,-0.00654508545994759,0,
00:00:04.124,-0.000954207789618522,0.000357733893906698,-0.00236391113139689,0,
00:00:04.128,0.000627945933956653,-0.00237382971681654,0.00115303380880505,0,
00:00:04.132,-0.000815811101347208,0.00193823187146336,0.00869225617498159,0,
00:00:04.136,0.0030131486710161,0.00185702042654157,-0.00191246357280761,0,
00:00:04.14,0.00206430885009468,0.000405397440772504,-0.00418283371254802,0,
00:00:04.144,3.37142155331094E-05,0.00131509825587273,-0.00669953087344766,0,
00:00:04.148,0.000807860167697072,-0.00308237527497113,0.00379428756423295,0,
00:00:04.152,-0.00549197336658835,-0.0024360460229218,0.00671141827479005,0,
00:00:04.156,-0.000528406817466021,-0.000413087283959612,-0.00208337162621319,0,
00:00:04.16,0.00135719520039856,0.00105556205380708,-0.0065502212382853,0,
00:00:04.164,0.00142554449848831,0.00142285565380007,0.0117775714024901,0,
00:00:04.168,0.000730155850760639,0.000968015694525093,0.00461442628875375,0,
00:00:04.172,0.00207738508470356,0.000242592912400141,-0.0212419722229242,0,
00:00:04.176,-0.00445591891184449,0.00176413077861071,0.00373420608229935,0,
00:00:04.18,-0.000115313974674791,-0.00249045598320663,0.0135436654090881,0,
00:00:04.184,0.00327258137986064,-0.00413668341934681,-0.00466615241020918,0,
00:00:04.188,-0.0030714578460902,0.001613266649656,-0.0101016825065017,0,
00:00:04.192,0.000632259296253324,0.00251521728932858,8.29788550618105E-05,0,
00:00:04.196,0.00122474762611091,-0.000727894599549472,0.00296178553253412,0,
00:00:04.2,0.000585893401876092,0.00398661894723773,0.0152307990938425,0,
00:00:04.204,0.00191935512702912,-0.00119231303688139,-0.00192207866348326,0,
00:00:04.208,-0.00249979738146067,0.00176911451853812,-0.011000532656908,0,
00:00:04.212,-5.53426507394761E-05,-0.00549548957496881,0.000836918188724667,0,
00:00:04.216,-0.00446354318410158,-0.00559423817321658,-0.00229235063306987,0,
00:00:04.22,-0.00087095407070592,0.00227931560948491,0.00201501953415573,0,
00:00:04.224,0.00464692525565624,0.00421213777735829,0.00422563124448061,0,
00:00:04.228,0.00556190218776464,0.000776604691054672,-0.00318664498627186,0,
00:00:04.232,-0.00348671479150653,0.00258035934530199,2.29546931223013E-05,0,
00:00:04.236,-0.00118069327436388,0.000623519299551845,0.0027297621127218,0,
00:00:04.24,-0.000559919921215624,-0.00134648603852838,0.000423780496930704,0,
00:00:04.244,-0.000357113691279665,-0.00198981165885925,-0.00994932744652033,0,
00:00:04.248,-0.000164946090080775,0.0006278813816607,0.00380576751194894,0,
00:00:04.252,0.00211300305090845,-0.00241203419864178,0.00741035025566816,0,
00:00:04.256,-0.00180096924304962,0.000826295872684568,0.000329360802425072,0,
00:00:04.26,-0.00143549079075456,-0.00141478993464261,-0.00245835748501122,0,
00:00:04.264,0.00205156579613686,-0.00223830086179078,-0.00449685053899884,0,
00:00:04.268,-0.00314422859810293,0.00106074078939855,0.00290146633051336,0,
00:00:04.272,0.00134948035702109,0.00507949152961373,-0.000195983244339004,0,
00:00:04.276,-2.93818211503094E-05,0.00481033278629184,0.00143877184018493,0,
00:00:04.28,0.00302715878933668,-0.00460450677201152,-0.00628417590633035,0,
00:00:04.284,0.00149751384742558,7.372755499091E-05,0.000548443058505654,0,
00:00:04.288,0.00144299201201648,-0.00280399597249925,0.00554597424343228,0,
00:00:04.292,-0.00573296286165714,-0.00181254057679325,0.00939534232020378,0,
00:00:04.296,0.000902501575183123,3.97929252358153E-05,-0.00839451514184475,0,
00:00:04.3,-0.00119102979078889,0.0012161557096988,-0.00324717862531543,0,
00:00:04.304,-0.000474508269689977,0.00136890518479049,-0.00532741146162152,0,
00:00:04.308,0.00060693541308865,0.000833972648251802,-0.00235852645710111,0,
00:00:04.312,0.00106643466278911,0.00220918422564864,0.0118485502898693,0,
00:00:04.316,0.000852195837069303,-0.00232711457647383,-3.57374337909278E-05,0,
00:00:04.32,0.000318863749271259,-0.00213607936166227,-0.00228178384713829,0,
00:00:04.324,-0.00223768386058509,-0.00262231146916747,0.00289739901199937,0,
00:00:04.328,0.00158276420552284,0.000602495798375458,-0.00182951311580837,0,
00:00:04.332,-0.000802385446149856,0.00677474774420261,-0.000485707219922915,0,
00:00:04.336,0.00402734335511923,0.000618270598351955,-0.00336096109822392,0,
00:00:04.34,-0.00119418953545392,-0.00209132698364556,-0.00365146342664957,0,
00:00:04.344,-0.00239679403603077,-0.0022768690250814,0.000647185312118381,0,
00:00:04.348,-0.00152910605538636,0.000855285325087607,0.00756089249625802,0,
00:00:04.352,-0.000182537551154383,-0.00199962523765862,0.00565390102565289,0,
00:00:04.356,0.000724280951544642,-0.000950061134062707,-0.00343269063159823,0,
00:00:04.36,0.000938986253459007,-0.00144574989099056,-0.0116140581667423,0,
00:00:04.364,0.000647973560262471,0.00749003095552325,-0.00573656335473061,0,
00:00:04.368,0.00018863745208364,-0.00530833005905151,0.0124368146061897,0,
00:00:04.372,-0.000167697828146629,-0.000765337608754635,0.0107995057478547,0,
00:00:04.376,-0.000307587091811001,0.00595685094594955,-0.00166768371127546,0,
00:00:04.38,-0.000258924526860937,0.000168709550052881,-0.00866843480616808,0,
00:00:04.384,-0.000119923613965511,-0.00222236616536975,-0.0120241455733776,0,
00:00:04.388,1.26466784422519E-05,-0.00217713136225939,0.00521449046209455,0,
00:00:04.392,8.46893599373288E-05,0.00105687975883484,0.00550650805234909,0,
00:00:04.396,9.04471235116944E-05,-0.00181370717473328,0.00793928187340498,0,
00:00:04.4,5.49786782357842E-05,0.00330633297562599,-0.00274610798805952,0,
00:00:04.404,0.0020864128600806,-0.00330369244329631,0.00413209479302168,0,
00:00:04.408,-0.00199518352746964,-0.00818777270615101,-0.0100521044805646,0,
00:00:04.412,-0.001671202480793,0.00874497834593058,-0.00856164935976267,0,
00:00:04.416,-0.00227488880045712,0.00506361294537783,0.010798248462379,0,
00:00:04.42,0.00280961394309998,0.00282495375722647,-0.00373396323993802,0,
00:00:04.424,0.00474860891699791,-0.00392199587076902,0.00237625814042985,0,
00:00:04.428,-0.00115913897752762,-0.00419898796826601,0.0109421629458666,0,
00:00:04.432,-0.00239504151977599,-0.00190991314593703,-0.0112155703827739,0,
00:00:04.436,-0.00150135578587651,0.000380660931114107,-0.00756358820945024,0,
00:00:04.44,-0.000196473178220913,0.00152838963549584,0.00718480069190264,0,
00:00:04.444,0.000641380727756768,-0.00266337697394192,0.0039009761530906,0,
00:00:04.448,-0.00125945755280554,0.00680918851867318,0.000695596158038825,0,
00:00:04.452,0.00251015857793391,0.0013170059537515,-0.00121803185902536,0,
00:00:04.456,0.00383760151453316,-0.00382539071142673,-0.00582152931019664,0,
00:00:04.46,-0.0040594981983304,-0.000431496882811189,0.00487960083410144,0,
00:00:04.464,-0.000798921100795269,0.00214395369403064,0.000990706845186651,0,
00:00:04.468,0.000209253892535344,-5.59544350835495E-05,-0.00512508722022176,0,
00:00:04.472,0.00236998405307531,-0.00182143040001392,0.00679216533899307,0,
00:00:04.476,-0.00184862758032978,-0.00189361802767962,-0.00557594979181886,0,
00:00:04.48,-0.00165545148774981,-0.00707763154059649,-0.00108685239683837,0,
00:00:04.484,-0.00231098686344922,0.00417830096557736,0.00988117977976799,0,
00:00:04.488,0.00485977157950401,0.00582203734666109,-0.00584851484745741,0,
00:00:04.492,0.000704531790688634,0.00101760751567781,0.00291724316775799,0,
00:00:04.496,-0.000794596329797059,0.00179011456202716,-0.0106663340702653,0,
00:00:04.5,-0.000894231488928199,0.00164628040511161,-0.0040381564758718,0,
00:00:04.504,-0.000456947454949841,-0.00404676795005798,0.0123502882197499,0,
00:00:04.508,-3.52329402630858E-06,-0.00175169762223959,-0.00297936424612999,0,
00:00:04.512,0.000239332672208548,-0.00338561669923365,0.0109110353514552,0,
00:00:04.516,0.00233273603953421,-0.000864625792019069,-0.00763459037989378,0,
00:00:04.52,-0.00390814011916518,0.00155098852701485,0.00182368396781385,0,
00:00:04.524,0.000340592378051952,0.000275335187325254,-0.00441023893654346,0,
00:00:04.528,0.0013862153282389,0.00370404939167202,-0.0031968888361007,0,
00:00:04.532,0.000922936713322997,0.00218031834810972,-0.00429664505645633,0,
00:00:04.536,-0.00195723306387663,-0.00442049466073513,0.00792632717639208,0,
00:00:04.54,0.00155808299314231,0.00639758259057999,0.0035470980219543,0,
00:00:04.544,0.00110863824374974,-0.000368983543012291,-0.00197051675058901,0,
00:00:04.548,0.00189988361671567,-0.00798155833035707,-0.00172595039475709,0,
00:00:04.552,-0.00290066562592983,0.00237270258367062,0.0080528287217021,0,
00:00:04.556,-0.00255127437412739,-0.00232839281670749,-0.00931982975453138,0,
00:00:04.56,-0.000618834339547902,-0.000805521383881569,-0.00387655338272452,0,
00:00:04.564,0.000911508628632873,-0.000681450415868312,0.00122208788525313,0,
00:00:04.568,0.00139263249002397,0.00210501113906503,0.0137451700866222,0,
00:00:04.572,0.00102561083622277,0.00316753261722624,-0.0070379157550633,0,
00:00:04.576,-0.00174516532570124,0.00426003616303205,-0.00712871225550771,0,
00:00:04.58,0.0017332200659439,0.00255331955850124,-0.00142513948958367,0,
00:00:04.584,0.00323207629844546,-0.000414651731261984,0.00081781082553789,0,
00:00:04.588,-0.00222375127486885,-0.00886325817555189,0.0141794299706817,0,
00:00:04.592,-0.000618848076555878,-0.00557600054889917,-0.00169845123309642,0,
00:00:04.596,-0.00317441741935909,-0.00406141160055995,-0.0038576596416533,0,
00:00:04.6,-0.00337666994892061,0.00752473622560501,-0.00416586361825466,0,
00:00:04.604,0.00289001665078104,0.00931921694427729,-0.00877600628882647,0,
00:00:04.608,0.00350935757160187,0.00278692622669041,0.0014316268498078,0,
00:00:04.612,0.00171750690788031,-0.00710859056562185,0.00181404128670692,0,
00:00:04.616,-0.00231522531248629,-0.00301435682922602,0.023821908980608,0,
00:00:04.62,0.00483842706307769,-0.000431771099101752,-0.0103904418647289,0,
00:00:04.624,-0.00777668971568346,0.00288989138789475,-0.0141090024262667,0,
00:00:04.628,0.002182153519243,-0.000934960378799587,0.00448493892326951,0,
00:00:04.632,4.99788002343848E-05,-0.00510285142809153,0.00522388331592083,0,
00:00:04.636,-0.0023354843724519,0.00396626396104693,0.00107217160984874,0,
00:00:04.64,0.00200695963576436,0.00603184103965759,1.78167629201198E-05,0,
00:00:04.644,0.00401270622387528,-0.000894753728061914,-0.0108960997313261,0,
00:00:04.648,-0.0014623001916334,-0.00293951760977507,0.0006322743720375,0,
00:00:04.652,-0.00228070979937911,-0.00017607503104955,0.00462994491681457,0,
00:00:04.656,-0.0011789066484198,-0.000592637690715492,0.00394311174750328,0,
00:00:04.66,0.000113153837446589,-0.000996058224700391,-0.000596573168877512,0,
00:00:04.664,0.00288689555600286,-0.00692683970555663,-0.00286920880898833,0,
00:00:04.668,-0.00322012114338577,0.00381134380586445,-0.00230293907225132,0,
00:00:04.672,0.000785332056693733,0.00118155591189861,0.0224147047847509,0,
00:00:04.676,0.00148024631198496,0.00671817967668176,-0.0101325744763017,0,
00:00:04.68,-0.00131398462690413,0.00302491197362542,-0.0198713149875402,0,
00:00:04.684,0.00184798706322908,0.00254850392229855,-4.92949584440794E-05,0,
00:00:04.688,0.00310871680267155,-0.00562881259247661,0.00486021302640438,0,
00:00:04.692,-0.00241031032055616,-0.0105901127681136,0.0145145989954472,0,
00:00:04.696,-0.00281655276194215,-0.00142681889701635,-0.00570265995338559,0,
00:00:04.7,-0.00121687713544816,0.00146333302836865,-0.00346806575544178,0,
00:00:04.704,0.00039956031832844,0.0084593566134572,0.00166123663075268,0,
00:00:04.708,0.00117329193744808,0.00245639169588685,-0.000734539178665727,0,
00:00:04.712,0.00108621327672154,-0.000912687042728066,0.00592778855934739,0,
00:00:04.716,0.000536912702955306,-0.00204322417266667,0.000721351883839816,0,
00:00:04.72,-3.53465256921481E-05,0.00037946889642626,-0.012309368699789,0,
00:00:04.724,-0.000365885003702715,-0.000648658839054406,-0.00727770244702697,0,
00:00:04.728,-0.00248308759182692,-0.00765768764540553,0.017926350235939,0,
00:00:04.732,0.00379229988902807,0.000605146284215152,0.00303384521976113,0,
00:00:04.736,-0.00247064512223005,0.00855855364352465,-0.0101176435127854,0,
00:00:04.74,0.000590311887208372,0.00428314320743084,-0.000949096342083067,0,
00:00:04.744,0.00282647297717631,-0.00343181216157973,-0.00197836477309465,0,
00:00:04.748,-0.0018815592629835,-0.00414991052821279,0.00391007121652365,0,
00:00:04.752,-0.00204537436366081,-0.00410724710673094,0.0101670017465949,0,
00:00:04.756,-0.00274205300956964,0.00428390735760331,-0.00648047076538205,0,
00:00:04.76,0.00460905488580465,0.0010899705812335,0.00453238468617201,0,
00:00:04.764,0.000684141123201698,-0.00417300080880523,-0.0024767576251179,0,
00:00:04.768,-0.00273631582967937,0.00579197984188795,-0.0115273185074329,0,
00:00:04.772,0.00125384726561606,0.00115674501284957,-0.00427227281033993,0,
00:00:04.776,0.00338489818386734,-0.00340364663861692,0.00579324644058943,0,
00:00:04.78,-0.00175836076959968,0.00220623170025647,0.00273905438371003,0,
00:00:04.784,-0.00226735463365912,0.000551513396203518,0.00349477468989789,0,
00:00:04.788,-0.000998321571387351,-0.00574915949255228,0.0134367123246193,0,
00:00:04.792,0.000309486640617251,-0.00231476058252156,-0.0024420041590929,0,
00:00:04.796,-0.00114566145930439,0.0101397437974811,-0.0107697239145637,0,
00:00:04.8,0.00490378495305777,-0.00444686179980636,-0.011661333963275,0,
00:00:04.804,7.38860035198741E-05,-0.00185313390102237,0.00887466873973608,0,
00:00:04.808,-0.00151441828347743,-0.00189769256394356,-0.00166107283439487,0,
00:00:04.812,-0.00340199004858732,0.00301436032168567,-0.000468761805677786,0,
00:00:04.816,0.00353581225499511,0.004653783980757,0.000199700007215142,0,
00:00:04.82,-0.000140873889904469,-0.00141138699837029,0.0112587912008166,0,
00:00:04.824,-0.000960087694693357,-0.00055078516015783,-0.000286979193333536,0,
00:00:04.828,-0.000568421732168645,-0.00566327944397926,-0.00865146797150373,0,
00:00:04.832,2.80999302049167E-05,0.002227115444839,0.00612042238935828,0,
00:00:04.836,0.00037181013613008,0.000216995715163648,-0.0105999559164047,0,
00:00:04.84,0.000391529087210074,0.000287094560917467,0.00595028977841139,0,
00:00:04.844,0.000214048326597549,0.000600972445681691,-0.00180033198557794,0,
00:00:04.848,4.56176667285035E-06,-0.00357277970761061,0.00116263749077916,0,
00:00:04.852,-0.000127499035443179,0.00214963313192129,0.00552158197388053,0,
00:00:04.856,-0.000153647051774897,0.00726445345208049,-0.00547781819477677,0,
00:00:04.86,-0.000104520666354802,0.003895124187693,-0.00363730429671705,0,
00:00:04.864,-3.1475727155339E-05,-0.00739994877949357,0.000578201957978308,0,
00:00:04.868,2.45995124714682E-05,-0.0086279483512044,0.00287037086673081,0,
00:00:04.872,4.68122598249465E-05,0.00219834549352527,0.0047658602707088,0,
00:00:04.876,3.9718459447613E-05,0.00371208437718451,0.00333134736865759,0,
00:00:04.88,1.85333301487844E-05,-0.00637304875999689,-0.00393558293581009,0,
00:00:04.884,-0.00207758089527488,0.00787418242543936,0.0036842308472842,0,
00:00:04.888,0.00403819233179092,0.00349709112197161,-0.0143624320626259,0,
00:00:04.892,-0.000347136752679944,-0.00243557197973132,-0.00443527055904269,0,
00:00:04.896,-0.00354924169369042,0.00179771753028035,0.0062378067523241,0,
00:00:04.9,0.00302966358140111,-0.000511276419274509,0.00507186679169536,0,
00:00:04.904,0.00156062480527908,-0.00464871525764465,0.00770030496641994,0,
00:00:04.908,-0.00511457305401564,-0.00477764010429382,0.00151782424654812,0,
00:00:04.912,-0.000134205562062562,0.00436601601541042,-0.00792617537081242,0,
00:00:04.916,0.00166406878270209,-0.000357761164195836,-0.00329538621008396,0,
00:00:04.92,0.00152427714783698,0.00885762739926577,-0.000281430344330147,0,
00:00:04.924,0.00270172650925815,-0.0103643722832203,-0.000908710819203407,0,
00:00:04.928,-0.00425660237669945,0.00311657274141908,-0.000802002148702741,0,
00:00:04.932,-0.000266995193669572,-0.000761881878133863,0.0106234699487686,0,
00:00:04.936,0.000902939471416175,0.00418122718110681,-0.00234513287432492,0,
00:00:04.94,0.000730803061742336,0.00131666730158031,0.00418314663693309,0,
00:00:04.944,0.00226133712567389,-0.00808616913855076,-0.0181340146809816,0,
00:00:04.948,-0.00635111704468727,0.000989436288364232,0.0100379223003983,0,
00:00:04.952,0.00196043471805751,0.00286891451105475,-0.000579368905164301,0,
00:00:04.956,0.00285581010393798,0.00170557806268334,0.00917728152126074,0,
00:00:04.96,0.00319932354614139,0.00212451885454357,-0.0114078558981419,0,
00:00:04.964,-0.00256340974010527,-0.00290233129635453,-0.0129845850169659,0,
00:00:04.968,-0.00293965544551611,-0.00267395819537342,0.0162006914615631,0,
00:00:04.972,-0.00124888052232563,-0.00076991313835606,0.0137533275410533,0,
00:00:04.976,0.000429011241067201,0.00287289335392416,-0.0103234220296144,0,
00:00:04.98,0.00121640239376575,-0.000634535157587379,-0.00718187866732478,0,
00:00:04.984,0.00111144757829607,-0.0026897753123194,0.00462692184373736,0,
00:00:04.988,0.000536460196599364,0.00423554517328739,-0.00171372038312256,0,
00:00:04.992,-5.28964228578843E-05,-0.00177519058343023,-0.00383748975582421,0,
00:00:04.996,-0.0024627132806927,0.00107216939795762,-0.00221416540443897,0,
00:00:05,0.00155354605522007,0.000830879260320216,0.0130368694663048,0,
00:00:05.004,0.00553025677800179,0.00193210283759981,-0.00520674511790276,0,
00:00:05.008,-0.00590778887271881,-0.00272726523689926,0.00146032031625509,0,
00:00:05.012,1.06150500869262E-05,-0.00656032701954246,0.00231535406783223,0,
00:00:05.016,-0.00365687254816294,0.00336614064872265,-0.0099648479372263,0,
00:00:05.02,-0.000406309263780713,0.0062106610275805,-0.00416607083752751,0,
00:00:05.024,0.00668914197012782,-0.00240331725217402,0.0072871265001595,0,
00:00:05.028,0.00120875821448863,-0.000409298605518416,0.0124223604798317,0,
00:00:05.032,-0.00345298508182168,0.00177686475217342,-0.01068074721843,0,
00:00:05.036,0.00013956447946839,-0.00245627481490374,0.00300821498967707,0,
00:00:05.04,0.00255893194116652,-0.00208046659827232,0.00138135917950422,0,
00:00:05.044,-0.00202782824635506,0.0017065015854314,-0.0127037484198809,0,
00:00:05.048,-0.00207556574605405,-0.00105584366247058,0.00425465311855078,0,
00:00:05.052,-0.000608700385782868,-0.00245863175950944,0.00581236090511084,0,
00:00:05.056,-0.00142350746318698,0.00474492134526372,-0.00190040864981711,0,
00:00:05.06,0.00515133002772927,0.00489377928897738,-0.00959606189280748,0,
00:00:05.064,0.000516115629579872,-0.00672677392140031,0.0168921090662479,0,
00:00:05.068,-0.00116097321733832,-0.00422555254772305,0.00643189111724496,0,
00:00:05.072,-0.00118643068708479,0.000710610358510166,-0.0106642283499241,0,
00:00:05.076,-0.00264229602180421,0.00748201925307512,-0.0026037993375212,0,
00:00:05.08,0.00409945053979754,0.00121798436157405,-0.00364198093302548,0,
00:00:05.084,3.37245328410063E-05,-0.00809715036302805,-0.00770409172400832,0,
00:00:05.088,-0.00316509697586298,0.00561324972659349,0.00274836225435138,0,
00:00:05.092,0.00116159138269722,0.00977289117872715,0.00278179603628814,0,
00:00:05.096,0.00561961764469743,-0.0154976015910506,0.0179214924573898,0,
00:00:05.1,-0.0076396050862968,-0.0048466925509274,0.00361503311432898,0,
00:00:05.104,0.000235956569667906,0.00684084603562951,-0.0134089514613152,0,
00:00:05.108,0.0021916632540524,0.00329913897439837,-0.0121656423434615,0,
00:00:05.112,0.00148884218651801,0.00278595602139831,0.000245006172917783,0,
00:00:05.116,0.00227955356240273,-0.00475770095363259,0.0119406459853053,0,
00:00:05.12,-0.00261626811698079,-0.000741534167900682,0.00380004593171179,0,
00:00:05.124,-0.0024539299774915,0.00276178168132901,-0.0103386547416449,0,
00:00:05.128,-0.000696230446919799,-0.00121806550305337,-0.00641126185655594,0,
00:00:05.132,0.000746212026569992,-0.00338383833877742,0.0280675459653139,0,
00:00:05.136,-0.000840476714074612,0.0058736726641655,-0.00778891704976559,0,
00:00:05.14,0.00498550571501255,-0.00381062948144972,-0.0152581539005041,0,
00:00:05.144,-1.88702597370138E-05,-0.000353176292264834,-0.0107100382447243,0,
00:00:05.148,-0.00374943180941045,-0.00111837836448103,0.0109040066599846,0,
00:00:05.152,0.000517531356308609,0.00498345587402582,0.00831478834152222,0,
00:00:05.156,0.00314293918199837,3.86670035368297E-05,0.0051088291220367,0,
00:00:05.16,-0.00159798155073076,0.000451089523267001,-0.00321024190634489,0,
00:00:05.164,-0.00193591334391385,-0.00340380240231752,-0.00676367618143559,0,
00:00:05.168,-0.00070714286994189,-0.00220177276059985,-0.00711542787030339,0,
00:00:05.172,0.000452840380603448,0.00210683327168226,0.00922793988138437,0,
00:00:05.176,0.000925688887946308,-0.00680653098970652,0.0105318753048778,0,
00:00:05.18,0.00076376716606319,0.00788780022412539,-0.0084023168310523,0,
00:00:05.184,-0.00176876632031053,0.00364676513709128,-0.00561786815524101,0,
00:00:05.188,0.00186217820737511,0.00186970527283847,-0.00561316637322307,0,
00:00:05.192,0.00339631200768054,-0.00412176549434662,0.00334245315752923,0,
00:00:05.196,-0.00210883165709674,-0.00592033658176661,0.00559257250279188,0,
00:00:05.2,-0.00473348470404744,0.000598504557274282,0.0161779746413231,0,
00:00:05.204,0.000751727668102831,0.00450716679915786,-0.011171062476933,0,
00:00:05.208,0.00400907639414072,-0.0021867505274713,-0.00930357724428177,0,
00:00:05.212,-0.00074988417327404,0.00507356366142631,-0.00316707580350339,0,
00:00:05.216,-0.00148108892608434,-0.00704139517620206,-0.000223240334889852,0,
00:00:05.22,-0.00276641501113772,-0.00116312468890101,0.00787043292075396,0,
00:00:05.224,0.00217382004484534,0.00861657503992319,0.000749511003959924,0,
00:00:05.228,0.00226052827201784,-0.000915643409825861,-0.000263305671978742,0,
00:00:05.232,0.000733000924810767,-0.00319788488559425,0.000116185612569097,0,
00:00:05.236,0.00147901417221874,-0.00212055770680308,-0.00180277007166296,0,
00:00:05.24,-0.00514106778427958,-0.00238077412359416,0.00616740901023149,0,
00:00:05.244,-0.000524423900060356,0.00287460652180016,0.0140034072101116,0,
00:00:05.248,0.00322789628989995,0.00488353660330176,-0.0235402155667543,0,
00:00:05.252,-0.000791011902038008,-0.00310191442258656,-0.0129018602892756,0,
00:00:05.256,-0.00314718927256763,-0.000330984446918592,0.0104663865640759,0,
00:00:05.26,0.00175643956754357,0.00225027929991484,0.00418116990476847,0,
00:00:05.264,0.00419879937544465,-0.00200262642465532,-0.00110105378553271,0,
00:00:05.268,-0.00321985129266977,-0.00186987558845431,0.0103109339252114,0,
00:00:05.272,-8.54038080433384E-05,-0.00456488225609064,0.0105116060003638,0,
00:00:05.276,0.000506235286593437,0.00676043471321464,-0.00924959871917963,0,
00:00:05.28,0.000197803834453225,0.00444997800514102,-0.0217911638319492,0,
00:00:05.284,-0.000170027604326606,-0.00250991969369352,-0.00412794202566147,0,
00:00:05.288,-0.000305251218378544,-0.00329491170123219,0.0230575669556856,0,
00:00:05.292,0.00185176765080541,-0.00368648394942284,0.0037132459692657,0,
00:00:05.296,-0.00410684430971742,0.00219464767724276,-0.00408459594473243,0,
00:00:05.3,0.000415229354985058,0.000734536501113325,-0.00284847500734031,0,
00:00:05.304,0.00160045444499701,0.00539087364450097,-0.00674581620842218,0,
00:00:05.308,-0.000943602353800088,0.00151349930092692,-0.0018778300145641,0,
00:00:05.312,0.00428823987022042,-0.00239129201509058,0.00273535191081464,0,
00:00:05.316,-0.000735175330191851,-0.00771610112860799,0.010385874658823,0,
00:00:05.32,-0.00204989011399448,0.00152765261009336,-0.00302657345309854,0,
00:00:05.324,0.000634595868177712,0.000739839975722134,-0.00425863172858953,0,
00:00:05.328,-0.00229188799858093,-0.000793283979874104,-0.00161026860587299,0,
00:00:05.332,-0.00321902940049767,0.00337533256970346,0.00496084941551089,0,
00:00:05.336,0.00254534720443189,0.00460123224183917,-0.00226071383804083,0,
00:00:05.34,0.00303846993483603,-0.00373695837333798,0.00629098480567336,0,
00:00:05.344,0.00139488268177956,-0.000929115398321301,-0.00584135949611664,0,
00:00:05.348,-0.000323474232573062,-0.00224369647912681,-0.0093679390847683,0,
00:00:05.352,-0.00326521066017449,0.00188853545114398,-0.00113491690717638,0,
00:00:05.356,0.00082597293658182,0.00569020304828882,0.0116058439016342,0,
00:00:05.36,0.00311739929020405,-0.00383460521697998,0.00892407167702913,0,
00:00:05.364,-0.0017993962392211,-0.00618290435522795,-0.00482566235587001,0,
00:00:05.368,-0.00212387670762837,-0.00347473053261638,-0.00463608698919415,0,
00:00:05.372,-0.00285758264362812,0.0046718860976398,-0.00138175603933632,0,
00:00:05.376,0.00246718665584922,0.0137125495821238,-0.00754574313759804,0,
00:00:05.38,0.00474040769040585,-0.00317829404957592,-0.00760065810754895,0,
00:00:05.384,-0.000941575155593455,-0.00689515471458435,0.0186156332492828,0,
00:00:05.388,-0.00212547928094864,-0.00438355328515172,0.000741656112950295,0,
00:00:05.392,-0.00131121731828898,0.00150342611595988,-0.00450775632634759,0,
00:00:05.396,-0.000132160217617638,0.00202509132213891,0.00704262079671025,0,
00:00:05.4,0.000605192326474935,-0.00529427081346512,0.00840269308537245,0,
00:00:05.404,0.000737019465304911,0.0017094878712669,-0.0159899145364761,0,
00:00:05.408,-0.00161145313177258,0.00633603986352682,-0.0130646908655763,0,
00:00:05.412,0.00205994513817132,0.00542108714580536,0.0145629160106182,0,
00:00:05.416,0.00145717454142869,-0.00268193474039435,0.000835525337606668,0,
00:00:05.42,-9.12455143406987E-05,-0.00244255806319416,-0.00209036073647439,0,
00:00:05.424,0.00102905090898275,-0.00495955348014832,-0.00100888614542782,0,
00:00:05.428,-0.00308248586952686,-0.00224542198702693,-0.00363206770271063,0,
00:00:05.432,-0.00224537635222077,0.000901147664990276,0.00305153825320303,0,
00:00:05.436,-0.000180733070010319,0.00242257700301707,0.0061987740918994,0,
00:00:05.44,-0.000857857288792729,0.00427462346851826,0.00644401414319873,0,
00:00:05.444,0.00552779249846935,-0.00300809764303267,-0.00572990858927369,0,
00:00:05.448,0.000602672575041652,0.000196824592421763,-0.012929929420352,0,
00:00:05.452,-0.00129080133046955,-0.00140982412267476,0.00697547616437078,0,
00:00:05.456,-0.00346749508753419,0.00628775311633945,0.00578568922355771,0,
00:00:05.46,0.0033213512506336,-0.00680707162246108,2.05676078621764E-05,0,
00:00:05.464,-0.00242997263558209,-0.00174392759799957,-0.00968069490045309,0,
00:00:05.468,0.000892565411049873,0.00369145208969712,-0.0121077904477715,0,
00:00:05.472,0.00313183595426381,0.0046193921007216,0.0192675981670618,0,
00:00:05.476,-0.00171890261117369,0.00219531706534326,0.0126747377216816,0,
00:00:05.48,3.23167187161744E-05,-0.00504463259130716,-0.0156469978392124,0,
00:00:05.484,-0.00273813190869987,-0.0112483995035291,-0.00551280239596963,0,
00:00:05.488,-0.00534985726699233,-0.0043374951928854,0.0166029538959265,0,
00:00:05.492,0.00263918354175985,0.0158991552889347,-0.00711308745667338,0,
00:00:05.496,0.00896114204078913,0.00543443160131574,-0.00173536723013967,0,
00:00:05.5,0.0034424252808094,0.000694191083312035,-0.00787388812750578,0,
00:00:05.504,-0.00460780132561922,-0.00595468049868941,-0.0020024930126965,0,
00:00:05.508,-0.00496322056278586,-0.00716602429747581,0.00167583453003317,0,
00:00:05.512,-0.00224235164932907,0.000267509632976726,0.0032643829472363,0,
00:00:05.516,-0.00158644246403128,0.00276831514202058,0.0196764674037695,0,
00:00:05.52,0.0038309465162456,0.0045066000893712,-0.00149622675962746,0,
00:00:05.524,0.00551667390391231,0.00113403075374663,-0.0162133909761906,0,
00:00:05.528,-0.000853037054184824,-0.00384643371216953,-0.00718678301200271,0,
00:00:05.532,-0.00247415853664279,-0.00473026698455215,0.0113785052672029,0,
00:00:05.536,-0.00176071748137474,-0.00023549007892143,-0.00915727484971285,0,
00:00:05.54,-0.00251944526098669,0.00922238826751709,-0.00168712239246815,0,
00:00:05.544,0.00456161331385374,-0.00255185225978494,0.0170318651944399,0,
00:00:05.548,0.000477727415272966,-0.00516799744218588,0.000271039112703875,0,
00:00:05.552,-0.000859282212331891,0.00758818071335554,-0.0122460694983602,0,
00:00:05.556,-0.000814849801827222,-0.00305850617587566,-0.00373228779062629,0,
00:00:05.56,-0.00238918396644294,-0.00111487077083439,0.00665140012279153,0,
00:00:05.564,0.00417466182261705,-0.00041166043956764,0.00257814349606633,0,
00:00:05.568,-0.00210315827280283,-0.00010642488632584,0.00210178247652948,0,
00:00:05.572,0.00284721469506621,0.0021463967859745,-0.00305043533444405,0,
00:00:05.576,-0.00124364031944424,0.000265828013652936,-0.00275080814026296,0,
00:00:05.58,-0.00168362387921661,-0.00343774608336389,-0.000787246157415211,0,
00:00:05.584,-0.00072926766006276,-0.00376223912462592,-0.00336129916831851,0,
00:00:05.588,-0.00181673117913306,0.000626174849458039,0.0011171312071383,0,
00:00:05.592,0.00269554043188691,0.00548705784603953,0.0123769352212548,0,
00:00:05.596,0.00229131407104433,0.00136800005566329,0.00416274601593614,0,
00:00:05.6,0.000479235459351912,0.00406047888100147,-0.0108762281015515,0,
00:00:05.604,0.00118566141463816,-0.000370160065358505,-0.00172657310031354,0,
00:00:05.608,-0.0032434209715575,-0.0058131474070251,-0.00471130618825555,0,
00:00:05.612,-0.00252695078961551,-0.0040773656219244,-0.00930144917219877,0,
00:00:05.616,-0.000413683970691636,0.00360598252154887,0.012539004907012,0,
00:00:05.62,0.00318858260288835,1.75139794009738E-05,0.00614467309787869,0,
00:00:05.624,-0.00048403735854663,-0.00280304672196507,0.00359291979111731,0,
00:00:05.628,-0.000627778237685561,-0.00656718853861094,0.00292682880535722,0,
00:00:05.632,-0.00199665571562946,0.00577974040061235,-0.00369273358955979,0,
00:00:05.636,0.000419248302932829,0.00720856385305524,-0.0109526598826051,0,
00:00:05.64,0.00410873768851161,0.00557895936071873,-0.00758986035361886,0,
00:00:05.644,0.00201299577020109,0.00146257458254695,0.0013506708201021,0,
00:00:05.648,-0.000777266686782241,-0.00655168853700161,0.0107378466054797,0,
00:00:05.652,-0.0021400221157819,-0.00439510308206081,0.00670822896063328,0,
00:00:05.656,-0.00191804487258196,-0.00275370525196195,-0.00397945288568735,0,
00:00:05.66,0.00121509120799601,0.00128682563081384,-0.00397962843999267,0,
00:00:05.664,0.000297966646030545,-0.00524741131812334,-0.00113929156213999,0,
00:00:05.668,-0.00492232013493776,-0.00224000820890069,0.00307465624064207,0,
00:00:05.672,-0.00112522125709802,0.00852144043892622,-0.00457226205617189,0,
00:00:05.676,0.00475831842049956,0.00485097663477063,0.00536175584420562,0,
00:00:05.68,0.00377711583860219,0.00355925969779491,0.0095051983371377,0,
00:00:05.684,0.000816758547443897,-0.000908547488506883,0.00353702274151146,0,
00:00:05.688,0.000663454993627965,-0.0036671890411526,-0.0199944488704205,0,
00:00:05.692,-0.00611960841342807,-0.00369237479753792,-0.0116788409650326,0,
00:00:05.696,-0.00116094655822963,-0.00198883563280106,0.00403956882655621,0,
00:00:05.7,0.0010013731662184,0.00205270503647625,0.00744700059294701,0,
00:00:05.704,0.00138961162883788,0.00131003581918776,0.0075366091914475,0,
00:00:05.708,0.00297540216706693,-9.13219118956476E-05,0.00019343159510754,0,
00:00:05.712,-0.00175551930442452,-0.0028076390735805,0.00218920363113284,0,
00:00:05.716,-0.0018932840321213,-0.000676675525028259,0.0194233134388924,0,
00:00:05.72,0.00150018569547683,0.00354101043194532,-0.0169810019433498,0,
00:00:05.724,-0.00143273535650223,8.75558034749702E-05,-0.0169754363596439,0,
00:00:05.728,-0.00279648182913661,-0.00650218036025763,-0.00311818649061024,0,
00:00:05.732,-0.00166639394592494,0.00390990078449249,0.00903354585170746,0,
00:00:05.736,0.00872163288295269,0.00505640916526318,0.000746431120205671,0,
00:00:05.74,0.000253054313361645,0.00843612849712372,0.00544447358697653,0,
00:00:05.744,0.00220138533040881,-0.00472306413576007,-0.00350132049061358,0,
00:00:05.748,-0.0034436380956322,-0.00724030425772071,0.00295265251770616,0,
00:00:05.752,-0.0037557624746114,-0.00434875767678022,0.00212810491211712,0,
00:00:05.756,-0.0017374922754243,0.00377228553406894,-0.0045354594476521,0,
00:00:05.76,0.00244969921186566,-0.00176123669371009,0.00409186352044344,0,
00:00:05.764,-0.000494498119223863,-0.000550004246179014,-0.00274639436975122,0,
00:00:05.768,-0.000162330819875933,-0.00058591045672074,-0.00453631300479174,0,
00:00:05.772,-0.00142778106965125,0.00416535465046763,0.0099438801407814,0,
00:00:05.776,0.0028921659104526,0.00110986898653209,-0.000948937202338129,0,
00:00:05.78,0.0022647266741842,0.00459464453160763,-0.00061246077530086,0,
00:00:05.784,0.00236808811314404,-0.00382666033692658,-0.0201899092644453,0,
00:00:05.788,-0.0051725241355598,-0.00145049404818565,0.0137652698904276,0,
00:00:05.792,-0.00111103325616568,-0.00285331066697836,0.0027545397169888,0,
00:00:05.796,-0.00157338764984161,0.00360653339885175,-0.000138776711537503,0,
00:00:05.8,0.00484324432909489,0.00163286505267024,-0.00438310159370303,0,
00:00:05.804,0.00225162552669644,0.000888088252395391,0.00407459540292621,0,
00:00:05.808,-0.00124121992848814,-0.0104452902451158,0.0034931309055537,0,
00:00:05.812,-0.00892012752592564,-0.00147124100476503,0.000391100358683616,0,
00:00:05.816,0.00174435612279922,0.00632526353001595,-0.00394295435398817,0,
00:00:05.82,0.00420395890250802,0.00737659120932221,-0.000373091257642955,0,
00:00:05.824,0.0027341777458787,-0.0025426612701267,0.000116533519758377,0,
00:00:05.828,0.000397347524994984,-0.00119692250154912,0.00194079510401934,0,
00:00:05.832,-0.00116219720803201,0.000942752871196717,-0.00639072526246309,0,
00:00:05.836,-0.00152671814430505,-0.00505256978794932,0.00838441029191017,0,
00:00:05.84,-0.00103594153188169,0.00184275128412992,-0.00691589759662747,0,
00:00:05.844,-0.000271802389761433,0.00152101332787424,0.000423557066824287,0,
00:00:05.848,0.00238547730259597,-0.00228001247160137,-0.00597809255123138,0,
00:00:05.852,-0.00352564128115773,-0.00121301878243685,0.0115957632660866,0,
00:00:05.856,0.00283876014873385,0.000586220063269138,0.0131715890020132,0,
00:00:05.86,-0.000319797574775293,-0.000625110405962914,-0.00741268787533045,0,
00:00:05.864,-0.000653064227662981,0.00529407477006316,-0.0129769295454025,0,
00:00:05.868,-0.000139096271595918,-0.00399215100333095,-0.00622603483498096,0,
00:00:05.872,-0.00178193219471723,0.000187660596566275,0.00153713708277792,0,
00:00:05.876,0.00236455211415887,0.00573436170816422,0.00543812476098537,0,
00:00:05.88,0.0039510759525001,-0.000723259116057307,0.00306988297961652,0,
00:00:05.884,-0.00386491324752569,-0.000991563661955297,0.000370818772353232,0,
00:00:05.888,-0.000654458068311214,-0.00454006297513843,0.00330967199988663,0,
00:00:05.892,0.000254747777944431,-0.00256726634688675,0.00778245087713003,0,
00:00:05.896,0.00233441218733788,0.000346667657140642,-0.00687451427802444,0,
00:00:05.9,-0.00399365229532123,0.00409248983487487,-0.00511673837900162,0,
00:00:05.904,0.00233589974232018,0.00218209507875144,0.00160642305854708,0,
00:00:05.908,0.00147860974539071,-0.00660995114594698,-0.00821962952613831,0,
00:00:05.912,-0.00470564095303416,0.000128196159494109,0.00409110356122255,0,
00:00:05.916,-0.00170558539684862,0.00737782707437873,0.00676767947152257,0,
00:00:05.92,0.00602240068838,-0.000961536075919867,-0.00239073764532804,0,
00:00:05.924,-0.00085368804866448,-5.68134855711833E-05,-0.00477526150643826,0,
00:00:05.928,0.000974921858869493,0.00118305347859859,-0.00269759120419621,0,
00:00:05.932,0.00227875588461757,-0.00334742269478738,-0.0015682855155319,0,
00:00:05.936,-0.00481613865122199,-0.002726272912696,0.0253195147961378,0,
00:00:05.94,-0.000732422922737896,0.00151390151586384,-0.00485091703012586,0,
00:00:05.944,0.00279727601446211,0.00119577604345977,-0.00762286735698581,0,
00:00:05.948,0.00093470438150689,-0.0041069951839745,-0.0177994780242443,0,
00:00:05.952,-0.00525200413540006,-0.000768456666264683,-0.000489397207275033,0,
00:00:05.956,-0.0018914375687018,0.00465059373527765,0.0160757824778557,0,
00:00:05.96,0.00616165809333324,0.00134330766741186,0.000149876621435396,0,
00:00:05.964,-0.000582008331548423,0.00450466852635145,-0.00450663594529033,0,
00:00:05.968,0.00120147410780191,-0.0040372028015554,0.00936270970851183,0,
00:00:05.972,0.000300102226901799,0.000478483794722706,-0.00565751595422626,0,
00:00:05.976,0.00128667196258903,-0.00276692816987634,-0.00954526104032993,0,
00:00:05.98,-0.0052035111002624,7.78261746745557E-05,0.00293822260573506,0,
00:00:05.984,0.00157844077330083,-6.58257122267969E-05,0.0117120714858174,0,
00:00:05.988,-0.000746211153455079,-0.00458191893994808,0.00147686467971653,0,
00:00:05.992,-0.000373430462786928,-0.000535977887921035,-0.00461111543700099,0,
00:00:05.996,0.000453885324532166,0.00312770577147603,-0.009615708142519,0,
00:00:06,-0.00124998041428626,0.00796908512711525,-0.00328765716403723,0,
00:00:06.004,0.00263700168579817,0.00451991008594632,0.00717325694859028,0,
00:00:06.008,0.00395656889304519,-0.00705252587795258,-0.000698155665304512,0,
00:00:06.012,0.000134241519845091,-0.00656869215890765,-0.00349321286194026,0,
00:00:06.016,-0.00686005875468254,-0.00628197146579623,0.0271610785275698,0,
00:00:06.02,-0.00324769923463464,0.00349570089019835,-0.00792121514678001,0,
00:00:06.024,0.00349044031463563,0.0103681366890669,-0.0211490243673325,0,
00:00:06.028,0.00567032489925623,0.00452207075431943,-0.00286890892311931,0,
00:00:06.032,-0.000602930376771837,-0.00419472763314843,0.000467265665065497,0,
00:00:06.036,-0.00229250360280275,-0.00511745596304536,0.00526674790307879,0,
00:00:06.04,-0.00168419885449111,-0.00473537668585777,0.00424060691148043,0,
00:00:06.044,-0.000446033314801753,0.00415086327120662,0.0101085044443607,0,
00:00:06.048,0.00047392857959494,0.00339351966977119,0.0065764058381319,0,
00:00:06.052,0.00285216467455029,0.000426549435360357,-0.0191283710300922,0,
00:00:06.056,-0.00138507259543985,-0.00565659487619996,0.00172326108440757,0,
00:00:06.06,-0.00143335771281272,-0.00196079700253904,-0.00101655023172498,0,
00:00:06.064,-0.00444317515939474,6.1297818319872E-05,-0.000331164221279323,0,
00:00:06.068,0.00453392835333943,0.00755793554708362,0.00298531888984144,0,
00:00:06.072,0.00615262473002076,0.0062762787565589,-0.00260038417764008,0,
00:00:06.076,-0.00111107190605253,-0.00283341901376843,0.00358027219772339,0,
00:00:06.08,-0.00532356323674321,-0.00523062236607075,-2.78564330074005E-05,0,
00:00:06.084,0.00158596539404243,-0.00158025266136974,-0.00700312945991755,0,
00:00:06.088,-0.00108066294342279,-0.00287408148869872,0.013759259134531,0,
00:00:06.092,-0.000850575393997133,-0.00254474952816963,-0.000926185864955187,0,
00:00:06.096,0.000114188616862521,0.0036846692673862,-0.0098810838535428,0,
00:00:06.1,0.000746086006984115,0.00604227464646101,-0.0068465550430119,0,
00:00:06.104,0.000794746214523911,-0.000173619468114339,0.00578943686559796,0,
00:00:06.108,0.000455173692898825,-0.002038748934865,0.0106322066858411,0,
00:00:06.112,3.73544680769555E-05,-0.00168965582270175,-0.00539449416100979,0,
00:00:06.116,-0.00023821959621273,-0.0047892015427351,0.00178428471554071,0,
00:00:06.12,-0.00238105352036655,0.00418415060266852,-0.00376223004423082,0,
00:00:06.124,0.00383382150903344,0.00803476665169001,-7.48875936551485E-06,0,
00:00:06.128,-0.000407420040573925,-0.00307582109235227,0.000717208662535995,0,
00:00:06.132,-0.00142417789902538,-0.00473964307457209,0.000380023935576901,0,
00:00:06.136,0.00114637601654977,-0.00245946669019759,-5.29519638803322E-05,0,
00:00:06.14,-0.00415548076853156,-0.00184900173917413,-0.00232201046310365,0,
00:00:06.144,-0.0013052299618721,0.00366620463319123,0.00177137507125735,0,
00:00:06.148,0.00606438657268882,0.00546347489580512,0.0078136483207345,0,
00:00:06.152,0.00312072294764221,-0.00498699769377708,-0.00774893630295992,0,
00:00:06.156,-0.00525089493021369,0.00359197217039764,-0.0036628304515034,0,
00:00:06.16,-0.00120781792793423,-0.000422967714257538,0.002270512515679,0,
00:00:06.164,0.000537031446583569,-0.00172460929024965,-0.00399804953485727,0,
00:00:06.168,0.00295670493505895,0.00278930924832821,-0.00176226254552603,0,
00:00:06.172,-0.00141354091465473,-0.0105959922075272,0.0101641649380326,0,
00:00:06.176,-0.00568608613684773,0.000925124390050769,0.020638719201088,0,
00:00:06.18,0.00357771664857864,0.0113654537126422,-0.0188119616359472,0,
00:00:06.184,0.00592687772586942,0.00254013179801404,-0.0143912462517619,0,
00:00:06.188,-0.000787466007750481,-0.00738305645063519,0.00129676435608417,0,
00:00:06.192,-0.00275364401750267,-0.00272770901210606,-0.000729756429791451,0,
00:00:06.196,-0.00209967675618827,0.00019835215061903,0.0122430538758636,0,
00:00:06.2,-0.000625945685897022,0.00554621405899525,0.00234721577726305,0,
00:00:06.204,0.00260988366790116,0.00153033249080181,-0.00810390710830688,0,
