Elapsed Time,EMG1,EMG2,EMG3,BioRadio Event,
00:00:00,-0.265699863433838,-0.311367005109787,2.9808201789856,0,
00:00:00.004,0.25076550245285,0.300449937582016,-2.83863878250122,0,
00:00:00.008,0.210081040859222,0.242355793714523,-2.35599827766418,0,
00:00:00.012,0.0387329682707787,0.0253474619239569,-0.256736725568771,0,
00:00:00.016,-0.12413028627634,-0.130815446376801,1.21429526805878,0,
00:00:00.02,-0.142356351017952,-0.160429313778877,1.47812235355377,0,
00:00:00.024,-0.0790200680494308,-0.087314635515213,0.913119852542877,0,
00:00:00.028,0.0105553697794676,0.00885276682674885,0.113284043967724,0,
00:00:00.032,0.049286276102066,0.0498905666172504,-0.463456690311432,0,
00:00:00.036,0.0363583751022816,0.0386976636946201,-0.580044150352478,0,
00:00:00.04,0.0231237150728703,0.0348657071590424,-0.40353798866272,0,
00:00:00.044,0.0196515675634146,0.0151829905807972,-0.166969284415245,0,
00:00:00.048,-0.00321013806387782,0.000973481452092528,0.0602845028042793,0,
00:00:00.052,-0.0190854854881763,-0.00793671328574419,0.164659321308136,0,
00:00:00.056,-0.00424476014450192,-0.0149133894592524,0.161205604672432,0,
00:00:00.06,0.000599156599491835,-0.0130168441683054,0.0877980813384056,0,
00:00:00.064,-0.00961684715002775,-0.00345878209918737,-0.00446639023721218,0,
00:00:00.068,-0.000852901255711913,0.00418978463858366,-0.0456451326608658,0,
00:00:00.072,0.0128412917256355,0.00673157535493374,-0.0481829568743706,0,
00:00:00.076,-0.0129410848021507,0.00715579790994525,-0.0276093985885382,0,
00:00:00.08,0.0168646071106195,0.00599349197000265,-0.00501448940485716,0,
00:00:00.084,3.9196227589855E-05,-0.00656596757471561,-0.00771699426695704,0,
00:00:00.088,-0.0012816785601899,-0.00939695909619331,0.0113827101886272,0,
00:00:00.092,-0.016858858987689,-0.00133253179956228,0.0144078452140093,0,
00:00:00.096,-0.00322640268132091,0.0065751513466239,0.0197769124060869,0,
00:00:00.1,0.0400397032499313,0.0052832392975688,-0.00931524764746428,0,
00:00:00.104,-0.0267760213464499,-0.00939620658755302,0.00201118993572891,0,
00:00:00.108,-0.0064258873462677,-0.000824028509669006,-0.00873796548694372,0,
00:00:00.112,0.00355728273279965,-0.00187193800229579,0.012095533311367,0,
00:00:00.116,-0.0216317214071751,1.44457562782918E-05,-0.00407277466729283,0,
00:00:00.12,0.0119851315394044,0.00406984565779567,-0.016964003443718,0,
00:00:00.124,0.0202778652310371,-0.00134924449957907,-0.0083300294354558,0,
00:00:00.128,0.0145237660035491,0.0190591514110565,0.0135529767721891,0,
00:00:00.132,0.0108563937246799,0.00941994041204453,0.0137607324868441,0,
00:00:00.136,-0.010981279425323,-0.0111713986843824,-0.00105818139854819,0,
00:00:00.14,-0.0400227159261703,-0.0272184181958437,-0.00543169816955924,0,
00:00:00.144,-0.0115838162600994,-0.00748435314744711,-0.0043465974740684,0,
00:00:00.148,0.00675078947097063,-9.1152083768975E-05,0.000536268809810281,0,
00:00:00.152,0.0135969566181302,0.0103783775120974,-0.00123398436699063,0,
00:00:00.156,0.0178523492068052,0.0170792024582624,-0.00204952200874686,0,
00:00:00.16,0.00795453693717718,0.00848131068050861,0.00321802543476224,0,
00:00:00.164,-0.00476053450256586,0.000276644102996215,0.00310309301130474,0,
00:00:00.168,-0.00392095139250159,-0.0092846006155014,0.00936721079051495,0,
00:00:00.172,-0.0119968755170703,-0.00891359429806471,-0.00449748942628503,0,
00:00:00.176,-0.00344305927865207,-0.00413446454331279,-0.0161576792597771,0,
00:00:00.18,0.014677669852972,-0.00142893800511956,-0.00128699443303049,0,
00:00:00.184,-0.0098275188356638,0.00308757787570357,0.0057639735750854,0,
00:00:00.188,-0.0026108343154192,0.0110467150807381,0.00212708045728505,0,
00:00:00.192,0.0101594850420952,0.0039130705408752,0.00731643522158265,0,
00:00:00.196,-0.0213670134544373,-0.00765038002282381,0.0136729804798961,0,
00:00:00.2,0.00942389201372862,-0.0084138810634613,-0.0156990326941013,0,
00:00:00.204,0.0358136035501957,0.00676563335582614,-0.0103803463280201,0,
00:00:00.208,-0.0160228796303272,-0.0062069040723145,-0.00544751947745681,0,
00:00:00.212,-0.0221699588000774,0.0024614913854748,0.000103021156974137,0,
00:00:00.216,-0.00365152908489108,0.00419352250173688,0.0249472539871931,0,
00:00:00.22,0.00572073739022017,0.00453635770827532,0.0148041434586048,0,
00:00:00.224,0.00320690427906811,-0.00399113865569234,-0.0169006027281284,0,
00:00:00.228,0.00854956824332476,-0.00734603917226195,-0.0195454284548759,0,
00:00:00.232,0.00618453230708838,0.00775513472035527,-0.00891430489718914,0,
00:00:00.236,-0.00339798768982291,0.00701321242377162,0.0129442438483238,0,
00:00:00.24,-0.00585642782971263,-0.00513974670320749,0.00910772290080786,0,
00:00:00.244,-0.00617625983431935,-0.00810668710619211,0.000793437124229968,0,
00:00:00.248,-0.00326246046461165,-0.000597388541791588,0.000304295012028888,0,
00:00:00.252,0.00678502582013607,0.00461048446595669,-0.00164362450595945,0,
00:00:00.256,0.0179215725511312,0.000726604368537664,-0.00450573302805424,0,
00:00:00.26,-0.0107379695400596,-0.000175738561665639,0.000158634866238572,0,
00:00:00.264,-0.0160523429512978,0.00613942090421915,-0.0072330255061388,0,
00:00:00.268,2.46006147790467E-05,-0.00582097517326474,0.006492062471807,0,
00:00:00.272,0.00639894418418407,-0.00478232000023127,0.00450385268777609,0,
00:00:00.276,0.00606780452653766,-0.00255134096369147,0.00611884333193302,0,
00:00:00.28,-0.00345053127966821,0.000294626952381805,-0.000108123291283846,0,
00:00:00.284,0.00751770380884409,0.00232716742902994,-0.00467040296643972,0,
00:00:00.288,0.00282586296088994,0.0173882469534874,-0.00932469312101603,0,
00:00:00.292,-0.00325324316509068,0.00698898592963815,-0.00723754707723856,0,
00:00:00.296,-0.00553204072639346,-0.0138513697311282,0.0132391192018986,0,
00:00:00.3,-0.0124220158904791,-0.0196433551609516,0.00885858573019505,0,
00:00:00.304,0.0108869783580303,-0.00116842926945537,-0.000293902063276619,0,
00:00:00.308,-0.00231195637024939,0.00542102521285415,-0.0242878030985594,0,
00:00:00.312,0.00566151877865195,0.0121652884408832,0.00372120458632708,0,
00:00:00.316,-0.00097583670867607,0.00207691499963403,0.023973822593689,0,
00:00:00.32,-0.00113831635098904,-0.00130134611390531,0.000455569155747071,0,
00:00:00.324,0.0104271406307817,0.00023808135301806,-0.0101264659315348,0,
00:00:00.328,-0.00296296901069582,-0.00124394684098661,-0.00331399426795542,0,
00:00:00.332,-0.0177329368889332,-0.00220252457074821,-0.00339270383119583,0,
00:00:00.336,-0.00387637782841921,-0.00186291034333408,-0.00260193250142038,0,
00:00:00.34,0.0127253979444504,0.00131171755492687,0.00796242617070675,0,
00:00:00.344,0.00726662576198578,0.000406897888751701,-0.00187360099516809,0,
00:00:00.348,0.00112841604277492,-0.00482578109949827,0.000665738538373262,0,
00:00:00.352,-0.00475638080388308,-0.00105975510086864,0.00308409333229065,0,
00:00:00.356,0.000491882034111768,0.00271134311333299,-0.00365052511915565,0,
00:00:00.36,-0.00691239349544048,0.00782783888280392,-0.00201143906451762,0,
00:00:00.364,0.00182237266562879,0.00461972132325172,0.00492871692404151,0,
00:00:00.368,0.0112479394301772,-0.00269317580386996,-0.00191651389468461,0,
00:00:00.372,-0.0106988623738289,-0.0124090015888214,-0.00164186477195472,0,
00:00:00.376,-0.000855844933539629,-0.00749550620093942,0.00428791344165802,0,
00:00:00.38,-0.00254814908839762,0.00478538917377591,0.00135561020579189,0,
00:00:00.384,0.00518633192405105,0.0204801633954048,-0.00615288643166423,0,
00:00:00.388,-0.0026260323356837,-0.0126085551455617,0.00507719209417701,0,
00:00:00.392,-0.000206099546630867,0.0034573192242533,0.00562220206484199,0,
00:00:00.396,0.0171110723167658,-0.00204437063075602,-0.0401914231479168,0,
00:00:00.4,-0.00467186607420444,-0.00443558115512133,0.0200405716896057,0,
00:00:00.404,-0.0159908588975668,0.00112069875467569,0.0357742682099342,0,
00:00:00.408,-0.00243237405084074,0.00633438443765044,-0.00619722157716751,0,
00:00:00.412,0.00403016153723001,-0.00266903731971979,-0.0181700941175222,0,
00:00:00.416,-0.00123719940893352,-0.00529396254569292,-0.0046048741787672,0,
00:00:00.42,0.00892755296081305,-0.00111962947994471,-0.00628471514210105,0,
00:00:00.424,0.0178121291100979,0.00453442335128784,-0.00741444388404489,0,
00:00:00.428,-0.0167433507740498,0.00340810022316873,0.0200863629579544,0,
00:00:00.432,-0.00806043483316898,0.00675388984382153,0.0048224232159555,0,
00:00:00.436,-0.00197287159971893,-0.00535324867814779,0.00527370907366276,0,
00:00:00.44,-0.00464180903509259,-0.0151079082861543,0.00408302387222648,0,
00:00:00.444,0.00455377763137221,0.00243032537400723,-0.0147515870630741,0,
00:00:00.448,0.00701600313186646,0.00489226402714849,-0.0155637720599771,0,
00:00:00.452,0.00883965566754341,0.00480793742462993,-0.000135435024276376,0,
00:00:00.456,-0.00101947272196412,0.00472905766218901,0.0100804809480906,0,
00:00:00.46,-0.00725173810496926,0.000188103629625402,0.00651147123426199,0,
00:00:00.464,0.00131897430401295,-0.00313111441209912,0.00501857744529843,0,
00:00:00.468,-0.0128889000043273,-0.0099204545840621,0.002040941035375,0,
00:00:00.472,0.00299340696074069,0.00572808599099517,-0.0116739608347416,0,
00:00:00.476,0.0194025263190269,0.00677225645631552,0.010685701854527,0,
00:00:00.48,-0.00301279150880873,0.00427561579272151,-0.00756896194070578,0,
00:00:00.484,-0.0129579426720738,-0.0124571397900581,-0.00929966662079096,0,
00:00:00.488,-0.00413114996626973,-0.0101652853190899,-0.00143816682975739,0,
00:00:00.492,0.000112360445200466,0.00249872007407248,0.00685269944369793,0,
00:00:00.496,0.00432410463690758,0.00522754248231649,0.00833030603826046,0,
00:00:00.5,0.00920024514198303,0.00809572357684374,0.0107692005112767,0,
00:00:00.504,0.00736201042309403,0.00609733816236258,-0.0167927760630846,0,
00:00:00.508,-0.0151022579520941,-0.00488696619868279,-0.0237078443169594,0,
00:00:00.512,-0.00465291831642389,-0.00521547580137849,0.0166801176965237,0,
00:00:00.516,-0.00415219319984317,-0.00212941947393119,0.0217592064291239,0,
00:00:00.52,0.0246423408389091,0.000617237063124776,0.0120420251041651,0,
00:00:00.524,-0.00164909451268613,0.00174900179263204,-0.0179179348051548,0,
00:00:00.528,-0.0161117929965258,0.0056180227547884,-0.0149920955300331,0,
00:00:00.532,-0.0059865596704185,0.00282265804708004,-0.00983386114239693,0,
00:00:00.536,0.00249749305658042,-0.00742962490767241,-0.00398525735363364,0,
00:00:00.54,0.00582823483273387,-0.00587318232282996,0.0234110951423645,0,
00:00:00.544,0.00477616814896464,0.00519773550331593,0.0059835440479219,0,
00:00:00.548,0.0225493740290403,-0.00547856651246548,-0.00569971418008208,0,
00:00:00.552,-0.0289518013596535,-0.00988199934363365,0.00652578752487898,0,
00:00:00.556,-0.0086077032610774,0.0133704291656613,-0.00567268161103129,0,
00:00:00.56,0.00911426264792681,0.0177837759256363,0.000174322092789225,0,
00:00:00.564,0.000597670383285731,0.00271630217321217,-0.00409627519547939,0,
00:00:00.568,-0.00395441381260753,-0.0237301383167505,-0.00570658780634403,0,
00:00:00.572,0.00113963102921844,-0.00824495404958725,-0.00118572544306517,0,
00:00:00.576,0.0130366263911128,0.0120700122788548,0.00277765328064561,0,
00:00:00.58,0.0131292920559645,0.0106055969372392,0.0143268210813403,0,
00:00:00.584,-0.0289167631417513,-0.0079838652163744,-0.021612323820591,0,
00:00:00.588,-0.0110905887559056,-0.00875134579837322,0.00017271023534704,0,
00:00:00.592,0.014187429100275,-0.00274012796580791,0.0240180268883705,0,
00:00:00.596,0.0189061015844345,0.0111649120226502,0.00102247775066644,0,
00:00:00.6,-0.00057610374642536,0.0117418961599469,-0.0121754202991724,0,
00:00:00.604,-0.0130609460175037,-0.00165449560154229,0.00232556788250804,0,
00:00:00.608,-0.0086166774854064,-0.0138426423072815,-0.0042354054749012,0,
00:00:00.612,-0.002762570977211,-0.00513616716489196,-0.00808969885110855,0,
00:00:00.616,0.0145981526002288,0.00590621726587415,0.000880035280715674,0,
00:00:00.62,0.00713510764762759,0.00679325358942151,0.000627289235126227,0,
00:00:00.624,-0.0153738260269165,-0.0033102142624557,0.0146499164402485,0,
00:00:00.628,-0.0100134732201695,-0.00776740908622742,0.00362217705696821,0,
00:00:00.632,0.0176915843039751,-0.00112487841397524,-0.0150358667597175,0,
00:00:00.636,0.0126524548977613,0.00644134404137731,-0.00118122913409024,0,
00:00:00.64,-0.00417427066713572,0.0117003414779902,0.00334466644562781,0,
00:00:00.644,-0.0229198206216097,-0.000208665340323932,0.0133913746103644,0,
00:00:00.648,-0.00678122835233808,-0.00640996173024178,-0.0191892422735691,0,
00:00:00.652,0.0109358839690685,-0.00859076250344515,-0.0010010254336521,0,
00:00:00.656,0.0133553063496947,-0.00334391579963267,0.0101170176640153,0,
00:00:00.66,-0.00129975832533091,-0.000166810918017291,0.0120168467983603,0,
00:00:00.664,0.00294739846140146,0.00201517366804183,-0.0109565407037735,0,
00:00:00.668,-0.00746836513280869,0.00917726662009954,-0.0074670840986073,0,
00:00:00.672,0.00555866211652756,0.0153969582170248,-0.00157615239731967,0,
00:00:00.676,-0.00559369986876845,-0.0107499258592725,0.00659630401059985,0,
00:00:00.68,-0.00301827560178936,-0.0185533352196217,-0.00874281022697687,0,
00:00:00.684,-0.00922948494553566,0.000936351018026471,0.00498057901859283,0,
00:00:00.688,0.00230248249135911,0.00489282887428999,0.0109155382961035,0,
00:00:00.692,0.0180143099278212,0.00765125453472137,0.00340106431394815,0,
00:00:00.696,-0.00322524434886873,0.00568544398993254,-0.00808909628540277,0,
00:00:00.7,0.00682320399209857,0.00541067030280828,-0.000418327777879313,0,
00:00:00.704,-0.0057310676202178,-0.0106520634144545,-0.00549255544319749,0,
00:00:00.708,-0.0167473889887333,-0.0158892534673214,-0.00480286125093699,0,
00:00:00.712,-0.00138017919380218,0.000935112766455859,-0.00313574518077075,0,
00:00:00.716,0.00395322917029262,0.00345097878016531,0.0147863272577524,0,
00:00:00.72,0.00866951234638691,0.0088474340736866,0.0143469041213393,0,
00:00:00.724,0.00537564652040601,0.0104394946247339,-0.0121208894997835,0,
00:00:00.728,-0.00375680974684656,-0.000636941520497203,-0.0143606020137668,0,
00:00:00.732,0.0011212705867365,-0.00368496053852141,-0.00404092576354742,0,
00:00:00.736,0.00190165743697435,0.000628097215667367,0.0047228797338903,0,
00:00:00.74,-0.00181714189238846,-0.0104057900607586,0.0199313014745712,0,
00:00:00.744,0.00245047640055418,-0.0148924775421619,-0.00650616269558668,0,
00:00:00.748,-0.0110511872917414,0.00624248525127769,-0.014672196470201,0,
00:00:00.752,-0.0142922066152096,0.00915763434022665,0.00728054065257311,0,
00:00:00.756,0.0056891473941505,0.00735780317336321,0.00516029493883252,0,
00:00:00.76,0.0186283327639103,0.00712649011984468,0.00106820906512439,0,
00:00:00.764,0.00757352774962783,-0.00506502529606223,0.00446414807811379,0,
00:00:00.768,-7.71708073443733E-06,-0.00649480475112796,-0.00842617824673653,0,
00:00:00.772,-0.0105171203613281,0.000631936418358237,-0.000416489056078717,0,
00:00:00.776,-0.00767726497724652,0.00212765415199101,-0.0172699131071568,0,
00:00:00.78,-0.00358645478263497,-0.00329622440040112,-0.000273742771241814,0,
00:00:00.784,0.0151716414839029,-0.00309362052939832,0.0299546550959349,0,
00:00:00.788,0.00607575895264745,-0.00491180969402194,0.000662374892272055,0,
00:00:00.792,-0.0193683765828609,0.0010803104378283,-0.00816194526851177,0,
00:00:00.796,-0.00530868815258145,0.00927288085222244,0.00138336780946702,0,
00:00:00.8,0.0109479762613773,0.00526587618514895,-0.0104693034663796,0,
00:00:00.804,0.00171813240740448,-0.00687577668577433,-0.00140567123889923,0,
00:00:00.808,0.000434318062616512,-0.00213924515992403,0.00195377669297159,0,
00:00:00.812,0.000763070478569716,0.00702930148690939,-0.00178271322511137,0,
00:00:00.816,0.00274162739515305,0.0101897409185767,-0.00281982752494514,0,
00:00:00.82,0.0105514470487833,-0.0156758576631546,0.009599968791008,0,
00:00:00.824,-0.00988123286515474,-0.0181108247488737,0.0149027854204178,0,
00:00:00.828,-0.0189474765211344,-0.0011793146841228,-0.00573212979361415,0,
00:00:00.832,-0.00441482895985246,0.0152575662359595,-0.0126246688887477,0,
00:00:00.836,0.0188087653368711,0.0213191416114569,-0.0111338887363672,0,
00:00:00.84,0.0040739350952208,-0.00372684001922607,0.0106041161343455,0,
00:00:00.844,0.00180490920320153,-0.0119723295792937,0.0123466216027737,0,
00:00:00.848,-0.00926586892455816,-0.0071397558785975,-0.0241225082427263,0,
00:00:00.852,0.0219978224486113,0.0120809767395258,0.00818746536970139,0,
00:00:00.856,-0.00342320813797414,-4.12829249398783E-05,0.00511461077257991,0,
00:00:00.86,-0.0197267588227987,-0.00558724161237478,0.00603365711867809,0,
00:00:00.864,-0.0135954869911075,-0.0113549362868071,0.00629462627694011,0,
00:00:00.868,0.00290839280933142,0.00408999482169747,-0.00774975772947073,0,
00:00:00.872,0.00978593528270721,0.00209145899862051,0.0014889215817675,0,
00:00:00.876,0.00457302527502179,-0.00309446500614285,-0.00137963588349521,0,
00:00:00.88,0.00578857259824872,0.00488359574228525,-0.00623357575386763,0,
00:00:00.884,0.0003297793737147,0.0126491831615567,-0.00389078678563237,0,
00:00:00.888,0.00890994723886251,0.00176466954872012,-0.00191606185398996,0,
00:00:00.892,-0.011641738936305,-0.00715062348172069,0.000621195882558823,0,
00:00:00.896,-0.00339726614765823,-0.00449173292145133,0.00465374439954758,0,
00:00:00.9,0.00895604118704796,-0.000467391888378188,0.0115532958880067,0,
00:00:00.904,-0.018892165273428,-0.00266346102580428,0.00130241084843874,0,
00:00:00.908,-0.00650017242878675,0.00321100279688835,-0.0108998082578182,0,
00:00:00.912,0.00817752070724964,-0.00282176467590034,-0.0059200213290751,0,
00:00:00.916,0.0148371737450361,-0.00126184045802802,0.00952206179499626,0,
00:00:00.92,0.00650555035099387,0.00132392218802124,0.00510216597467661,0,
00:00:00.924,-0.00467081088572741,0.000329486501868814,-0.0123588936403394,0,
00:00:00.928,-0.00894133932888508,0.00177235505543649,-0.003649418707937,0,
00:00:00.932,-0.00242476793937385,0.00837725028395653,0.0117979114875197,0,
00:00:00.936,-0.00131325679831207,-0.00262715271674097,0.0039400402456522,0,
00:00:00.94,0.0140768485143781,-0.00701249204576015,-0.00243180990219116,0,
00:00:00.944,-0.0192848704755306,-0.00112861033994704,-0.00252630095928907,0,
00:00:00.948,0.00443869922310114,0.0032933964394033,-0.0116213820874691,0,
00:00:00.952,0.0163582097738981,-0.00254341424442828,0.00956285186111927,0,
00:00:00.956,-0.016519321128726,-0.000856407626997679,-0.00633102329447865,0,
00:00:00.96,0.0209256876260042,0.00565566448494792,-0.0123563911765814,0,
00:00:00.964,-0.00998192653059959,0.00451126880943775,0.0202716495841742,0,
00:00:00.968,-0.0200967229902744,-0.00773817067965865,0.0186294633895159,0,
00:00:00.972,0.00822159554809332,-0.00301539106294513,-0.0142373386770487,0,
00:00:00.976,-0.000302215659758076,-0.00159428350161761,0.0017562162829563,0,
00:00:00.98,0.0113440724089742,0.00601817993447185,-0.010167894884944,0,
00:00:00.984,-0.000339465594151989,0.00354464398697019,-0.00651874579489231,0,
00:00:00.988,0.0103046782314777,-0.00259794946759939,0.0106988148763776,0,
00:00:00.992,-0.00879069231450558,-0.00693130074068904,-0.00332641508430243,0,
00:00:00.996,-0.0179874282330275,0.00294671789743006,-0.00121943012345582,0,
00:00:01,0.0102862874045968,0.0038478325586766,-0.0058237761259079,0,
00:00:01.004,0.00444865273311734,0.00775233050808311,0.00913856737315655,0,
00:00:01.008,-0.00199125986546278,-0.00459493882954121,0.00609585782513022,0,
00:00:01.012,-0.00393113121390343,-0.0086130304262042,-0.0108165191486478,0,
00:00:01.016,0.0018928226782009,-0.0036209465470165,0.00567019265145063,0,
00:00:01.02,0.00274636712856591,-0.000321429630275816,-0.00226126494817436,0,
00:00:01.024,0.00140158692374825,-0.000123521967907436,-0.00358342844992876,0,
00:00:01.028,-0.00226432178169489,0.00901887938380241,0.0068369610235095,0,
00:00:01.032,0.00713465129956603,0.0126996990293264,0.0035582862328738,0,
00:00:01.036,0.00291375443339348,-0.0051816264167428,0.000493624771479517,0,
00:00:01.04,-0.0257344786077738,-0.00617334386333823,-0.00179686152841896,0,
00:00:01.044,-0.0106846848502755,0.00564713915809989,-0.0234637837857008,0,
00:00:01.048,0.0206239428371191,-0.00769842881709337,-0.00747195212170482,0,
00:00:01.052,0.041405513882637,-0.0199392959475517,0.0285145975649357,0,
00:00:01.056,-0.00588436843827367,0.00555189931765199,0.0312149245291948,0,
00:00:01.06,-0.0292540304362774,0.0122682973742485,-0.0100159300491214,0,
00:00:01.064,-0.0131771685555577,0.0127720208838582,-0.0360308922827244,0,
00:00:01.068,-0.0163813438266516,-0.00607002200558782,0.000598942511714995,0,
00:00:01.072,0.0121907703578472,-0.00217963987961411,0.00167050631716847,0,
00:00:01.076,0.0154718076810241,-0.00151348079089075,0.000354984193108976,0,
00:00:01.08,0.00646046549081802,-0.00344125414267182,0.00701520359143615,0,
00:00:01.084,0.0130397258326411,0.00313544669188559,0.0128685254603624,0,
00:00:01.088,0.00455438904464245,0.0014845950063318,-0.00103335722815245,0,
00:00:01.092,-0.0220485050231218,-0.00522706331685185,-0.00792087987065315,0,
00:00:01.096,-0.0130634736269712,-0.00638339063152671,-0.00102522526867688,0,
00:00:01.1,-0.000910315313376486,0.00767905404791236,-0.00246925954706967,0,
00:00:01.104,0.0105714155361056,0.0128223178908229,-0.00300397421233356,0,
00:00:01.108,0.00563411880284548,-0.000487436074763536,0.0048627108335495,0,
00:00:01.112,0.00138167897239327,-0.0136138964444399,-0.00290985545143485,0,
00:00:01.116,0.00292053469456732,-0.00966425333172083,0.0100432597100735,0,
00:00:01.12,-0.0039249393157661,0.00320783024653792,0.0031470984686166,0,
00:00:01.124,-0.0172312092036009,0.0137825170531869,-0.017043923959136,0,
00:00:01.128,0.00309669529087842,0.00410021143034101,0.000744928489439189,0,
00:00:01.132,0.0221691653132439,-0.000748379738070071,-0.00123118213377893,0,
00:00:01.136,-0.000242930793319829,-0.0132535649463534,-0.0072653079405427,0,
00:00:01.14,-0.00965133588761091,-0.00569488340988755,0.0255008321255445,0,
00:00:01.144,-0.00653561344370246,0.00746781472116709,0.00850943941622972,0,
00:00:01.148,-0.000796936044935137,0.00721109798178077,-0.00599800003692508,0,
00:00:01.152,-0.00749374274164438,0.00453373603522778,-0.0112008256837726,0,
00:00:01.156,0.0320935286581516,-0.00778029160574079,-0.0106723057106137,0,
00:00:01.16,0.00297529669478536,0.00528096407651901,-0.00289362226612866,0,
00:00:01.164,-0.0255608092993498,-0.00131597521249205,0.00160310545470566,0,
00:00:01.168,-0.00890686735510826,-0.00457619875669479,0.00588927883654833,0,
00:00:01.172,0.00410106219351292,-0.0142482472583652,0.0144795840606093,0,
00:00:01.176,0.00233776750974357,-0.00172493420541286,0.00176646723411977,0,
00:00:01.18,-0.00221627112478018,0.0213773399591446,-0.0145014002919197,0,
00:00:01.184,0.00176357221789658,0.00735947536304593,-0.00994946900755167,0,
00:00:01.188,0.017286641523242,-0.0092403469607234,0.00580350263044238,0,
00:00:01.192,0.0197409130632877,-0.00514992978423834,0.0186335705220699,0,
00:00:01.196,-0.0312449745833874,0.00318567361682653,-0.00122878234833479,0,
00:00:01.2,-0.00818741135299206,0.00365990726277232,-0.0123030124232173,0,
00:00:01.204,0.0020507606677711,-0.00741046853363514,-0.00704705202952027,0,
00:00:01.208,0.00676386849954724,-6.75675764796324E-05,0.00480923522263765,0,
00:00:01.212,-0.000516905158292502,-0.00272776302881539,0.00298691191710532,0,
00:00:01.216,0.00162097858265042,-0.00136437814217061,0.00167008768767118,0,
00:00:01.22,0.00306736933998764,0.00315211783163249,0.000534866820089519,0,
00:00:01.224,-0.00214898935519159,0.00892004184424877,0.00387503090314567,0,
00:00:01.228,-0.00456347176805139,0.00553055293858051,-0.00043721086694859,0,
00:00:01.232,-0.00943057425320148,-0.00245404243469238,-0.0119855348020792,0,
00:00:01.236,0.0181387271732092,-0.00449705775827169,-0.00210229447111487,0,
00:00:01.24,0.0201000161468983,-0.00776654202491045,-0.00799325946718454,0,
00:00:01.244,-0.0239221770316362,-0.00612317724153399,0.0300727318972349,0,
00:00:01.248,-0.0207689795643091,-0.00143390835728496,0.00567953335121274,0,
00:00:01.252,0.00447608577087522,0.0111588127911091,-0.0123669784516096,0,
00:00:01.256,0.0115258907899261,0.00512405391782522,-0.00913449190557003,0,
00:00:01.26,-0.00188636709935963,-0.00829591974616051,-0.00167716841679066,0,
00:00:01.264,0.00605425704270601,-0.000904569926206023,-0.00326337013393641,0,
00:00:01.268,0.0326078198850155,0.0097389155998826,0.00126451335381716,0,
00:00:01.272,-0.00754827400669456,0.00407047104090452,0.0147185446694493,0,
00:00:01.276,-0.0373204946517944,-0.0050628618337214,0.000578531005885452,0,
00:00:01.28,-0.0274494811892509,-0.00597688555717468,-0.0162010975182056,0,
00:00:01.284,0.0168395452201366,-0.00516740325838327,0.00200744764879346,0,
00:00:01.288,0.0257063154131174,0.00215321057476103,0.00340459565632045,0,
00:00:01.292,0.0092302318662405,0.00576644297689199,0.00090299837756902,0,
00:00:01.296,0.000806816387921572,-0.00163728278130293,0.00135902140755206,0,
00:00:01.3,-0.00367856258526444,-0.00123024871572852,0.00767179345712066,0,
00:00:01.304,-0.011411395855248,-0.00150349165778607,-0.00106040015816689,0,
00:00:01.308,-0.00265361997298896,0.0137519454583526,-0.00913013331592083,0,
00:00:01.312,-0.00400905357673764,0.00320638902485371,-0.0130011085420847,0,
00:00:01.316,0.00483717722818255,-0.0197745785117149,0.0174053367227316,0,
00:00:01.32,0.00633972976356745,-0.0126199973747134,0.00900273490697145,0,
00:00:01.324,-0.00701330695301294,0.00919195916503668,-0.0080556096509099,0,
00:00:01.328,0.00110384915024042,0.0137227736413479,-0.00322109251283109,0,
00:00:01.332,0.0028953836299479,0.00598536059260368,-0.00361544918268919,0,
00:00:01.336,-0.000348696339642629,-0.00831161811947823,-0.00273448415100574,0,
00:00:01.34,-0.000108171443571337,-0.00399192608892918,0.0141284959390759,0,
00:00:01.344,0.00461653480306268,0.00170422019436955,-0.0161705818027258,0,
00:00:01.348,0.00069849583087489,0.00770324934273958,-0.00268704816699028,0,
00:00:01.352,-0.00503481412306428,-0.00807049404829741,0.017011372372508,0,
00:00:01.356,-0.00382180232554674,-0.00395082542672753,0.00867577735334635,0,
00:00:01.36,-0.00276844948530197,-0.00195627217181027,-0.00315408548340201,0,
00:00:01.364,0.00979132484644651,0.00424342835322022,-0.0150028644129634,0,
00:00:01.368,-0.0062328721396625,0.00611513666808605,-0.00584397790953517,0,
00:00:01.372,0.000748685444705188,0.00370031176134944,-0.00247948872856796,0,
00:00:01.376,-0.0100978054106236,-0.00840836018323898,0.0109671130776405,0,
00:00:01.38,0.01743776910007,-0.00528241507709026,0.00782845355570316,0,
00:00:01.384,0.0183599479496479,0.0067559527233243,-0.00118226022459567,0,
00:00:01.388,-0.00873506627976894,-0.00218038121238351,-0.00170512043405324,0,
00:00:01.392,-0.0263553615659475,0.00289832637645304,-0.00493727205321193,0,
00:00:01.396,-0.013374051079154,-0.0027475873939693,-0.00477736117318273,0,
00:00:01.4,0.0139690535143018,0.00304435309953988,0.00435634050518274,0,
00:00:01.404,0.00886566564440727,-0.00275485403835773,0.0120080150663853,0,
00:00:01.408,0.00619628187268972,-0.0075542121194303,-0.0238781832158566,0,
00:00:01.412,0.01735794916749,0.0151772489771247,0.00358603685162961,0,
00:00:01.416,-0.00812293123453856,0.00715759163722396,0.0103273056447506,0,
00:00:01.42,-0.0220942329615355,-0.0146880634129047,0.00881567969918251,0,
00:00:01.424,-0.00300093530677259,-0.00549031561240554,0.00706324446946383,0,
00:00:01.428,0.00722230924293399,0.0028015268035233,-0.00661467248573899,0,
00:00:01.432,0.00410344311967492,-0.00281176762655377,-0.0272479522973299,0,
00:00:01.436,-0.000183582000317983,0.00540088908746839,0.0126284500584006,0,
00:00:01.44,0.000188258141861297,0.00255058333277702,0.00767386751249433,0,
00:00:01.444,0.0050591854378581,0.00101149512920529,-0.00307929236441851,0,
00:00:01.448,0.00725671323016286,0.00197044131346047,-0.00282063218764961,0,
00:00:01.452,-0.0233427658677101,0.00345777068287134,-0.00614385399967432,0,
00:00:01.456,0.00295082177035511,-0.00231801881454885,0.00787211768329144,0,
00:00:01.46,0.0187603104859591,-0.00970813352614641,0.00903313886374235,0,
00:00:01.464,-0.00698394048959017,-0.00694342982023954,0.00164468702860177,0,
00:00:01.468,-0.0123390080407262,-0.000687397667206824,-0.00214808993041515,0,
00:00:01.472,0.00395379075780511,0.0123925749212503,-0.00970113463699818,0,
00:00:01.476,0.0104351695626974,0.00796602386981249,-0.00751493638381362,0,
00:00:01.48,-0.00709624961018562,-0.00405465485528111,0.00887964852154255,0,
00:00:01.484,0.00417562341317534,-0.00696294149383903,0.00811599660664797,0,
00:00:01.488,0.00850955583155155,0.00195758487097919,-0.0230141989886761,0,
00:00:01.492,-0.0179439727216959,0.00223375717177987,0.00604488747194409,0,
00:00:01.496,0.00574276968836784,0.00643490115180612,0.0163591634482145,0,
00:00:01.5,-0.0051252762787044,-0.00301476498134434,0.00122491188813001,0,
00:00:01.504,0.00320365000516176,-0.00823401380330324,0.00297289621084929,0,
00:00:01.508,2.46700237767072E-05,-0.0107247410342097,-0.00492008915171027,0,
00:00:01.512,0.0101414639502764,0.00244523771107197,0.00193252961616963,0,
00:00:01.516,0.00107627175748348,0.0104127330705523,-0.0138757703825831,0,
00:00:01.52,-0.00649743061512709,0.00951858051121235,-0.0154657131060958,0,
00:00:01.524,-0.00943550746887922,-0.000506276439409703,0.0209456346929073,0,
00:00:01.528,0.0149794910103083,-0.00659133167937398,0.00838353205472231,0,
00:00:01.532,-0.0111337546259165,-0.00441685598343611,0.00360984937287867,0,
00:00:01.536,-0.0154068758711219,0.00767015060409904,-0.0207577329128981,0,
00:00:01.54,0.0102127715945244,-0.0103051736950874,0.000300029903883114,0,
00:00:01.544,0.0282330513000488,-0.000459776056231931,0.0135812778025866,0,
00:00:01.548,-0.00893019232898951,0.00801492854952812,0.00432286178693175,0,
00:00:01.552,-0.0146049633622169,0.00196401658467948,-0.00488760648295283,0,
00:00:01.556,0.0259586330503225,0.00478900643065572,-0.00531072681769729,0,
00:00:01.56,-0.0198908802121878,-0.00823357608169317,0.00802056584507227,0,
00:00:01.564,-0.022002337500453,-0.00652260705828667,-0.0259259287267923,0,
00:00:01.568,0.00549640832468867,-0.000935245247092098,0.00956498924642801,0,
00:00:01.572,0.00996715482324362,-0.00112696667201817,0.0161959771066904,0,
00:00:01.576,-0.000151241169078276,0.00577360251918435,0.00459635863080621,0,
00:00:01.58,0.0155158685520291,0.0098778186365962,0.000862514309119433,0,
00:00:01.584,-0.000303707434795797,0.00053818617016077,-0.00981634203344584,0,
00:00:01.588,0.000506862299516797,-0.00204561068676412,-0.00777795538306236,0,
00:00:01.592,-0.00284846918657422,-0.00236447341740131,-0.004010452888906,0,
00:00:01.596,-0.0215037763118744,-0.0102585386484861,0.0107707409188151,0,
00:00:01.6,-0.00100133696105331,-0.00379966385662556,-0.00232917466200888,0,
00:00:01.604,0.0145009150728583,0.00537856761366129,-0.00596439884975553,0,
00:00:01.608,0.00887018349021673,0.00614870153367519,0.00725529389455915,0,
00:00:01.612,-0.00441401218995452,0.00521820364519954,0.00807565543800592,0,
00:00:01.616,-0.00559754576534033,-0.00215423968620598,0.000895137956831604,0,
00:00:01.62,-0.00038120339740999,-0.00784503016620874,-0.00242624199017882,0,
00:00:01.624,-0.00962356757372618,0.00155009294394404,-0.00955834053456783,0,
00:00:01.628,0.00417586276307702,0.00279668788425624,-0.00717053655534983,0,
00:00:01.632,0.0184140671044588,0.00324652809649706,0.00297584338113666,0,
00:00:01.636,-0.00236078794114292,-0.00455795368179679,0.00176405522506684,0,
00:00:01.64,-0.00515507301315665,-0.000877095968462527,0.016614330932498,0,
00:00:01.644,-0.0048082172870636,0.00254273926839232,-0.00538347847759724,0,
00:00:01.648,-0.000474980886792764,0.000754346547182649,-0.00327508267946541,0,
00:00:01.652,-0.00206724787130952,-0.00529984198510647,-0.00270804297178984,0,
00:00:01.656,-0.00644304556772113,-0.00391313713043928,-0.00799095723778009,0,
00:00:01.66,0.00747727043926716,0.00822826474905014,0.00129580125212669,0,
00:00:01.664,0.0131734823808074,0.00528529472649097,0.0094569893553853,0,
00:00:01.668,-0.00401079468429089,-0.000464896816993132,0.00693765329197049,0,
00:00:01.672,-0.00502168387174606,-0.00373326474800706,-0.00736789172515273,0,
00:00:01.676,-0.0143343200907111,-0.00789059791713953,-0.0123380096629262,0,
00:00:01.68,0.0123776560649276,3.19860664603766E-05,0.0132377557456493,0,
00:00:01.684,0.00268689380027354,0.00551113393157721,0.00372181553393602,0,
00:00:01.688,-0.0133171984925866,-0.000679593242239207,-0.00675888638943434,0,
00:00:01.692,0.0208603609353304,0.00197634333744645,-0.00456566736102104,0,
00:00:01.696,0.0075325034558773,0.00130479712970555,0.00841663032770157,0,
00:00:01.7,-0.0254613775759935,-0.00430049235001206,-0.00296252919360995,0,
00:00:01.704,0.00186610466334969,0.00495405588299036,-0.00141882651951164,0,
00:00:01.708,-0.000106533436337486,0.000147108512464911,-0.0047937142662704,0,
00:00:01.712,0.012794965878129,9.501234308118E-05,-0.00855677574872971,0,
00:00:01.716,-0.00822157599031925,-0.00601267581805587,0.0196422189474106,0,
00:00:01.72,-0.00337166874669492,0.00150188198313117,0.00676365150138736,0,
00:00:01.724,0.00373073550872505,-0.00240076123736799,-0.00347669492475688,0,
00:00:01.728,0.00573417078703642,0.00212953751906753,-0.00931056030094624,0,
00:00:01.732,0.00539490627124906,0.00452336855232716,-0.0037353876978159,0,
00:00:01.736,-0.0231322962790728,-0.000884286826476455,-0.00656912056729198,0,
00:00:01.74,0.00479687843471766,-0.00608429545536637,0.00112694804556668,0,
00:00:01.744,0.0206084866076708,0.000727591919712722,0.0168622117489576,0,
00:00:01.748,-0.00411256076768041,0.0114088235422969,0.00498323142528534,0,
00:00:01.752,-0.00636873953044415,-0.00129646458663046,-0.0128748212009668,0,
00:00:01.756,-0.00866001006215811,-0.00776733877137303,-0.0038234714884311,0,
00:00:01.76,0.00258962041698396,-0.006767638027668,0.000953094218857586,0,
00:00:01.764,0.0105854962021112,0.00415359018370509,0.000340137456078082,0,
00:00:01.768,-0.00355400587432086,0.00261129555292428,0.00802396889775991,0,
00:00:01.772,-0.00285184592939913,-0.00449774134904146,-0.00162300525698811,0,
00:00:01.776,-0.0121122766286135,0.00672474503517151,0.000719665142241865,0,
00:00:01.78,0.00325219961814582,-0.00135431496892124,0.00239375187084079,0,
00:00:01.784,0.0230550449341536,0.00381079805083573,-0.0298853274434805,0,
00:00:01.788,0.000997686991468072,0.012002794072032,0.0202580597251654,0,
00:00:01.792,-0.0155213922262192,0.0031679212115705,0.00283120130188763,0,
00:00:01.796,-0.00564162991940975,-0.0207604840397835,0.00498734414577484,0,
00:00:01.8,-0.00390650238841772,-0.0228644069284201,0.00818138383328915,0,
00:00:01.804,0.00464313849806786,0.00475387740880251,0.000893396732863039,0,
00:00:01.808,0.00603243336081505,0.0144303711131215,-0.0180119648575783,0,
00:00:01.812,-0.000584350083954632,0.00772298313677311,-0.00581121910363436,0,
00:00:01.816,0.00429463898763061,0.00842717569321394,0.00843752641230822,0,
00:00:01.82,0.00567885115742683,0.00332411006093025,-0.000754977168980986,0,
00:00:01.824,-0.00790774822235107,-0.00872095115482807,-0.000579690735321492,0,
00:00:01.828,-0.0128412758931518,-0.00595478061586618,-0.000732964952476323,0,
00:00:01.832,0.0149717926979065,-0.00502329878509045,-0.00836285948753357,0,
00:00:01.836,0.00794407166540623,0.00379528687335551,0.029532527551055,0,
00:00:01.84,-0.0265358090400696,0.00313630932942033,-0.00555570749565959,0,
00:00:01.844,0.00461599929258227,-0.00163622538093477,-0.0140979532152414,0,
00:00:01.848,0.0148299913853407,-0.00134542991872877,-0.00274021364748478,0,
00:00:01.852,0.00214301724918187,-0.0019397473661229,0.00173759669996798,0,
00:00:01.856,-0.00543902395293117,-0.0011128350161016,0.00453428737819195,0,
00:00:01.86,-0.00409250753000379,0.00460737431421876,0.00372432637959719,0,
00:00:01.864,0.00135840382426977,0.00599519815295935,-0.00522923562675714,0,
00:00:01.868,0.00370638561435044,0.00525521859526634,-0.00594883179292083,0,
00:00:01.872,-0.0015472344821319,-0.00275291409343481,0.00391411827877164,0,
00:00:01.876,-0.00839394237846136,-0.0112338615581393,0.00193746876902878,0,
00:00:01.88,0.0153618548065424,-0.00839132722467184,-0.000978940632194281,0,
00:00:01.884,-0.0025146275293082,0.00480717187747359,0.0107269296422601,0,
00:00:01.888,-0.00451995199546218,0.00442001689225435,-0.00843595154583454,0,
00:00:01.892,-0.0164115522056818,-0.000734708039090037,-0.0214517191052437,0,
00:00:01.896,0.0122326370328665,0.00767528358846903,0.0195575281977654,0,
00:00:01.9,0.00433543231338263,0.00537011492997408,0.0175875797867775,0,
00:00:01.904,-0.00721306446939707,-0.00844456814229488,-0.00944095849990845,0,
00:00:01.908,0.00765426736325026,-0.00863153673708439,0.00168426404707134,0,
00:00:01.912,0.00998749770224094,0.00313917500898242,-0.00949146039783955,0,
00:00:01.916,0.000146135556860827,0.0087858634069562,-0.0114894444122911,0,
00:00:01.92,-0.00285354000516236,0.000346217217156664,0.000658903445582837,0,
00:00:01.924,-0.0304443296045065,-0.0118796648457646,0.00448360620066524,0,
00:00:01.928,-0.00018538445874583,0.00432271743193269,0.00645801844075322,0,
00:00:01.932,0.0243793074041605,0.00286325672641397,0.00907500181347132,0,
00:00:01.936,0.0102285435423255,0.00101752544287592,-0.00026260910090059,0,
00:00:01.94,0.000672315538395196,-0.000318401289405301,-0.000334848533384502,0,
00:00:01.944,-0.0108165396377444,-0.00293094734661281,-0.00848244410008192,0,
00:00:01.948,-0.00822297018021345,-0.00292241433635354,-0.00570447603240609,0,
00:00:01.952,0.000181221810635179,0.00318035995587707,-0.00251693418249488,0,
00:00:01.956,0.00281277881003916,0.00964573118835688,0.00498517649248242,0,
00:00:01.96,0.00456981873139739,0.00577272288501263,0.00734926806762815,0,
00:00:01.964,0.00540485978126526,-0.013446188531816,0.000502836890518665,0,
00:00:01.968,-0.00969883147627115,-0.0102890096604824,-0.00204639555886388,0,
00:00:01.972,-0.00170705211348832,-0.00136742601171136,-2.40338940784568E-05,0,
00:00:01.976,-0.0131430262699723,0.00486813113093376,0.00106969405896962,0,
00:00:01.98,0.0135886054486036,0.00621043099090457,-0.00358353438787162,0,
00:00:01.984,0.0270735938102007,0.00196451763622463,-0.0173630975186825,0,
00:00:01.988,-0.0128412079066038,0.00280224881134927,0.0113135781139135,0,
00:00:01.992,-0.0160617362707853,-0.00196297676302493,0.0106934234499931,0,
00:00:01.996,-0.0043863789178431,-0.000159650488058105,0.0149386087432504,0,
00:00:02,0.00075735425343737,0.00107069802470505,-0.00494138151407242,0,
00:00:02.004,0.00705684488639236,-0.00356921926140785,-0.0203795358538628,0,
00:00:02.008,0.00136436382308602,-0.00292225857265294,-0.00575768621638417,0,
00:00:02.012,0.00134664564393461,-0.00478076282888651,0.00122524169273674,0,
00:00:02.016,0.011894766241312,0.00718605285510421,0.00819802284240723,0,
00:00:02.02,-0.00703769037500024,0.00302650174126029,0.0189420450478792,0,
00:00:02.024,-0.00223709200508893,-1.26543900478282E-05,-0.00779383629560471,0,
00:00:02.028,-0.00117293605580926,-0.00557523919269443,-0.0238411240279675,0,
00:00:02.032,-0.0178099554032087,0.00455526635050774,0.00209360825829208,0,
00:00:02.036,-0.00193270924501121,0.00466048810631037,0.0126211298629642,0,
00:00:02.04,0.017841100692749,-0.007355488371104,0.0105964690446854,0,
00:00:02.044,0.00556668825447559,-0.00482173264026642,-0.00091368320863694,0,
00:00:02.048,0.0105129908770323,0.00464135268703103,-0.00348530034534633,0,
00:00:02.052,0.000586844340432435,0.00371587765403092,-0.00920622143894434,0,
00:00:02.056,-0.0223816577345133,-0.00166515330784023,-1.85939406947E-05,0,
00:00:02.06,-0.0103736398741603,-0.00183667265810072,-0.000219385037780739,0,
00:00:02.064,0.00244147935882211,-0.000474880711408332,0.00114360940642655,0,
00:00:02.068,0.01274489518255,0.00269360234960914,0.00394435739144683,0,
00:00:02.072,0.00813725870102644,-0.00105296750552952,-0.00249900878407061,0,
00:00:02.076,-0.00352872535586357,-0.00309608341194689,-0.00108102383092046,0,
00:00:02.08,-0.00426157098263502,-0.000156766269356012,0.00532390689477324,0,
00:00:02.084,-0.0016931239515543,0.00212684366852045,0.0124975396320224,0,
00:00:02.088,-0.00775494240224361,-0.00179005821701139,-0.0220864042639732,0,
00:00:02.092,0.021727466955781,0.0155346775427461,-0.0141327641904354,0,
00:00:02.096,0.00613127928227186,0.00151457218453288,0.0104275615885854,0,
00:00:02.1,-0.0146208656951785,-0.0168108846992254,0.0326138772070408,0,
00:00:02.104,-0.0190686341375113,-0.010303720831871,-0.00414029648527503,0,
00:00:02.108,-0.00396798457950354,0.000692282628733665,-0.0190889649093151,0,
00:00:02.112,0.0105934580788016,0.0111939245834947,-0.0114824660122395,0,
00:00:02.116,0.0118614267557859,0.00542726973071694,0.00410300400108099,0,
00:00:02.12,0.0104196099564433,0.000701971759553999,0.00270736264064908,0,
00:00:02.124,0.0124600837007165,-0.00404209783300757,0.00812444090843201,0,
00:00:02.128,-0.0293729957193136,-0.000572865072172135,0.012226496823132,0,
00:00:02.132,-0.0225552245974541,-0.000121532022603787,-0.025704761967063,0,
00:00:02.136,0.022501302883029,0.0017025739653036,-0.000670975015964359,0,
00:00:02.14,0.00696402695029974,-0.000356146367266774,0.0171008724719286,0,
00:00:02.144,0.00678518554195762,-0.0101123014464974,0.00623958604410291,0,
00:00:02.148,-0.00326085649430752,0.00619948282837868,-0.00547628337517381,0,
00:00:02.152,-0.0104630952700973,0.00383568345569074,-0.00508925039321184,0,
00:00:02.156,-0.00480743963271379,0.003103963797912,-0.00808730814605951,0,
00:00:02.16,0.00597834074869752,-0.00282716448418796,0.00430705118924379,0,
00:00:02.164,0.000888245063833892,-0.00309580587781966,0.00177469837944955,0,
00:00:02.168,0.000879588129464537,-0.00128660234622657,-0.00165194005239755,0,
00:00:02.172,0.00547652738168836,-0.00370603753253818,-0.00014170803478919,0,
00:00:02.176,-0.00710039492696524,0.00310711725614965,0.00149790523573756,0,
00:00:02.18,0.00707695633172989,0.00843974016606808,-0.000272720208158717,0,
00:00:02.184,-0.00146944168955088,0.00468338606879115,0.0113196521997452,0,
00:00:02.188,0.000512558966875076,-0.00718318205326796,-0.0104081677272916,0,
00:00:02.192,-0.010529201477766,-0.0109180053696036,-0.013518126681447,0,
00:00:02.196,0.00446728430688381,0.00172173255123198,0.0149024734273553,0,
00:00:02.2,0.00215269951149821,0.0111709544435143,0.00842525996267796,0,
00:00:02.204,-0.00589682487770915,0.00381154706701636,-0.00486501306295395,0,
00:00:02.208,0.00752005726099014,-0.0141336675733328,-0.00166372302919626,0,
00:00:02.212,-0.00377586088143289,-0.00877548567950726,-0.00434821797534823,0,
00:00:02.216,-0.00157281046267599,0.0095668351277709,0.00169600814115256,0,
00:00:02.22,0.0145446425303817,0.00966810807585716,-0.00370901497080922,0,
00:00:02.224,-0.00239137746393681,0.00340622314251959,-0.00144967110827565,0,
00:00:02.228,-0.0241169035434723,-0.00218825554475188,-0.000466027238871902,0,
00:00:02.232,0.00810647755861282,-0.00237521785311401,0.00481730233877897,0,
00:00:02.236,0.0219488218426704,-0.00774614466354251,0.00800440646708012,0,
00:00:02.24,-0.00928346998989582,-0.00535011477768421,-0.0113320183008909,0,
00:00:02.244,-0.00840707961469889,0.00588883552700281,0.00531558599323034,0,
00:00:02.248,-0.000622925581410527,0.014092524535954,2.41523866861826E-05,0,
00:00:02.252,0.00405404670163989,-0.00175128306727856,0.00524801202118397,0,
00:00:02.256,-5.55577207705937E-05,-0.0180032234638929,-0.000249385862844065,0,
00:00:02.26,0.00756961898878217,-0.00264331535436213,-0.0129333976656199,0,
00:00:02.264,-0.0122747290879488,0.00791129842400551,0.00505482265725732,0,
00:00:02.268,-0.00437416136264801,0.00514227291569114,-0.00407541077584028,0,
00:00:02.272,0.00297126010991633,0.00249227043241262,-0.000759580463636667,0,
00:00:02.276,0.0076931300573051,0.00424816040322185,0.00538094760850072,0,
00:00:02.28,0.000176851055584848,-0.00120968255214393,0.00649112369865179,0,
00:00:02.284,0.00985178910195827,-0.00487763527780771,-0.00289918016642332,0,
00:00:02.288,-0.00150234962347895,-0.00269182096235454,0.00509838573634624,0,
00:00:02.292,-0.0158696137368679,-0.00841515883803368,-0.00890739541500807,0,
00:00:02.296,-0.0033730638679117,-0.00348229752853513,-0.0120771694928408,0,
00:00:02.3,0.00531581090763211,0.00897768046706915,0.0105681074783206,0,
00:00:02.304,0.00280637131072581,0.00819468684494495,0.00926521606743336,0,
00:00:02.308,0.00163581396918744,0.00486175622791052,-0.000458976399386302,0,
00:00:02.312,-0.00136603065766394,-0.00387835153378546,-0.00399390701204538,0,
00:00:02.316,-0.00016360184235964,-0.00336592574603856,-0.00562946312129498,0,
00:00:02.32,0.00724275643005967,-0.00740560237318277,0.00670006545260549,0,
00:00:02.324,-0.0027531364466995,-0.000190382736036554,-0.00180548906791955,0,
00:00:02.328,-0.00647256569936872,0.00489928340539336,-0.00953833665698767,0,
00:00:02.332,-0.000423338089603931,0.000883539498317987,0.000149632760439999,0,
00:00:02.336,0.001718680257909,-0.000160040610353462,0.00935178436338902,0,
00:00:02.34,-0.00247740582562983,-0.000172431493410841,0.00335200875997543,0,
00:00:02.344,0.006811389233917,-1.22717037811526E-05,0.00139424833469093,0,
00:00:02.348,0.00123375630937517,-0.00825224258005619,-0.00432332372292876,0,
00:00:02.352,0.00857516285032034,0.00583848496899009,-0.00172936532180756,0,
00:00:02.356,-0.0226426441222429,0.0126410322263837,-0.00530916685238481,0,
00:00:02.36,0.000167117730597965,0.00660953996703029,-0.00295336777344346,0,
00:00:02.364,0.0112282736226916,-0.014467098750174,0.0112479776144028,0,
00:00:02.368,-0.0106840115040541,-0.0160794164985418,0.00171981216408312,0,
00:00:02.372,0.00621436815708876,-0.00278471270576119,0.0019525708630681,0,
00:00:02.376,0.0307916887104511,0.0137964431196451,-0.0107359196990728,0,
00:00:02.38,-0.0121804196387529,0.0144101493060589,-0.00704109342768788,0,
00:00:02.384,-0.0255740359425545,-0.00425705732777715,0.0108031863346696,0,
00:00:02.388,-0.0149807883426547,-0.00956849940121174,0.00775803066790104,0,
00:00:02.392,-0.003397136926651,-0.00645268755033612,0.0105808563530445,0,
00:00:02.396,0.0624241232872009,0.00955594331026077,-0.0289019960910082,0,
00:00:02.4,-0.0112293800339103,-0.000376751268049702,-0.00346623244695365,0,
00:00:02.404,-0.0265673231333494,-0.00347856944426894,0.0139485541731119,0,
00:00:02.408,-0.0114329289644957,0.00397083768621087,0.00679727271199226,0,
00:00:02.412,0.0043542324565351,0.004684385843575,-0.00236991210840642,0,
00:00:02.416,0.00444020889699459,0.00168565905187279,-0.00185173330828547,0,
00:00:02.42,0.0184621419757605,-0.00783707667142153,-0.00840118806809187,0,
00:00:02.424,-0.00903911236673594,-0.00563678378239274,0.00213418039493263,0,
00:00:02.428,-0.00187521334737539,-0.000561619817744941,0.00417757406830788,0,
00:00:02.432,0.00590995978564024,0.000801537302322686,0.00244859117083251,0,
00:00:02.436,-0.00847445800900459,0.00552513496950269,0.00632496783509851,0,
00:00:02.44,-0.00776308309286833,0.00806844141334295,-0.0134754367172718,0,
00:00:02.444,0.00665317382663488,-0.00332655035890639,0.00155333627481014,0,
00:00:02.448,0.00391104118898511,-0.00707799009978771,0.00149048992898315,0,
00:00:02.452,0.00325409253127873,-0.00486198859289289,0.00334606179967523,0,
00:00:02.456,-0.0129916956648231,0.00563892349600792,0.000871400930918753,0,
00:00:02.46,0.000715294096153229,0.00917808432132006,-0.00756764132529497,0,
00:00:02.464,0.0295000299811363,-0.00691220629960299,0.00192161137238145,0,
00:00:02.468,-0.00960526708513498,-0.0011012852191925,0.00358494045212865,0,
00:00:02.472,-0.01776740886271,0.00445902021601796,-0.000156014517415315,0,
00:00:02.476,-0.00817069131880999,-0.00583369797095656,0.00388090661726892,0,
00:00:02.48,0.00458682468160987,0.000644036685116589,0.000410036998800933,0,
00:00:02.484,0.00765562895685434,-0.000908642541617155,-0.00482624024152756,0,
00:00:02.488,0.00525613268837333,0.000103997517726384,-0.00135678634978831,0,
00:00:02.492,0.00340722594410181,0.00523443892598152,-0.00653522508218884,0,
00:00:02.496,-0.00354259135201573,-0.000644008337985724,0.00396396964788437,0,
00:00:02.5,-0.00627593696117401,-0.00868309568613768,0.009351278655231,0,
00:00:02.504,-0.000205524935154244,-6.36654804111458E-05,-0.00138354825321585,0,
00:00:02.508,-0.00246149650774896,0.00221413816325367,0.000511265709064901,0,
00:00:02.512,0.00542282219976187,0.0103981699794531,0.00416297093033791,0,
00:00:02.516,-0.00445055961608887,-0.000366847350960597,-0.0341679826378822,0,
00:00:02.52,0.0163609497249126,0.00467174500226974,0.010108157992363,0,
00:00:02.524,0.00891379080712795,-0.00681974086910486,0.0245521534234285,0,
00:00:02.528,-0.0264496766030788,-0.0096996920183301,0.00646864995360374,0,
00:00:02.532,-0.0177693460136652,-0.00983197335153818,-0.00503070652484894,0,
00:00:02.536,0.0109087433665991,0.00838001351803541,-0.00433920184150338,0,
00:00:02.54,0.0290521252900362,0.00990054663270712,-0.0102493101730943,0,
00:00:02.544,-0.00629013497382402,0.00465771462768316,-0.00118453940376639,0,
00:00:02.548,-0.0223046764731407,-0.00084230734501034,-0.00288832932710648,0,
00:00:02.552,0.00172183010727167,-0.00366079225204885,-0.00287973368540406,0,
00:00:02.556,0.0151023650541902,0.000544832495506853,0.00814677774906158,0,
00:00:02.56,-0.00131409533787519,-0.00586863933131099,0.0136603675782681,0,
00:00:02.564,-0.00754076289013028,-0.00747507158666849,-0.00757769076153636,0,
00:00:02.568,0.0172458048909903,0.00470835156738758,-0.00486708525568247,0,
00:00:02.572,-0.00154513970483094,0.00629376200959086,0.00322351581417024,0,
00:00:02.576,-0.0198974888771772,0.0032958872616291,-0.000463853823021054,0,
00:00:02.58,0.0014840392395854,0.00190362380817533,-0.00139442831277847,0,
00:00:02.584,0.00091863248962909,-0.00409379228949547,-0.000914691539946944,0,
00:00:02.588,0.00246533192694187,-0.00183858419768512,-9.28240551729687E-05,0,
00:00:02.592,0.00298777711577713,-0.00554969161748886,-0.00161123054567724,0,
00:00:02.596,0.00210289005190134,0.00101917958818376,0.002565793460235,0,
00:00:02.6,0.000612712581641972,0.00310639711096883,0.00204377807676792,0,
00:00:02.604,-0.00268065580166876,0.00246160314418375,0.000288134993752465,0,
00:00:02.608,0.000859765626955777,0.00292503205128014,0.0135762207210064,0,
00:00:02.612,0.00067349401069805,-0.00247310125268996,-0.015051331371069,0,
00:00:02.616,-0.00238205725327134,-0.00478460639715195,-0.0309698823839426,0,
00:00:02.62,0.00320899998769164,-0.00328132533468306,0.0246861334890127,0,
00:00:02.624,-0.00315616722218692,0.00184632604941726,0.0130869299173355,0,
00:00:02.628,-0.0081005310639739,0.00640749558806419,0.000606127607170492,0,
00:00:02.632,0.0107264369726181,0.0119387051090598,-0.00361973699182272,0,
00:00:02.636,0.017393110319972,-0.00207556202076375,0.00260960240848362,0,
00:00:02.64,-0.0108082136139274,-0.00901507399976254,-0.00169144093524665,0,
00:00:02.644,-0.0198050364851952,-0.0102976737543941,-0.00910733081400394,0,
00:00:02.648,-0.00431396346539259,-0.00768597051501274,-0.00887007266283035,0,
00:00:02.652,0.0106654772534966,0.00474488222971559,0.0114677138626575,0,
00:00:02.656,0.0074163656681776,0.00455042300745845,-0.00859162863343954,0,
00:00:02.66,-0.00314357317984104,0.00630310131236911,0.0157364588230848,0,
00:00:02.664,0.00126920558977872,0.0113307982683182,7.73992796894163E-05,0,
00:00:02.668,0.0127880480140448,0.00415771221742034,-0.00592045253142715,0,
00:00:02.672,-0.0127913616597652,-0.0100954500958323,0.0115531096234918,0,
00:00:02.676,0.0222289394587278,-0.00992251094430685,-0.0172608103603125,0,
00:00:02.68,-0.0310849919915199,-0.0061977943405509,0.000995496404357255,0,
00:00:02.684,-0.0104429218918085,0.00336037366650999,0.00213351100683212,0,
00:00:02.688,0.00927069503813982,0.0118639888241887,-3.54093826899771E-05,0,
00:00:02.692,0.0109744053333998,-0.00203599245287478,0.00320138945244253,0,
00:00:02.696,-0.000748163205571473,-0.00596978142857552,0.00400962401181459,0,
00:00:02.7,0.00349009735509753,-0.00171402515843511,-0.00214318768121302,0,
00:00:02.704,-0.000713142624590546,0.0022529773414135,0.00111349462531507,0,
00:00:02.708,0.000459580071037635,0.00544473994523287,0.00271655898541212,0,
00:00:02.712,-0.00321895186789334,0.000221119451452978,-0.0173731595277786,0,
00:00:02.716,-0.0001545830455143,0.000716539681889117,-0.0062244744040072,0,
00:00:02.72,-0.00016186639550142,-0.00120332953520119,0.0170748140662909,0,
00:00:02.724,-0.000550232245586813,-0.00017700124590192,0.00757957994937897,0,
00:00:02.728,0.0015497321728617,-0.0017663212493062,-0.00189850456081331,0,
00:00:02.732,0.00200579850934446,-0.00432801293209195,0.00048237235751003,0,
00:00:02.736,-0.009533716365695,-0.00351655320264399,-0.00636358885094523,0,
00:00:02.74,0.000895539065822959,0.00148503016680479,0.0022748988121748,0,
00:00:02.744,0.00207680813036859,0.00636484567075968,0.000401443074224517,0,
00:00:02.748,0.00110838585533202,0.00604525487869978,-0.0104859890416265,0,
00:00:02.752,0.0149319488555193,0.00228539784438908,-0.000918866076972336,0,
00:00:02.756,-0.00523608596995473,-0.00581966713070869,0.0070663895457983,0,
00:00:02.76,-0.0106481146067381,-0.0122382678091526,0.00583381205797195,0,
00:00:02.764,-0.000630394206382334,0.00117237505037338,0.00167280063033104,0,
00:00:02.768,-0.000197603803826496,0.00348103209398687,-0.00374383199959993,0,
00:00:02.772,-0.00273417960852385,0.0106923524290323,-0.000888346519786865,0,
00:00:02.776,0.00605106959119439,-0.000662316975649446,0.0118436580523849,0,
00:00:02.78,-0.00339864823035896,-0.00394992949441075,-0.0229201260954142,0,
00:00:02.784,0.0192199610173702,-0.00519076967611909,-0.000464300945168361,0,
00:00:02.788,-0.00532176624983549,-0.00113246357068419,0.00705544091761112,0,
00:00:02.792,-0.018619479611516,0.00423718476668,0.00826894678175449,0,
00:00:02.796,0.00790530815720558,0.00722384685650468,-0.00170480937231332,0,
00:00:02.8,0.0043516056612134,-0.00566393462941051,0.00139030697755516,0,
00:00:02.804,-0.00913503021001816,-0.00276026804931462,-0.000925998436287045,0,
00:00:02.808,-0.00148337974678725,0.00364456698298454,-0.00272867013700306,0,
00:00:02.812,0.0182258952409029,-0.00321249547414482,-0.0150262620300055,0,
00:00:02.816,-0.0133218942210078,-0.00432798499241471,0.0107023306190968,0,
00:00:02.82,-0.00476838694885373,0.000266434653894976,0.0102206319570541,0,
00:00:02.824,0.00431517977267504,0.00552348047494888,0.0043571162968874,0,
00:00:02.828,0.00479795690625906,0.00370862940326333,-0.00784963835030794,0,
00:00:02.832,-9.62659760261886E-05,-0.00179794814903289,-0.00713739451020956,0,
00:00:02.836,-0.000878165184985846,-0.00207514106296003,-0.00432686833664775,0,
00:00:02.84,-0.00258720037527382,0.00331095117144287,0.0058699157088995,0,
00:00:02.844,0.0163684636354446,0.00663318019360304,0.000911673589143902,0,
00:00:02.848,-0.0101232267916203,-0.014655408449471,0.00521692261099815,0,
00:00:02.852,-0.0154282236471772,-0.00408482644706964,0.00171515357214957,0,
00:00:02.856,-0.00396181596443057,0.00677262246608734,-0.00823054648935795,0,
00:00:02.86,0.0102238897234201,-0.00132295920047909,0.00470132287591696,0,
00:00:02.864,0.0112734157592058,0.000156279871589504,-0.00154103292152286,0,
00:00:02.868,0.00319390930235386,0.00444223452359438,-0.00395077606663108,0,
00:00:02.872,-0.0056995521299541,0.00273309741169214,0.00365937012247741,0,
00:00:02.876,-0.00800716876983643,-0.00228669354692101,-0.00158298073802143,0,
00:00:02.88,-0.00488993944600224,0.00204049190506339,0.00373557326383889,0,
00:00:02.884,0.00815394707024097,-0.00250981887802482,0.00149624003097415,0,
00:00:02.888,0.00358787807635963,-0.00482100620865822,-0.00761147122830153,0,
00:00:02.892,-6.12274161539972E-05,0.00287223909981549,-0.000685283564962447,0,
00:00:02.896,0.000290365132968873,-0.00200019497424364,0.00914222374558449,0,
00:00:02.9,-0.00171042780857533,0.00170156755484641,0.00138180516660213,0,
00:00:02.904,-0.0087103433907032,0.0038242619484663,-0.00731410412117839,0,
00:00:02.908,0.016679972410202,-0.00139513495378196,-0.00198056316003203,0,
00:00:02.912,-0.0196675211191177,-0.00207915715873241,0.000988242216408253,0,
00:00:02.916,-0.000794023624621332,0.00107879680581391,0.00599461887031794,0,
00:00:02.92,0.011430911719799,-0.00593492714688182,-0.0067335688509047,0,
00:00:02.924,0.00521657755598426,0.00101914827246219,0.00318536954000592,0,
00:00:02.928,-0.00424756249412894,0.00998480245471001,0.000653404160402715,0,
00:00:02.932,0.00111895706504583,0.00133530469611287,0.00394413201138377,0,
00:00:02.936,-0.00391464540734887,-0.00784835685044527,-0.0105030490085483,0,
00:00:02.94,-0.00371110485866666,-0.00670601427555084,0.000374078954337165,0,
00:00:02.944,0.00934608839452267,0.00459997588768601,0.0148075139150023,0,
00:00:02.948,0.0165418814867735,0.00715378718450665,-0.010231408290565,0,
00:00:02.952,-0.0127025591209531,0.00196803524158895,-0.00088733050506562,0,
00:00:02.956,-0.0320787876844406,-0.00466217193752527,0.00157805159687996,0,
00:00:02.96,0.0129890758544207,0.000120132332085632,0.00113875814713538,0,
00:00:02.964,0.00714681437239051,-0.0071755857206881,-0.00199659029021859,0,
00:00:02.968,-0.00364972278475761,-0.00429625529795885,0.00346754095517099,0,
00:00:02.972,0.0165819376707077,0.00927493907511234,0.00108449649997056,0,
00:00:02.976,0.00305430823937058,0.00675077550113201,-0.0017255952116102,0,
00:00:02.98,-0.00939871277660131,-0.00151931075379252,-0.00463183550164104,0,
00:00:02.984,-0.00519534852355719,-0.0035712537355721,-0.00176614732481539,0,
00:00:02.988,-0.00558009883388877,-0.0108352471143007,-0.000731460633687675,0,
00:00:02.992,0.0049128090031445,0.00721426168456674,0.00250919861719012,0,
00:00:02.996,0.00505862105637789,0.0134576139971614,0.00571504281833768,0,
00:00:03,0.0038590868934989,4.43793069280218E-05,0.00674550328403711,0,
00:00:03.004,0.00109102844726294,-0.0113962758332491,-0.00502771278843284,0,
00:00:03.008,-0.0140162892639637,-0.0117702344432473,-0.00820234883576632,0,
00:00:03.012,0.000693963607773185,0.0013693633954972,0.00113527069333941,0,
00:00:03.016,0.0088999904692173,0.00725738191977143,0.002231415361166,0,
00:00:03.02,-0.00453690905123949,0.00463507743552327,0.000875661266036332,0,
00:00:03.024,0.00576432188972831,0.00912818498909473,0.00380384363234043,0,
00:00:03.028,-0.00410074973478913,0.00320477783679962,-0.0150581309571862,0,
00:00:03.032,-0.00713217817246914,-0.00134915800299495,-0.00839862786233425,0,
00:00:03.036,0.00842974428087473,-0.0166646745055914,0.0279215760529041,0,
00:00:03.04,0.00360216991975904,-0.0116634182631969,0.0105611942708492,0,
00:00:03.044,-0.000732948537915945,0.00117227016016841,-0.00739548122510314,0,
00:00:03.048,-0.00682819355279207,0.0110213393345475,-0.0137232076376677,0,
00:00:03.052,0.00567778386175632,0.00725813768804073,-0.00990289077162743,0,
00:00:03.056,-0.00175077060703188,0.00532478513196111,0.00196451041847467,0,
00:00:03.06,0.00354391173459589,0.00185694172978401,0.00834779068827629,0,
00:00:03.064,-0.00908381771296263,-0.00592716364189982,0.00546425022184849,0,
00:00:03.068,-0.0168730020523071,-0.0123506933450699,-0.00549232866615057,0,
00:00:03.072,0.0349900349974632,0.00712704053148627,0.00364054134115577,0,
00:00:03.076,0.00384134240448475,0.00132745236624032,0.00414292514324188,0,
00:00:03.08,-0.0229143518954515,-0.00268427934497595,-0.0115388249978423,0,
00:00:03.084,-0.0119584416970611,0.00548682315275073,-0.00278535345569253,0,
00:00:03.088,0.00572692276909947,-0.00239881337620318,0.010005621239543,0,
00:00:03.092,0.0153209511190653,-0.00691545801237226,0.00567260757088661,0,
00:00:03.096,0.0186477694660425,0.00320220878347754,-0.0074684014543891,0,
00:00:03.1,-0.0171767212450504,0.00216628424823284,0.00528319180011749,0,
00:00:03.104,-0.0105533665046096,0.00174768932629377,-0.00759007222950459,0,
00:00:03.108,-0.000241914895013906,0.00300629576668143,-0.00280760391615331,0,
00:00:03.112,0.000970416178461164,0.00213675084523857,0.00504231080412865,0,
00:00:03.116,0.00889249797910452,-7.7838973083999E-05,-0.00358950183726847,0,
00:00:03.12,0.00102220056578517,-0.00404855282977223,0.00707247061654925,0,
00:00:03.124,-0.00518993753939867,-0.00687366491183639,-0.00572338001802564,0,
00:00:03.128,-0.00568365538492799,-0.00904146768152714,-0.0116160241886973,0,
00:00:03.132,-0.000378998316591606,0.0034365002065897,0.0135112861171365,0,
00:00:03.136,0.00757209816947579,0.0105435224249959,0.00837291032075882,0,
00:00:03.14,-9.7024403657997E-06,0.0090987253934145,0.00261296960525215,0,
00:00:03.144,0.001016286900267,-0.00728058395907283,-0.00211889506317675,0,
00:00:03.148,0.00599846709519625,-0.00104068126529455,-0.00853229966014624,0,
00:00:03.152,-0.0154986036941409,0.0087052583694458,-0.0105572491884232,0,
00:00:03.156,-0.00463465414941311,-0.0016766864573583,-0.00168539490550756,0,
00:00:03.16,0.013232221826911,-0.0130959562957287,0.00959484186023474,0,
00:00:03.164,0.00819378718733788,-0.00641031516715884,0.00524238683283329,0,
00:00:03.168,0.00950974319130182,0.00645508803427219,-0.00063435744959861,0,
00:00:03.172,-0.0220118146389723,0.00254830345511436,-0.00114966602995992,0,
00:00:03.176,-0.0143437040969729,0.00457030069082975,0.00372755853459239,0,
00:00:03.18,0.00506663508713245,0.00433584675192833,0.000263163266936317,0,
00:00:03.184,0.0141697656363249,-0.00461944378912449,-0.000914974254556,0,
00:00:03.188,-0.00108561618253589,-0.00590460281819105,-0.00966983940452337,0,
00:00:03.192,0.000365263840649277,0.00335534662008286,-0.00595272285863757,0,
00:00:03.196,0.00694015203043818,0.00733536388725042,0.00486567849293351,0,
00:00:03.2,-0.00577811989933252,-0.00139315309934318,0.0176364481449127,0,
00:00:03.204,-0.00343159306794405,-0.0108852367848158,-0.0094319237396121,0,
00:00:03.208,-0.00138394499663264,0.00217251223511994,-0.00362052326090634,0,
00:00:03.212,0.00220203679054976,0.0058362134732306,0.00443204818293452,0,
00:00:03.216,-0.00109191762749106,0.00169575423933566,-0.00433438131585717,0,
00:00:03.22,-0.00692333839833736,-0.0124453641474247,0.00835289154201746,0,
00:00:03.224,0.00841656699776649,0.000573530851397663,-0.00209911097772419,0,
00:00:03.228,0.00393807515501976,0.00804858189076185,-0.00705281458795071,0,
00:00:03.232,-0.000253413018072024,0.00754508515819907,-0.00347444671206176,0,
00:00:03.236,-0.00442661112174392,-0.00350822089239955,0.00935773178935051,0,
00:00:03.24,0.00375119200907648,-0.00240596267394722,-0.0170385148376226,0,
00:00:03.244,-0.00563785620033741,-0.0019263569265604,0.00419546524062753,0,
00:00:03.248,-0.00320561742410064,-0.00325318705290556,0.0207695085555315,0,
00:00:03.252,0.00110799458343536,0.00376668805256486,0.00157114083413035,0,
00:00:03.256,0.00119264714885503,-0.00201356131583452,-0.00667474512010813,0,
00:00:03.26,0.0173185374587774,0.00325247878208756,-0.00709512550383806,0,
00:00:03.264,-0.00279637589119375,0.00544338021427393,-0.00582157028838992,0,
00:00:03.268,0.000526194169651717,-0.00936634838581085,0.00609224895015359,0,
00:00:03.272,-0.0384999923408031,-0.00771948462352157,-0.00638051750138402,0,
00:00:03.276,-0.00334542663767934,0.00319330301135778,0.00530130323022604,0,
00:00:03.28,0.0274718888103962,0.00648604892194271,0.0136136589571834,0,
00:00:03.284,0.0197869352996349,0.0109010636806488,-0.0105058988556266,0,
00:00:03.288,-0.00346220401115716,-0.000631611444987357,-0.00631727045401931,0,
00:00:03.292,-0.00914494227617979,-0.0084136463701725,0.00598424160853028,0,
00:00:03.296,0.00573609629645944,-0.0083958376199007,-0.00480176229029894,0,
00:00:03.3,-0.00578262843191624,-0.00155573547817767,0.00671964138746262,0,
00:00:03.304,-0.0145787727087736,0.00577657017856836,-0.00301422923803329,0,
00:00:03.308,-0.00314145954325795,0.00923670455813408,-0.00233777286484838,0,
00:00:03.312,0.00475723296403885,-0.00220938422717154,0.00457711890339851,0,
00:00:03.316,0.00488503277301788,-0.00643414305523038,-0.00201655691489577,0,
00:00:03.32,0.00900953263044357,0.00150761066470295,0.0026132115162909,0,
00:00:03.324,-0.000936642463784665,-0.000461191200884059,-0.00157434411812574,0,
00:00:03.328,-0.00908909365534782,-0.00223745568655431,0.000160492403665558,0,
00:00:03.332,0.00611943565309048,-0.00378269073553383,-0.00484032044187188,0,
00:00:03.336,0.012825476936996,0.0082677723839879,-0.00140752107836306,0,
00:00:03.34,-0.00859361980110407,0.0139095047488809,0.00428878096863627,0,
00:00:03.344,-0.0144821591675282,-0.00393086345866323,0.00549329584464431,0,
00:00:03.348,-0.00668400200083852,-0.016324246302247,0.00288950023241341,0,
00:00:03.352,0.0253264997154474,-0.00602514902129769,-0.00688491901382804,0,
00:00:03.356,-0.00828403327614069,0.00243770005181432,-0.0177672300487757,0,
00:00:03.36,-0.000512807979248464,0.00798684172332287,0.0193393398076296,0,
00:00:03.364,-0.00453621707856655,0.00100263569038361,0.00637289229780436,0,
00:00:03.368,-0.00778535380959511,-0.00165238697081804,-0.00442320201545954,0,
00:00:03.372,0.00555154634639621,0.000696845294442028,-0.00747805181890726,0,
00:00:03.376,0.0180773623287678,0.0104308873414993,-0.000580065592657775,0,
00:00:03.38,-0.007750338409096,-2.38037355302367E-05,0.00205734861083329,0,
00:00:03.384,-0.00643741199746728,-0.0122700519859791,0.0020897223148495,0,
00:00:03.388,-2.89382805931382E-05,-0.000414049922255799,0.00102223001886159,0,
00:00:03.392,0.0054282215423882,0.00375225814059377,0.00200702575966716,0,
00:00:03.396,0.000928781519178301,-0.00530030764639378,-0.00471049780026078,0,
00:00:03.4,-0.0197247508913279,-0.00194576021749526,0.00586120551452041,0,
00:00:03.404,0.00780353182926774,0.00669100554659963,-0.0131706986576319,0,
00:00:03.408,0.0149613646790385,0.00226932321675122,-0.00228402763605118,0,
00:00:03.412,-0.00135716656222939,-0.00227208086289465,0.0206337794661522,0,
00:00:03.416,-0.00502623617649078,-0.00126641674432904,-0.00196831021457911,0,
00:00:03.42,-0.00542043149471283,0.00456087756901979,-0.00264784460887313,0,
00:00:03.424,0.0138040613383055,-0.000780545407906175,-0.00403518881648779,0,
00:00:03.428,-0.00701017118990421,-0.000311831128783524,-0.00972183421254158,0,
00:00:03.432,-0.0143021093681455,-0.00169311987701803,0.00231144553981721,0,
00:00:03.436,0.0075841611251235,-0.00618094205856323,0.00530120590701699,0,
00:00:03.44,0.00758887222036719,-0.0013807334471494,0.00367794069461524,0,
00:00:03.444,-0.00869083125144243,0.00727198086678982,0.00085893552750349,0,
00:00:03.448,0.00717483181506395,0.00452252011746168,0.00298052374273539,0,
00:00:03.452,-0.00587291177362204,-0.00647173449397087,-0.00575166381895542,0,
00:00:03.456,0.000168571277754381,0.00296754390001297,0.00575016625225544,0,
00:00:03.46,0.0179202370345593,-0.000178528149263002,-0.0169246811419725,0,
00:00:03.464,-0.00443099532276392,-0.00526320980861783,-0.012787776067853,0,
00:00:03.468,-0.0162670612335205,0.00102492596488446,0.0226884428411722,0,
00:00:03.472,-0.00493377028033137,0.00918692257255316,0.0124361244961619,0,
00:00:03.476,0.00572427408769727,0.00453299516811967,0.00289497012272477,0,
00:00:03.48,0.01074377913028,-0.010291532613337,-0.00791728403419256,0,
00:00:03.484,0.00144317583180964,-0.00992199685424566,-0.00650362949818373,0,
00:00:03.488,-0.0117029612883925,0.000967685075011104,-0.00641563814133406,0,
00:00:03.492,0.00178007723297924,0.0053796386346221,-0.00358792138285935,0,
00:00:03.496,0.00623308029025793,0.00698074558749795,0.00457216380164027,0,
00:00:03.5,-0.00400917511433363,-0.00392402661964297,0.00558299059048295,0,
00:00:03.504,0.00192350521683693,-0.00228271493688226,0.00105270685162395,0,
00:00:03.508,0.00351207028143108,0.00315337488427758,0.00422671111300588,0,
00:00:03.512,-0.00238207285292447,0.00874986406415701,0.000106503204733599,0,
00:00:03.516,-0.00308760884217918,0.000467069185106084,-0.00540224788710475,0,
00:00:03.52,0.000557321065571159,-0.00823915749788284,-0.00186622701585293,0,
00:00:03.524,-0.00587687361985445,-0.0133820660412312,-0.00264935102313757,0,
00:00:03.528,0.00143941945862025,0.00358251156285405,-0.0041549070738256,0,
00:00:03.532,0.0042361905798316,0.0026435658801347,0.0059987073764205,0,
00:00:03.536,0.00965772103518248,0.00811314303427935,0.00565827870741487,0,
00:00:03.54,-0.00272543844766915,0.00386062008328736,-0.000284260488115251,0,
00:00:03.544,-0.0015631855931133,-0.00543791195377707,0.00461603468284011,0,
00:00:03.548,-0.00778982508927584,-0.0080979261547327,-0.00091409997548908,0,
00:00:03.552,-0.00817869417369366,0.00783475767821074,-0.0154932485893369,0,
00:00:03.556,0.00503290072083473,0.00544231338426471,-0.00149415573105216,0,
00:00:03.56,0.00702886236831546,-0.00267467019148171,0.00962109304964542,0,
00:00:03.564,0.00390635337680578,-0.0041542281396687,0.00630598515272141,0,
00:00:03.568,-0.00615632440894842,-0.00450829323381186,-0.00185598875395954,0,
00:00:03.572,0.00994103774428368,0.00391013594344258,-0.00146405189298093,0,
00:00:03.576,-0.00353131536394358,0.00511146150529385,-0.00214081979356706,0,
00:00:03.58,-0.0101163377985358,-0.00593911809846759,-0.0101986918598413,0,
00:00:03.584,0.0068252868950367,-0.00132053473498672,-0.00124291353859007,0,
00:00:03.588,0.00363156432285905,0.00133922905661166,0.0147555526345968,0,
00:00:03.592,-0.0125822592526674,0.00193110748659819,0.0102859605103731,0,
00:00:03.596,-0.00295591773465276,-0.000837853935081512,-0.00573638966307044,0,
00:00:03.6,0.00660698255524039,0.0021761532407254,-0.0127585856243968,0,
00:00:03.604,0.0045032468624413,0.00318383448757231,0.00299038318917155,0,
00:00:03.608,0.00470291450619698,-0.00462345778942108,0.00509920436888933,0,
00:00:03.612,-0.00140490382909775,-0.00106689007952809,-0.0105172572657466,0,
00:00:03.616,-0.00265871058218181,-0.00184429169166833,6.98548174113967E-05,0,
00:00:03.62,0.00645554065704346,0.00245343684218824,0.00235187169164419,0,
00:00:03.624,-0.0126591837033629,0.00819644145667553,0.00824299454689026,0,
00:00:03.628,0.00595114473253489,-0.00563795445486903,0.00361394276842475,0,
00:00:03.632,-0.00268440553918481,-0.00787608232349157,-0.0100996075198054,0,
00:00:03.636,-0.00230521941557527,-0.00173505011480302,0.00578099815174937,0,
00:00:03.64,0.000318144069751725,0.00961287412792444,0.00312441238202155,0,
00:00:03.644,-0.00213819229975343,-0.00536717846989632,-0.0105497734621167,0,
00:00:03.648,0.00188709259964526,0.00419307872653008,0.00132218503858894,0,
00:00:03.652,0.0125076454132795,0.007542225997895,0.000988620333373547,0,
00:00:03.656,0.00174805813003331,-0.00189018039964139,0.00130281283054501,0,
00:00:03.66,-0.00731869461014867,-0.0075480742380023,0.001195800723508,0,
00:00:03.664,-0.00244579697027802,-0.00455515831708908,0.0006494001718238,0,
00:00:03.668,-0.00841599609702826,-0.00205250689759851,0.00209279009141028,0,
00:00:03.672,0.00206652353517711,0.00683138566091657,-0.0023724480997771,0,
00:00:03.676,-0.00820158049464226,0.00482455221936107,-0.00421196920797229,0,
00:00:03.68,0.0104949222877622,-0.00785705726593733,-0.00893360655754805,0,
00:00:03.684,0.0123433154076338,0.00139307614881545,0.018462810665369,0,
00:00:03.688,0.0117199029773474,0.00774526875466108,0.00769833335652947,0,
00:00:03.692,-0.0143444752320647,0.00444086501374841,-0.00598867191001773,0,
00:00:03.696,-0.00740451645106077,-0.00927119795233011,-0.0128992004320025,0,
00:00:03.7,-0.0102641005069017,-0.00468719145283103,-0.00349739892408252,0,
00:00:03.704,-0.00147235637996346,-0.00252553098835051,0.00466666975989938,0,
00:00:03.708,0.00783204659819603,0.00392370438203216,0.000469044578494504,0,
00:00:03.712,0.00962310004979372,0.00816639605909586,0.00170675327535719,0,
00:00:03.716,0.00133495149202645,-0.00223638257011771,0.00674415519461036,0,
00:00:03.72,-0.00451563252136111,-0.00376443914137781,4.48089522251394E-05,0,
00:00:03.724,-0.00728610483929515,-0.00187064206693321,0.00139884557574987,0,
00:00:03.728,0.00769980996847153,0.000276284496067092,-0.0108470097184181,0,
00:00:03.732,0.0109522379934788,-0.00279125804081559,-0.00489054992794991,0,
00:00:03.736,-0.0155352298170328,0.00941182300448418,0.00897292234003544,0,
00:00:03.74,0.00273305596783757,-0.00210260530002415,0.00833719968795776,0,
00:00:03.744,-0.00805222429335117,-0.00725566176697612,-0.0018465428147465,0,
00:00:03.748,0.00016283625154756,0.00296916905790567,-0.00939724035561085,0,
00:00:03.752,0.0131208272650838,0.0124093284830451,-0.00427918555215001,0,
00:00:03.756,-0.00706868525594473,-0.00205585453659296,0.0080753630027175,0,
00:00:03.76,0.00405811937525868,-0.00303009944036603,-0.00136876595206559,0,
00:00:03.764,0.00251553417183459,-0.0117838438600302,-0.00318139372393489,0,
00:00:03.768,-0.00750418100506067,-0.0134967062622309,0.00496197678148746,0,
00:00:03.772,-0.00136809831019491,0.00648703519254923,0.00766184786334634,0,
00:00:03.776,0.0020736672449857,0.0210217870771885,-0.0019807571079582,0,
00:00:03.78,0.0192466340959072,0.0117256371304393,-0.00141279760282487,0,
00:00:03.784,-0.0163713376969099,-0.0119974799454212,-0.00843475759029388,0,
00:00:03.788,-0.0194375347346067,-0.00981981866061687,-0.023461727425456,0,
00:00:03.792,0.0134261436760426,-0.00406631594523788,0.0164502486586571,0,
00:00:03.796,0.0126695614308119,0.000901011051610112,0.0248272698372602,0,
00:00:03.8,-0.00144983106292784,0.00945866759866476,0.00123574363533407,0,
00:00:03.804,-0.00286084297113121,-0.000779190100729465,-0.00647663185372949,0,
00:00:03.808,-0.00749933067709208,-0.0115491459146142,-0.0128134656697512,0,
00:00:03.812,-0.00251637469045818,-0.000409457454225048,-0.00416616816073656,0,
00:00:03.816,0.000382767670089379,0.00612244848161936,-0.000543500180356205,0,
00:00:03.82,0.0103065241128206,0.0105887558311224,0.00776586541905999,0,
00:00:03.824,0.00074344128370285,0.00746258161962032,0.00703296065330505,0,
00:00:03.828,-0.00437401700764894,-0.00975043885409832,-0.00392499100416899,0,
00:00:03.832,0.00391220021992922,-0.00963212922215462,-0.0106936870142817,0,
00:00:03.836,0.00283958157524467,0.000596721947658807,0.00641059363260865,0,
00:00:03.84,-0.0111364936456084,0.00204770849086344,0.00807193294167519,0,
00:00:03.844,0.0108834579586983,0.00307020312175155,0.0031045840587467,0,
00:00:03.848,-0.00738320359960198,-0.00197452679276466,-0.0166137591004372,0,
00:00:03.852,-0.0151953520253301,-0.00609985552728176,-0.00729272933676839,0,
00:00:03.856,0.00283320946618915,-0.000498311768751591,0.0107994880527258,0,
00:00:03.86,0.012049600481987,0.00411309208720922,0.0138420592993498,0,
00:00:03.864,0.00647117057815194,0.00275447685271502,-0.0012820903211832,0,
00:00:03.868,0.00150782254058868,0.00678327679634094,-0.00625539105385542,0,
00:00:03.872,-0.00392644247040153,0.00380242080427706,-0.00727101927623153,0,
00:00:03.876,0.00926285143941641,-0.0051666647195816,0.00418017944321036,0,
00:00:03.88,-0.00460340175777674,-0.00433869939297438,0.00892555713653564,0,
00:00:03.884,-0.0152300717309117,-0.00559266097843647,-0.0212664920836687,0,
00:00:03.888,-0.0128782810643315,0.00237056473270059,-0.00595422741025686,0,
00:00:03.892,0.0113795576617122,-0.00416432600468397,0.0230260770767927,0,
00:00:03.896,0.0149606252089143,-9.46161308092996E-05,0.00710535515099764,0,
00:00:03.9,0.00784292817115784,0.0059156958013773,-0.00480360677465796,0,
00:00:03.904,-0.00504076899960637,0.0045698918402195,0.00210169656202197,0,
00:00:03.908,-0.0187147166579962,-0.00106017093639821,-0.00715383654460311,0,
00:00:03.912,0.00417640060186386,-0.00179571390617639,-0.0107642514631152,0,
00:00:03.916,0.00898563396185637,0.00107095972634852,-0.000369271088857204,0,
00:00:03.92,-0.00326527818106115,0.00199400214478374,0.00489171082153916,0,
00:00:03.924,-0.00089980271877721,-0.00122918875422329,0.00321991555392742,0,
00:00:03.928,0.000272660283371806,-0.00511596631258726,0.00494202738627791,0,
00:00:03.932,0.00055342068662867,-0.00264489557594061,0.0039173667319119,0,
00:00:03.936,0.000357374869054183,0.00485616503283381,-0.00335415452718735,0,
00:00:03.94,0.00212036957964301,-0.00355286127887666,-0.00649118423461914,0,
00:00:03.944,-0.008372419513762,-0.0030870174523443,-0.000552980927750468,0,
00:00:03.948,0.0061366013251245,0.00229233806021512,0.00145504111424088,0,
00:00:03.952,0.00469302898272872,0.0111134350299835,0.0076648062095046,0,
00:00:03.956,-0.00436769565567374,0.00829202681779861,-0.00731503358110785,0,
00:00:03.96,-0.00545897148549557,-0.011662001721561,-0.000904570333659649,0,
00:00:03.964,-0.000273828656645492,-0.0100089842453599,-0.00125656207092106,0,
00:00:03.968,0.0116852456703782,0.00392536399886012,0.00066232675453648,0,
00:00:03.972,0.0103652570396662,-0.00242363614961505,-0.000225058291107416,0,
00:00:03.976,-0.00601233169436455,-0.00188377394806594,0.00783395767211914,0,
00:00:03.98,-0.0367576107382774,0.0070702382363379,-0.00153677409980446,0,
00:00:03.984,0.0025484065990895,0.0113873444497585,-0.00330924312584102,0,
00:00:03.988,0.0149560980498791,-0.00538133829832077,-0.010243671014905,0,
00:00:03.992,0.0332617200911045,-0.00338248140178621,0.00778717827051878,0,
00:00:03.996,-0.00239726481959224,-0.0118720652535558,0.0158247034996748,0,
00:00:04,-0.0174407921731472,-0.000965363055001944,-0.0123399440199137,0,
00:00:04.004,-0.0155576318502426,0.0054957065731287,-0.00131374120246619,0,
00:00:04.008,-0.00185005681123585,0.00834315828979015,-0.00389532605186105,0,
00:00:04.012,0.00738191651180387,0.00362459267489612,0.00138340820558369,0,
00:00:04.016,0.00657641189172864,0.000637029181234539,0.002302011474967,0,
00:00:04.02,-0.00159951846580952,-0.00371805368922651,0.0034441826865077,0,
00:00:04.024,0.00100963702425361,-0.00497614033520222,-0.00181673187762499,0,
00:00:04.028,0.000884577806573361,-0.00747565506026149,-0.000142693432280794,0,
00:00:04.032,-0.00216508423909545,-0.000838029372971505,-0.00285764574073255,0,
00:00:04.036,-0.000911984476260841,0.00657222466543317,0.00291310739703476,0,
00:00:04.04,0.000602916232310236,0.00358465290628374,-0.00317251496016979,0,
00:00:04.044,0.0031799403950572,0.00179418723564595,-0.00162634998559952,0,
00:00:04.048,0.00497485836967826,0.00232576578855515,-0.00106002576649189,0,
00:00:04.052,-0.00130179710686207,0.00132313976064324,0.00626125419512391,0,
00:00:04.056,-0.0156478378921747,0.00143434479832649,-0.000607360154390335,0,
00:00:04.06,-0.00127217161934823,-0.0103700030595064,-0.00301235006190836,0,
00:00:04.064,0.0100099248811603,-0.00654835999011993,0.00828990619629622,0,
00:00:04.068,0.0024721547961235,-0.00166936730965972,-0.00160418392624706,0,
00:00:04.072,0.00222339225001633,0.00448993127793074,-0.0063007790595293,0,
00:00:04.076,0.0017735535511747,0.00851359963417053,-0.000993118504993618,0,
00:00:04.08,-0.00399743532761931,0.00457427790388465,0.00514780776575208,0,
00:00:04.084,-0.00588913634419441,-0.00050159334205091,-0.000648006447590888,0,
00:00:04.088,-0.003605937352404,-0.00545793725177646,-0.0066043371334672,0,
00:00:04.092,0.00632618740200996,0.000504957337398082,-0.00194883707445115,0,
00:00:04.096,0.011366824619472,-0.000287007656879723,0.00698689324781299,0,
00:00:04.1,-0.00286835944280028,-0.00364660704508424,0.0107433097437024,0,
00:00:04.104,-0.0110071944072843,-0.00582728162407875,-0.0101990215480328,0,
00:00:04.108,-0.00920335669070482,0.000715974776539952,-0.0183488130569458,0,
00:00:04.112,0.018437473103404,0.0156110860407352,0.0135941132903099,0,
00:00:04.116,-0.00125986256171018,0.00374610861763358,0.0128060672432184,0,
00:00:04.12,-0.00285039120353758,-0.00522075826302171,0.00478684902191162,0,
00:00:04.124,-0.0107137886807323,-0.0179279260337353,-0.009031031280756,0,
00:00:04.128,0.00479947170242667,-0.00132317049428821,-0.00663089333102107,0,
00:00:04.132,0.0108931176364422,0.00912456307560205,-0.00526925316080451,0,
00:00:04.136,-0.00491264695301652,0.00778765184804797,-5.00643509440124E-05,0,
00:00:04.14,-0.00420193234458566,0.00254793767817318,0.00145166041329503,0,
00:00:04.144,0.00625625997781754,0.000265436741756275,0.00811918824911118,0,
00:00:04.148,0.00282140565104783,-0.00548453442752361,0.00630922382697463,0,
00:00:04.152,-0.00423263618722558,-0.0086794663220644,-0.0071149324066937,0,
00:00:04.156,-0.0084180748090148,0.00257343589328229,-0.00757812894880772,0,
00:00:04.16,0.000238938751863316,0.00655195862054825,0.00560018885880709,0,
00:00:04.164,0.0123104229569435,0.00261232745833695,0.0024246375542134,0,
00:00:04.168,-0.00408632727339864,-0.0118628684431314,0.00834175571799278,0,
00:00:04.172,-0.00276298122480512,0.00266159465536475,-0.0131354462355375,0,
00:00:04.176,-0.00929063279181719,0.0160274039953947,-0.00167079456150532,0,
00:00:04.18,0.0019973807502538,-0.00245541031472385,-0.00208304263651371,0,
00:00:04.184,0.0382610261440277,-0.00807046424597502,0.00611622352153063,0,
00:00:04.188,-0.0193933453410864,-0.0101980585604906,0.00433266861364245,0,
00:00:04.192,-0.0243764165788889,0.00239738286472857,-0.00172382080927491,0,
00:00:04.196,-0.00529800308868289,0.00317164184525609,-0.00229947897605598,0,
00:00:04.2,0.00760402623564005,-0.00275955558754504,-0.00102644762955606,0,
00:00:04.204,0.0171176008880138,0.00625501153990626,0.00436482205986977,0,
00:00:04.208,-0.00271042459644377,0.0117580555379391,-0.0094228545203805,0,
00:00:04.212,-0.00137071416247636,0.00168480165302753,0.0115986885502934,0,
00:00:04.216,0.00419755047187209,-0.0108713498339057,-0.00307899015024304,0,
00:00:04.22,0.00259644142352045,-0.0107682123780251,-0.0169348493218422,0,
00:00:04.224,-0.00105226261075586,-0.00226490967907012,0.0165859255939722,0,
00:00:04.228,-0.00762426992878318,0.00646527577191591,0.00518238358199596,0,
00:00:04.232,-0.00804909132421017,0.00834520347416401,0.000435266818385571,0,
00:00:04.236,-0.0056864614598453,-0.00347068929113448,-0.0059004370123148,0,
00:00:04.24,0.00772851146757603,-0.000516244384925812,-0.00271411566063762,0,
00:00:04.244,0.0085556460544467,0.00270994333550334,-0.0074887708760798,0,
00:00:04.248,0.00405323598533869,-0.00146422244142741,0.00366682442836463,0,
00:00:04.252,-0.00065914448350668,0.000365771207725629,0.00957825779914856,0,
00:00:04.256,-0.00106301624327898,0.00355859589762986,0.00113709294237196,0,
00:00:04.26,-0.00514601357281208,-0.00111411546822637,-0.00315356627106667,0,
00:00:04.264,-0.00548113510012627,-0.00420575635507703,-0.00776980863884091,0,
00:00:04.268,0.00165693473536521,-0.0100542055442929,-0.000100109122286085,0,
00:00:04.272,0.00337532535195351,-0.00173453032039106,0.00318493042141199,0,
00:00:04.276,0.000251251796726137,0.00559330498799682,0.00104422948788852,0,
00:00:04.28,-0.00575953163206577,0.00941471569240093,0.00136939960066229,0,
00:00:04.284,0.00676849577575922,0.00272282655350864,0.00753858406096697,0,
00:00:04.288,0.0283760614693165,0.00322126504033804,0.00293861120007932,0,
00:00:04.292,-0.0190779287368059,-0.00424119923263788,-0.0152341723442078,0,
00:00:04.296,-0.0333929024636745,-0.00542669976130128,-0.00599037017673254,0,
00:00:04.3,0.0088046919554472,-0.00321852159686387,0.00463935965672135,0,
00:00:04.304,0.0110554220154881,-0.000340648140991107,0.00822943449020386,0,
00:00:04.308,0.0118746869266033,0.00154246226884425,0.00355558702722192,0,
00:00:04.312,0.000718216004315764,-0.00216829567216337,-0.00137899082619697,0,
00:00:04.316,-0.0191359836608171,0.00740532949566841,-0.00562100298702717,0,
00:00:04.32,-0.00570026785135269,0.00588385760784149,0.00310304714366794,0,
00:00:04.324,0.0329451747238636,-0.0076377997174859,-0.0201264917850494,0,
00:00:04.328,0.0151731325313449,-0.00379604729823768,0.0131905162706971,0,
00:00:04.332,-0.0273861046880484,0.0057684532366693,0.0132859200239182,0,
00:00:04.336,-0.0222267210483551,-0.00662535382434726,-0.00285677751526237,0,
00:00:04.34,-0.00623796600848436,-0.00747800664976239,0.00340723223052919,0,
00:00:04.344,0.0088846068829298,0.00397368613630533,0.000141629614518024,0,
00:00:04.348,0.0179791059345007,0.0118174692615867,-0.0182731561362743,0,
00:00:04.352,0.0102076465263963,0.00983372703194618,-0.00558843649923801,0,
00:00:04.356,-0.00235549779608846,-0.00790690910071135,0.0197942834347487,0,
00:00:04.36,-0.000348745641531423,-0.0069028683938086,0.00331043661572039,0,
00:00:04.364,-0.00528713688254356,0.000333860458340496,-0.0108843436464667,0,
00:00:04.368,-0.017526576295495,-0.00446301186457276,-0.00594147993251681,0,
00:00:04.372,0.00916198175400496,-0.00166212453041226,0.00370826339349151,0,
00:00:04.376,-0.00701366784051061,0.00183386460412294,0.00543509470298886,0,
00:00:04.38,0.00140870874747634,0.00328175444155931,0.00316358078271151,0,
00:00:04.384,0.0211283192038536,0.00470770336687565,-0.00399770494550467,0,
00:00:04.388,-0.00960100535303354,-0.00512619316577911,0.00220349221490324,0,
00:00:04.392,-0.00258441572077572,0.00598882185295224,0.00533303385600448,0,
00:00:04.396,-0.000325684988638386,-0.00410074554383755,-0.00498186750337482,0,
00:00:04.4,-0.00412581535056233,-0.00745468679815531,-0.00739771779626608,0,
00:00:04.404,0.00176955945789814,0.001795026473701,0.00205626618117094,0,
00:00:04.408,0.0133848935365677,0.0175612196326256,0.0049336664378643,0,
00:00:04.412,-0.0101636163890362,0.00661560567095876,-0.0133438194170594,0,
00:00:04.416,-0.00202774372883141,-0.0205580536276102,0.0118300318717957,0,
00:00:04.42,-0.0063312565907836,-0.0158819500356913,0.00465562380850315,0,
00:00:04.424,0.00180860247928649,-0.000108259489934426,0.00364290433935821,0,
00:00:04.428,0.0151173146441579,0.0141485817730427,-0.00255381967872381,0,
00:00:04.432,-0.00611255876719952,0.00700701959431171,-0.0036283815279603,0,
00:00:04.436,-0.00697826454415917,0.00690736854448915,-0.0274766124784946,0,
00:00:04.44,-0.00182488304562867,0.00610092375427485,0.0164225734770298,0,
00:00:04.444,0.00649257702752948,-0.00905999355018139,0.0111667308956385,0,
00:00:04.448,0.0016263386933133,-0.0128584485501051,0.0131215993314981,0,
00:00:04.452,0.00331916962750256,-0.00786435604095459,-0.00835738703608513,0,
00:00:04.456,-0.00748228281736374,-0.000319075596053153,-0.00565072475001216,0,
00:00:04.46,-0.00441606529057026,0.013266047462821,-0.00814377702772617,0,
00:00:04.464,0.000890469586011022,0.00669535668566823,-1.08056783574284E-05,0,
00:00:04.468,0.00781753193587065,0.000446345715317875,0.00542877288535237,0,
00:00:04.472,-0.000551375385839492,-0.00722255790606141,0.00136068661231548,0,
00:00:04.476,-0.00179472332820296,-0.00589755270630121,7.98509790911339E-05,0,
00:00:04.48,-0.00704019516706467,0.00484103662893176,-0.000169194667250849,0,
00:00:04.484,0.0144086992368102,0.0129926102235913,0.00193192518781871,0,
00:00:04.488,0.0100128818303347,0.00780709739774466,-0.00415085116401315,0,
00:00:04.492,-0.0279058404266834,-0.015827851369977,0.00232678488828242,0,
00:00:04.496,0.00924953259527683,-0.0206659864634275,-0.0026611911598593,0,
00:00:04.5,0.00155232881661505,-0.00463132280856371,-0.00078411988215521,0,
00:00:04.504,-0.0100238863378763,0.00686003128066659,0.00566231366246939,0,
00:00:04.508,-0.00210117013193667,0.00849628634750843,0.00442688120529056,0,
00:00:04.512,0.00585132371634245,0.0163213014602661,-0.00577542698010802,0,
00:00:04.516,0.0119597865268588,0.00923109520226717,-0.00507114827632904,0,
00:00:04.52,0.00924583524465561,0.00289620948024094,-0.00118402403313667,0,
00:00:04.524,0.00384253356605768,-0.00979637540876865,0.00388853927142918,0,
00:00:04.528,-0.0275556538254023,-0.0182516872882843,-0.00136449397541583,0,
00:00:04.532,-0.0101196086034179,-0.0120659479871392,-0.00191241456195712,0,
00:00:04.536,0.0110539076849818,-0.00122236227616668,0.00802152790129185,0,
00:00:04.54,0.00883538741618395,0.00880393292754889,0.00176759483292699,0,
00:00:04.544,0.00175311393104494,0.00909621641039848,-1.51949170685839E-05,0,
00:00:04.548,-0.000624462962150574,0.00927745457738638,-0.00298580364324152,0,
00:00:04.552,0.000949567649513483,0.00722434092313051,-0.00576136307790875,0,
00:00:04.556,-0.000848086958285421,-0.00670974282547832,0.00798347592353821,0,
00:00:04.56,-0.00628135353326797,-0.00645817723125219,-0.0210368633270264,0,
00:00:04.564,0.00612675072625279,-0.00266737723723054,0.00243877246975899,0,
00:00:04.568,-0.00157906382810324,-0.00392210157588124,0.0216852985322475,0,
00:00:04.572,-0.013094475492835,-0.00313930935226381,0.0037349855992943,0,
00:00:04.576,0.0149190677329898,0.00370804010890424,-0.00685280468314886,0,
00:00:04.58,0.00904368609189987,0.0044325590133667,0.00195735250599682,0,
00:00:04.584,-0.00445993570610881,-0.00176542007829994,-0.0102874441072345,0,
00:00:04.588,-0.0165462363511324,0.00398928439244628,-0.00354636879637837,0,
00:00:04.592,-0.00603693444281816,0.0102515304461122,0.00166211766190827,0,
00:00:04.596,0.0134280854836106,-0.00699526118114591,0.00162927096243948,0,
00:00:04.6,0.0013562529347837,-0.011174313724041,0.00715908315032721,0,
00:00:04.604,0.00456268573179841,-0.00666130054742098,0.00305245839990675,0,
00:00:04.608,0.00154363596811891,0.00218819547444582,0.000350421236362308,0,
00:00:04.612,-0.00179698690772057,0.00892888754606247,-0.00782028306275606,0,
00:00:04.616,-0.00313255004584789,0.00429173558950424,-0.00483987852931023,0,
00:00:04.62,-0.00457583041861653,0.00323848845437169,-0.00186580279842019,0,
00:00:04.624,-0.00313714402727783,-0.00287569779902697,0.00515441130846739,0,
00:00:04.628,0.00809030514210463,-0.00136978330556303,0.00708598596975207,0,
00:00:04.632,0.00672759208828211,-0.00384377385489643,4.74566222692374E-05,0,
00:00:04.636,-0.00297192158177495,0.00235167238861322,-0.00244761002250016,0,
00:00:04.64,-0.0138109531253576,-0.00125121732708067,-0.000235454266658053,0,
00:00:04.644,6.39758363831788E-05,-0.00972141325473785,-0.0030976259149611,0,
00:00:04.648,0.00782615970820189,0.011722513474524,-0.00160552270244807,0,
00:00:04.652,0.007574119605124,0.00949172768741846,-0.00159706734120846,0,
00:00:04.656,-0.00118218769785017,-0.00543765351176262,0.00352024240419269,0,
00:00:04.66,-0.00610485626384616,-0.0119405649602413,0.00307663530111313,0,
00:00:04.664,0.000795259140431881,-0.00233358168043196,0.00500777922570705,0,
00:00:04.668,-0.00565575435757637,0.00132844934705645,-0.00697437115013599,0,
00:00:04.672,0.00308687123470008,0.00669552478939295,-0.0028837698046118,0,
00:00:04.676,0.0057112742215395,0.000635914970189333,0.0146029125899076,0,
00:00:04.68,-0.00266797910444438,0.000696502567734569,-0.0269386973232031,0,
00:00:04.684,0.0100096073001623,0.00947096943855286,0.00584402354434133,0,
00:00:04.688,-0.0141116557642817,-0.000948647852055728,0.0111184185370803,0,
00:00:04.692,-0.0065900175832212,-0.0106223486363888,0.00354109681211412,0,
00:00:04.696,-8.28728007036261E-05,-0.00438969070091844,-0.0030284954700619,0,
00:00:04.7,0.0120627274736762,0.000279745872830972,-0.00271976552903652,0,
00:00:04.704,0.00910912454128265,-0.00160431279800832,0.00754064042121172,0,
00:00:04.708,-0.00275493878871202,0.00869305059313774,-0.00313827442005277,0,
00:00:04.712,-0.0150467660278082,0.00702806422486901,-0.00959124974906445,0,
00:00:04.716,0.000549002375919372,-0.00498238019645214,-0.00345683912746608,0,
00:00:04.72,0.0130277425050735,-0.00783390458673239,0.00921136606484652,0,
00:00:04.724,-0.0064934017136693,-0.000440341711509973,0.00361348688602448,0,
00:00:04.728,-0.009975072927773,0.00455094547942281,-0.00892952177673578,0,
00:00:04.732,0.00579925999045372,0.000508112017996609,0.00347388372756541,0,
00:00:04.736,0.00892446283251047,-0.000426679442171007,0.00649451091885567,0,
00:00:04.74,-0.00142578990198672,-0.00441835494711995,-0.000557468098122627,0,
00:00:04.744,0.0010240285191685,0.00606407131999731,-0.00505790114402771,0,
00:00:04.748,-0.00773919932544231,-0.00267506297677755,0.00982073973864317,0,
00:00:04.752,0.000728046812582761,0.000708581879734993,-0.00922310259193182,0,
00:00:04.756,0.000128024345031008,0.00755337299779058,-0.00765187339857221,0,
00:00:04.76,0.00518571399152279,-0.00740638189017773,-0.0069431527517736,0,
00:00:04.764,-0.00255510630086064,-0.00119107402861118,0.010043085552752,0,
00:00:04.768,-0.0127047598361969,0.000411693821661174,0.0161326993256807,0,
00:00:04.772,0.0180105026811361,0.00247467122972012,0.00182081293314695,0,
00:00:04.776,0.0285490769892931,0.00227840640582144,-0.0130592808127403,0,
00:00:04.78,-0.0361904576420784,-0.00979067105799913,-0.0167279429733753,0,
00:00:04.784,-0.0196142047643662,-0.00161162915173918,0.0160724110901356,0,
00:00:04.788,0.000776571803726256,0.0058090160600841,0.00760690774768591,0,
00:00:04.792,0.0139427855610847,0.00483101978898048,-0.00255536520853639,0,
00:00:04.796,0.012397138401866,0.00545245362445712,-0.00446624588221312,0,
00:00:04.8,0.00290504726581275,-0.00750195747241378,-0.00268245767802,0,
00:00:04.804,-0.00815083459019661,-0.00578793603926897,-0.000269968237262219,0,
00:00:04.808,0.0148783382028341,-0.000636255135759711,0.0033052135258913,0,
00:00:04.812,-0.00991669297218323,0.00484480150043964,0.00368108274415135,0,
00:00:04.816,-0.00465737516060472,0.00340350321494043,-0.00255674938671291,0,
00:00:04.82,0.000681195699144155,-0.00168703938834369,-0.00524375820532441,0,
00:00:04.824,-0.028806084766984,0.000377642514649779,-0.00358730950392783,0,
00:00:04.828,0.0100531633943319,-0.00239732349291444,0.00397598091512918,0,
00:00:04.832,0.0332781672477722,0.00300451484508812,0.00683362409472466,0,
00:00:04.836,0.00211296882480383,0.000708523031789809,0.000407143554184586,0,
00:00:04.84,-0.0120913805440068,-0.00600782828405499,-0.00194139452651143,0,
00:00:04.844,-0.00602097483351827,-0.000565919035580009,-0.00197905278764665,0,
00:00:04.848,-0.00524710398167372,-0.000314253236865625,0.0030920198187232,0,
00:00:04.852,-0.00317047419957817,0.00390764279291034,-0.00404864875599742,0,
00:00:04.856,0.004202367272228,0.00685572065412998,-0.00490201590582728,0,
00:00:04.86,0.00283162482082844,-0.00577986007556319,0.00424696132540703,0,
00:00:04.864,0.00872534234076738,-0.000609528564382344,0.005849814042449,0,
00:00:04.868,-0.000242946785874665,-0.00651146192103624,-0.00329322787001729,0,
00:00:04.872,-0.0107540972530842,0.00311721442267299,-0.0031725422013551,0,
00:00:04.876,-0.00267231650650501,0.00620750105008483,-0.00264265388250351,0,
00:00:04.88,0.0088421730324626,-0.000116171919216868,0.00538600329309702,0,
00:00:04.884,-0.00610614707693458,-0.00422282610088587,0.00139651517383754,0,
00:00:04.888,0.00166868919041008,-0.00398953165858984,0.00166969501879066,0,
00:00:04.892,0.0177831538021564,0.00492443796247244,0.0054103247821331,0,
00:00:04.896,-0.0120283020660281,0.00376734719611704,-0.0102913016453385,0,
00:00:04.9,-0.0096146035939455,0.000233310405747034,-0.0216196496039629,0,
00:00:04.904,-0.000452672829851508,0.00206924765370786,0.0201977789402008,0,
00:00:04.908,-0.00327545660547912,-0.00634648138657212,0.0143051920458674,0,
00:00:04.912,0.00479158153757453,-0.00674584787338972,-0.00270041218027473,0,
00:00:04.916,0.0105322701856494,0.00153481750749052,-0.0070008272305131,0,
00:00:04.92,0.00401860335841775,0.00410275813192129,-0.00290936231613159,0,
00:00:04.924,-0.00491027813404799,0.00113475183025002,-0.00121368747204542,0,
00:00:04.928,-0.00569812534376979,0.00308455945923924,-0.000174045213498175,0,
00:00:04.932,-0.00294669135473669,0.0010091430740431,-0.00362724880687892,0,
00:00:04.936,0.0021633468568325,-0.00326635292731225,0.00685444474220276,0,
00:00:04.94,-0.00640796963125467,-0.00628534890711308,-1.29344780361862E-05,0,
00:00:04.944,0.00416782917454839,0.00597914215177298,-0.00093564041890204,0,
00:00:04.948,0.0120412800461054,0.00868062116205692,0.00187231251038611,0,
00:00:04.952,0.00131142709869891,-0.00187031005043536,-0.00158157385885715,0,
00:00:04.956,-0.0050073554739356,-0.0101614398881793,-0.00119112594984472,0,
00:00:04.96,-0.00587543239817023,-0.000986304017715156,0.00413698190823197,0,
00:00:04.964,-0.00959956273436546,0.00163369881920516,-0.00534652220085263,0,
00:00:04.968,-0.00462993420660496,0.00161014753393829,-0.000612925970926881,0,
00:00:04.972,0.0208648424595594,-0.00329592335037887,0.00160652271006256,0,
00:00:04.976,0.00301378662697971,-0.00415719114243984,0.00384313776157796,0,
00:00:04.98,-0.00347701413556933,0.00690265186131001,0.00306206988170743,0,
00:00:04.984,-0.00196522567421198,0.00655044661834836,-0.00569552974775434,0,
00:00:04.988,0.00198896671645343,0.00826485268771648,-0.00413199467584491,0,
00:00:04.992,0.00250052171759307,-0.00579274212941527,0.00184002704918385,0,
00:00:04.996,-0.00792413018643856,-0.00626528775319457,0.0168986264616251,0,
00:00:05,-0.0273252669721842,-0.0069395094178617,-0.0293787624686956,0,
00:00:05.004,0.0267411712557077,-0.00622055493295193,-0.00628794450312853,0,
00:00:05.008,0.0072400220669806,0.0104299765080214,0.0230723582208157,0,
00:00:05.012,-0.000787731434684247,0.00330754928290844,0.010796426795423,0,
00:00:05.016,-0.004957040771842,-0.0060091270133853,0.00555482460185885,0,
00:00:05.02,-0.00240799784660339,0.00303377583622932,-0.012459073215723,0,
00:00:05.024,-0.00152400822844356,0.00604174844920635,-0.00958472769707441,0,
00:00:05.028,0.005841507576406,0.00165100034791976,-0.0062164100818336,0,
00:00:05.032,0.00523812463507056,-0.000429111387347803,0.00274253077805042,0,
00:00:05.036,-0.000904415384866297,-0.00166774238459766,0.000829326338134706,0,
00:00:05.04,-0.00672879116609693,-0.00628119707107544,0.00550046982243657,0,
00:00:05.044,-0.00463661877438426,-0.00827212817966938,0.00647680088877678,0,
00:00:05.048,-0.000577826227527112,-0.000397029682062566,0.00134833983611315,0,
00:00:05.052,0.0022102608345449,0.00349982362240553,0.00125497486442327,0,
00:00:05.056,0.00284989480860531,0.00640649301931262,-0.0121755069121718,0,
00:00:05.06,-0.000150457286508754,0.0136830722913146,-0.00214015715755522,0,
00:00:05.064,0.00247573340311646,-0.00173816771712154,-0.00191262026783079,0,
00:00:05.068,0.00521143386140466,-0.00760366395115852,0.00693828891962767,0,
00:00:05.072,-0.000605035631451756,-0.00458718277513981,0.00313326856121421,0,
00:00:05.076,-0.0109565518796444,-0.00685697188600898,0.000727756589185447,0,
00:00:05.08,-0.00512269185855985,-0.000938807206694037,0.00140057399403304,0,
00:00:05.084,0.00437511457130313,0.00396652519702911,-0.00108504667878151,0,
00:00:05.088,0.00160057097673416,0.00924452673643827,-0.0046453271061182,0,
00:00:05.092,-0.00111751537770033,0.00142042420338839,-0.00236544758081436,0,
00:00:05.096,0.0237701646983624,-0.00258653750643134,0.000601133448071778,0,
00:00:05.1,0.00575798330828547,-0.00327917421236634,0.00417197635397315,0,
00:00:05.104,-0.0351458601653576,-0.00413490552455187,0.00204801582731307,0,
00:00:05.108,-0.00365407345816493,-0.000489676720462739,0.00144465349148959,0,
00:00:05.112,0.0046510836109519,0.00646317889913917,-0.00385496160015464,0,
00:00:05.116,-0.00784890726208687,0.00303439144045115,-0.0240346062928438,0,
00:00:05.12,0.0186405759304762,-0.00137525366153568,0.027229055762291,0,
00:00:05.124,0.0152440350502729,-0.00743579119443893,0.0075774104334414,0,
00:00:05.128,-0.00155677821021527,-0.00494802184402943,-0.00103207258507609,0,
00:00:05.132,-0.0135706821456552,0.0041597867384553,-0.0102820806205273,0,
00:00:05.136,-0.007154805585742,0.0119971167296171,-0.00228711939416826,0,
00:00:05.14,0.00296142883598804,-0.000509442179463804,-7.54710072214948E-06,0,
00:00:05.144,-0.00362413213588297,-0.00470285443589091,0.00666661653667688,0,
00:00:05.148,-8.29415002954192E-05,-0.00608309963718057,-0.00752361817285419,0,
00:00:05.152,0.00353692867793143,-0.00162577803712338,-0.00456097722053528,0,
00:00:05.156,0.0103994989767671,0.00841247290372849,-0.00064746878342703,0,
00:00:05.16,0.000669888569973409,0.00155555782839656,0.0086125461384654,0,
00:00:05.164,-0.00462419586256146,-0.00655128387734294,0.00587752042338252,0,
00:00:05.168,-0.00718629267066717,-0.0074125025421381,-0.00165321445092559,0,
00:00:05.172,-0.00497307348996401,0.00529481889680028,-0.003235949203372,0,
00:00:05.176,-0.0027333558537066,0.00671261828392744,-0.0042704944498837,0,
00:00:05.18,0.0130768781527877,0.00736413151025772,0.00344788818620145,0,
00:00:05.184,0.0101940128952265,0.00576462782919407,0.00223483331501484,0,
00:00:05.188,-0.00468727154657245,-0.0158819425851107,-0.00261196377687156,0,
00:00:05.192,-0.00533008854836226,-0.011286492459476,2.10295984288678E-05,0,
00:00:05.196,-0.0105614056810737,0.00136958167422563,-0.00423054257407784,0,
00:00:05.2,0.00393088581040502,0.00625542737543583,-0.00273942435160279,0,
00:00:05.204,0.00319280289113522,0.00770301232114434,0.0149954101070762,0,
00:00:05.208,-0.00410996563732624,0.000588144001085311,0.0116912415251136,0,
00:00:05.212,0.0296069458127022,-0.0061926175840199,-0.0343173258006573,0,
00:00:05.216,-0.0335920490324497,-0.000261616398347542,0.00122095400001854,0,
00:00:05.22,-0.00242887204512954,0.00408809073269367,0.00645428989082575,0,
00:00:05.224,0.0100244143977761,0.00185728713404387,0.00956657808274031,0,
00:00:05.228,0.00727967312559485,-0.00103840080555528,0.00903140474110842,0,
00:00:05.232,-0.00102819874882698,-0.000238863998674788,-0.00253350264392793,0,
00:00:05.236,-0.00112307688686997,-0.00181344302836806,-0.0110365999862552,0,
00:00:05.24,-0.00848557706922293,-0.00433176662772894,-0.00590700795874,0,
00:00:05.244,-0.00254598446190357,-0.00350757571868598,0.00920715089887381,0,
00:00:05.248,0.0096700880676508,-0.00266995117999613,0.00275544147007167,0,
00:00:05.252,0.0117784095928073,0.0123709961771965,-0.00825459975749254,0,
00:00:05.256,-0.0111643271520734,0.0114778690040112,-0.0077743916772306,0,
00:00:05.26,-0.00759981898590922,-0.00920383259654045,0.0126764224842191,0,
00:00:05.264,-0.00366883771494031,-0.00920391641557217,0.0127057181671262,0,
00:00:05.268,-0.00172861653845757,-0.00285316654480994,-0.0064685083925724,0,
00:00:05.272,0.0215736273676157,0.00654592923820019,-0.013254314661026,0,
00:00:05.276,-0.00223778211511672,0.00229512481018901,-0.000736902293283492,0,
00:00:05.28,-0.00989902671426535,-7.22105542081408E-05,-0.00251419772394001,0,
00:00:05.284,0.00302787427790463,-0.000953319715335965,0.0074460175819695,0,
00:00:05.288,-0.00714273191988468,-0.00296173407696188,0.0231275353580713,0,
00:00:05.292,-0.000673415081109852,0.00363340531475842,-0.0221800934523344,0,
00:00:05.296,-0.00323341717012227,-0.000293557764962316,-0.0175232477486134,0,
00:00:05.3,0.0135388588532805,-0.00533356238156557,0.0179203022271395,0,
00:00:05.304,0.000889366201590747,0.00530303362756968,0.00499050226062536,0,
00:00:05.308,0.00350573658943176,0.00129582569934428,0.0037910018581897,0,
00:00:05.312,-0.00834712479263544,-0.00294410553760827,-0.00170317036099732,0,
00:00:05.316,-0.00388415507040918,0.00473742885515094,-0.00477440841495991,0,
00:00:05.32,0.00174012721981853,-0.00323988404124975,-0.00640970095992088,0,
00:00:05.324,-0.000426072801928967,-0.00745721301063895,5.93471850152127E-05,0,
00:00:05.328,-0.00186611048411578,0.0051651899702847,0.00218810862861574,0,
00:00:05.332,-0.00324056320823729,0.000398295902414247,-1.37030929181492E-05,0,
00:00:05.336,0.0107669653370976,-0.00165081862360239,0.000983932754024863,0,
00:00:05.34,0.00793738756328821,0.00298409862443805,0.0037449705414474,0,
00:00:05.344,-0.00378557411022484,0.00670877425000072,-0.000667208048980683,0,
00:00:05.348,-0.0197494346648455,0.00275047495961189,-0.00126512616407126,0,
00:00:05.352,0.00659856153652072,-0.00832136627286673,0.00143802620004863,0,
00:00:05.356,0.0334288217127323,-0.00480028614401817,-0.0040425737388432,0,
00:00:05.36,-0.031284261494875,-0.00361694255843759,0.00269910879433155,0,
00:00:05.364,-0.0140986628830433,-0.00128942378796637,0.0038872582372278,0,
00:00:05.368,-0.00409541372209787,0.00758755160495639,-0.00243675173260272,0,
00:00:05.372,0.0115312803536654,0.00326453009620309,-0.00120358739513904,0,
00:00:05.376,0.0201001074165106,0.000482907315017655,-0.0160491224378347,0,
00:00:05.38,0.0144353602081537,-0.000992563320323825,0.00843891873955727,0,
00:00:05.384,-0.0186467505991459,-0.00136740878224373,0.0213150624185801,0,
00:00:05.388,-0.0215131491422653,-0.00310071418061852,-0.00711357779800892,0,
00:00:05.392,0.0113785779103637,-0.00259744445793331,-0.0139761902391911,0,
00:00:05.396,0.0153029123321176,0.0077541652135551,0.00626678485423326,0,
00:00:05.4,0.00639107543975115,0.00389100820757449,-0.000931432237848639,0,
00:00:05.404,-0.0241151191294193,-0.00793522968888283,0.0056120939552784,0,
00:00:05.408,-0.0112531883642077,-0.000405445898650214,-0.00495429802685976,0,
00:00:05.412,0.013970541767776,0.00335320644080639,0.000794941210187972,0,
00:00:05.416,0.000572014600038528,-0.00118155626114458,0.00073642807547003,0,
00:00:05.42,0.0113271176815033,-0.00164116255473346,-0.002495281631127,0,
00:00:05.424,-0.00280221668072045,-0.000584283203352243,-0.00311750615946949,0,
00:00:05.428,-0.00516067538410425,0.000459777395008132,0.00906032230705023,0,
00:00:05.432,-0.00492567149922252,-0.00118637294508517,-0.00265784282237291,0,
00:00:05.436,0.00195834785699844,0.00478509115055203,-0.00348436739295721,0,
00:00:05.44,0.00111146026756614,-3.11911862809211E-05,0.00110593158751726,0,
00:00:05.444,0.0017227113712579,-0.00363847427070141,-0.000817169668152928,0,
00:00:05.448,0.00573840783908963,0.000656244345009327,-0.00193553743883967,0,
00:00:05.452,-0.00533702503889799,0.00116368837188929,0.00509179569780827,0,
00:00:05.456,0.00876122713088989,-0.00166774890385568,0.00283093797042966,0,
00:00:05.46,0.000902524043340236,0.00166045560035855,-0.00291017373092473,0,
00:00:05.464,-0.0212948992848396,0.00314544700086117,-0.00278470921330154,0,
00:00:05.468,-0.0065880031324923,-0.00222479435615242,-0.00295127998106182,0,
00:00:05.472,0.0148993954062462,-0.000528559961821884,0.00473675411194563,0,
00:00:05.476,0.0134180318564177,-0.000969971239101142,0.00919115543365479,0,
00:00:05.48,-0.0106097748503089,-0.00939569342881441,-0.0188246164470911,0,
00:00:05.484,-0.0048598344437778,0.00110180326737463,0.000500960915815085,0,
00:00:05.488,0.00774401566013694,0.0126451002433896,0.0132039478048682,0,
00:00:05.492,0.00229048752225935,0.00834591500461102,-0.000194094347534701,0,
00:00:05.496,-0.00159752042964101,-0.00409450847655535,0.00306374626234174,0,
00:00:05.5,-0.00701910629868507,-0.0119338314980268,-0.00385922659188509,0,
00:00:05.504,0.00386727973818779,-0.00373581191524863,-0.00713543733581901,0,
00:00:05.508,0.00891892984509468,0.00172131904400885,-0.00300978985615075,0,
00:00:05.512,-0.00866533629596233,0.00160816637799144,0.00355365849100053,0,
00:00:05.516,-0.0053172348998487,0.00499960593879223,-0.00263108173385262,0,
00:00:05.52,-0.00506906304508448,0.00289069348946214,0.0136351874098182,0,
00:00:05.524,-0.00439323345199227,0.0018962686881423,-0.00971416477113962,0,
00:00:05.528,0.0222270507365465,-0.00604272354394197,0.00435634609311819,0,
00:00:05.532,0.00261217611841857,-0.00181228294968605,-0.0036854911595583,0,
00:00:05.536,-0.00514416210353374,0.00229285890236497,-5.96816535107791E-05,0,
00:00:05.54,-0.00983318593353033,-0.00317059340886772,0.00305026164278388,0,
00:00:05.544,-0.00532346777617931,-0.00511253578588367,-0.00125082093290985,0,
00:00:05.548,0.0173675455152988,0.00985440891236067,-0.00358993350528181,0,
00:00:05.552,0.00515131093561649,0.0122887333855033,0.00357198831625283,0,
00:00:05.556,-0.0139269335195422,-0.0069391755387187,0.00216947868466377,0,
00:00:05.56,-0.00711917132139206,-0.0160090029239655,-0.00270330673083663,0,
00:00:05.564,-0.00171928573399782,-0.00339160347357392,-3.82235302822664E-05,0,
00:00:05.568,0.00631801271811128,0.00511123007163405,-9.95997179416008E-05,0,
00:00:05.572,0.00822036620229483,0.0092556569725275,-0.00668603414669633,0,
00:00:05.576,-0.00143298925831914,0.00484824134036899,0.00549588771536946,0,
00:00:05.58,-0.00252671842463315,-0.00474576372653246,0.00274129444733262,0,
00:00:05.584,-0.00316381501033902,-0.00377855449914932,0.00895672105252743,0,
00:00:05.588,0.000120799253636505,0.00565115455538034,-0.0126580502837896,0,
00:00:05.592,0.0229682270437479,0.00588027015328407,-0.0160944927483797,0,
00:00:05.596,-0.00928754173219204,-0.00277044740505517,0.0239777993410826,0,
00:00:05.6,-0.0234519354999065,-0.0115859163925052,0.00332584115676582,0,
00:00:05.604,-0.0129778133705258,-0.00854581221938133,-0.000532548467162997,0,
00:00:05.608,0.0166972354054451,-0.00118423148524016,-0.0153967514634132,0,
00:00:05.612,0.0139930034056306,0.0066890912130475,0.0041753277182579,0,
00:00:05.616,0.00537473428994417,0.00864627864211798,0.00284312292933464,0,
00:00:05.62,-0.00621636118739843,0.00558984931558371,-0.00138844957109541,0,
00:00:05.624,-0.00973113067448139,0.000915380660444498,-0.000710337772034109,0,
00:00:05.628,0.0208639446645975,-0.00253587309271097,-0.00137462245766073,0,
00:00:05.632,-0.0051090382039547,0.000506328768096864,0.0074106571264565,0,
00:00:05.636,-0.0141720995306969,-0.00261526834219694,-0.0034190509468317,0,
00:00:05.64,-0.0123930154368281,-0.00424279877915978,-0.00295241223648191,0,
00:00:05.644,0.00227440451271832,-0.00314406678080559,0.00415307935327291,0,
00:00:05.648,0.0066892015747726,-0.00489048892632127,0.00199069525115192,0,
00:00:05.652,0.00998568255454302,-0.00305075151845813,-0.00127965502906591,0,
00:00:05.656,0.00324293226003647,0.0112356403842568,-0.00680092209950089,0,
00:00:05.66,0.00148884335067123,0.0127666788175702,-0.00018450511561241,0,
00:00:05.664,0.00193353195209056,0.00163873331621289,0.00465717259794474,0,
00:00:05.668,-0.00793791469186544,-0.0151153346523643,0.00472674006596208,0,
00:00:05.672,-0.00870433915406466,-0.00263714930042624,-0.0105987768620253,0,
00:00:05.676,-0.00396894477307796,0.00335635105147958,0.000237268657656386,0,
00:00:05.68,0.011814909055829,-0.00861355755478144,0.010637148283422,0,
00:00:05.684,0.000836834311485291,-0.00106508051976562,0.00413363566622138,0,
00:00:05.688,0.000827948038931936,0.0125044668093324,0.000836173770949245,0,
00:00:05.692,0.00577022694051266,0.0120910601690412,-0.0287454705685377,0,
00:00:05.696,-0.0155155817046762,0.00203759595751762,0.00576066132634878,0,
00:00:05.7,0.00794678181409836,-0.0143984351307154,0.0129585461691022,0,
00:00:05.704,-0.000558361352887005,-0.0129778850823641,0.0120146218687296,0,
00:00:05.708,-0.00169471511617303,-6.28669804427773E-05,-0.00341825769282877,0,
00:00:05.712,-0.00040942057967186,0.00601214449852705,-0.0072949044406414,0,
00:00:05.716,0.000799324887339026,0.0041726129129529,-0.00510437646880746,0,
00:00:05.72,-0.0030126494821161,0.00328538520261645,-0.00127680459991097,0,
00:00:05.724,0.0109415529295802,0.00375712919048965,0.00152806099504232,0,
00:00:05.728,-0.00457186531275511,0.00411824509501457,0.00452418299391866,0,
00:00:05.732,0.00123302347492427,-0.00684176990762353,0.00197451771236956,0,
00:00:05.736,-0.00500542670488358,-0.00871356669813395,-0.000848456751555204,0,
00:00:05.74,-0.00923893973231316,-0.00252021383494139,-0.00826326757669449,0,
00:00:05.744,0.00431540003046393,0.00291478098370135,0.00426745321601629,0,
00:00:05.748,0.00932229962199926,0.00469540292397141,0.00643048668280244,0,
00:00:05.752,0.00457791145890951,0.00965247023850679,-0.00311712385155261,0,
00:00:05.756,0.00510394526645541,-0.000793808663729578,-0.00757420109584928,0,
00:00:05.76,-0.0161601100116968,-0.00573486555367708,0.00715032778680325,0,
00:00:05.764,-0.00070847081951797,-0.0116541795432568,-0.00374990166164935,0,
00:00:05.768,0.00264202291145921,-0.00274744187481701,0.00269437441602349,0,
00:00:05.772,-0.00244809128344059,0.011453996412456,0.00241149822250009,0,
00:00:05.776,0.00829918123781681,0.00978008378297091,0.000253166916081682,0,
00:00:05.78,-0.00746732298284769,-0.00167741044424474,0.000754879089072347,0,
00:00:05.784,0.00244353129528463,-0.00797340832650661,-0.00153949297964573,0,
00:00:05.788,0.0027409247122705,-0.00709919957444072,-0.00673905573785305,0,
00:00:05.792,-0.0120488796383142,-0.000381198100512847,0.0020431587472558,0,
00:00:05.796,0.0167575385421515,0.0042007495649159,0.0152931297197938,0,
00:00:05.8,0.0105974171310663,0.00895368587225676,-0.0335529372096062,0,
00:00:05.804,-0.0251718927174807,0.00293724867515266,-0.00100018526427448,0,
00:00:05.808,0.00174006226006895,-0.000909755006432533,0.036157201975584,0,
00:00:05.812,-0.00211107265204191,-0.0111996559426188,0.0102753471583128,0,
00:00:05.816,0.000440814765170217,-0.00561609212309122,-0.0128492396324873,0,
00:00:05.82,0.00739147374406457,0.0038732229731977,-0.0126711986958981,0,
00:00:05.824,0.0165994111448526,0.0054827076382935,-0.0114661175757647,0,
00:00:05.828,0.00232952111400664,-0.00297393277287483,0.00089834991376847,0,
00:00:05.832,-0.00969654321670532,0.0083381338045001,0.00435695145279169,0,
00:00:05.836,-0.0204412192106247,0.00350342108868063,0.00827031210064888,0,
00:00:05.84,-0.00984539091587067,-0.00500221736729145,0.0069775078445673,0,
00:00:05.844,0.00751160131767392,-0.00563180865719914,-0.00180025328882039,0,
00:00:05.848,0.0104995267465711,-0.00275569106452167,-0.00648984732106328,0,
00:00:05.852,0.0171911641955376,0.00242835306562483,0.00269547081552446,0,
00:00:05.856,0.00229244353249669,0.00215020193718374,0.00269222422502935,0,
00:00:05.86,-0.0114373750984669,-0.00355838611721992,-0.0125937191769481,0,
00:00:05.864,-0.003127301344648,0.00139262073207647,0.00334491929970682,0,
00:00:05.868,-0.0148717202246189,0.00454171886667609,-0.00141426816117018,0,
00:00:05.872,0.0117128910496831,-0.00255637802183628,-0.0047354893758893,0,
00:00:05.876,0.00477514555677772,-0.00166423281189054,0.0117106353864074,0,
00:00:05.88,-0.00433365488424897,0.00466953637078404,0.00832914281636477,0,
00:00:05.884,0.00175424059852958,-0.000346953864209354,0.00442856922745705,0,
00:00:05.888,0.00131426576990634,-0.0019734010566026,-0.00893727503716946,0,
00:00:05.892,0.00374470022507012,-0.00575785106047988,-0.000730755040422082,0,
00:00:05.896,-0.0197918638586998,0.00340855051763356,-0.0117289470508695,0,
00:00:05.9,0.00317756203003228,0.00986106507480145,-0.0240283235907555,0,
00:00:05.904,0.0187330767512321,-0.00485423719510436,0.0269580855965614,0,
00:00:05.908,0.002010841621086,-0.0101497210562229,0.0177425611764193,0,
00:00:05.912,-0.00660883821547031,-0.000431761203799397,0.000573209603317082,0,
00:00:05.916,0.00945271551609039,0.0085609732195735,-0.00724668381735682,0,
00:00:05.92,-0.0129498420283198,0.0089533468708396,-0.00556717021390796,0,
00:00:05.924,-0.0120080392807722,-0.0109592508524656,-0.0103236762806773,0,
00:00:05.928,0.00959584768861532,-0.00312280002981424,0.00619457196444273,0,
00:00:05.932,-0.000741593714337796,-0.00524335354566574,0.0054676216095686,0,
00:00:05.936,0.00632958114147186,0.00809070933610201,-0.00547801470384002,0,
00:00:05.94,-0.00356439733877778,0.00447202147915959,-0.00263033527880907,0,
00:00:05.944,-0.00419662799686193,0.00302239554002881,0.00608796440064907,0,
00:00:05.948,0.00301867676898837,0.000823938869871199,-0.000145808371598832,0,
00:00:05.952,0.0123661011457443,-0.00144515477586538,0.00168233003932983,0,
00:00:05.956,-0.0100284833461046,-0.00270180217921734,-0.00363022414967418,0,
00:00:05.96,0.00733948452398181,-0.0109291216358542,0.00515586184337735,0,
00:00:05.964,0.00126711279153824,-0.00827136263251305,0.00612817937508225,0,
00:00:05.968,-0.020397275686264,0.00541394436731935,-0.0103839235380292,0,
00:00:05.972,-0.00799124408513308,0.0139768067747355,-0.00936296861618757,0,
00:00:05.976,0.0129200387746096,0.00532288616523147,0.0082134697586298,0,
00:00:05.98,0.0126023227348924,-0.00536208460107446,0.000227892669499852,0,
00:00:05.984,0.000527631433214992,-0.00226106238551438,0.00636590318754315,0,
00:00:05.988,0.00771348737180233,0.0034170662984252,-0.00670551508665085,0,
00:00:05.992,0.000154147637658753,0.00211590295657516,-0.00145405670627952,0,
00:00:05.996,-0.0192890390753746,-0.00302236201241612,0.0101710082963109,0,
00:00:06,-0.0213749371469021,-0.00919242389500141,-0.00748198619112372,0,
00:00:06.004,0.0199077762663364,-0.00790600664913654,-0.0073284674435854,0,
00:00:06.008,0.0110639501363039,0.00639552995562553,0.00899407453835011,0,
00:00:06.012,-0.00327777024358511,0.00426096841692925,0.00396955478936434,0,
00:00:06.016,0.00583017384633422,0.00650389911606908,-0.000728116370737553,0,
00:00:06.02,0.00325705832801759,0.00529261212795973,0.00127558305393904,0,
00:00:06.024,-0.00808775704354048,0.00135435583069921,-0.0045033753849566,0,
00:00:06.028,-0.00719344522804022,-0.0045215580612421,-0.00851490348577499,0,
00:00:06.032,-0.00220992951653898,-0.00847165659070015,-0.0018263483652845,0,
00:00:06.036,0.01234379876405,-0.00451123202219605,0.0103257354348898,0,
00:00:06.04,-0.0187996253371239,-0.00358133879490197,0.00183929305057973,0,
00:00:06.044,0.00439936853945255,0.0115458043292165,-0.00517905317246914,0,
00:00:06.048,0.0182975549250841,0.0070744133554399,0.00262655364349484,0,
00:00:06.052,-0.00771489320322871,-0.00690606608986855,0.00254368199966848,0,
00:00:06.056,0.00830896478146315,-0.00521573284640908,0.00645731901749969,0,
00:00:06.06,0.00967839173972607,-0.000176781715708785,-0.00947847589850426,0,
00:00:06.064,-0.0309091806411743,0.00706055713817477,-0.00683066807687283,0,
00:00:06.068,-0.00719760917127132,0.003313681576401,0.00403136527165771,0,
00:00:06.072,0.00922335498034954,-0.00151625403668731,0.00842025317251682,0,
00:00:06.076,0.00876626931130886,-0.00988857820630074,-0.0150311626493931,0,
00:00:06.08,0.00771090481430292,0.000806159165222198,0.00965020712465048,0,
00:00:06.084,-0.000489222642499954,-0.000440771342255175,0.0119935097172856,0,
00:00:06.088,0.00289526698179543,0.00668103573843837,-0.0164548382163048,0,
00:00:06.092,-0.0131986942142248,0.0102027738466859,-0.00890142191201448,0,
00:00:06.096,-0.00678162695840001,-0.00431143864989281,0.0160345546901226,0,
00:00:06.1,0.0210506319999695,-0.0119584016501904,0.00572445709258318,0,
00:00:06.104,0.00131049496121705,-0.0011483698617667,-0.0018465097527951,0,
00:00:06.108,-0.0168209653347731,-0.00165069149807096,-0.00268316175788641,0,
00:00:06.112,-0.00912686716765165,0.00239946343936026,-0.00803081691265106,0,
00:00:06.116,-0.00191607302986085,0.00447986973449588,-0.00125238031614572,0,
00:00:06.12,0.0140813561156392,0.0036168962251395,0.0020662909373641,0,
00:00:06.124,0.0191438272595406,0.00955579336732626,0.00268466444686055,0,
00:00:06.128,-0.00570012163370848,-0.00258026202209294,-0.00030460098059848,0,
00:00:06.132,-0.0149070015177131,-0.0123419081792235,0.00451626349240541,0,
00:00:06.136,-0.00276081147603691,-0.00937669444829226,-0.000814080005511642,0,
00:00:06.14,-0.00178684573620558,-0.00182901753578335,-0.000198497917153873,0,
00:00:06.144,0.011269218288362,0.00835783965885639,-0.00156076555140316,0,
00:00:06.148,-0.000807546370197088,0.00854996498674154,-0.00406314758583903,0,
00:00:06.152,0.00561670586466789,0.00607555080205202,-0.00342067005112767,0,
00:00:06.156,-0.00909135956317186,0.00347827817313373,0.00343305710703135,0,
00:00:06.16,-0.00409811967983842,-0.00470304582268,0.00620719185099006,0,
00:00:06.164,0.000396161922253668,-0.0165636111050844,0.00217461423017085,0,
00:00:06.168,0.00050629919860512,-0.000511724269017577,0.00238608941435814,0,
00:00:06.172,-0.00585348159074783,0.00663851574063301,-0.0154706323519349,0,
00:00:06.176,0.0211393609642982,0.000124276892165653,-0.0123669151216745,0,
00:00:06.18,0.00460788141936064,-0.00396410143002868,0.0171965602785349,0,
00:00:06.184,-0.0175358392298222,0.00106424803379923,0.0185983739793301,0,
00:00:06.188,-0.00633818516507745,0.0128556611016393,0.00501259136945009,0,
00:00:06.192,0.0139085585251451,0.00464907940477133,-0.0213573724031448,0,
00:00:06.196,-0.00322463130578399,-0.00864795688539743,-0.011631878092885,0,
00:00:06.2,-0.0141142224892974,-0.0122068375349045,0.00867890939116478,0,
00:00:06.204,-0.00295207346789539,0.00117116211913526,0.00522409612312913,0,
00:00:06.208,0.0155937923118472,0.00297222007066011,-0.00119367206934839,0,
00:00:06.212,0.0143057433888316,0.00382202165201306,0.00040720246033743,0,
00:00:06.216,-0.00609520124271512,0.00280280690640211,-0.00440160324797034,0,
00:00:06.22,-0.00963731575757265,0.00502483546733856,-0.0010091916192323,0,
00:00:06.224,-0.0076781096868217,0.0035782374907285,0.00651538232341409,0,
00:00:06.228,0.00159648840781301,-0.00646262522786856,0.0013282805448398,0,
00:00:06.232,-0.00385678932070732,-0.0204173605889082,-0.00118600111454725,0,
00:00:06.236,0.0155574707314372,-0.000796825566794723,0.000354980351403356,0,
00:00:06.24,0.0100947413593531,0.0138381477445364,-0.0031344904564321,0,
00:00:06.244,-0.00912766344845295,0.0146892191842198,-0.00402579642832279,0,
00:00:06.248,-0.0100782979279757,0.000440184026956558,3.6342902603792E-05,0,
00:00:06.252,0.00201677507720888,-0.00484137609601021,0.00914136413484812,0,
00:00:06.256,-0.0148388342931867,-0.0114354593679309,-0.000685242703184485,0,
00:00:06.26,0.00694895070046186,-0.00571853062137961,-0.00315106683410704,0,
00:00:06.264,0.0216356944292784,0.00135024660266936,-0.00634789559990168,0,
