,Elapsed Time,EMG
0,00:00:00,-1.2267860174179006
1,00:00:00.004,1.177794396877286
2,00:00:00.008,0.9584950208663929
3,00:00:00.012,0.0942432656884196
4,00:00:00.016,-0.4933489263057711
5,00:00:00.02,-0.603807896375656
6,00:00:00.024,-0.366139128804207
7,00:00:00.028,-0.0363388173282146
8,00:00:00.032,0.17375259101390902
9,00:00:00.036,0.22832491993904097
10,00:00:00.04,0.175768189132213
11,00:00:00.044,0.0615712255239487
12,00:00:00.048,-0.0169251095503569
13,00:00:00.052,-0.0634418055415155
14,00:00:00.056,-0.07167516648769359
15,00:00:00.06,-0.040944572538137394
16,00:00:00.064,-0.0013468337710946794
17,00:00:00.068,0.0270005986094474
18,00:00:00.072,0.033114258199930205
19,00:00:00.076,0.014136440120637441
20,00:00:00.08,-0.006577096064575021
21,00:00:00.084,-0.017154319211840588
22,00:00:00.088,-0.012173254974186448
23,00:00:00.092,-0.004500292707234621
24,00:00:00.096,0.00687333941459655
25,00:00:00.1,0.008874601218849431
26,00:00:00.104,0.016055924206739316
27,00:00:00.108,0.018362779635936
28,00:00:00.112,-0.00875216710846871
29,00:00:00.116,-0.032050900394096984
30,00:00:00.12,-0.028976649628020868
31,00:00:00.124,0.004939655249472702
32,00:00:00.128,0.02295549004338685
33,00:00:00.132,0.02154790027998392
34,00:00:00.136,0.007464388239895927
35,00:00:00.14,-0.0029342031921260094
36,00:00:00.144,-0.012148405687185055
37,00:00:00.148,-0.018553348258137724
38,00:00:00.152,0.01430390091263687
39,00:00:00.156,0.004533591356448593
40,00:00:00.16,-0.017520628542115488
41,00:00:00.164,-0.0015430890489369705
42,00:00:00.168,0.014165864093229159
43,00:00:00.172,0.009250377537682647
44,00:00:00.176,-0.008118085446767509
45,00:00:00.18,0.008757575415074818
46,00:00:00.184,-0.00532813684549183
47,00:00:00.188,-0.0055527987278765146
48,00:00:00.192,-0.008170226356014606
49,00:00:00.196,-0.0014520366676151765
50,00:00:00.2,-0.004024337991722854
51,00:00:00.204,0.00952719128690659
52,00:00:00.208,0.020639809896238155
53,00:00:00.212,0.01139494101516903
54,00:00:00.216,-0.02329462277702991
55,00:00:00.22,-0.022672064747894224
56,00:00:00.224,0.000584571971558026
57,00:00:00.228,0.01077270181849599
58,00:00:00.232,0.01669691305141899
59,00:00:00.236,-0.005029847496189176
60,00:00:00.24,0.0025850236997939638
61,00:00:00.244,0.0033712492295307995
62,00:00:00.248,-0.01229274622164666
63,00:00:00.252,0.0003563611535355501
64,00:00:00.256,-0.00962028474896215
65,00:00:00.26,-0.001363830087939275
66,00:00:00.264,0.002291929500643167
67,00:00:00.268,0.0203902388457209
68,00:00:00.272,0.01076057180762294
69,00:00:00.276,-0.0073123217152897225
70,00:00:00.28,-0.02329641580581662
71,00:00:00.284,0.002618668542709203
72,00:00:00.288,0.0058444018504815246
73,00:00:00.292,-0.008040760527364915
74,00:00:00.296,-0.00343613047152758
75,00:00:00.3,0.016150431707501408
76,00:00:00.304,0.013668054336449124
77,00:00:00.308,-0.011680935858748851
78,00:00:00.312,-0.013178001128835614
79,00:00:00.316,-0.003139578446280212
80,00:00:00.32,0.01105206678039394
81,00:00:00.324,0.005118128312460615
82,00:00:00.328,-0.002289714611833914
83,00:00:00.332,-0.0009041737357620149
84,00:00:00.336,0.0007627832201251275
85,00:00:00.34,-0.0033893074360094003
86,00:00:00.344,-0.002526134718209505
87,00:00:00.348,0.005935310851782557
88,00:00:00.352,-0.00877549315919169
89,00:00:00.356,-0.0013765712283202404
90,00:00:00.36,0.0037890254316153074
91,00:00:00.364,0.000573126890230923
92,00:00:00.368,0.021259037079289587
93,00:00:00.372,-0.0021056582627352344
94,00:00:00.376,-0.01860895587014967
95,00:00:00.38,-0.01975765021052215
96,00:00:00.384,0.012188860913738612
97,00:00:00.388,0.009709804231533784
98,00:00:00.392,0.0010377469880040692
99,00:00:00.396,0.0005326516693457947
100,00:00:00.4,0.0010205153666902312
101,00:00:00.404,0.015173229519859928
102,00:00:00.408,-0.0016553847599425377
103,00:00:00.412,-0.022305250502540713
104,00:00:00.416,-0.012221318567753768
105,00:00:00.42,-0.0017763184150680932
106,00:00:00.424,0.018242150511468967
107,00:00:00.428,0.009104091350309316
108,00:00:00.432,-0.0001994487174670205
109,00:00:00.436,0.0056340810260735496
110,00:00:00.44,0.004174752592916775
111,00:00:00.444,-0.015634798910468792
112,00:00:00.448,-0.02282597078010436
113,00:00:00.452,0.00947329879272729
114,00:00:00.456,0.00922275951597844
115,00:00:00.46,0.0043249346490483774
116,00:00:00.464,0.00021507682686205693
117,00:00:00.468,-0.005707794916816056
118,00:00:00.472,0.014990957919508201
119,00:00:00.476,0.02421247703023252
120,00:00:00.48,-0.02609912795014676
121,00:00:00.484,-0.03367988578975195
122,00:00:00.488,-0.010177259304327883
123,00:00:00.492,0.017574768629856366
124,00:00:00.496,0.03182866057613866
125,00:00:00.5,0.012694369303062558
126,00:00:00.504,-0.015451360282895649
127,00:00:00.508,-0.011683237302349925
128,00:00:00.512,-0.012566007935674865
129,00:00:00.516,0.002774304753984327
130,00:00:00.52,0.007189519787061726
131,00:00:00.524,0.005475170968566095
132,00:00:00.528,-0.0002765938479569752
133,00:00:00.532,-0.0012390597694320606
134,00:00:00.536,0.007535954995546491
135,00:00:00.54,0.0001750634983181923
136,00:00:00.544,-0.012378304629237342
137,00:00:00.548,-0.011315373594697994
138,00:00:00.552,0.000840246168081648
139,00:00:00.556,0.014929096563719192
140,00:00:00.56,0.00727905740495772
141,00:00:00.564,-0.00628679455257952
142,00:00:00.568,0.008119756239466359
143,00:00:00.572,0.000804249953944231
144,00:00:00.576,-0.021260763518512252
145,00:00:00.58,-0.002562364737968897
146,00:00:00.584,0.01893863792065529
147,00:00:00.588,0.01016572187654674
148,00:00:00.592,-0.021565883886069108
149,00:00:00.596,-0.014530289692629594
150,00:00:00.6,0.0008857196662575098
151,00:00:00.604,0.018666464020498118
152,00:00:00.608,0.023924156674183936
153,00:00:00.612,-0.003524920204654342
154,00:00:00.616,-0.016037045861594407
155,00:00:00.62,-0.010096851037815213
156,00:00:00.624,-0.003281266195699564
157,00:00:00.628,-0.004360516672022637
158,00:00:00.632,0.00792915793135762
159,00:00:00.636,0.004353331925813109
160,00:00:00.64,0.0037884501507505774
161,00:00:00.644,0.014823744568275263
162,00:00:00.648,0.0008401166560361121
163,00:00:00.652,-0.019038727856241167
164,00:00:00.656,-0.012840083276387314
165,00:00:00.66,-0.007061427852022468
166,00:00:00.664,0.010783039833768271
167,00:00:00.668,0.000568859715713188
168,00:00:00.672,0.018986448034411265
169,00:00:00.676,0.0409836256367271
170,00:00:00.68,-0.02256965297419809
171,00:00:00.684,-0.050887718069134294
172,00:00:00.688,-0.020647921031923012
173,00:00:00.692,0.017994121188166918
174,00:00:00.696,0.035967736272141296
175,00:00:00.7,0.00409484573174268
176,00:00:00.704,-0.00992204784415662
177,00:00:00.708,0.010361697641201342
178,00:00:00.712,-0.0014729700051248
179,00:00:00.716,-0.01587341190315778
180,00:00:00.72,-0.012085053022019513
181,00:00:00.724,-0.00218804698670283
182,00:00:00.728,0.011777403968153513
183,00:00:00.732,0.01248596236109735
184,00:00:00.736,-0.00661481905262917
185,00:00:00.74,0.00616948632523418
186,00:00:00.744,0.01228148594964295
187,00:00:00.748,-0.013783197500743012
188,00:00:00.752,-0.016094083199277517
189,00:00:00.756,-0.005011558823753152
190,00:00:00.76,0.0048986600595526345
191,00:00:00.764,0.006411154798115603
192,00:00:00.768,0.008535671760910189
193,00:00:00.772,-0.010588513236143628
194,00:00:00.776,0.0064007693727035075
195,00:00:00.78,0.03429594522458499
196,00:00:00.784,-0.009067903265531627
197,00:00:00.788,-0.04004965261265172
198,00:00:00.792,-0.014435349694394972
199,00:00:00.796,0.0180519152709167
200,00:00:00.8,0.012664090442058297
201,00:00:00.804,0.0032785116454761027
202,00:00:00.808,-0.004735016489576086
203,00:00:00.812,-0.00197835776043575
204,00:00:00.816,-0.004812849452719091
205,00:00:00.82,0.029088331386446977
206,00:00:00.824,-0.005128104297909885
207,00:00:00.828,-0.017765394004527507
208,00:00:00.832,-0.01600671970754771
209,00:00:00.836,-0.001683503680396826
210,00:00:00.84,0.008655825658934191
211,00:00:00.844,0.0106462640396785
212,00:00:00.848,0.008731894509764974
213,00:00:00.852,0.0011210215161554509
214,00:00:00.856,0.00170739425811917
215,00:00:00.86,-0.01597056727041492
216,00:00:00.864,-0.007070456405926959
217,00:00:00.868,0.01404381419342822
218,00:00:00.872,-0.004143778547586409
219,00:00:00.876,-0.021176745918637573
220,00:00:00.88,0.013537136994273172
221,00:00:00.884,0.03257995716626282
222,00:00:00.888,-0.005356461984774795
223,00:00:00.892,-0.026460184404641075
224,00:00:00.896,-0.0019441536851445536
225,00:00:00.9,0.005133636337177455
226,00:00:00.904,0.0044771633110940404
227,00:00:00.908,0.0016790530280559332
228,00:00:00.912,0.0015419388073496514
229,00:00:00.916,-0.007485745372832755
230,00:00:00.92,-0.002919022575952111
231,00:00:00.924,0.004641643812647089
232,00:00:00.928,0.00259660417214036
233,00:00:00.932,-0.0003767148591577961
234,00:00:00.936,0.01299259834922846
235,00:00:00.94,0.0017431348533136757
236,00:00:00.944,-0.023071414092555677
237,00:00:00.948,-0.004966057080309834
238,00:00:00.952,-0.0012392997450660932
239,00:00:00.956,0.009084101315238517
240,00:00:00.96,0.024194333498599035
241,00:00:00.964,-0.004851201811106867
242,00:00:00.968,-0.022317639668472115
243,00:00:00.972,0.003787527530221267
244,00:00:00.976,0.008668481499626072
245,00:00:00.98,0.010563494957750663
246,00:00:00.984,-0.0195616602795781
247,00:00:00.988,-0.011726278797141276
248,00:00:00.992,0.006677484711872236
249,00:00:00.996,0.012351245974059562
250,00:00:01,0.0064025172578112705
251,00:00:01.004,-0.0028646074206335505
252,00:00:01.008,-0.008875099476426845
253,00:00:01.012,-0.005368992104195057
254,00:00:01.016,0.010566864133579656
255,00:00:01.02,0.012511946086306121
256,00:00:01.024,-0.005167847062693912
257,00:00:01.028,-0.016352067061234224
258,00:00:01.032,-0.013503249501809481
259,00:00:01.036,0.013372141271247525
260,00:00:01.04,0.011086595652159303
261,00:00:01.044,0.00835089606698602
262,00:00:01.048,-0.01390576350968331
263,00:00:01.052,0.006640065243118399
264,00:00:01.056,0.013150399259757245
265,00:00:01.06,-0.026333362955483563
266,00:00:01.064,-0.015088718180777541
267,00:00:01.068,0.006249991070944818
268,00:00:01.072,0.007877803946030323
269,00:00:01.076,0.02534820958680934
270,00:00:01.08,0.01523013719997834
271,00:00:01.084,-0.012223508507304371
272,00:00:01.088,-0.032217345727985944
273,00:00:01.092,-0.007916827278677376
274,00:00:01.096,0.0087173996726051
275,00:00:01.1,0.008839237503707409
276,00:00:01.104,0.00840174744371325
277,00:00:01.108,0.0004903329681837862
278,00:00:01.112,-0.00662578374613076
279,00:00:01.116,0.0013134963810443896
280,00:00:01.12,-0.0024350988678634097
281,00:00:01.124,0.006025951122865085
282,00:00:01.128,0.004198219045065349
283,00:00:01.132,-0.006652961135841899
284,00:00:01.136,-0.003869831882184367
285,00:00:01.14,-0.005636942252749582
286,00:00:01.144,0.00020124879665672606
287,00:00:01.148,0.0024150925055437295
288,00:00:01.152,0.01935743930516764
289,00:00:01.156,-0.003336477675475176
290,00:00:01.16,-0.01571415814396459
291,00:00:01.164,-0.00291258981451393
292,00:00:01.168,0.005361701594665652
293,00:00:01.172,-0.0017361268983222549
294,00:00:01.176,-0.009489495714660736
295,00:00:01.18,0.019474780187010803
296,00:00:01.184,0.026244295295327912
297,00:00:01.188,-0.003836496151052413
298,00:00:01.192,-0.03970759763615202
299,00:00:01.196,-0.025164011196466208
300,00:00:01.2,0.0026746796211227796
301,00:00:01.204,0.03371657454408706
302,00:00:01.208,0.01854137342888863
303,00:00:01.212,0.010348661511670795
304,00:00:01.216,-0.007679895090404892
305,00:00:01.22,-0.02679956634528937
306,00:00:01.224,-0.01018635299988089
307,00:00:01.228,0.0024395892396569204
308,00:00:01.232,0.0017247814685106386
309,00:00:01.236,0.01535640913061799
310,00:00:01.24,0.0024685726966709003
311,00:00:01.244,0.00478682829998434
312,00:00:01.248,0.0025166231207549494
313,00:00:01.252,-0.01205502776429057
314,00:00:01.256,-0.00930195662658661
315,00:00:01.26,0.0024116897766361988
316,00:00:01.264,-0.00014610198559239095
317,00:00:01.268,-0.010431900969706425
318,00:00:01.272,0.004845906427362931
319,00:00:01.276,0.037010889500379535
320,00:00:01.28,0.011001762934029099
321,00:00:01.284,-0.032161740818992215
322,00:00:01.288,-0.030837014914141064
323,00:00:01.292,-0.002272529140100233
324,00:00:01.296,0.02967834204901009
325,00:00:01.3,0.011872967239469338
326,00:00:01.304,-0.00522451952565461
327,00:00:01.308,-0.002821229092660355
328,00:00:01.312,-0.009456746745854611
329,00:00:01.316,-0.0011443475668784298
330,00:00:01.32,0.005250631365925074
331,00:00:01.324,0.003759394656299266
332,00:00:01.328,0.00045585466432385125
333,00:00:01.332,0.0003445442416705153
334,00:00:01.336,-0.00203529023565352
335,00:00:01.34,-0.007017795847787058
336,00:00:01.344,-0.004189752300590048
337,00:00:01.348,0.004780926537932829
338,00:00:01.352,0.020589977473719042
339,00:00:01.356,-0.00011985708260909116
340,00:00:01.36,-0.025572224232746518
341,00:00:01.364,-0.022149940661620317
342,00:00:01.368,0.023831007041735568
343,00:00:01.372,0.030177994838595602
344,00:00:01.376,0.006036991574546843
345,00:00:01.38,-0.029955323486319647
346,00:00:01.384,-0.01464075243256957
347,00:00:01.388,0.0010216060190941791
348,00:00:01.392,0.006900362889609827
349,00:00:01.396,0.013045236960692817
350,00:00:01.4,0.014664279065982562
351,00:00:01.404,-0.011557280551642159
352,00:00:01.408,-0.00817138561978936
353,00:00:01.412,-0.004378097830340264
354,00:00:01.416,-0.009043574566021562
355,00:00:01.42,0.005424756149295716
356,00:00:01.424,0.002585205598734321
357,00:00:01.428,0.017865659727249343
358,00:00:01.432,0.014436366378504293
359,00:00:01.436,-0.01863114465959367
360,00:00:01.44,-0.01582599338144066
361,00:00:01.444,-0.007842300634365477
362,00:00:01.448,0.0007567744469270108
363,00:00:01.452,0.001912921419716441
364,00:00:01.456,0.01715447159949688
365,00:00:01.46,0.014558733179001108
366,00:00:01.464,0.0037758302642032504
367,00:00:01.468,-0.02459124499000606
368,00:00:01.472,-0.01913351420080288
369,00:00:01.476,0.01751496852375567
370,00:00:01.48,0.0181665485724807
371,00:00:01.484,-0.006779186660423881
372,00:00:01.488,-0.01866673561744389
373,00:00:01.492,-0.001388507902447598
374,00:00:01.496,0.009308964596129949
375,00:00:01.5,0.00791285745799542
376,00:00:01.504,0.00043516466394066637
377,00:00:01.508,1.1487340088935007e-05
378,00:00:01.512,0.006263356423005459
379,00:00:01.516,-0.01072638970799745
380,00:00:01.52,-0.01072237873449922
381,00:00:01.524,-0.001460328698158271
382,00:00:01.528,0.005463695619255308
383,00:00:01.532,0.00898003892507404
384,00:00:01.536,0.004449462423508518
385,00:00:01.54,0.003269599576015028
386,00:00:01.544,-0.007645325735211369
387,00:00:01.548,-0.01523205067496744
388,00:00:01.552,0.0014583930606022481
389,00:00:01.556,0.012174306510132737
390,00:00:01.56,0.02587077859789134
391,00:00:01.564,-0.009873397939372804
392,00:00:01.568,-0.03155428939498965
393,00:00:01.572,-0.017432854976505048
394,00:00:01.576,0.009199063089909035
395,00:00:01.58,0.02548591652885079
396,00:00:01.584,0.013322768034413408
397,00:00:01.588,0.008526001707650721
398,00:00:01.592,-0.007025222177617248
399,00:00:01.596,-0.025101016202825087
400,00:00:01.6,-0.010727529588621105
401,00:00:01.604,0.009333830443210902
402,00:00:01.608,0.0035559894786274526
403,00:00:01.612,0.0016110655997181264
404,00:00:01.616,0.011693839929648672
405,00:00:01.62,0.0017818299529608378
406,00:00:01.624,-0.00671644970134367
407,00:00:01.628,-0.008102108964521909
408,00:00:01.632,0.0018556034247012546
409,00:00:01.636,0.0028546062385430507
410,00:00:01.64,-0.009252590833057187
411,00:00:01.644,-0.003009725143783729
412,00:00:01.648,0.02532007651734606
413,00:00:01.652,0.016580814915869296
414,00:00:01.656,-0.020033979690197184
415,00:00:01.66,-0.02645869050138576
416,00:00:01.664,-0.003508663235152195
417,00:00:01.668,0.00915488903410733
418,00:00:01.672,0.007150785299018031
419,00:00:01.676,0.008903968991944525
420,00:00:01.68,0.012693808152107565
421,00:00:01.684,-0.004689751775003973
422,00:00:01.688,-0.016581638017669285
423,00:00:01.692,-0.008265445067081595
424,00:00:01.696,0.002040609775576746
425,00:00:01.7,0.0174254660960287
426,00:00:01.704,0.00066699867602438
427,00:00:01.708,-0.00520906387828291
428,00:00:01.712,-0.00476035563042387
429,00:00:01.716,0.00014595949323848324
430,00:00:01.72,-0.0013244134606793558
431,00:00:01.724,-0.003944727825000877
432,00:00:01.728,0.011706217395840176
433,00:00:01.732,0.005279446311760692
434,00:00:01.736,-0.017809625809604736
435,00:00:01.74,-0.009540761733660474
436,00:00:01.744,0.019999195414129603
437,00:00:01.748,0.025226106343325273
438,00:00:01.752,-0.019342013187269892
439,00:00:01.756,-0.02558528265217319
440,00:00:01.76,0.0023952675983309702
441,00:00:01.764,0.021118625183589798
442,00:00:01.768,-0.007685182004934174
443,00:00:01.772,0.00042368914000689767
444,00:00:01.776,0.00217006960883736
445,00:00:01.78,-0.0009777345694601597
446,00:00:01.784,0.0015712515451014107
447,00:00:01.788,0.0066614793613553
448,00:00:01.792,-0.00482980196829886
449,00:00:01.796,-0.00834952233708464
450,00:00:01.8,-0.01358125556726008
451,00:00:01.804,0.014038737106602644
452,00:00:01.808,0.01258537315879948
453,00:00:01.812,-0.0075277968717273325
454,00:00:01.816,0.00946165679488331
455,00:00:01.82,0.003880429198034102
456,00:00:01.824,-0.012873433530330684
457,00:00:01.828,-0.01474345266615273
458,00:00:01.832,-0.006775803369237115
459,00:00:01.836,0.013069991138763688
460,00:00:01.84,0.008653599368699362
461,00:00:01.844,0.011051434674300252
462,00:00:01.848,0.0095152355497703
463,00:00:01.852,-0.01864713639952245
464,00:00:01.856,-0.012925895629450708
465,00:00:01.86,-0.0048254891880787866
466,00:00:01.864,0.004306323040509598
467,00:00:01.868,0.0058987376687582565
468,00:00:01.872,0.018684295755520032
469,00:00:01.876,-0.0017990075066336454
470,00:00:01.88,-0.01121562032494694
471,00:00:01.884,-0.00581804267130793
472,00:00:01.888,-0.0034319776750635403
473,00:00:01.892,-0.000701553435646926
474,00:00:01.896,0.0038843000074848576
475,00:00:01.9,0.005253719238680785
476,00:00:01.904,0.01181376620661466
477,00:00:01.908,-0.013482052099789118
478,00:00:01.912,-0.0063359427731484175
479,00:00:01.916,0.0079496088437736
480,00:00:01.92,0.01584884617477654
481,00:00:01.924,0.00011059269309044058
482,00:00:01.928,-0.028136568609625122
483,00:00:01.932,-0.011196275023394268
484,00:00:01.936,0.001977322390303013
485,00:00:01.94,0.019247976946644534
486,00:00:01.944,0.02035138662904497
487,00:00:01.948,0.005106938417156931
488,00:00:01.952,-0.014297632646048414
489,00:00:01.956,-0.023228155303513638
490,00:00:01.96,-0.003325033525470642
491,00:00:01.964,0.0075045374251203655
492,00:00:01.968,0.009355900881928376
493,00:00:01.972,0.014103010980761603
494,00:00:01.976,-0.0007153528886192361
495,00:00:01.98,-0.014880482132866765
496,00:00:01.984,-0.00690613014785413
497,00:00:01.988,-0.0016113182300614465
498,00:00:01.992,0.006173229292471658
499,00:00:01.996,0.005941414481640091
500,00:00:02,0.0066765832016244565
501,00:00:02.004,-0.0005272915441310051
502,00:00:02.008,-0.01161681184021291
503,00:00:02.012,-0.00800410605734214
504,00:00:02.016,-0.002518983586924155
505,00:00:02.02,0.027547091711312546
506,00:00:02.024,0.006515010230941691
507,00:00:02.028,-0.023777033435180762
508,00:00:02.032,-0.009757442167028806
509,00:00:02.036,0.00244171009398997
510,00:00:02.04,0.00973804073873907
511,00:00:02.044,0.0026434906758368007
512,00:00:02.048,0.011432686820626219
513,00:00:02.052,-0.0011373161105439037
514,00:00:02.056,-0.008069712901487947
515,00:00:02.06,-0.018292651860974743
516,00:00:02.064,-0.004245441989041864
517,00:00:02.068,0.018830501358024818
518,00:00:02.072,0.016534981070435634
519,00:00:02.076,-0.010027709795394912
520,00:00:02.08,-0.01494402253592852
521,00:00:02.084,0.000391428256989457
522,00:00:02.088,0.014150509164664933
523,00:00:02.092,-0.000789460624218922
524,00:00:02.096,-0.006723205195157787
525,00:00:02.1,-0.0012973808843526064
526,00:00:02.104,-0.001059019963577154
527,00:00:02.108,0.0012909981287521114
528,00:00:02.112,0.01276827599212992
529,00:00:02.116,0.002361152291996407
530,00:00:02.12,-0.01753027577069587
531,00:00:02.124,-0.011755236939052347
532,00:00:02.128,0.008373768941055465
533,00:00:02.132,0.008169866399839517
534,00:00:02.136,-0.0035011636668969013
535,00:00:02.14,0.010790360435464667
536,00:00:02.144,0.011007501816038703
537,00:00:02.148,-0.015671544889755792
538,00:00:02.152,-0.010258649787374449
539,00:00:02.156,0.00881434930488467
540,00:00:02.16,-0.005822935781907293
541,00:00:02.164,-0.000912474410142745
542,00:00:02.168,-0.00365474203135818
543,00:00:02.172,0.003007909632287916
544,00:00:02.176,0.01917279152257831
545,00:00:02.18,0.008160484372638164
546,00:00:02.184,-0.02198885148391128
547,00:00:02.188,-0.00810220096172998
548,00:00:02.192,0.00492906745057553
549,00:00:02.196,-0.0036392409820109606
550,00:00:02.2,-0.0012948485091328601
551,00:00:02.204,0.019352845265530078
552,00:00:02.208,0.007393855252303181
553,00:00:02.212,-0.01480484253261237
554,00:00:02.216,-0.01825221616309136
555,00:00:02.22,0.0034953512549691385
556,00:00:02.224,0.009536982659483322
557,00:00:02.228,0.006993406685069202
558,00:00:02.232,0.001898548827739436
559,00:00:02.236,-0.0019895321602234634
560,00:00:02.24,0.0007955771361594094
561,00:00:02.244,-0.006596128267119639
562,00:00:02.248,-0.00017721083713695494
563,00:00:02.252,-0.010163448867388071
564,00:00:02.256,0.0033027089666575198
565,00:00:02.26,0.01168361505551729
566,00:00:02.264,0.007845041865948586
567,00:00:02.268,-0.00775380816776306
568,00:00:02.272,-0.007094464031979447
569,00:00:02.276,0.0043483570261742014
570,00:00:02.28,0.00034324522130191245
571,00:00:02.284,-0.00768404663540424
572,00:00:02.288,-0.0016567145357839759
573,00:00:02.292,0.014606296084821233
574,00:00:02.296,0.006155474227853119
575,00:00:02.3,-0.01665304519701746
576,00:00:02.304,-0.00889301253482699
577,00:00:02.308,0.017423641402274342
578,00:00:02.312,0.011243819841183715
579,00:00:02.316,-0.02005153673235328
580,00:00:02.32,-0.007538362711784433
581,00:00:02.324,0.0072345488006249
582,00:00:02.328,-0.0009211375727318188
583,00:00:02.332,-0.0018630188351380654
584,00:00:02.336,0.023215617926325597
585,00:00:02.34,0.018175953824538727
586,00:00:02.344,-0.02969664568081496
587,00:00:02.348,-0.030229363881517174
588,00:00:02.352,0.001861945522250608
589,00:00:02.356,0.013102944809361382
590,00:00:02.36,0.02235053351614623
591,00:00:02.364,0.006329589610686533
592,00:00:02.368,-0.009889187553199008
593,00:00:02.372,-0.005773263670562297
594,00:00:02.376,-0.001981669061933648
595,00:00:02.38,-0.006148868254967968
596,00:00:02.384,-0.0038573989950236908
597,00:00:02.388,0.0005573308935709043
598,00:00:02.392,0.00992330422741361
599,00:00:02.396,0.006712966252962359
600,00:00:02.4,0.0067971307871630415
601,00:00:02.404,-0.003204316366463901
602,00:00:02.408,-0.01928833848796789
603,00:00:02.412,-0.00841629470232874
604,00:00:02.416,0.01488285523373634
605,00:00:02.42,0.006407597218640153
606,00:00:02.424,-0.00795218534767628
607,00:00:02.428,0.0054203675099415635
608,00:00:02.432,-0.00025786781770875715
609,00:00:02.436,-0.0009709967198432395
610,00:00:02.44,0.0037742149143014108
611,00:00:02.444,-0.0017749730905052233
612,00:00:02.448,0.00321752822492272
613,00:00:02.452,-0.003665392490802339
614,00:00:02.456,-0.017395751681760843
615,00:00:02.46,-0.0012218912524986083
616,00:00:02.464,0.022093136220064487
617,00:00:02.468,0.011543882244950539
618,00:00:02.472,-0.013633985341584817
619,00:00:02.476,-0.010983891974319704
620,00:00:02.48,0.004583126581565008
621,00:00:02.484,0.0070512472702262095
622,00:00:02.488,-0.007023642419881069
623,00:00:02.492,-0.005735452543376587
624,00:00:02.496,0.01025280135218054
625,00:00:02.5,0.01268649077974257
626,00:00:02.504,-0.0026866290718316997
627,00:00:02.508,-0.0263189643155783
628,00:00:02.512,-0.0071746411267668
629,00:00:02.516,0.02585314447060232
630,00:00:02.52,0.01479567144997421
631,00:00:02.524,-0.0153050422668457
632,00:00:02.528,-0.012518571922555548
633,00:00:02.532,-0.0017366855463478669
634,00:00:02.536,0.018030207080300877
635,00:00:02.54,0.0012152358758612532
636,00:00:02.544,-0.009671093255747108
637,00:00:02.548,-0.001484839762269989
638,00:00:02.552,-0.0011832975578727198
639,00:00:02.556,-0.0032646182371536274
640,00:00:02.56,0.0018311908934265397
641,00:00:02.564,0.011109175553428894
642,00:00:02.568,0.008681648547280933
643,00:00:02.572,-0.007041930684238194
644,00:00:02.576,-0.011584362495341312
645,00:00:02.58,-0.009581177862855842
646,00:00:02.584,-0.0007916570957604564
647,00:00:02.588,0.01826696815078317
648,00:00:02.592,0.018374310124272587
649,00:00:02.596,-0.016121564498462252
650,00:00:02.6,-0.021331122738047235
651,00:00:02.604,0.0021208507519077102
652,00:00:02.608,0.020294878832828513
653,00:00:02.612,-0.003886788662839534
654,00:00:02.616,0.000643437212829661
655,00:00:02.62,0.0012433176857911154
656,00:00:02.624,-0.00850345132471376
657,00:00:02.628,-0.00831418681082141
658,00:00:02.632,0.0015946697677691193
659,00:00:02.636,0.013838083221202172
660,00:00:02.64,0.02209899039007727
661,00:00:02.644,-0.01108925230801105
662,00:00:02.648,-0.023738372139632702
663,00:00:02.652,-0.01065683038905263
664,00:00:02.656,0.004077570920344447
665,00:00:02.66,0.004639122191292699
666,00:00:02.664,0.015462317736819362
667,00:00:02.668,0.02564664091914887
668,00:00:02.672,-0.01229074690490961
669,00:00:02.676,-0.025636209931690253
670,00:00:02.68,-0.00976951385382563
671,00:00:02.684,0.00590752309653908
672,00:00:02.688,0.015805509407073263
673,00:00:02.692,-0.001454749697586522
674,00:00:02.696,-0.003347944963024927
675,00:00:02.7,0.0011830403818748917
676,00:00:02.704,-0.0008573436280130415
677,00:00:02.708,0.0019400307937758078
678,00:00:02.712,-0.003459389337876927
679,00:00:02.716,0.00927187976776623
680,00:00:02.72,9.639843483447077e-06
681,00:00:02.724,-0.00964039936661721
682,00:00:02.728,0.00247558369301259
683,00:00:02.732,-0.009523561224341387
684,00:00:02.736,-0.008778235263889657
685,00:00:02.74,0.011068636958952997
686,00:00:02.744,0.02275984711013736
687,00:00:02.748,0.0040144889499060775
688,00:00:02.752,-0.01765169655118368
689,00:00:02.756,-0.012670325115323067
690,00:00:02.76,-0.00367802518303506
691,00:00:02.764,0.00768929172772914
692,00:00:02.768,0.012859679918619834
693,00:00:02.772,0.0026671593041100996
694,00:00:02.776,-0.0013417440932244058
695,00:00:02.78,-0.004838700791879092
696,00:00:02.784,-0.0028952854918315994
697,00:00:02.788,-0.01087456569075585
698,00:00:02.792,-0.0018702036759350449
699,00:00:02.796,0.008342142071342092
700,00:00:02.8,0.01655663392739366
701,00:00:02.804,-0.0022390625526895807
702,00:00:02.808,-0.007548962021246556
703,00:00:02.812,0.0005166917762835514
704,00:00:02.816,-0.0076521820446942
705,00:00:02.82,-0.009783416928257793
706,00:00:02.824,0.0016790500085335277
707,00:00:02.828,0.013327124543138776
708,00:00:02.832,0.023786814304912748
709,00:00:02.836,-0.010582914328551867
710,00:00:02.84,-0.015841806307435036
711,00:00:02.844,-0.01270822691731155
712,00:00:02.848,0.006263443909119818
713,00:00:02.852,0.004476340924156832
714,00:00:02.856,0.0063822670490480985
715,00:00:02.86,0.005175801488803705
716,00:00:02.864,0.001525011437479405
717,00:00:02.868,-0.008231938423705287
718,00:00:02.872,-0.008158553333487362
719,00:00:02.876,-0.0031145769389695505
720,00:00:02.88,0.010307731237844566
721,00:00:02.884,0.002869077234208814
722,00:00:02.888,-0.00201559439301491
723,00:00:02.892,0.013592812698334442
724,00:00:02.896,-0.002844964968971909
725,00:00:02.9,-0.01828708546236161
726,00:00:02.904,-0.010939484578557309
727,00:00:02.908,0.00518080266192555
728,00:00:02.912,0.01267503644339737
729,00:00:02.916,0.00819433928700164
730,00:00:02.92,0.009313628950621934
731,00:00:02.924,-0.00961256126174704
732,00:00:02.928,-0.019646831438876727
733,00:00:02.932,-0.008028754746192142
734,00:00:02.936,0.0047641756245866435
735,00:00:02.94,0.03950040004565384
736,00:00:02.944,0.010321086607291363
737,00:00:02.948,-0.034370022694929524
738,00:00:02.952,-0.027996568747767018
739,00:00:02.956,0.004676816875871738
740,00:00:02.96,0.02666473978024444
741,00:00:02.964,0.0037170989053265636
742,00:00:02.968,-0.007165574683313025
743,00:00:02.972,0.0007994664265424934
744,00:00:02.976,0.01215647256321973
745,00:00:02.98,-0.0013493106234818701
746,00:00:02.984,-0.0215086576063186
747,00:00:02.988,-0.007257290242705494
748,00:00:02.992,0.011713114683516327
749,00:00:02.996,0.016556343529373373
750,00:00:03,-0.007111475337296771
751,00:00:03.004,-0.012106314068660138
752,00:00:03.008,0.0038628160255029798
753,00:00:03.012,0.007934895926155153
754,00:00:03.016,0.0006033011013641906
755,00:00:03.02,-0.00461042975075543
756,00:00:03.024,0.0034479096066206694
757,00:00:03.028,0.0004508192214416343
758,00:00:03.032,-0.01326524384785444
759,00:00:03.036,0.000211475242394957
760,00:00:03.04,0.016460518119856708
761,00:00:03.044,-0.00824717013165355
762,00:00:03.048,-0.0037823681486770506
763,00:00:03.052,0.009914359310641881
764,00:00:03.056,0.010351266853831472
765,00:00:03.06,-0.0176121449330822
766,00:00:03.064,-0.01574929058551786
767,00:00:03.068,0.01112230525177438
768,00:00:03.072,0.01796416495926683
769,00:00:03.076,-0.006145572813693432
770,00:00:03.08,-0.012064710841514174
771,00:00:03.084,-0.0008031747565837568
772,00:00:03.088,0.021704437327571213
773,00:00:03.092,-0.00213194222305901
774,00:00:03.096,-0.012245030229678378
775,00:00:03.1,-0.01237101529659411
776,00:00:03.104,-0.0010868362587643807
777,00:00:03.108,0.002955102783744228
778,00:00:03.112,0.01659403481608026
779,00:00:03.116,0.010645091939295526
780,00:00:03.12,-0.00630199635634199
781,00:00:03.124,-0.009541350002109534
782,00:00:03.128,-0.010096615711518092
783,00:00:03.132,0.0009374780420330301
784,00:00:03.136,0.005577324976002272
785,00:00:03.14,0.011357466712070167
786,00:00:03.144,0.0067522712497520825
787,00:00:03.148,-0.013225127404439272
788,00:00:03.152,-0.016843952713543338
789,00:00:03.156,-0.002205968968382877
790,00:00:03.16,0.023570362586724517
791,00:00:03.164,0.007693968880630559
792,00:00:03.168,-0.010553047566872888
793,00:00:03.172,-0.01497879209495065
794,00:00:03.176,0.004124955784163831
795,00:00:03.18,0.01846387190744286
796,00:00:03.184,0.0032874043099582204
797,00:00:03.188,-0.015845305402763143
798,00:00:03.192,-0.014229544220142998
799,00:00:03.196,0.01263147121062502
800,00:00:03.2,0.008114426513202488
801,00:00:03.204,-0.005311257904395458
802,00:00:03.208,-0.005764344270573931
803,00:00:03.212,-0.001491283532232046
804,00:00:03.216,0.016868155769770965
805,00:00:03.22,0.004427487430803012
806,00:00:03.224,-0.007875612413045019
807,00:00:03.228,-0.015043715826322992
808,00:00:03.232,0.0015389910186058805
809,00:00:03.236,0.0012809738545911378
810,00:00:03.24,-0.0005653911939589293
811,00:00:03.244,0.012122391918182986
812,00:00:03.248,0.014217727566574474
813,00:00:03.252,-0.012496410534367893
814,00:00:03.256,-0.02146629868002491
815,00:00:03.26,0.0031029457550175686
816,00:00:03.264,0.011408910118916541
817,00:00:03.268,0.006655997621237468
818,00:00:03.272,-0.0021240890664557853
819,00:00:03.276,-0.003940145077194758
820,00:00:03.28,-0.002529050878138154
821,00:00:03.284,-0.0004620310696736847
822,00:00:03.288,-0.0032432383475224902
823,00:00:03.292,0.0010506594639991813
824,00:00:03.296,0.012248591279160373
825,00:00:03.3,0.008223386377324008
826,00:00:03.304,-0.010692727691434811
827,00:00:03.308,-0.013072751207573705
828,00:00:03.312,-0.006414600145092213
829,00:00:03.316,-0.0005874888981907162
830,00:00:03.32,0.012169191754395571
831,00:00:03.324,0.012332830941545546
832,00:00:03.328,0.013613370480015879
833,00:00:03.332,-0.01429076842032374
834,00:00:03.336,-0.019313658878672896
835,00:00:03.34,0.002013521501794459
836,00:00:03.344,-0.00026331847766414296
837,00:00:03.348,-0.0070989183150231795
838,00:00:03.352,0.021198984410148107
839,00:00:03.356,0.02281492995098235
840,00:00:03.36,-0.014436044264584759
841,00:00:03.364,-0.025008287848322604
842,00:00:03.368,-0.011654717847704889
843,00:00:03.372,0.0058110390091314894
844,00:00:03.376,0.021929598820861443
845,00:00:03.38,0.020088665318326107
846,00:00:03.384,-0.00976484990678727
847,00:00:03.388,-0.021925873792497413
848,00:00:03.392,-0.005794498501927592
849,00:00:03.396,0.009924521187713252
850,00:00:03.4,-0.005626075289910665
851,00:00:03.404,-0.00031319979461841307
852,00:00:03.408,0.016173055220860977
853,00:00:03.412,0.011390480247428062
854,00:00:03.416,-0.012186655636469375
855,00:00:03.42,-0.01663998034928226
856,00:00:03.424,-0.004857357154833155
857,00:00:03.428,0.00758647962356917
858,00:00:03.432,0.013071278632196441
859,00:00:03.436,0.0070414863293990475
860,00:00:03.44,-0.0030751632730243697
861,00:00:03.444,-0.01419111993163825
862,00:00:03.448,-0.009238023048965259
863,00:00:03.452,0.003880523872794579
864,00:00:03.456,0.018416104559946685
865,00:00:03.46,-0.003844058999675329
866,00:00:03.464,-0.016782124061137427
867,00:00:03.468,0.01151138113345951
868,00:00:03.472,0.022071002982556872
869,00:00:03.476,-0.007298202639503875
870,00:00:03.48,-0.025700794823933434
871,00:00:03.484,-0.013071344583295291
872,00:00:03.488,0.0036402277182787596
873,00:00:03.492,0.02276184340007599
874,00:00:03.496,0.02892592363059524
875,00:00:03.5,-0.011313695809803898
876,00:00:03.504,-0.02383158425800497
877,00:00:03.508,-0.01457092969212681
878,00:00:03.512,0.003460157298832193
879,00:00:03.516,0.008464189711958166
880,00:00:03.52,0.006853976286947732
881,00:00:03.524,0.011379624484106893
882,00:00:03.528,0.018929275601294666
883,00:00:03.532,-0.017375760711729502
884,00:00:03.536,-0.029242276417789977
885,00:00:03.54,-0.01043319945165422
886,00:00:03.544,0.006019682936312168
887,00:00:03.548,0.006802570693253072
888,00:00:03.552,0.040050279450952075
889,00:00:03.556,0.023699306795606355
890,00:00:03.56,-0.03937058311930738
891,00:00:03.564,-0.041959880235026545
892,00:00:03.568,-0.00016879336180863558
893,00:00:03.572,0.018100132394465646
894,00:00:03.576,0.018043477588435025
895,00:00:03.58,0.006941061330053342
896,00:00:03.584,0.0138523312052712
897,00:00:03.588,-0.01003843988291919
898,00:00:03.592,-0.02433871140237902
899,00:00:03.596,-0.0110631255665794
900,00:00:03.6,0.010410698130726809
901,00:00:03.604,0.009448956465348608
902,00:00:03.608,0.00303274602629244
903,00:00:03.612,0.004639196093194183
904,00:00:03.616,0.0016364721814170601
905,00:00:03.62,-0.01029090769588947
906,00:00:03.624,-0.006332876655505975
907,00:00:03.628,0.0004236220847815258
908,00:00:03.632,0.0063398180063814
909,00:00:03.636,0.01483358908444643
910,00:00:03.64,-0.009187080198898913
911,00:00:03.644,-0.01632495864760134
912,00:00:03.648,0.00047957163769751874
913,00:00:03.652,0.00945311191026118
914,00:00:03.656,0.008992679300718011
915,00:00:03.66,0.001459091203287239
916,00:00:03.664,-0.006240450893528749
917,00:00:03.668,-0.007603022153489291
918,00:00:03.672,0.002104409824823957
919,00:00:03.676,0.000784207615652122
920,00:00:03.68,-0.005320887401467189
921,00:00:03.684,0.006910364289069543
922,00:00:03.688,0.0159884563181549
923,00:00:03.692,-0.005001075827749453
924,00:00:03.696,-0.014901867485605211
925,00:00:03.7,-0.015941294375807023
926,00:00:03.704,-0.0008475343929603661
927,00:00:03.708,0.031153552117757468
928,00:00:03.712,0.019576679682359092
929,00:00:03.716,-0.019992938949144473
930,00:00:03.72,-0.017233836202649445
931,00:00:03.724,-0.008021538611501457
932,00:00:03.728,-0.0008356133766937992
933,00:00:03.732,0.012589430174557492
934,00:00:03.736,0.017092798603698646
935,00:00:03.74,0.01015245611779392
936,00:00:03.744,-0.01733076490927484
937,00:00:03.748,-0.01964901736937461
938,00:00:03.752,-0.006788057144149208
939,00:00:03.756,0.011539050028659402
940,00:00:03.76,0.020970850193407393
941,00:00:03.764,0.006525596836581821
942,00:00:03.768,-0.01325856273615496
943,00:00:03.772,-0.013909662957303243
944,00:00:03.776,-0.012107521324651323
945,00:00:03.78,0.014493667258648197
946,00:00:03.784,0.022092837076343144
947,00:00:03.788,-0.007763168167002736
948,00:00:03.792,-0.008369295028387572
949,00:00:03.796,0.01253225440450478
950,00:00:03.8,-0.013565116925747104
951,00:00:03.804,-0.014879060538987654
952,00:00:03.808,0.0033378786338289505
953,00:00:03.812,0.0074467292579356555
954,00:00:03.816,0.009629377495002702
955,00:00:03.82,0.00435312405988952
956,00:00:03.824,-0.005507026691248035
957,00:00:03.828,0.0017861912383523313
958,00:00:03.832,-0.002742375506386444
959,00:00:03.836,0.0007410689777316371
960,00:00:03.84,-0.0058388329343870195
961,00:00:03.844,0.0009001613361760993
962,00:00:03.848,-0.0009917345450958233
963,00:00:03.852,-0.008355489815585319
964,00:00:03.856,0.0027906424365937736
965,00:00:03.86,0.01605929399374872
966,00:00:03.864,0.006818475900217887
967,00:00:03.868,-0.010251300176605577
968,00:00:03.872,-0.010980023769661779
969,00:00:03.876,0.0058369625476188906
970,00:00:03.88,0.0025025668437592625
971,00:00:03.884,-0.004562381131108845
972,00:00:03.888,-0.001714480677037496
973,00:00:03.892,0.0019289285701233855
974,00:00:03.896,0.003209584159776571
975,00:00:03.9,0.00643268316343892
976,00:00:03.904,0.006924564222572369
977,00:00:03.908,-0.007860755664296443
978,00:00:03.912,-0.01386604981962587
979,00:00:03.916,-0.007278542965650559
980,00:00:03.92,-0.0026607809122651837
981,00:00:03.924,0.016822964011225888
982,00:00:03.928,0.01888529359712269
983,00:00:03.932,-0.001726332069665663
984,00:00:03.936,-0.006123520579421893
985,00:00:03.94,-0.017560304768267046
986,00:00:03.944,-0.009847790199273737
987,00:00:03.948,0.001378852211928463
988,00:00:03.952,0.01010419757221826
989,00:00:03.956,0.02106800724868659
990,00:00:03.96,0.014466786527918881
991,00:00:03.964,-0.015975159400113605
992,00:00:03.968,-0.025532217099680555
993,00:00:03.972,-0.014332101714899162
994,00:00:03.976,0.007414025926664183
995,00:00:03.98,0.015406585959226466
996,00:00:03.984,0.0142033779411577
997,00:00:03.988,0.018785690655931882
998,00:00:03.992,-0.0056615366484038514
999,00:00:03.996,-0.028808622286305784
1000,00:00:04,-0.023301053966861208
1001,00:00:04.004,0.0025775779504329036
1002,00:00:04.008,0.0160210440808441
1003,00:00:04.012,0.019859283282130512
1004,00:00:04.016,0.016257427138043536
1005,00:00:04.02,-0.009760843240655962
1006,00:00:04.024,-0.019901484134607
1007,00:00:04.028,-0.008531783598300528
1008,00:00:04.032,-0.003054936089029068
1009,00:00:04.036,0.0013969370993436358
1010,00:00:04.04,0.027266629957011866
1011,00:00:04.044,0.006345978836179716
1012,00:00:04.048,-0.017042904820073073
1013,00:00:04.052,-0.015069081728142919
1014,00:00:04.056,-0.00017897383077070033
1015,00:00:04.06,0.013216717181421703
1016,00:00:04.064,-0.01120466326756286
1017,00:00:04.068,0.018899513524957008
1018,00:00:04.072,0.01159327756613493
1019,00:00:04.076,-0.0070381482364609855
1020,00:00:04.08,-0.023657628102228052
1021,00:00:04.084,-0.00815726269502193
1022,00:00:04.088,0.007374765293207018
1023,00:00:04.092,0.008394915610551832
1024,00:00:04.096,0.004497610498219733
1025,00:00:04.1,0.01720195327652623
1026,00:00:04.104,-0.011041214966098785
1027,00:00:04.108,-0.010369821509812029
1028,00:00:04.112,-0.0067207094543846315
1029,00:00:04.116,-0.0014203729224391282
1030,00:00:04.12,0.009036113806359929
1031,00:00:04.124,0.0089293866594744
1032,00:00:04.128,-0.008956943576777118
1033,00:00:04.132,0.0036005773908982536
1034,00:00:04.136,0.0213658846914768
1035,00:00:04.14,-0.014641199028119448
1036,00:00:04.144,-0.03213317203335461
1037,00:00:04.148,-0.006005839371937322
1038,00:00:04.152,0.022231850249227136
1039,00:00:04.156,0.027159427641890978
1040,00:00:04.16,0.005915918736718593
1041,00:00:04.164,-0.019717763905646262
1042,00:00:04.168,-0.020507827663095696
1043,00:00:04.172,-0.0004881967615801852
1044,00:00:04.176,0.001882004559945475
1045,00:00:04.18,0.005835005838889628
1046,00:00:04.184,0.023259328587300877
1047,00:00:04.188,0.009373386790684887
1048,00:00:04.192,-0.01724480481789212
1049,00:00:04.196,-0.024778369115665565
1050,00:00:04.2,0.006034453487927751
1051,00:00:04.204,0.00798181358550209
1052,00:00:04.208,0.0005736361563322171
1053,00:00:04.212,0.004837574098928602
1054,00:00:04.216,-0.00022704242519466919
1055,00:00:04.22,0.00040183769306167223
1056,00:00:04.224,-0.00750381965190172
1057,00:00:04.228,0.010059591964818539
1058,00:00:04.232,-0.004669062327593571
1059,00:00:04.236,-0.01740966085344554
1060,00:00:04.24,0.00463026389479637
1061,00:00:04.244,0.03242000308819115
1062,00:00:04.248,0.005434007267467674
1063,00:00:04.252,-0.032285385415889364
1064,00:00:04.256,-0.02232359105255454
1065,00:00:04.26,0.0178694881033152
1066,00:00:04.264,0.02683275029994552
1067,00:00:04.268,-0.0015421047937707072
1068,00:00:04.272,-0.010748268337920301
1069,00:00:04.276,-0.015064981766045099
1070,00:00:04.28,-0.005424086586572228
1071,00:00:04.284,0.0146563272974163
1072,00:00:04.288,0.006806267861975359
1073,00:00:04.292,0.005445655668154362
1074,00:00:04.296,0.008725332620088018
1075,00:00:04.3,-0.02197374305251283
1076,00:00:04.304,-0.014125074820185518
1077,00:00:04.308,0.003116695079370404
1078,00:00:04.312,0.0036785903721465686
1079,00:00:04.316,0.022697335978591613
1080,00:00:04.32,0.019107202758277736
1081,00:00:04.324,-0.025106022723775788
1082,00:00:04.328,-0.023676363904087293
1083,00:00:04.332,-0.004827650034712857
1084,00:00:04.336,0.005330506823611359
1085,00:00:04.34,0.017045804002918857
1086,00:00:04.344,0.024439263944259396
1087,00:00:04.348,-0.003512080610562406
1088,00:00:04.352,-0.012585483289058178
1089,00:00:04.356,-0.01488856667060642
1090,00:00:04.36,-0.013284074182138237
1091,00:00:04.364,0.0012045045691593214
1092,00:00:04.368,0.010714234764236608
1093,00:00:04.372,0.013370871749227579
1094,00:00:04.376,0.014498772332444749
1095,00:00:04.38,0.00707022869028151
1096,00:00:04.384,-0.026003543403931
1097,00:00:04.388,-0.02971850358881059
1098,00:00:04.392,-0.003132118494249881
1099,00:00:04.396,0.02704207616625359
1100,00:00:04.4,0.03718120435951278
1101,00:00:04.404,-0.01162107882555574
1102,00:00:04.408,-0.022970188874751316
1103,00:00:04.412,-0.012572021192681863
1104,00:00:04.416,-0.0015867034962866473
1105,00:00:04.42,0.011765369650674977
1106,00:00:04.424,0.011907251420780092
1107,00:00:04.428,0.005211237000821715
1108,00:00:04.432,-0.018447540896886532
1109,00:00:04.436,0.003972986429289441
1110,00:00:04.44,0.009335928778455144
1111,00:00:04.444,-0.0012382541281112953
1112,00:00:04.448,-0.016269185288365393
1113,00:00:04.452,-0.005581462057307359
1114,00:00:04.456,0.012181534675619339
1115,00:00:04.46,0.018514284711272967
1116,00:00:04.464,0.0008092906842307467
1117,00:00:04.468,-0.013872188242203307
1118,00:00:04.472,-0.017024017521180247
1119,00:00:04.476,0.001327613664670932
1120,00:00:04.48,0.00027976576200217313
1121,00:00:04.484,0.005316337551676039
1122,00:00:04.488,0.0344130043979476
1123,00:00:04.492,0.0067736737842096825
1124,00:00:04.496,-0.03708023064484678
1125,00:00:04.5,-0.016537398798391202
1126,00:00:04.504,0.008202036609873169
1127,00:00:04.508,0.004899658611975616
1128,00:00:04.512,-0.0027478310366859634
1129,00:00:04.516,0.018851855071261494
1130,00:00:04.52,0.015293901320546862
1131,00:00:04.524,-0.01656723022460937
1132,00:00:04.528,-0.024158459498721682
1133,00:00:04.532,0.005041814874857662
1134,00:00:04.536,0.023239320347784077
1135,00:00:04.54,-0.003312956745503471
1136,00:00:04.544,-0.01755261309153865
1137,00:00:04.548,-0.006106123721110636
1138,00:00:04.552,0.01209225918864832
1139,00:00:04.556,0.012339381049969192
1140,00:00:04.56,0.00676558137638495
1141,00:00:04.564,-0.013132847321685423
1142,00:00:04.568,-0.01469326228834688
1143,00:00:04.572,-0.00016513089940417604
1144,00:00:04.576,0.023860146291554005
1145,00:00:04.58,0.008275186643004421
1146,00:00:04.584,-0.0189614709815942
1147,00:00:04.588,-0.02916348868893693
1148,00:00:04.592,-0.006952001422177997
1149,00:00:04.596,0.033925458003068294
1150,00:00:04.6,0.04952033562585713
1151,00:00:04.604,-0.020767309280927338
1152,00:00:04.608,-0.037784682321216706
1153,00:00:04.612,-0.01109699785592965
1154,00:00:04.616,-0.0028949311672477065
1155,00:00:04.62,0.02504277535626893
1156,00:00:04.624,0.009330737328355106
1157,00:00:04.628,-0.000829099535621929
1158,00:00:04.632,-0.005135205603437496
1159,00:00:04.636,-0.004988813743693759
1160,00:00:04.64,0.00151304816245102
1161,00:00:04.644,-0.0061516277201008026
1162,00:00:04.648,0.002142885408829895
1163,00:00:04.652,-0.0011217638384550803
1164,00:00:04.656,-0.0050297306152060585
1165,00:00:04.66,0.019159262999892214
1166,00:00:04.664,0.014137059100903574
1167,00:00:04.668,-0.028798747342079906
1168,00:00:04.672,-0.015405071520945099
1169,00:00:04.676,0.003038805793039499
1170,00:00:04.68,0.02058154598489639
1171,00:00:04.684,0.005467422030051232
1172,00:00:04.688,0.002608235939987934
1173,00:00:04.692,0.008900772198103368
1174,00:00:04.696,-0.014064697289086327
1175,00:00:04.7,-0.02104895876982482
1176,00:00:04.704,-0.010591557245788863
1177,00:00:04.708,0.015274037419658253
1178,00:00:04.712,0.01957090245559812
1179,00:00:04.716,-0.01224010228179396
1180,00:00:04.72,-0.006256651133298881
1181,00:00:04.724,0.03340821538586167
1182,00:00:04.728,0.01175631885416806
1183,00:00:04.732,-0.04280864307656886
1184,00:00:04.736,-0.024255984928458887
1185,00:00:04.74,0.00904854538384825
1186,00:00:04.744,0.02193870721384888
1187,00:00:04.748,0.004552975064143539
1188,00:00:04.752,0.0061790233157807935
1189,00:00:04.756,-0.004663679690565916
1190,00:00:04.76,-0.005729510046876381
1191,00:00:04.764,-0.000987404724583026
1192,00:00:04.768,0.008218787093937863
1193,00:00:04.772,-0.008048550735111348
1194,00:00:04.776,-0.00880839588353411
1195,00:00:04.78,-0.0008101983112283106
1196,00:00:04.784,0.007183807778346816
1197,00:00:04.788,0.0062237260681285945
1198,00:00:04.792,-0.002032202006375887
1199,00:00:04.796,-0.0015948154614306973
1200,00:00:04.8,0.014778692857362321
1201,00:00:04.804,-0.004487971775233751
1202,00:00:04.808,-0.020786331733688712
1203,00:00:04.812,-0.003857268384308554
1204,00:00:04.816,0.008318882668390867
1205,00:00:04.82,0.018850441440008598
1206,00:00:04.824,-0.006050291645806288
1207,00:00:04.828,-0.02141288791608532
1208,00:00:04.832,0.01622345174837392
1209,00:00:04.836,0.013559262006310744
1210,00:00:04.84,-0.018062994116917263
1211,00:00:04.844,-0.007020039796771012
1212,00:00:04.848,0.00660354431602172
1213,00:00:04.852,0.0022342540760291723
1214,00:00:04.856,-0.000320992010529153
1215,00:00:04.86,0.007546086471847952
1216,00:00:04.864,0.0023967148879364703
1217,00:00:04.868,-0.009534220931527672
1218,00:00:04.872,-0.0076185576217540065
1219,00:00:04.876,0.013214687896834217
1220,00:00:04.88,0.014643076938227709
1221,00:00:04.884,-0.0177314318716526
1222,00:00:04.888,-0.02703810855746272
1223,00:00:04.892,0.00982355931773782
1224,00:00:04.896,0.022982242400757975
1225,00:00:04.9,0.0039356693741865465
1226,00:00:04.904,-0.00018623960204422506
1227,00:00:04.908,-0.00547195738181472
1228,00:00:04.912,-0.01911572949029503
1229,00:00:04.916,0.003470113091452728
1230,00:00:04.92,0.008997367811389271
1231,00:00:04.924,0.00610571692232042
1232,00:00:04.928,-0.002983534766826776
1233,00:00:04.932,-0.002470806815836114
1234,00:00:04.936,0.00817798171192408
1235,00:00:04.94,0.0015577520825900224
1236,00:00:04.944,-0.015487364376895095
1237,00:00:04.948,-0.0008840069167490583
1238,00:00:04.952,0.01647667691577223
1239,00:00:04.956,-0.006005085364449769
1240,00:00:04.96,-0.016390232078265378
1241,00:00:04.964,-0.0012020509821013565
1242,00:00:04.968,0.008402060902881201
1243,00:00:04.972,0.028148841556685504
1244,00:00:04.976,-0.006415823518182153
1245,00:00:04.98,-0.022965623160416754
1246,00:00:04.984,-0.003928803329017681
1247,00:00:04.988,0.00476555956993252
1248,00:00:04.992,0.004024939262308187
1249,00:00:04.996,0.001493382282205854
1250,00:00:05,0.00819519370270425
1251,00:00:05.004,0.004103565996047115
1252,00:00:05.008,-0.00812537188176065
1253,00:00:05.012,-0.003455803380347792
1254,00:00:05.016,0.0017148698898381597
1255,00:00:05.02,-0.013626636879052932
1256,00:00:05.024,-0.007795803889166564
1257,00:00:05.028,0.010925306181889033
1258,00:00:05.032,0.019622362116933835
1259,00:00:05.036,0.02199423429556191
1260,00:00:05.04,-0.023027954739518432
1261,00:00:05.044,-0.023945625638589294
1262,00:00:05.048,-0.006542719551362089
1263,00:00:05.052,0.009786428418010482
1264,00:00:05.056,0.010165739804506309
1265,00:00:05.06,0.004984398023225361
1266,00:00:05.064,0.00415730499662458
1267,00:00:05.068,0.024683029274456248
1268,00:00:05.072,-0.01058096997439862
1269,00:00:05.076,-0.03755322843790054
1270,00:00:05.08,-0.024139950226526735
1271,00:00:05.084,0.012339148845057935
1272,00:00:05.088,0.016836871276609624
1273,00:00:05.092,0.014425705274334169
1274,00:00:05.096,0.019676165640703444
1275,00:00:05.1,0.021132956113433476
1276,00:00:05.104,-0.021244519331958128
1277,00:00:05.108,-0.03573123464593664
1278,00:00:05.112,-0.024271093419883972
1279,00:00:05.116,0.0029144676809664807
1280,00:00:05.12,0.021360519873269347
1281,00:00:05.124,0.022025617232429788
1282,00:00:05.128,0.005024754640544413
1283,00:00:05.132,-0.0035653376580739838
1284,00:00:05.136,-6.1004771851009675e-05
1285,00:00:05.14,0.007472847122699029
1286,00:00:05.144,-0.01916832645656545
1287,00:00:05.148,-0.02146923658438028
1288,00:00:05.152,-0.002818437758833169
1289,00:00:05.156,0.011559023492736738
1290,00:00:05.16,0.01874567358754571
1291,00:00:05.164,0.00942800671327859
1292,00:00:05.168,0.004581044202495833
1293,00:00:05.172,-0.015593115065712478
1294,00:00:05.176,-0.014711954921949629
1295,00:00:05.18,-0.003225373715395117
1296,00:00:05.184,0.026367538488557288
1297,00:00:05.188,-0.0014008284197188903
1298,00:00:05.192,-0.02295826960471458
1299,00:00:05.196,-0.006785600271541626
1300,00:00:05.2,0.01758912267541745
1301,00:00:05.204,0.0016871665102371459
1302,00:00:05.208,0.00613846373744309
1303,00:00:05.212,-0.002862573659513149
1304,00:00:05.216,0.0025923419743776404
1305,00:00:05.22,-0.0076703797094523915
1306,00:00:05.224,-0.01107993698678911
1307,00:00:05.228,6.374693475663315e-05
1308,00:00:05.232,0.016270255197014225
1309,00:00:05.236,0.03385427792090924
1310,00:00:05.24,-0.019308117043692646
1311,00:00:05.244,-0.03936215629801157
1312,00:00:05.248,-0.010342465044232094
1313,00:00:05.252,0.010988004331011322
1314,00:00:05.256,0.009148797864327204
1315,00:00:05.26,0.01012414045544577
1316,00:00:05.264,0.03045371178450299
1317,00:00:05.268,0.016233734480920217
1318,00:00:05.272,-0.030649760774394973
1319,00:00:05.276,-0.03905012930772505
1320,00:00:05.28,-0.008620702055850417
1321,00:00:05.284,0.009462078800424972
1322,00:00:05.288,0.01704427867662158
1323,00:00:05.292,0.01380748092196883
1324,00:00:05.296,0.001278395560802889
1325,00:00:05.3,0.00796041113790125
1326,00:00:05.304,0.00590441923122854
1327,00:00:05.308,-0.01999093900667508
1328,00:00:05.312,-0.025006014184327807
1329,00:00:05.316,-0.000452645821496845
1330,00:00:05.32,0.014178853918565389
1331,00:00:05.324,0.019171624095179148
1332,00:00:05.328,-0.004662508152250673
1333,00:00:05.332,-0.004646056604542538
1334,00:00:05.336,-0.006478072536992832
1335,00:00:05.34,0.00779674348450499
1336,00:00:05.344,0.008274493815406455
1337,00:00:05.348,-0.018473646468692144
1338,00:00:05.352,0.011994190765108253
1339,00:00:05.356,0.007994895073352383
1340,00:00:05.36,-0.01710657868534327
1341,00:00:05.364,-0.019266538671217897
1342,00:00:05.368,0.007096194531186482
1343,00:00:05.372,0.01690098037943247
1344,00:00:05.376,0.008727909997105592
1345,00:00:05.38,0.0031427206413354733
1346,00:00:05.384,0.00265216582920402
1347,00:00:05.388,-0.010282461997121581
1348,00:00:05.392,-0.012182892533019185
1349,00:00:05.396,-0.01058330011437648
1350,00:00:05.4,0.008971089097030928
1351,00:00:05.404,0.01723544615379064
1352,00:00:05.408,-0.00034904853782791146
1353,00:00:05.412,-0.007439792352670338
1354,00:00:05.416,-0.0002165973419323594
1355,00:00:05.42,-0.01004165853373706
1356,00:00:05.424,-0.00726356703671626
1357,00:00:05.428,0.03141127293929457
1358,00:00:05.432,0.02630077674984934
1359,00:00:05.436,-0.02702148677781223
1360,00:00:05.44,-0.038817350286990446
1361,00:00:05.444,-0.01122717373073101
1362,00:00:05.448,0.019737996160984077
1363,00:00:05.452,0.019764763070270374
1364,00:00:05.456,0.014990248018875678
1365,00:00:05.46,0.0008467915977234959
1366,00:00:05.464,-0.008857071865350011
1367,00:00:05.468,-0.014727619476616402
1368,00:00:05.472,-0.00893917737994343
1369,00:00:05.476,-0.00030325993429868893
1370,00:00:05.48,0.01794035895727571
1371,00:00:05.484,0.011494656966533508
1372,00:00:05.488,-0.0023295262362807998
1373,00:00:05.492,-0.020168415947409844
1374,00:00:05.496,-0.009633115369069821
1375,00:00:05.5,0.0057740166084841
1376,00:00:05.504,0.012019999499898409
1377,00:00:05.508,0.009105662269575985
1378,00:00:05.512,-0.003927293902961533
1379,00:00:05.516,0.0004355149285402169
1380,00:00:05.52,-0.002939067082479601
1381,00:00:05.524,-0.019397528034460283
1382,00:00:05.528,0.0059770640109491095
1383,00:00:05.532,0.022778909020416915
1384,00:00:05.536,0.002179326656914779
1385,00:00:05.54,-0.0219556523807114
1386,00:00:05.544,-0.013269618690685592
1387,00:00:05.548,0.00781027903212817
1388,00:00:05.552,0.008441913596470842
1389,00:00:05.556,0.020325327990576625
1390,00:00:05.56,0.0028078344184905195
1391,00:00:05.564,-0.01780339816468765
1392,00:00:05.568,-0.006090309703722601
1393,00:00:05.572,-0.005074165528640151
1394,00:00:05.576,0.003129560354864222
1395,00:00:05.58,0.00710782338865101
1396,00:00:05.584,0.00562739744782448
1397,00:00:05.588,-0.012977553298696879
1398,00:00:05.592,0.0034899876336567104
1399,00:00:05.596,0.011684304743539535
1400,00:00:05.6,0.0024595246068202003
1401,00:00:05.604,-0.014118087943643293
1402,00:00:05.608,-0.01231195675791241
1403,00:00:05.612,0.009471697017943363
1404,00:00:05.616,0.00787375363870524
1405,00:00:05.62,0.0012883334129583052
1406,00:00:05.624,0.0013210908509790902
1407,00:00:05.628,-0.0009805577428778642
1408,00:00:05.632,0.003832606453215704
1409,00:00:05.636,-0.006085545057430865
1410,00:00:05.64,-0.012162510887719712
1411,00:00:05.644,-0.010577451641438538
1412,00:00:05.648,0.030755946092540346
1413,00:00:05.652,0.01356902165571228
1414,00:00:05.656,-0.025146901491098144
1415,00:00:05.66,-0.007453110090864357
1416,00:00:05.664,0.002327013949980025
1417,00:00:05.668,0.01156141470710277
1418,00:00:05.672,0.00026999246620108185
1419,00:00:05.676,-0.011711077509971805
1420,00:00:05.68,-0.0012160308360762407
1421,00:00:05.684,0.005312542340107029
1422,00:00:05.688,0.018453545239026457
1423,00:00:05.692,-0.0004546821837720937
1424,00:00:05.696,-0.013995732879266122
1425,00:00:05.7,-0.012016348540782922
1426,00:00:05.704,-0.0016228258609771702
1427,00:00:05.708,0.00999218314245809
1428,00:00:05.712,0.007594611146487299
1429,00:00:05.716,0.00161742116324604
1430,00:00:05.72,-0.0026425502146594183
1431,00:00:05.724,-0.009992720100854056
1432,00:00:05.728,0.003345464268932116
1433,00:00:05.732,0.00014308205572888298
1434,00:00:05.736,0.001191188232041898
1435,00:00:05.74,0.00818575162702472
1436,00:00:05.744,-0.010664200588507809
1437,00:00:05.748,0.009659455667133443
1438,00:00:05.752,0.004159958356467545
1439,00:00:05.756,-0.01661563431844112
1440,00:00:05.76,0.00462911976501346
1441,00:00:05.764,-0.007751061464659866
1442,00:00:05.768,0.013942893012426832
1443,00:00:05.772,0.00297915595001541
1444,00:00:05.776,-0.011721181712346155
1445,00:00:05.78,-0.0030359735246747776
1446,00:00:05.784,-0.0007422073394991457
1447,00:00:05.788,0.013189880497520831
1448,00:00:05.792,0.01094681944232434
1449,00:00:05.796,-0.00827781774569303
1450,00:00:05.8,-0.010093671677168459
1451,00:00:05.804,-0.01105616375571117
1452,00:00:05.808,0.006706629224936481
1453,00:00:05.812,0.01899012707872311
1454,00:00:05.816,-0.003608115308452401
1455,00:00:05.82,-0.012829593557398749
1456,00:00:05.824,-0.007734976976280456
1457,00:00:05.828,0.00661286569084041
1458,00:00:05.832,0.003698204032843934
1459,00:00:05.836,0.005563615064602341
1460,00:00:05.84,0.0066263401604373905
1461,00:00:05.844,-0.0008781277028901955
1462,00:00:05.848,-0.010136838769540229
1463,00:00:05.852,-0.006391714909113951
1464,00:00:05.856,0.008169045671820639
1465,00:00:05.86,0.010310866156942215
1466,00:00:05.864,-0.010045892617199566
1467,00:00:05.868,-0.019880229840055122
1468,00:00:05.872,-0.0006977943412493936
1469,00:00:05.876,0.013513036072254181
1470,00:00:05.88,0.010581426351564057
1471,00:00:05.884,0.011313364491797985
1472,00:00:05.888,0.006047426839359099
1473,00:00:05.892,-0.016479809361044345
1474,00:00:05.896,-0.014602985524106818
1475,00:00:05.9,-0.008773087582085275
1476,00:00:05.904,0.0014613683451898396
1477,00:00:05.908,0.014047281059902144
1478,00:00:05.912,0.021141369557881276
1479,00:00:05.916,0.003126235213130715
1480,00:00:05.92,-0.02381116832839323
1481,00:00:05.924,-0.01285529727465473
1482,00:00:05.928,0.002654065294336762
1483,00:00:05.932,0.007995021231181454
1484,00:00:05.936,0.008717273769434536
1485,00:00:05.94,-0.0014023736657691184
1486,00:00:05.944,0.0035844097401422936
1487,00:00:05.948,-0.0029889069046475907
1488,00:00:05.952,-0.008742007285036374
1489,00:00:05.956,-0.005261347261694028
1490,00:00:05.96,0.006664509252004791
1491,00:00:05.964,0.006516406661830841
1492,00:00:05.968,0.00848694238811732
1493,00:00:05.972,-0.00739183742552996
1494,00:00:05.976,-0.012020963331451636
1495,00:00:05.98,-0.001075501961167903
1496,00:00:05.984,0.0026568500034045393
1497,00:00:05.988,0.017672821821179283
1498,00:00:05.992,0.0071396264029317535
1499,00:00:05.996,-0.019855888385791318
1500,00:00:06,-0.015434938657563216
1501,00:00:06.004,-0.002166299513191916
1502,00:00:06.008,0.01581734049250375
1503,00:00:06.012,0.018624624455696945
1504,00:00:06.016,-0.003098758868873115
1505,00:00:06.02,-0.009306650972575891
1506,00:00:06.024,-0.009169753961032258
1507,00:00:06.028,-0.0023679582916429384
1508,00:00:06.032,0.0030885783453413734
1509,00:00:06.036,0.013041744346992342
1510,00:00:06.04,0.001698819789453409
1511,00:00:06.044,-0.009508683966032553
1512,00:00:06.048,-0.010732946293501307
1513,00:00:06.052,0.001366863027215
1514,00:00:06.056,0.006600866327062249
1515,00:00:06.06,0.008009496494196348
1516,00:00:06.064,0.010883602270041592
1517,00:00:06.068,-0.00407930725486949
1518,00:00:06.072,-0.01885199267417195
1519,00:00:06.076,-0.011187368596438277
1520,00:00:06.08,0.0030286469083762335
1521,00:00:06.084,0.01882255403324958
1522,00:00:06.088,0.014252227731049037
1523,00:00:06.092,-0.009933145855029586
1524,00:00:06.096,-0.0177373906772118
1525,00:00:06.1,-0.001062390103470531
1526,00:00:06.104,0.010464544378919525
1527,00:00:06.108,0.004594434925820687
1528,00:00:06.112,-0.006282035756157706
1529,00:00:06.116,0.007755519385682421
1530,00:00:06.12,0.0006125030340626812
1531,00:00:06.124,-0.006094991811551159
1532,00:00:06.128,-0.004641819294192824
1533,00:00:06.132,0.0011753847502404867
1534,00:00:06.136,0.001955708168679848
1535,00:00:06.14,-0.009291216614656149
1536,00:00:06.144,0.010033528611529586
1537,00:00:06.148,0.020358491157821814
1538,00:00:06.152,-0.015441427938640121
1539,00:00:06.156,-0.01230907568242401
1540,00:00:06.16,-0.002923769759945573
1541,00:00:06.164,0.0019188317019143148
1542,00:00:06.168,0.001717707200441506
1543,00:00:06.172,0.013848119706381104
1544,00:00:06.176,0.00840712734498084
1545,00:00:06.18,-0.007192823366494844
1546,00:00:06.184,-0.01338139618746937
1547,00:00:06.188,-0.0011050835018977501
1548,00:00:06.192,0.01149544853251427
1549,00:00:06.196,-0.0005466775037348296
1550,00:00:06.2,-0.01101565570570528
1551,00:00:06.204,-0.004114413924980909
1552,00:00:06.208,-0.0004598384839482601
1553,00:00:06.212,0.01469507487490769
1554,00:00:06.216,0.01257327082566917
1555,00:00:06.22,-0.00527972204145045
1556,00:00:06.224,-0.014110539981629672
1557,00:00:06.228,-0.007125512100174088
1558,00:00:06.232,0.0014544459481840013
1559,00:00:06.236,0.00783331209095195
1560,00:00:06.24,0.007573960087029262
1561,00:00:06.244,-0.0009880712641461313
1562,00:00:06.248,-0.0038086574641056394
1563,00:00:06.252,-0.0010871455888263881
1564,00:00:06.256,-0.0011341838398948381
1565,00:00:06.26,0.0030564367771148595
1566,00:00:06.264,-0.008605626280768774
1567,00:00:06.268,-0.0073950592195615155
1568,00:00:06.272,0.0073941061273217245
1569,00:00:06.276,0.013327185588423177
1570,00:00:06.28,0.004876425795373505
1571,00:00:06.284,0.0025811575469560886
1572,00:00:06.288,-0.014997838676208653
1573,00:00:06.292,-0.016808621236123155
1574,00:00:06.296,-0.0033546408376423638
1575,00:00:06.3,0.020314571087510582
1576,00:00:06.304,0.02623508606484388
1577,00:00:06.308,-0.008996062635560517
1578,00:00:06.312,-0.025500862913759196
1579,00:00:06.316,-0.015738896816856102
1580,00:00:06.32,0.014613013772759632
1581,00:00:06.324,0.011091692780610158
1582,00:00:06.328,0.007607156643643942
1583,00:00:06.332,0.0065844765631482005
1584,00:00:06.336,-0.00829927025188226
1585,00:00:06.34,-0.012181118698208556
1586,00:00:06.344,-0.003440242406213659
1587,00:00:06.348,-0.0023515947978012303
1588,00:00:06.352,0.0013841726249665968
1589,00:00:06.356,0.008154481558449328
1590,00:00:06.36,0.0065399418381275635
1591,00:00:06.364,0.003921828596048721
1592,00:00:06.368,-0.001965153245691908
1593,00:00:06.372,0.005249426372756712
1594,00:00:06.376,-0.010405438151792627
1595,00:00:06.38,-0.01850635191385659
1596,00:00:06.384,-0.003998697305178212
1597,00:00:06.388,0.014985164700192365
1598,00:00:06.392,0.012495685135945669
1599,00:00:06.396,0.0014563853619620304
1600,00:00:06.4,-0.011931137531064458
1601,00:00:06.404,-0.002711926834308541
1602,00:00:06.408,0.020065157121280233
1603,00:00:06.412,0.005432279082015159
1604,00:00:06.416,-0.020151747972704467
1605,00:00:06.42,-0.018620704438944778
1606,00:00:06.424,-0.001494897209340713
1607,00:00:06.428,0.01890190714038907
1608,00:00:06.432,0.010873845429159701
1609,00:00:06.436,-0.0029538926901295838
1610,00:00:06.44,-0.000712673790985723
1611,00:00:06.444,0.0016965955910563965
1612,00:00:06.448,-0.01763725024648012
1613,00:00:06.452,1.834530849009492e-05
1614,00:00:06.456,0.006957804027479135
1615,00:00:06.46,0.014725504086527525
1616,00:00:06.464,0.007231025141663852
1617,00:00:06.468,-0.023473818961065287
1618,00:00:06.472,-0.009280439408030356
1619,00:00:06.476,0.0009573791394359431
1620,00:00:06.48,0.0121893089599325
1621,00:00:06.484,0.006580214962014002
1622,00:00:06.488,0.003378830842848408
1623,00:00:06.492,0.00421316944994032
1624,00:00:06.496,-0.0002766600809991403
1625,00:00:06.5,-0.023155459901317923
1626,00:00:06.504,-0.010857876113732326
1627,00:00:06.508,0.011331794754369181
1628,00:00:06.512,0.010598084540106361
1629,00:00:06.516,0.005770717223640532
1630,00:00:06.52,0.0005217494326643652
1631,00:00:06.524,-0.0027594882412813565
1632,00:00:06.528,-0.003493795884423886
1633,00:00:06.532,-0.006577502615982666
1634,00:00:06.536,0.0011125609744340103
1635,00:00:06.54,0.0161745613149833
1636,00:00:06.544,-0.00474034366197883
1637,00:00:06.548,-0.01908151223324238
1638,00:00:06.552,0.00706270558293909
1639,00:00:06.556,0.01055987551808357
1640,00:00:06.56,-0.005683121038600801
1641,00:00:06.564,-0.004369475005660206
1642,00:00:06.568,0.002621787833049897
1643,00:00:06.572,-0.0007222590647870675
1644,00:00:06.576,0.005551721784286197
1645,00:00:06.58,0.004950233269482855
1646,00:00:06.584,0.005231928516877819
1647,00:00:06.588,-0.012643236579606339
1648,00:00:06.592,-0.013710208615520966
1649,00:00:06.596,-0.0013559703656937931
1650,00:00:06.6,0.01396796552216985
1651,00:00:06.604,0.01166787318652493
1652,00:00:06.608,-0.0031569628627039566
1653,00:00:06.612,-0.008545658572984399
1654,00:00:06.616,-0.002324555651284756
1655,00:00:06.62,-0.001332024403382096
1656,00:00:06.624,0.007736747153103357
1657,00:00:06.628,0.0010014512154157276
1658,00:00:06.632,-0.002555293467594308
1659,00:00:06.636,-0.005001326033379881
1660,00:00:06.64,-0.005773593657067977
1661,00:00:06.644,0.0014808744174956722
1662,00:00:06.648,0.010090384195791561
1663,00:00:06.652,0.01200694759609178
1664,00:00:06.656,-0.002449288556817918
1665,00:00:06.66,-0.01735543740051068
1666,00:00:06.664,-0.00221591958688805
1667,00:00:06.668,0.0031706139197922364
1668,00:00:06.672,0.005621973716188219
1669,00:00:06.676,-0.00622669665608555
1670,00:00:06.68,-0.001654576510190962
1671,00:00:06.684,0.003757243684958666
1672,00:00:06.688,0.01966183306649328
1673,00:00:06.692,-0.004483547061681745
1674,00:00:06.696,-0.017329907219391264
1675,00:00:06.7,-0.006123973813373602
1676,00:00:06.704,0.004973347997292879
1677,00:00:06.708,0.006421432799470497
1678,00:00:06.712,0.0035599410766735708
1679,00:00:06.716,0.002238798653706913
1680,00:00:06.72,-0.001752772543113678
1681,00:00:06.724,-0.001622336534637724
1682,00:00:06.728,-0.013342464815650601
1683,00:00:06.732,0.005127811462443791
1684,00:00:06.736,0.00705403077881783
1685,00:00:06.74,-0.0010693768235796595
1686,00:00:06.744,0.0009655304975240142
1687,00:00:06.748,-0.0015874265518505165
1688,00:00:06.752,0.007734880373391212
1689,00:00:06.756,-0.005245284047305178
1690,00:00:06.76,-0.00560181436594576
1691,00:00:06.764,-0.003856046001601497
1692,00:00:06.768,-0.0027040183045983204
1693,00:00:06.772,0.010325411698431706
1694,00:00:06.776,0.01969971193466337
1695,00:00:06.78,-0.00933329039253294
1696,00:00:06.784,-0.019980692013632548
1697,00:00:06.788,-0.009684243930678349
1698,00:00:06.792,0.01536930564907378
1699,00:00:06.796,0.014156232122331854
1700,00:00:06.8,-0.00633146037580445
1701,00:00:06.804,-0.009135051681369077
1702,00:00:06.808,-0.00214999838135554
1703,00:00:06.812,0.007678451489482541
1704,00:00:06.816,0.01545021962374446
1705,00:00:06.82,-0.00995838467497379
1706,00:00:06.824,-0.01350273890420794
1707,00:00:06.828,-0.002391526126302777
1708,00:00:06.832,0.005992467340547586
1709,00:00:06.836,0.0011985225719399798
1710,00:00:06.84,-0.0024476292310282605
1711,00:00:06.844,0.012312991661019627
1712,00:00:06.848,0.004969199624611061
1713,00:00:06.852,-0.004193054279312491
1714,00:00:06.856,-0.01193630986381322
1715,00:00:06.86,-0.008233513042796407
1716,00:00:06.864,-0.0008923033892642753
1717,00:00:06.868,0.006625054811593142
1718,00:00:06.872,0.01657105254707861
1719,00:00:06.876,0.0055219125642906874
1720,00:00:06.88,-0.009756503761309428
1721,00:00:06.884,-0.005607210856396704
1722,00:00:06.888,-0.007984155701706182
1723,00:00:06.892,-0.0040095323784044
1724,00:00:06.896,0.0013136541165295027
1725,00:00:06.9,0.008718381581275029
1726,00:00:06.904,0.015429140519699989
1727,00:00:06.908,-0.0015786015719641041
1728,00:00:06.912,-0.014623243903770344
1729,00:00:06.916,-0.001591939354511849
1730,00:00:06.92,0.0037988405001669876
1731,00:00:06.924,-0.0005204030894674363
1732,00:00:06.928,-0.005306860052769481
1733,00:00:06.932,0.0036488183236542734
1734,00:00:06.936,-0.004416897892951964
1735,00:00:06.94,0.00920925429090858
1736,00:00:06.944,0.0077193831821205025
1737,00:00:06.948,-0.005085563832835757
1738,00:00:06.952,-0.006468484411016111
1739,00:00:06.956,-0.003207778732758016
1740,00:00:06.96,-0.003804438776569443
1741,00:00:06.964,0.006178197290864773
1742,00:00:06.968,0.005549550260184337
1743,00:00:06.972,0.005737532890634619
1744,00:00:06.976,0.0006393517032847799
1745,00:00:06.98,-0.014032140752533503
1746,00:00:06.984,-0.007480390464479561
1747,00:00:06.988,-0.00011276525765424399
1748,00:00:06.992,0.014937470197764957
1749,00:00:06.996,-0.00018480629796614073
1750,00:00:07,0.004143315720284599
1751,00:00:07.004,0.0018480250982975132
1752,00:00:07.008,-0.008032971514694513
1753,00:00:07.012,-0.0020616735318981227
1754,00:00:07.016,-0.007209755713120101
1755,00:00:07.02,-0.013348375447094439
1756,00:00:07.024,0.02274477094761098
1757,00:00:07.028,0.028441366739571046
1758,00:00:07.032,-0.01596033852547406
1759,00:00:07.036,-0.02193046128377321
1760,00:00:07.04,-0.01079856656724587
1761,00:00:07.044,0.004114073613891376
1762,00:00:07.048,0.009106731507927183
1763,00:00:07.052,0.017970210174098625
1764,00:00:07.056,0.014299519716587333
1765,00:00:07.06,-0.013828723458573229
1766,00:00:07.064,-0.021044111490482447
1767,00:00:07.068,-0.01089069915178697
1768,00:00:07.072,0.007898730895249177
1769,00:00:07.076,0.015365938132163182
1770,00:00:07.08,0.002874404774047431
1771,00:00:07.084,-0.004419570759637282
1772,00:00:07.088,-0.00544002976675984
1773,00:00:07.092,0.01175268442602828
1774,00:00:07.096,-0.00503130233846605
1775,00:00:07.1,-0.004489847924560314
1776,00:00:07.104,-0.004548742464976392
1777,00:00:07.108,-0.00030523826717398687
1778,00:00:07.112,0.0007504890672862571
1779,00:00:07.116,0.0032831497665028984
1780,00:00:07.12,0.005703098991943991
1781,00:00:07.124,-0.0020403724010975522
1782,00:00:07.128,0.01062024846032728
1783,00:00:07.132,-0.00782164144038688
1784,00:00:07.136,-0.010944351506623205
1785,00:00:07.14,-0.003585742786526679
1786,00:00:07.144,0.007369466184172783
1787,00:00:07.148,0.005863288737600666
1788,00:00:07.152,-0.0029271155945025397
1789,00:00:07.156,0.008125548250973232
1790,00:00:07.16,-0.00755977176595479
1791,00:00:07.164,-0.01690705353394146
1792,00:00:07.168,0.013019494712352801
1793,00:00:07.172,0.015534933627350235
1794,00:00:07.176,-0.006466499064117672
1795,00:00:07.18,-0.014914197847247145
1796,00:00:07.184,0.0021793750347569607
1797,00:00:07.188,0.0061456597177311795
1798,00:00:07.192,0.0039841842663008685
1799,00:00:07.196,-0.0015644427039660518
1800,00:00:07.2,0.00020635803230107112
1801,00:00:07.204,0.0014606319600716207
1802,00:00:07.208,-0.003288399093435148
1803,00:00:07.212,-0.002831302212143785
1804,00:00:07.216,-0.002778974841930899
1805,00:00:07.22,0.002984241116791967
1806,00:00:07.224,0.0073730963340494764
1807,00:00:07.228,-0.004649552669434338
1808,00:00:07.232,0.0003549426073732328
1809,00:00:07.236,0.00013612191833090666
1810,00:00:07.24,-0.00705956800084096
1811,00:00:07.244,-0.003442614171945024
1812,00:00:07.248,0.01016170694492756
1813,00:00:07.252,0.019538354536052807
1814,00:00:07.256,-0.005366808094549928
1815,00:00:07.26,-0.02404409489827229
1816,00:00:07.264,-0.0108873448552913
1817,00:00:07.268,0.004831559122976611
1818,00:00:07.272,0.020145860995398876
1819,00:00:07.276,0.00625763416610425
1820,00:00:07.28,0.0016856055964353802
1821,00:00:07.284,-0.011627750129264303
1822,00:00:07.288,-0.0059973278184770554
1823,00:00:07.292,0.001322683379839872
1824,00:00:07.296,-0.0017921479447977652
1825,00:00:07.3,-0.0009654058849264428
1826,00:00:07.304,0.009375213101520785
1827,00:00:07.308,0.004875331105722585
1828,00:00:07.312,0.0025789893697947307
1829,00:00:07.316,-0.008688539324793968
1830,00:00:07.32,-0.01789160771295428
1831,00:00:07.324,0.005638624978018914
1832,00:00:07.328,0.01660697627812623
1833,00:00:07.332,-0.00167716906798887
1834,00:00:07.336,-0.00649633188731968
1835,00:00:07.34,0.00203339755535126
1836,00:00:07.344,0.008479390657157637
1837,00:00:07.348,-0.007844320207368576
1838,00:00:07.352,-0.002253895043395455
1839,00:00:07.356,-0.002484474243829023
1840,00:00:07.36,0.0001108444630517627
1841,00:00:07.364,0.001996550417970867
1842,00:00:07.368,0.00016263453289866401
1843,00:00:07.372,0.003297148301498967
1844,00:00:07.376,0.0059261295291435055
1845,00:00:07.38,-0.002372362014284589
1846,00:00:07.384,-0.006988450732023917
1847,00:00:07.388,0.00048428506124764334
1848,00:00:07.392,-0.00745537194961799
1849,00:00:07.396,0.001514433738208257
1850,00:00:07.4,0.003602065209634021
1851,00:00:07.404,0.013222497373135411
1852,00:00:07.408,-0.000216231270314893
1853,00:00:07.412,-0.007646496804454724
1854,00:00:07.416,0.0008340346607838022
1855,00:00:07.42,-0.004800714271823385
1856,00:00:07.424,-0.006945424895093307
1857,00:00:07.428,0.0066532911885133165
1858,00:00:07.432,0.012175557489030094
1859,00:00:07.436,-0.010797824332257738
1860,00:00:07.44,-0.003134336962830285
1861,00:00:07.444,0.0013596515927929412
1862,00:00:07.448,0.0005817250639665891
1863,00:00:07.452,0.0038841899804538172
1864,00:00:07.456,0.0062857405282557045
1865,00:00:07.46,-0.004380940896226095
1866,00:00:07.464,-0.007209441951999903
1867,00:00:07.468,-0.00021650771304848604
1868,00:00:07.472,0.004427659667271651
1869,00:00:07.476,-0.0018230540954391429
1870,00:00:07.48,0.0013454848594847098
1871,00:00:07.484,0.0033793078378039345
1872,00:00:07.488,-0.003792745335886138
1873,00:00:07.492,0.0018302803173355644
1874,00:00:07.496,0.0007468131789210015
1875,00:00:07.5,-0.007329581856993174
1876,00:00:07.504,-0.0020031529529660475
1877,00:00:07.508,0.015966934974585414
1878,00:00:07.512,0.0035775308206211793
1879,00:00:07.516,-0.01230276096612215
1880,00:00:07.52,-0.01072989404201507
1881,00:00:07.524,-0.0027749054570449477
1882,00:00:07.528,0.010208138381130997
1883,00:00:07.532,0.013018279336392869
1884,00:00:07.536,-0.0011960213887505194
1885,00:00:07.54,-0.0076952491872361835
1886,00:00:07.544,-0.008869846264133235
1887,00:00:07.548,-0.002494460757588963
1888,00:00:07.552,0.02196937933331359
1889,00:00:07.556,0.01460850141302212
1890,00:00:07.56,-0.021701584977563457
1891,00:00:07.564,-0.022704257382429174
1892,00:00:07.568,-0.006303403111814988
1893,00:00:07.572,0.020379570312797992
1894,00:00:07.576,0.013538529630750442
1895,00:00:07.58,0.004861372115556145
1896,00:00:07.584,-0.010655911915819157
1897,00:00:07.588,-0.008341171429492531
1898,00:00:07.592,-0.0037422589957714003
1899,00:00:07.596,0.013249725278001275
1900,00:00:07.6,-0.00222687728819437
1901,00:00:07.604,-0.0017334823496639729
1902,00:00:07.608,0.0031073536665644484
1903,00:00:07.612,-0.006384020147379491
1904,00:00:07.616,-0.0053327250861912
1905,00:00:07.62,0.0034940545301651634
1906,00:00:07.624,0.009498869600065518
1907,00:00:07.628,0.005538692385016483
1908,00:00:07.632,-0.0027133476214657956
1909,00:00:07.636,-0.008786896100218648
1910,00:00:07.64,-0.009918753523379557
1911,00:00:07.644,-0.004910535833914768
1912,00:00:07.648,0.01414625800680368
1913,00:00:07.652,0.010659714243956833
1914,00:00:07.656,0.001547958934679627
1915,00:00:07.66,-0.008898417931050059
1916,00:00:07.664,-0.004221785289701067
1917,00:00:07.668,-0.0007545185362687365
1918,00:00:07.672,0.0032153170905075933
1919,00:00:07.676,0.005844357190653687
1920,00:00:07.68,-0.010591050842776902
1921,00:00:07.684,-0.002858421932614872
1922,00:00:07.688,0.005346053731045684
1923,00:00:07.692,0.01131053944118321
1924,00:00:07.696,-0.006201759497344029
1925,00:00:07.7,-0.006142298632767057
1926,00:00:07.704,-0.00754415476694703
1927,00:00:07.708,0.01027530373539776
1928,00:00:07.712,0.02057437086477875
1929,00:00:07.716,-0.008859635068802163
1930,00:00:07.72,-0.01587168918922543
1931,00:00:07.724,-0.01182768598664552
1932,00:00:07.728,0.00989355630008504
1933,00:00:07.732,0.0017370528075844002
1934,00:00:07.736,0.005157039675395927
1935,00:00:07.74,0.008359848259715363
1936,00:00:07.744,0.0014551192580256568
1937,00:00:07.748,-0.006534272833960134
1938,00:00:07.752,-0.00605123268906028
1939,00:00:07.756,-0.0023986516753211704
1940,00:00:07.76,0.003003180027008061
1941,00:00:07.764,0.0025436527503188604
1942,00:00:07.768,-0.00347655953373761
1943,00:00:07.772,0.0012383340508677078
1944,00:00:07.776,-0.0019202101975679506
1945,00:00:07.78,0.005261216079816221
1946,00:00:07.784,0.0053614823555108194
1947,00:00:07.788,-0.0024488923372700806
1948,00:00:07.792,-0.0042942210566252505
1949,00:00:07.796,-0.0028594674076885
1950,00:00:07.8,0.00565694086253642
1951,00:00:07.804,-0.009016903233714405
1952,00:00:07.808,-0.0035758087469730496
1953,00:00:07.812,0.01823684928240255
1954,00:00:07.816,-0.005373550404328851
1955,00:00:07.82,-0.006766208185581494
1956,00:00:07.824,-0.0037532919959630826
1957,00:00:07.828,0.01062243944033981
1958,00:00:07.832,0.005403132556239146
1959,00:00:07.836,-0.008466475090244785
1960,00:00:07.84,-0.006033759706042467
1961,00:00:07.844,0.0060627668135566585
1962,00:00:07.848,-0.00041040358701138806
1963,00:00:07.852,-0.0052342700873850845
1964,00:00:07.856,0.0017996437018155099
1965,00:00:07.86,0.003904200109900559
1966,00:00:07.864,0.013096006194246002
1967,00:00:07.868,-0.005252680464764129
1968,00:00:07.872,-0.009228198386153956
1969,00:00:07.876,-0.009874852138381124
1970,00:00:07.88,-0.006989853367485922
1971,00:00:07.884,0.01394678650103746
1972,00:00:07.888,0.022476356709375988
1973,00:00:07.892,-0.00664892781060188
1974,00:00:07.896,-0.01412239240016788
1975,00:00:07.9,-0.003008239233167841
1976,00:00:07.904,-0.0007684106822125597
1977,00:00:07.908,1.9473140127957084e-05
1978,00:00:07.912,0.007188356656115499
1979,00:00:07.916,-4.683943552663543e-05
1980,00:00:07.92,0.001311522850301116
1981,00:00:07.924,0.0021673394076060478
1982,00:00:07.928,0.0010408060479676353
1983,00:00:07.932,-0.011206337308976796
1984,00:00:07.936,-0.004666817050747341
1985,00:00:07.94,0.013684939876839051
1986,00:00:07.944,0.004888519011728927
1987,00:00:07.948,-0.011139615900901848
1988,00:00:07.952,-0.0059693041703212674
1989,00:00:07.956,0.006160663768241649
1990,00:00:07.96,0.014253848163207293
1991,00:00:07.964,-0.008186442079022523
1992,00:00:07.968,-0.006278509390540419
1993,00:00:07.972,-0.004047894035466011
1994,00:00:07.976,-0.0008588142227381507
1995,00:00:07.98,0.01016472280025483
1996,00:00:07.984,0.00553218368440867
1997,00:00:07.988,0.0028508150135166913
1998,00:00:07.992,-0.0128893661312759
1999,00:00:07.996,-0.01413254137150944
2000,00:00:08,0.012898774468339983
2001,00:00:08.004,0.00670208502560854
2002,00:00:08.008,-0.006934166885912421
2003,00:00:08.012,0.01446670317091048
2004,00:00:08.016,0.0065104138921015
2005,00:00:08.02,-0.01754099410027268
2006,00:00:08.024,-0.017007230315357422
2007,00:00:08.028,0.0006582501227967531
2008,00:00:08.032,0.01393839914817363
2009,00:00:08.036,0.008038544503506271
2010,00:00:08.04,0.0018522550235502418
2011,00:00:08.044,-0.0022676236112602064
2012,00:00:08.048,-0.005677965178620068
2013,00:00:08.052,0.00539119855966419
2014,00:00:08.056,-0.005426645919214932
2015,00:00:08.06,-0.01065895333886146
2016,00:00:08.064,0.005581620433076748
2017,00:00:08.068,0.00950269095483236
2018,00:00:08.072,0.0015597078599967067
2019,00:00:08.076,0.0018427395843900727
2020,00:00:08.08,-0.009003935352666307
2021,00:00:08.084,-0.007338031471590508
2022,00:00:08.088,0.004864362534135577
2023,00:00:08.092,0.009964185534045097
2024,00:00:08.096,0.004819769485038708
2025,00:00:08.1,-0.01408565421297685
2026,00:00:08.104,-0.0015132121479837237
2027,00:00:08.108,-0.001682949012320025
2028,00:00:08.112,0.00013849717652192296
2029,00:00:08.116,0.008205699781683505
2030,00:00:08.12,0.009208547337038908
2031,00:00:08.124,0.002003799509111555
2032,00:00:08.128,-0.01475648783343784
2033,00:00:08.132,-0.0070352824586734685
2034,00:00:08.136,-0.003483724314719445
2035,00:00:08.14,0.01061775159905665
2036,00:00:08.144,0.003846281542791987
2037,00:00:08.148,0.005205705820117144
2038,00:00:08.152,-0.00010887085227295236
2039,00:00:08.156,-0.00819947398849763
2040,00:00:08.16,-0.002649673515406904
2041,00:00:08.164,0.002676080475794154
2042,00:00:08.168,0.003960540401749309
2043,00:00:08.172,-0.008188414096366614
2044,00:00:08.176,0.0012087896284356282
2045,00:00:08.18,0.0057734205702217834
2046,00:00:08.184,0.002671445243322525
2047,00:00:08.188,-0.005212947984546189
2048,00:00:08.192,-0.011240225401707
2049,00:00:08.196,0.008664509441587141
2050,00:00:08.2,0.0277924897818593
2051,00:00:08.204,-0.010727911809226451
2052,00:00:08.208,-0.021311852236976854
2053,00:00:08.212,-0.0032915693882387205
2054,00:00:08.216,-0.004453611875305798
2055,00:00:08.22,0.006586381743545643
2056,00:00:08.224,0.009470335309742946
2057,00:00:08.228,0.00836859545961488
2058,00:00:08.232,0.0012882050959888188
2059,00:00:08.236,-0.004155957167313316
2060,00:00:08.24,-0.003508995901938759
2061,00:00:08.244,-0.0017032464820658693
2062,00:00:08.248,-0.010826422477293818
2063,00:00:08.252,0.003671264978038375
2064,00:00:08.256,0.0037559512065854454
2065,00:00:08.26,0.0009883660686682571
2066,00:00:08.264,0.0014808627079219128
2067,00:00:08.268,0.009895745377036753
2068,00:00:08.272,-0.002936084971906895
2069,00:00:08.276,-0.010756887447996633
2070,00:00:08.28,-0.007003110136338364
2071,00:00:08.284,0.012245258191285297
2072,00:00:08.288,0.005042000725438807
2073,00:00:08.292,-0.010060832798274053
2074,00:00:08.296,-0.009012590494307913
2075,00:00:08.3,0.012780052435118735
2076,00:00:08.304,0.015559905455580397
2077,00:00:08.308,-0.007771181208880767
2078,00:00:08.312,-0.012632251162187916
2079,00:00:08.316,-0.005222744025658699
2080,00:00:08.32,0.008589795555661082
2081,00:00:08.324,0.0038233449449762667
2082,00:00:08.328,-0.00210878218058497
2083,00:00:08.332,-0.003952667000703517
2084,00:00:08.336,-0.0023522705523646476
2085,00:00:08.34,0.0065354702528566105
2086,00:00:08.344,0.014904564595781268
2087,00:00:08.348,-0.009811660507693892
2088,00:00:08.352,-0.013064890030364044
2089,00:00:08.356,-0.00826864660484716
2090,00:00:08.36,0.007864494167733934
2091,00:00:08.364,0.016180839913431583
2092,00:00:08.368,0.005607593302556776
2093,00:00:08.372,-0.008996978493087197
2094,00:00:08.376,-0.01713241713150636
2095,00:00:08.38,0.006567030526639425
2096,00:00:08.384,0.014394526231626497
2097,00:00:08.388,-0.009360207696545378
2098,00:00:08.392,-0.02376026101410392
2099,00:00:08.396,0.024634358123876203
2100,00:00:08.4,0.03518420970067384
2101,00:00:08.404,-0.00726471340749409
2102,00:00:08.408,-0.04274864261969921
2103,00:00:08.412,-0.027066819544415973
2104,00:00:08.416,0.017124580685049247
2105,00:00:08.42,0.039982879359740785
2106,00:00:08.424,0.009902574820444
2107,00:00:08.428,-0.02186192024964843
2108,00:00:08.432,-0.011157459812238809
2109,00:00:08.436,0.0012112649856135212
2110,00:00:08.44,0.00046961964108049924
2111,00:00:08.444,0.009486065653618427
2112,00:00:08.448,0.012680115993134672
2113,00:00:08.452,-0.024501945998054026
2114,00:00:08.456,-0.005985663239698625
2115,00:00:08.46,0.024932390893809504
2116,00:00:08.464,-0.00026093475753442
2117,00:00:08.468,-0.014699129329528672
2118,00:00:08.472,-0.0031054011960804937
2119,00:00:08.476,0.004769599378050769
2120,00:00:08.48,-0.004280440982256552
2121,00:00:08.484,0.004786767269251866
2122,00:00:08.488,0.007299233428057054
2123,00:00:08.492,0.010461381054483356
2124,00:00:08.496,-0.008463372825644912
2125,00:00:08.5,-0.01491682740743272
2126,00:00:08.504,-0.0015162595082074337
2127,00:00:08.508,0.005989157652948052
2128,00:00:08.512,-0.00587517512030899
2129,00:00:08.516,-0.0015297480276785771
2130,00:00:08.52,0.010497323994059117
2131,00:00:08.524,0.01893450817442498
2132,00:00:08.528,-0.0038053399257478257
2133,00:00:08.532,-0.015571161580737632
2134,00:00:08.536,0.011379134171875197
2135,00:00:08.54,-0.007453334794263307
2136,00:00:08.544,-0.025074132747249653
2137,00:00:08.548,-0.005922572861891242
2138,00:00:08.552,0.008037192746996874
2139,00:00:08.556,0.027415931481300546
2140,00:00:08.56,0.02549313291819997
2141,00:00:08.564,-0.009887773652735674
2142,00:00:08.568,-0.02605617817607704
2143,00:00:08.572,-0.00221924649486027
2144,00:00:08.576,-0.007089359034580412
2145,00:00:08.58,-0.00668622118973872
2146,00:00:08.584,0.005207287194934902
2147,00:00:08.588,0.02395374281331892
2148,00:00:08.592,0.010268625337630509
2149,00:00:08.596,-0.011901284655323249
2150,00:00:08.6,-0.01693135302048176
2151,00:00:08.604,-0.007882145087933161
2152,00:00:08.608,-0.006004943745210769
2153,00:00:08.612,0.0382790677249432
2154,00:00:08.616,0.025335078709758797
2155,00:00:08.62,-0.026417733082780632
2156,00:00:08.624,-0.05342769145499914
2157,00:00:08.628,-0.0003354908549226791
2158,00:00:08.632,0.04879935440840199
2159,00:00:08.636,0.018661617359612123
2160,00:00:08.64,-0.01789355793152932
2161,00:00:08.644,-0.026569688896415786
2162,00:00:08.648,-0.01329345640260726
2163,00:00:08.652,0.03430833318270737
2164,00:00:08.656,0.02028170879930263
2165,00:00:08.66,-0.01401580777019265
2166,00:00:08.664,-0.018787746783345983
2167,00:00:08.668,-0.01377381803467875
2168,00:00:08.672,0.0031304455442295797
2169,00:00:08.676,0.02722925669513643
2170,00:00:08.68,0.02302544401027262
2171,00:00:08.684,-0.0194799223099835
2172,00:00:08.688,-0.030280769220553328
2173,00:00:08.692,-0.011718673107679926
2174,00:00:08.696,0.011416559427743774
2175,00:00:08.7,0.032144273784069796
2176,00:00:08.704,0.01265040884027257
2177,00:00:08.708,-0.02281393541488792
2178,00:00:08.712,-0.00694384798407555
2179,00:00:08.716,0.0002475631918059634
2180,00:00:08.72,-0.012447504770534586
2181,00:00:08.724,-0.0034729953913483725
2182,00:00:08.728,0.014843865763396021
2183,00:00:08.732,0.031182148901280064
2184,00:00:08.736,-0.010211334301857274
2185,00:00:08.74,-0.024760326225077706
2186,00:00:08.744,-0.013619885168736799
2187,00:00:08.748,0.005608464125543833
2188,00:00:08.752,0.00816552643664181
2189,00:00:08.756,0.030137049267068547
2190,00:00:08.76,0.011359595926478479
2191,00:00:08.764,-0.03281388070899995
2192,00:00:08.768,-0.02619272214360533
2193,00:00:08.772,-0.0007518487400375294
2194,00:00:08.776,0.01122744544409215
2195,00:00:08.78,0.014437047531828309
2196,00:00:08.784,0.02005814947187897
2197,00:00:08.788,0.004698851262219258
2198,00:00:08.792,-0.0175000235904008
2199,00:00:08.796,-0.020329121151007754
2200,00:00:08.8,-0.008375478821108114
2201,00:00:08.804,0.005974128740490411
2202,00:00:08.808,0.01406131067778916
2203,00:00:08.812,0.0035447971895337205
2204,00:00:08.816,-0.00040481047471985676
2205,00:00:08.82,0.02984262866084461
2206,00:00:08.824,0.006750993896275771
2207,00:00:08.828,-0.04607010679319504
2208,00:00:08.832,-0.03773313434794541
2209,00:00:08.836,0.010987234534695769
2210,00:00:08.84,0.026005552848800968
2211,00:00:08.844,0.019955042167566737
2212,00:00:08.848,0.004468952320166862
2213,00:00:08.852,-0.00869775400497019
2214,00:00:08.856,0.000672365829814218
2215,00:00:08.86,-0.00041635610978118696
2216,00:00:08.864,-0.00948516187781933
2217,00:00:08.868,-0.006612208555452524
2218,00:00:08.872,0.00351091066841037
2219,00:00:08.876,0.005775918369181461
2220,00:00:08.88,-0.02139320806600151
2221,00:00:08.884,0.00520409364253283
2222,00:00:08.888,0.03958827705355365
2223,00:00:08.892,0.010416744800750163
2224,00:00:08.896,-0.036383431346621406
2225,00:00:08.9,-0.028134621417848348
2226,00:00:08.904,0.008165574326994827
2227,00:00:08.908,0.02002270903903991
2228,00:00:08.912,0.02328298162319702
2229,00:00:08.916,-0.001924517084262339
2230,00:00:08.92,-0.023929994282298108
2231,00:00:08.924,-0.011210582422791004
2232,00:00:08.928,-6.775627844035929e-05
2233,00:00:08.932,0.0061898942803964106
2234,00:00:08.936,0.019638332771137322
2235,00:00:08.94,0.01156778621952981
2236,00:00:08.944,-0.01592518272809689
2237,00:00:08.948,-0.014466360677033621
2238,00:00:08.952,-0.00214005727320909
2239,00:00:08.956,0.01035227926331573
2240,00:00:08.96,-0.006908516515977689
2241,00:00:08.964,0.0023006826813798432
2242,00:00:08.968,0.019591217278502868
2243,00:00:08.972,-0.008239547780249282
2244,00:00:08.976,-0.017038330202922218
2245,00:00:08.98,0.0036033684737049004
2246,00:00:08.984,0.004825979121960704
2247,00:00:08.988,-0.0027702645165845795
2248,00:00:08.992,0.00295470387209207
2249,00:00:08.996,0.022759300936741094
2250,00:00:09,-0.011443666939157989
2251,00:00:09.004,-0.0211666391696781
2252,00:00:09.008,-0.01731682545505464
2253,00:00:09.012,0.033077372063416974
2254,00:00:09.016,0.034775974258082015
2255,00:00:09.02,-0.029509562999010048
2256,00:00:09.024,-0.034062384627759484
2257,00:00:09.028,0.0012041981099173492
2258,00:00:09.032,0.0043210176227148605
2259,00:00:09.036,0.01085248281015083
2260,00:00:09.04,0.042532936087809496
2261,00:00:09.044,0.016388397256378053
2262,00:00:09.048,-0.04722312375815819
2263,00:00:09.052,-0.03901906253668132
2264,00:00:09.056,-0.002335643752303438
2265,00:00:09.06,0.02382157251850006
2266,00:00:09.064,0.030861825216561552
2267,00:00:09.068,0.010198853095062058
2268,00:00:09.072,-0.0149272981798276
2269,00:00:09.076,-0.022123080241726684
2270,00:00:09.08,-0.0056047184043563885
2271,00:00:09.084,0.00586368853691966
2272,00:00:09.088,0.019444173551164592
2273,00:00:09.092,0.0026481595123186603
2274,00:00:09.096,-0.0188341691391543
2275,00:00:09.1,0.01457598460547158
2276,00:00:09.104,0.00385986466426402
2277,00:00:09.108,-0.021569954813458022
2278,00:00:09.112,-0.012498543190304193
2279,00:00:09.116,0.006922900491190376
2280,00:00:09.12,0.011511886492371542
2281,00:00:09.124,0.01842183968983592
2282,00:00:09.128,0.00698910770006478
2283,00:00:09.132,-0.00528953946195542
2284,00:00:09.136,-0.012885193864349278
2285,00:00:09.14,-0.02191213384503495
2286,00:00:09.144,-0.01375733641907568
2287,00:00:09.148,0.023549432342406355
2288,00:00:09.152,0.029067491734167606
2289,00:00:09.156,-0.008316432038554915
2290,00:00:09.16,-0.006742454163031658
2291,00:00:09.164,-0.0016851401014719158
2292,00:00:09.168,-0.01589887433510734
2293,00:00:09.172,-0.008734601811738683
2294,00:00:09.176,0.027565977004997008
2295,00:00:09.18,0.01674387964885681
2296,00:00:09.184,-0.025364830507896872
2297,00:00:09.188,-0.010258211055770539
2298,00:00:09.192,0.008189751271856952
2299,00:00:09.196,0.003239067431422873
2300,00:00:09.2,-0.008983694657217704
2301,00:00:09.204,0.012451893970137485
2302,00:00:09.208,0.012371684890240438
2303,00:00:09.212,-0.0008957899481174462
2304,00:00:09.216,-0.01369508402422066
2305,00:00:09.22,-0.02043844317086044
2306,00:00:09.224,0.0080125315580517
2307,00:00:09.228,0.012321739457547672
2308,00:00:09.232,0.00044550572056322596
2309,00:00:09.236,-0.00036607863148674087
2310,00:00:09.24,0.007015527255134657
2311,00:00:09.244,0.00754351663636044
2312,00:00:09.248,-0.01234455575468017
2313,00:00:09.252,-0.014960614265873983
2314,00:00:09.256,-0.007082241136231463
2315,00:00:09.26,0.016925268981140107
2316,00:00:09.264,0.01687556362594475
2317,00:00:09.268,0.003975257975980646
2318,00:00:09.272,-0.0170657923299586
2319,00:00:09.276,-0.016773212555563084
2320,00:00:09.28,-0.010341538465581827
2321,00:00:09.284,0.03112094453535973
2322,00:00:09.288,0.02002359088510276
2323,00:00:09.292,-0.011805914808064649
2324,00:00:09.296,-0.02289560803910718
2325,00:00:09.3,-0.01566183252725751
2326,00:00:09.304,0.00859194248914719
2327,00:00:09.308,0.019706704362761243
2328,00:00:09.312,0.01115150295663625
2329,00:00:09.316,0.0036353177856653894
2330,00:00:09.32,-0.007107311219442639
2331,00:00:09.324,-0.015123668163141719
2332,00:00:09.328,-0.010285782424034546
2333,00:00:09.332,0.0007454649021383372
2334,00:00:09.336,-0.0008051543118199332
2335,00:00:09.34,0.013754806775295905
2336,00:00:09.344,0.033671703145955696
2337,00:00:09.348,-0.008983107734820802
2338,00:00:09.352,-0.034260421343788074
2339,00:00:09.356,-0.006265491711019429
2340,00:00:09.36,-0.0006363232896546881
2341,00:00:09.364,-0.009160232635622377
2342,00:00:09.368,0.027684422610036546
2343,00:00:09.372,0.03861872063953338
2344,00:00:09.376,-0.0059510608039090584
2345,00:00:09.38,-0.03969210648119771
2346,00:00:09.384,-0.025091187545513115
2347,00:00:09.388,-0.000488676621444029
2348,00:00:09.392,0.01909009565133604
2349,00:00:09.396,0.0359773319214582
2350,00:00:09.4,0.01447244547307491
2351,00:00:09.404,-0.03199494577711449
2352,00:00:09.408,-0.0354204275645316
2353,00:00:09.412,0.003338010023071553
2354,00:00:09.416,0.049286093766568215
2355,00:00:09.42,0.00280750673846342
2356,00:00:09.424,-0.03623196299304258
2357,00:00:09.428,-0.014279199829616118
2358,00:00:09.432,0.004127831838559356
2359,00:00:09.436,0.016414522659033537
2360,00:00:09.44,0.01546771853463728
2361,00:00:09.444,0.012789381216862248
2362,00:00:09.448,-0.0024453753467241746
2363,00:00:09.452,-0.026926427621219818
2364,00:00:09.456,-0.01569684222340579
2365,00:00:09.46,0.007614564674440799
2366,00:00:09.464,0.017534210084704634
2367,00:00:09.468,-0.0076013551442883935
2368,00:00:09.472,-0.004551665158942339
2369,00:00:09.476,0.021544797695241865
2370,00:00:09.48,-0.0014082333655096534
2371,00:00:09.484,-0.02021661354228852
2372,00:00:09.488,-0.004754828492878005
2373,00:00:09.492,0.01110133249312639
2374,00:00:09.496,0.005485538800712673
2375,00:00:09.5,-0.004040616542624779
2376,00:00:09.504,-0.009067719423910605
2377,00:00:09.508,0.008304192379000597
2378,00:00:09.512,0.015296723540814086
2379,00:00:09.516,0.003248974830057709
2380,00:00:09.52,-0.02420542890467911
2381,00:00:09.524,-0.015630009227606902
2382,00:00:09.528,0.00478950542674283
2383,00:00:09.532,0.019230804505468747
2384,00:00:09.536,0.0153015441792377
2385,00:00:09.54,-0.004497082776651944
2386,00:00:09.544,-0.014674582087536702
2387,00:00:09.548,-0.006109123525675383
2388,00:00:09.552,0.0006768019165974699
2389,00:00:09.556,0.001748252871948357
2390,00:00:09.56,-0.006740415860804201
2391,00:00:09.564,0.01959533045601349
2392,00:00:09.568,0.01646812027433947
2393,00:00:09.572,0.004593314835801721
2394,00:00:09.576,-0.04414189467206598
2395,00:00:09.58,-0.022149990545585724
2396,00:00:09.584,0.026974543055985116
2397,00:00:09.588,0.017315439181402322
2398,00:00:09.592,0.003330048639327293
2399,00:00:09.596,-0.013502066780347344
2400,00:00:09.6,0.0011148244375362947
2401,00:00:09.604,0.023325410496909137
2402,00:00:09.608,-0.010943834728095665
2403,00:00:09.612,-0.012908740507555198
2404,00:00:09.616,-0.008939867468143355
2405,00:00:09.62,-0.0020200865692459043
2406,00:00:09.624,0.0015923810569802334
2407,00:00:09.628,0.007914654517662715
2408,00:00:09.632,0.021179246120027508
2409,00:00:09.636,0.011636295399512164
2410,00:00:09.64,-0.01956774813152149
2411,00:00:09.644,-0.021075400400150122
2412,00:00:09.648,-0.01119423820637169
2413,00:00:09.652,0.0011190619552507988
2414,00:00:09.656,0.02145081013441086
2415,00:00:09.66,0.027591942693106858
2416,00:00:09.664,0.0006790485931560397
2417,00:00:09.668,-0.036942436418030404
2418,00:00:09.672,-0.012491821194998929
2419,00:00:09.676,0.0165162769844755
2420,00:00:09.68,0.007086658377374996
2421,00:00:09.684,-5.4862648539711766e-05
2422,00:00:09.688,0.003479222010355442
2423,00:00:09.692,-0.003932583611458545
2424,00:00:09.696,-0.0009091091051232069
2425,00:00:09.7,-0.002268631142214868
2426,00:00:09.704,0.008022634356166233
2427,00:00:09.708,-0.002415201364783566
2428,00:00:09.712,-0.01722705650536224
2429,00:00:09.716,-0.007657328167624662
2430,00:00:09.72,0.031779159107827616
2431,00:00:09.724,0.030750066165637677
2432,00:00:09.728,-0.024174407422833638
2433,00:00:09.732,-0.038764562820148306
2434,00:00:09.736,-0.008778339872151262
2435,00:00:09.74,0.005540938815101978
2436,00:00:09.744,0.008673328935401564
2437,00:00:09.748,0.0348581220023334
2438,00:00:09.752,0.0360108245222364
2439,00:00:09.756,-0.019668333057779805
2440,00:00:09.76,-0.05349532281979915
2441,00:00:09.764,-0.016556048853090036
2442,00:00:09.768,0.0029667735652765216
2443,00:00:09.772,0.01598489415482618
2444,00:00:09.776,0.03382408650941219
2445,00:00:09.78,0.01528485456947241
2446,00:00:09.784,-0.027173865491931758
2447,00:00:09.788,-0.011710882146871885
2448,00:00:09.792,0.016959189822955533
2449,00:00:09.796,-0.00017906549328473227
2450,00:00:09.8,-0.028883661019790417
2451,00:00:09.804,-0.006659662933088839
2452,00:00:09.808,0.006045890055247588
2453,00:00:09.812,0.01868012989871208
2454,00:00:09.816,0.01534278647159226
2455,00:00:09.82,-0.001520774676464498
2456,00:00:09.824,0.007356042857281857
2457,00:00:09.828,-0.01410157926147803
2458,00:00:09.832,-0.018658985427464355
2459,00:00:09.836,-0.006292966339970009
2460,00:00:09.84,0.007397303561447188
2461,00:00:09.844,0.0036213636922184343
2462,00:00:09.848,0.010008915342041295
2463,00:00:09.852,0.016297486195981037
2464,00:00:09.856,0.00020258970471331907
2465,00:00:09.86,-0.020171201300399795
2466,00:00:09.864,-0.02403055327158657
2467,00:00:09.868,0.006697216536849741
2468,00:00:09.872,0.01933466340415184
2469,00:00:09.876,0.01319966022856536
2470,00:00:09.88,0.003983903967309738
2471,00:00:09.884,-0.01020713755860924
2472,00:00:09.888,-0.02046380774118005
2473,00:00:09.892,-0.01136067637708038
2474,00:00:09.896,0.01421084022149448
2475,00:00:09.9,0.016683707595802892
2476,00:00:09.904,-0.000268639327259736
2477,00:00:09.908,-0.006208301696460699
2478,00:00:09.912,-0.011418471272918392
2479,00:00:09.916,0.02092596629518086
2480,00:00:09.92,0.01132983391289595
2481,00:00:09.924,-0.017222587601281668
2482,00:00:09.928,-0.015435303066624334
2483,00:00:09.932,-0.00416681240312755
2484,00:00:09.936,0.0007741202134638986
2485,00:00:09.94,0.009829663671553142
2486,00:00:09.944,0.013329960962437371
2487,00:00:09.948,0.004127944412175564
2488,00:00:09.952,-0.006430306122638283
2489,00:00:09.956,-0.011639079020824297
2490,00:00:09.96,-0.002220494508947007
2491,00:00:09.964,0.01546490003238431
2492,00:00:09.968,0.002598406572360547
2493,00:00:09.972,-0.02336523254052733
2494,00:00:09.976,-0.0008143622108036699
2495,00:00:09.98,0.014377147439518003
2496,00:00:09.984,-0.002204556525612138
2497,00:00:09.988,-0.0036465071607381105
2498,00:00:09.992,-0.01903781568398701
2499,00:00:09.996,0.05128375405911355
2500,00:00:10,0.029609531629830613
2501,00:00:10.004,-0.04821745015215129
2502,00:00:10.008,-0.04216868034563955
2503,00:00:10.012,-0.010218223324045539
2504,00:00:10.016,0.019260008819401257
2505,00:00:10.02,0.021247829194180657
2506,00:00:10.024,0.02636659477138888
2507,00:00:10.028,0.01468435657443482
2508,00:00:10.032,-0.016847953258547946
2509,00:00:10.036,-0.02919389298767783
2510,00:00:10.04,-0.010373749777500049
2511,00:00:10.044,-0.003354601095452383
2512,00:00:10.048,0.006141215621028102
2513,00:00:10.052,0.01863708691962533
2514,00:00:10.056,0.017303444124991112
2515,00:00:10.06,-0.0060890441673109325
2516,00:00:10.064,-0.01188626128714531
2517,00:00:10.068,-0.0020482807594817158
2518,00:00:10.072,-0.00802860362455249
2519,00:00:10.076,-0.00664127548225224
2520,00:00:10.08,0.0011455469066277099
2521,00:00:10.084,0.008566157019231472
2522,00:00:10.088,0.02582829422317447
2523,00:00:10.092,0.00983945629559458
2524,00:00:10.096,-0.029166556516429368
2525,00:00:10.1,-0.029724785301368722
2526,00:00:10.104,-0.002871859236620369
2527,00:00:10.108,0.026823017629794752
2528,00:00:10.112,0.038740516407415285
2529,00:00:10.116,-0.003667506738565871
2530,00:00:10.12,-0.036740861833095544
2531,00:00:10.124,-0.023042963584885008
2532,00:00:10.128,0.006269383477047079
2533,00:00:10.132,0.018714673584327067
2534,00:00:10.136,0.01774806936737149
2535,00:00:10.14,-0.0026283116021659273
2536,00:00:10.144,-0.00557238841429353
2537,00:00:10.148,-0.005530127440579229
2538,00:00:10.152,-0.009609874483430762
2539,00:00:10.156,0.001016988135233986
2540,00:00:10.16,0.018265087099280236
2541,00:00:10.164,0.003840740362647919
2542,00:00:10.168,-0.011257176869548862
2543,00:00:10.172,-0.009748209035024042
2544,00:00:10.176,-0.015241125976899677
2545,00:00:10.18,0.010632928984705343
2546,00:00:10.184,0.02087271108757708
2547,00:00:10.188,0.010454586823470887
2548,00:00:10.192,-0.006701348407659682
2549,00:00:10.196,-0.022202184103662113
2550,00:00:10.2,0.0013560778752435
2551,00:00:10.204,-0.00031466077780350956
2552,00:00:10.208,0.005277765121718405
2553,00:00:10.212,0.013299355814524454
2554,00:00:10.216,-0.005736531238653692
2555,00:00:10.22,-0.011316476695355966
2556,00:00:10.224,-0.0029041848320048276
2557,00:00:10.228,0.00450228768505668
2558,00:00:10.232,0.012699616261670571
2559,00:00:10.236,0.00656049339886522
2560,00:00:10.24,-0.006046295748092239
2561,00:00:10.244,-0.013048621709458537
2562,00:00:10.248,-0.003828731947578487
2563,00:00:10.252,-0.0018594251450849682
2564,00:00:10.256,0.01666286360705274
2565,00:00:10.26,0.003066808983021469
2566,00:00:10.264,-0.008751867717364803
2567,00:00:10.268,-0.01444470571004788
2568,00:00:10.272,0.003342257899930694
2569,00:00:10.276,0.026198668820143226
2570,00:00:10.28,0.004147354615270167
2571,00:00:10.284,-0.016557688199100116
2572,00:00:10.288,-0.019420669370447317
2573,00:00:10.292,-0.003262951806391361
2574,00:00:10.296,0.013507593408576168
2575,00:00:10.3,0.010284464704454876
2576,00:00:10.304,0.0044959365040995215
2577,00:00:10.308,0.005417783395387231
2578,00:00:10.312,-0.0012934026308357692
2579,00:00:10.316,-0.022918943010154187
2580,00:00:10.32,0.0005977857508696618
2581,00:00:10.324,0.01057415537070483
2582,00:00:10.328,-0.001354887790512295
2583,00:00:10.332,-0.004234500927850604
2584,00:00:10.336,-5.93713775742831e-05
2585,00:00:10.34,-0.003078223642660305
2586,00:00:10.344,0.013502681395038942
2587,00:00:10.348,0.02553628315217793
2588,00:00:10.352,-0.024780080275377283
2589,00:00:10.356,-0.03077531450253447
2590,00:00:10.36,0.009105285193072634
2591,00:00:10.364,0.015217154170386498
2592,00:00:10.368,-0.004340241779573262
2593,00:00:10.372,0.015775187843246424
2594,00:00:10.376,0.001196413242723791
2595,00:00:10.38,-0.013321554870344691
2596,00:00:10.384,-0.004121998907066883
2597,00:00:10.388,-0.0016554382673348335
2598,00:00:10.392,-0.000152675667777658
2599,00:00:10.396,0.005416757514467462
2600,00:00:10.4,0.00232124177273363
2601,00:00:10.404,-0.005123157068737788
2602,00:00:10.408,-0.0001321873387496507
2603,00:00:10.412,0.018571056229120593
2604,00:00:10.416,0.015288076414435685
2605,00:00:10.42,-0.025150277939246686
2606,00:00:10.424,-0.021535540232434838
2607,00:00:10.428,-0.0007299974931811435
2608,00:00:10.432,0.0019463385688141004
2609,00:00:10.436,0.008399146390729584
2610,00:00:10.44,0.011733107559848575
2611,00:00:10.444,-0.00019526854157448032
2612,00:00:10.448,0.007139255409128966
2613,00:00:10.452,0.010603427894238843
2614,00:00:10.456,-0.020111922116484444
2615,00:00:10.46,-0.017750610306393334
2616,00:00:10.464,0.0038864722009748164
2617,00:00:10.468,-0.0013881473569199397
2618,00:00:10.472,0.014046299853362181
2619,00:00:10.476,0.020101146612432758
2620,00:00:10.48,-0.004975121410097925
2621,00:00:10.484,-0.017357820062898148
2622,00:00:10.488,-0.012514250294771058
2623,00:00:10.492,-0.004355970042524854
2624,00:00:10.496,0.009502614382654432
2625,00:00:10.5,0.019981912482762685
2626,00:00:10.504,0.011289770569419487
2627,00:00:10.508,-0.02019812884827842
2628,00:00:10.512,-0.016647048490995096
2629,00:00:10.516,0.019682131620356848
2630,00:00:10.52,0.00801944747217931
2631,00:00:10.524,-0.013582646763097688
2632,00:00:10.528,-0.01877320953644817
2633,00:00:10.532,-0.003528301953338085
2634,00:00:10.536,0.017741039162501727
2635,00:00:10.54,0.025787136022700025
2636,00:00:10.544,0.0011764132796088227
2637,00:00:10.548,-0.018284033256350057
2638,00:00:10.552,-0.01139998738653958
2639,00:00:10.556,-0.0004547227654256858
2640,00:00:10.56,-0.000623527710558847
2641,00:00:10.564,0.0034270181495230675
2642,00:00:10.568,0.0010105368855874938
2643,00:00:10.572,0.0057090506525128044
2644,00:00:10.576,0.010520962183363732
2645,00:00:10.58,0.015527211478911321
2646,00:00:10.584,-0.01645005424506957
2647,00:00:10.588,-0.03405595663934951
2648,00:00:10.592,-0.00171373429475352
2649,00:00:10.596,0.006933516531717036
2650,00:00:10.6,0.013636122574098412
2651,00:00:10.604,0.01830573286861178
2652,00:00:10.608,0.01803328402456831
2653,00:00:10.612,-0.009853090625256302
2654,00:00:10.616,-0.030490044271573463
2655,00:00:10.62,-0.01807846306473948
2656,00:00:10.624,-0.0013386927676037872
2657,00:00:10.628,0.020449994830414632
2658,00:00:10.632,0.030073329806327858
2659,00:00:10.636,0.00658867170568556
2660,00:00:10.64,-0.03401837656565475
2661,00:00:10.644,-0.00908578705275432
2662,00:00:10.648,0.0037228439468890502
2663,00:00:10.652,0.013481227273587162
2664,00:00:10.656,-0.000553342368220916
2665,00:00:10.66,-0.011474771134089677
2666,00:00:10.664,0.010405879787867889
2667,00:00:10.668,0.009104548313189303
2668,00:00:10.672,-0.009421146110980763
2669,00:00:10.676,-0.009807633578020607
2670,00:00:10.68,0.0009395542292622849
2671,00:00:10.684,0.01349354327248875
2672,00:00:10.688,0.0049458877474535335
2673,00:00:10.692,-0.014770244015380752
2674,00:00:10.696,-0.00609681231435389
2675,00:00:10.7,0.0043532861309358815
2676,00:00:10.704,0.0017108234460465608
2677,00:00:10.708,0.013418988324701779
2678,00:00:10.712,0.005711857287678866
2679,00:00:10.716,-0.01640094919275721
2680,00:00:10.72,-0.01100778952240945
2681,00:00:10.724,-1.8002193428401912e-05
2682,00:00:10.728,0.01080377295147628
2683,00:00:10.732,0.0053314053220674396
2684,00:00:10.736,0.0007611359469592576
2685,00:00:10.74,-0.0018803030834533244
2686,00:00:10.744,-0.0004288166819605971
2687,00:00:10.748,-0.0058248905916116235
2688,00:00:10.752,-0.000258660118561237
2689,00:00:10.756,-0.0002684611390577629
2690,00:00:10.76,0.0037284412828739715
2691,00:00:10.764,0.00246906839311123
2692,00:00:10.768,-0.006136917043477291
2693,00:00:10.772,0.0024405475705862
2694,00:00:10.776,0.019818807020783372
2695,00:00:10.78,-0.00638915807940067
2696,00:00:10.784,-0.015735121560283054
2697,00:00:10.788,-0.015657528985229884
2698,00:00:10.792,-0.0023978509707376404
2699,00:00:10.796,0.006228268292034045
2700,00:00:10.8,0.02152567636221651
2701,00:00:10.804,0.01620133279357103
2702,00:00:10.808,0.002881604435970077
2703,00:00:10.812,-0.02036899176891888
2704,00:00:10.816,-0.014355405990499965
2705,00:00:10.82,-0.006299403321463611
2706,00:00:10.824,0.0034462888725101913
2707,00:00:10.828,0.005959911271929732
2708,00:00:10.832,0.00697391116409563
2709,00:00:10.836,0.0047586906002834405
2710,00:00:10.84,0.003188471338944503
2711,00:00:10.844,0.002438622759655113
2712,00:00:10.848,-0.0042994978939532285
2713,00:00:10.852,-0.013506111892638695
2714,00:00:10.856,-0.0016526420276932218
2715,00:00:10.86,0.0011986411991529162
2716,00:00:10.864,-0.0003508986555971203
2717,00:00:10.868,0.005862101774255278
2718,00:00:10.872,0.007582327059935789
2719,00:00:10.876,0.006378250167472289
2720,00:00:10.88,-0.004570015407807664
2721,00:00:10.884,0.002734242869337318
2722,00:00:10.888,-0.017278309227549513
2723,00:00:10.892,-0.01578342934226388
2724,00:00:10.896,0.006384970278304539
2725,00:00:10.9,0.01996622816659514
2726,00:00:10.904,0.004534149775281561
2727,00:00:10.908,0.0024220238556154046
2728,00:00:10.912,-0.005214310935627966
2729,00:00:10.916,-0.007995944732101634
2730,00:00:10.92,-0.005477181868627662
2731,00:00:10.924,-0.007118775043636555
2732,00:00:10.928,0.018996929313289015
2733,00:00:10.932,0.028034020971972454
2734,00:00:10.936,-0.01147322030737997
2735,00:00:10.94,-0.0323478466598317
2736,00:00:10.944,-0.009090301937249029
2737,00:00:10.948,-0.0007722939371888008
2738,00:00:10.952,0.0058914360561175255
2739,00:00:10.956,0.012713140495179688
2740,00:00:10.96,0.009556174671160989
2741,00:00:10.964,0.01955335261300203
2742,00:00:10.968,0.00463890633545816
2743,00:00:10.972,-0.01655615586787461
2744,00:00:10.976,-0.03049223765265199
2745,00:00:10.98,-0.01223037036834285
2746,00:00:10.984,0.009239364957466027
2747,00:00:10.988,0.013546030684665278
2748,00:00:10.992,0.01140373852103949
2749,00:00:10.996,0.005174449033802375
2750,00:00:11,0.005205723826293252
2751,00:00:11.004,-0.004182536824373532
2752,00:00:11.008,-0.015608272980898615
2753,00:00:11.012,-0.006346320122247565
2754,00:00:11.016,-0.0006654340431850864
2755,00:00:11.02,0.00489105190717964
2756,00:00:11.024,0.01456142689858098
2757,00:00:11.028,-0.005850829067640004
2758,00:00:11.032,-0.00582833844237029
2759,00:00:11.036,0.013738180976361012
2760,00:00:11.04,-0.004983649327186868
2761,00:00:11.044,-0.00608867336995899
2762,00:00:11.048,-0.008382651431020348
2763,00:00:11.052,-0.005438069958472621
2764,00:00:11.056,0.004343520442489533
2765,00:00:11.06,0.006928504910320042
2766,00:00:11.064,0.019647591747343502
2767,00:00:11.068,0.00876626075478271
2768,00:00:11.072,-0.01960804754344284
2769,00:00:11.076,-0.014864750359265603
2770,00:00:11.08,-0.008745213359361511
2771,00:00:11.084,-0.0008050959731917859
2772,00:00:11.088,0.01993934088386597
2773,00:00:11.092,0.00838033750187606
2774,00:00:11.096,-0.00035409563861321463
2775,00:00:11.1,0.0016230205583269725
2776,00:00:11.104,-0.008697998709976654
2777,00:00:11.108,-0.01180788222700353
2778,00:00:11.112,-0.0026992536149919033
2779,00:00:11.116,0.002971728776174137
2780,00:00:11.12,0.011268240516073995
2781,00:00:11.124,0.01082404656335712
2782,00:00:11.128,-5.2682240493590396e-05
2783,00:00:11.132,-0.009542305298964493
2784,00:00:11.136,-0.012464025057852261
2785,00:00:11.14,-0.0011197831772733501
2786,00:00:11.144,0.00697562046116218
2787,00:00:11.148,-0.0004477077163755922
2788,00:00:11.152,0.005682448099832985
2789,00:00:11.156,0.00769103862694465
2790,00:00:11.16,-0.006359325314406315
2791,00:00:11.164,0.00014705362264067997
2792,00:00:11.168,0.0006770065374439579
2793,00:00:11.172,-0.009024177212268116
2794,00:00:11.176,-0.010476400027982885
2795,00:00:11.18,-0.0022530722199007843
2796,00:00:11.184,0.0199847570620477
2797,00:00:11.188,0.02147126942873005
2798,00:00:11.192,0.0005633065738948092
2799,00:00:11.196,-0.020382263814099178
2800,00:00:11.2,-0.01824114425107841
2801,00:00:11.204,-0.008439245109912008
2802,00:00:11.208,0.0044388550013536665
2803,00:00:11.212,0.013047160027781474
2804,00:00:11.216,0.03303114156005906
2805,00:00:11.22,0.00047223927685990604
2806,00:00:11.224,-0.03156282752752307
2807,00:00:11.228,-0.014410934294573931
2808,00:00:11.232,0.00595059565966949
2809,00:00:11.236,0.00566969803185202
2810,00:00:11.24,0.003913482942152774
2811,00:00:11.244,0.014506516090477805
2812,00:00:11.248,0.005402100330684337
2813,00:00:11.252,-0.019564125480428605
2814,00:00:11.256,-0.008052719116676592
2815,00:00:11.26,0.0010965685069095309
2816,00:00:11.264,0.003134261147351931
2817,00:00:11.268,0.006903349072672418
2818,00:00:11.272,0.006134975468739871
2819,00:00:11.276,-0.008218562317779288
2820,00:00:11.28,0.0079912623623386
2821,00:00:11.284,-0.004042513377498835
2822,00:00:11.288,-0.005327888880856329
2823,00:00:11.292,0.0017909527232404779
2824,00:00:11.296,-0.003188591188518334
2825,00:00:11.3,-0.003087578399572525
2826,00:00:11.304,0.0016510148998349866
2827,00:00:11.308,0.006337873637676241
2828,00:00:11.312,0.00586990406736732
2829,00:00:11.316,0.004125052131712438
2830,00:00:11.32,-0.010074450168758624
2831,00:00:11.324,-0.01202096435008569
2832,00:00:11.328,0.0026132878847420203
2833,00:00:11.332,0.00868834409629926
2834,00:00:11.336,0.00075341157935327
2835,00:00:11.34,0.0036993460817029648
2836,00:00:11.344,0.002265188843011853
2837,00:00:11.348,-0.006879549880977724
2838,00:00:11.352,-0.0030140414601191904
2839,00:00:11.356,-0.0025969488779082938
2840,00:00:11.36,-0.0012979157145309693
2841,00:00:11.364,0.004823536612093445
2842,00:00:11.368,0.002332805859623479
2843,00:00:11.372,0.0035241335499449637
2844,00:00:11.376,-0.0035115721730107855
2845,00:00:11.38,0.006188348434079665
2846,00:00:11.384,0.007063523531542157
2847,00:00:11.388,-0.014670840115286441
2848,00:00:11.392,-0.014923177310265615
2849,00:00:11.396,0.001163880690000947
2850,00:00:11.4,0.013308640554896516
2851,00:00:11.404,0.007069988983857908
2852,00:00:11.408,0.0032251279553747745
2853,00:00:11.412,-0.00030667623650514905
2854,00:00:11.416,-0.0110919580438349
2855,00:00:11.42,-0.010184491942709425
2856,00:00:11.424,0.009281405014917251
2857,00:00:11.428,0.010449207155033939
2858,00:00:11.432,-0.0021984124832670213
2859,00:00:11.436,-0.0026904943661065816
2860,00:00:11.44,-0.0028116142493672634
2861,00:00:11.444,-0.010127407687832646
2862,00:00:11.448,-0.000775963242631408
2863,00:00:11.452,0.02559630369796651
2864,00:00:11.456,0.0047910464345477495
2865,00:00:11.46,-0.0262236139678862
2866,00:00:11.464,-0.005046609439887111
2867,00:00:11.468,0.005126516567543149
2868,00:00:11.472,-0.001353389758151022
2869,00:00:11.476,0.014275392517447477
2870,00:00:11.48,0.011500671389512709
2871,00:00:11.484,-0.00239252613391727
2872,00:00:11.488,-0.020962099137250334
2873,00:00:11.492,-0.002352425304707142
2874,00:00:11.496,-0.004885687376372509
2875,00:00:11.5,0.00107188930269331
2876,00:00:11.504,0.022492616000818068
2877,00:00:11.508,0.011525663896463813
2878,00:00:11.512,-0.02256276807747782
2879,00:00:11.516,-0.01054746890440584
2880,00:00:11.52,0.003173119112034329
2881,00:00:11.524,0.0067542583565227705
2882,00:00:11.528,0.004785283148521557
2883,00:00:11.532,0.00330970730283298
2884,00:00:11.536,-0.009621594639611429
2885,00:00:11.54,-0.00011622755846474358
2886,00:00:11.544,0.013215014943853028
2887,00:00:11.548,-0.003514087860821742
2888,00:00:11.552,-0.011679410705255553
2889,00:00:11.556,0.001206532896503636
2890,00:00:11.56,0.0008106822351692231
2891,00:00:11.564,-0.0030099390423856654
2892,00:00:11.568,0.0010506856779102193
2893,00:00:11.572,0.004019755725494181
2894,00:00:11.576,0.005912841272220253
2895,00:00:11.58,0.005926756624830895
2896,00:00:11.584,-0.004046106145324307
2897,00:00:11.588,-0.010955159531476947
2898,00:00:11.592,-0.00490237050780706
2899,00:00:11.596,0.0020372312865219993
2900,00:00:11.6,0.0072389889974146995
2901,00:00:11.604,0.012834497727453698
2902,00:00:11.608,0.0006665549008175733
2903,00:00:11.612,-0.021028777930041497
2904,00:00:11.616,-0.008228766790125516
2905,00:00:11.62,0.002024203422479335
2906,00:00:11.624,0.015215142222587002
2907,00:00:11.628,0.013390142317803071
2908,00:00:11.632,-0.006230464467080312
2909,00:00:11.636,-0.011255378311034299
2910,00:00:11.64,-0.00933417672058568
2911,00:00:11.644,0.011577965226024391
2912,00:00:11.648,0.008012214093469082
2913,00:00:11.652,-0.0024301494704559506
2914,00:00:11.656,-0.00737071339972317
2915,00:00:11.66,-0.00795361632481217
2916,00:00:11.664,0.0005539671110454951
2917,00:00:11.668,0.012412243057042362
2918,00:00:11.672,0.012924901850055898
2919,00:00:11.676,-0.01151084376033398
2920,00:00:11.68,-0.010759626748040322
2921,00:00:11.684,-0.0006640702777076448
2922,00:00:11.688,0.00567236403003335
2923,00:00:11.692,0.0038635308737866567
2924,00:00:11.696,-0.005787562346085912
2925,00:00:11.7,8.518015965819988e-05
2926,00:00:11.704,0.011034193215891719
2927,00:00:11.708,-0.003349469756358306
2928,00:00:11.712,-0.001445538990083151
2929,00:00:11.716,-0.0027001110138371595
2930,00:00:11.72,-0.01732117129722614
2931,00:00:11.724,0.00824225793530786
2932,00:00:11.728,0.01987782120704647
2933,00:00:11.732,-0.00011474685743450945
2934,00:00:11.736,-0.01150956004858017
2935,00:00:11.74,-0.008896929211914543
2936,00:00:11.744,-0.0018093697181029665
2937,00:00:11.748,0.018219962730654547
2938,00:00:11.752,0.010299066838342691
2939,00:00:11.756,-0.014780660334508908
2940,00:00:11.76,-0.009841658960795039
2941,00:00:11.764,0.00234348938829498
2942,00:00:11.768,-0.00867656986520161
2943,00:00:11.772,0.007444831018801776
2944,00:00:11.776,0.019829476354061647
2945,00:00:11.78,0.0011273081618128344
2946,00:00:11.784,-0.02101746411062779
2947,00:00:11.788,-0.003608153667300942
2948,00:00:11.792,0.01298339432105425
2949,00:00:11.796,0.0021167556842556267
2950,00:00:11.8,-0.0009502281609456961
2951,00:00:11.804,-0.00766588142141698
2952,00:00:11.808,-0.00155138480477035
2953,00:00:11.812,-0.00046007053606444796
2954,00:00:11.816,-0.0018822736456058917
2955,00:00:11.82,0.007166194554883982
2956,00:00:11.824,0.005535572534427044
2957,00:00:11.828,0.005031380220316353
2958,00:00:11.832,-0.004413006965478415
2959,00:00:11.836,-0.008691362752870187
2960,00:00:11.84,-0.004391926006064753
2961,00:00:11.844,-0.003331560044898654
2962,00:00:11.848,0.0054241729282011875
2963,00:00:11.852,0.010803374865645305
2964,00:00:11.856,0.0018078819011861922
2965,00:00:11.86,0.0009432261576876098
2966,00:00:11.864,-0.006113576935604215
2967,00:00:11.868,-0.01011671847663821
2968,00:00:11.872,-0.002735842645051893
2969,00:00:11.876,0.01019680971512571
2970,00:00:11.88,0.00843634537886828
2971,00:00:11.884,-0.006459387019276622
2972,00:00:11.888,-0.007975988242833413
2973,00:00:11.892,-0.001258735632291063
2974,00:00:11.896,-0.0044322137546259945
2975,00:00:11.9,0.01691016100812707
2976,00:00:11.904,0.0241852574981749
2977,00:00:11.908,-0.00981548172421754
2978,00:00:11.912,-0.03422898543067275
2979,00:00:11.916,-0.012506116705480934
2980,00:00:11.92,0.009953992208465934
2981,00:00:11.924,0.01793367695063348
2982,00:00:11.928,0.013124144810717537
2983,00:00:11.932,-0.000862901186337695
2984,00:00:11.936,-0.0069908070181554606
2985,00:00:11.94,-0.006899098167195912
2986,00:00:11.944,-0.005735655082389715
2987,00:00:11.948,0.008056193430093114
2988,00:00:11.952,-0.0002450417669024351
2989,00:00:11.956,-0.004388592933537439
2990,00:00:11.96,-0.009782614652067426
2991,00:00:11.964,0.005473633122164759
2992,00:00:11.968,0.0196007615886629
2993,00:00:11.972,0.01468930533155803
2994,00:00:11.976,-0.02327351126587015
2995,00:00:11.98,-0.022748210642021177
2996,00:00:11.984,-0.0010473814327269797
2997,00:00:11.988,0.021683234255760863
2998,00:00:11.992,0.010852643914404325
2999,00:00:11.996,-0.0009989236132241718
3000,00:00:12,-0.015309583686757793
3001,00:00:12.004,-0.0052019731519976666
3002,00:00:12.008,0.000800135574536396
3003,00:00:12.012,0.007675741333514454
3004,00:00:12.016,0.01219501753803343
3005,00:00:12.02,0.00592686072923243
3006,00:00:12.024,-0.010646953698596912
3007,00:00:12.028,-0.017966710729524514
3008,00:00:12.032,-0.010010391706600754
3009,00:00:12.036,0.00970188170322217
3010,00:00:12.04,0.017351286343910064
3011,00:00:12.044,-0.002323619992239399
3012,00:00:12.048,0.007480532396584754
3013,00:00:12.052,0.009067907405551521
3014,00:00:12.056,-0.009684704400569894
3015,00:00:12.06,-0.01792552112601698
3016,00:00:12.064,-0.012771345092915
3017,00:00:12.068,0.0022339996648952374
3018,00:00:12.072,0.009120498943957498
3019,00:00:12.076,0.015238589840009765
3020,00:00:12.08,0.009543237974867232
3021,00:00:12.084,-0.003751607640879226
3022,00:00:12.088,-0.006235964599909488
3023,00:00:12.092,-0.0066310186812188416
3024,00:00:12.096,-0.006289703713264317
3025,00:00:12.1,-0.0009045763290487212
3026,00:00:12.104,0.0012125787325203505
3027,00:00:12.108,0.00632907717954368
3028,00:00:12.112,0.0025484761899861046
3029,00:00:12.116,0.0008587073534727079
3030,00:00:12.12,0.008085015113465484
3031,00:00:12.124,0.001609902974450961
3032,00:00:12.128,-0.015408408005896525
3033,00:00:12.132,-0.011708398145856334
3034,00:00:12.136,0.0004390134206460062
3035,00:00:12.14,0.003968144941609351
3036,00:00:12.144,0.012642310517549047
3037,00:00:12.148,0.01632168644573538
3038,00:00:12.152,0.004892739714705386
3039,00:00:12.156,-0.027275704800558777
3040,00:00:12.16,-0.012261203257367041
3041,00:00:12.164,0.00188987923320383
3042,00:00:12.168,0.01899830694310364
3043,00:00:12.172,0.0024481727887177914
3044,00:00:12.176,-0.010276465502101963
3045,00:00:12.18,-0.0026399755151942303
3046,00:00:12.184,0.006705833890009675
3047,00:00:12.188,0.001932250648678748
3048,00:00:12.192,-0.004953547249897384
3049,00:00:12.196,0.004343613458331674
3050,00:00:12.2,0.008270751422969623
3051,00:00:12.204,-0.009718994166178163
3052,00:00:12.208,-0.006181027812999682
3053,00:00:12.212,-0.001316164663876411
3054,00:00:12.216,-0.006232865329366182
3055,00:00:12.22,0.011009603651473304
3056,00:00:12.224,0.010982142644934363
3057,00:00:12.228,-0.004560874600429088
3058,00:00:12.232,-0.009755224455147987
3059,00:00:12.236,0.00178805668838322
3060,00:00:12.24,0.01038759294897317
3061,00:00:12.244,0.006800817674957211
3062,00:00:12.248,-0.01704779826104641
3063,00:00:12.252,-0.004265798677806738
3064,00:00:12.256,-0.004522961797192691
3065,00:00:12.26,0.0030394771602004697
3066,00:00:12.264,0.01346351171378051
3067,00:00:12.268,0.012775963346939563
3068,00:00:12.272,-0.01225913071539252
3069,00:00:12.276,-0.005295498529449101
3070,00:00:12.28,-0.0049544003995833875
3071,00:00:12.284,-0.005442438618047168
3072,00:00:12.288,0.0016749007627367902
3073,00:00:12.292,0.004048117756610736
3074,00:00:12.296,0.009904473743517878
3075,00:00:12.3,0.01070812335819937
3076,00:00:12.304,-0.005815274911583404
3077,00:00:12.308,-0.009886991669191051
3078,00:00:12.312,-0.008695077718584802
3079,00:00:12.316,0.0006659484351985109
3080,00:00:12.32,-0.00204630254302174
3081,00:00:12.324,0.003610838067288566
3082,00:00:12.328,0.008679753198521219
3083,00:00:12.332,0.015667712315917043
3084,00:00:12.336,-0.00778299907688052
3085,00:00:12.34,-0.007346617581788454
3086,00:00:12.344,-0.008280088346509732
3087,00:00:12.348,-0.009507083039352434
3088,00:00:12.352,0.003507150220684704
3089,00:00:12.356,0.012955435231560798
3090,00:00:12.36,0.00750269455602392
