,Elapsed Time,EMG
0,00:00:00,1.027511075139043
1,00:00:00.004,-0.9902392476797156
2,00:00:00.008,-0.7905803732573937
3,00:00:00.012,-0.07312792574521122
4,00:00:00.016,0.40033017285168104
5,00:00:00.02,0.4914433360099801
6,00:00:00.024,0.27886960841715347
7,00:00:00.028,0.0803000070154668
8,00:00:00.032,-0.13149063009768738
9,00:00:00.036,-0.21393632330000398
10,00:00:00.04,-0.1429551877081399
11,00:00:00.044,-0.05170115968212486
12,00:00:00.048,0.013538202736526679
13,00:00:00.052,0.0288925692439079
14,00:00:00.056,0.06451480509713302
15,00:00:00.06,0.058974733576178495
16,00:00:00.064,0.031108201947063187
17,00:00:00.068,-0.06672330514993512
18,00:00:00.072,-0.0380020318552851
19,00:00:00.076,0.0034994869492948402
20,00:00:00.08,0.002174575871322304
21,00:00:00.084,0.006121865124441719
22,00:00:00.088,0.02042873017489911
23,00:00:00.092,-0.005552435759454967
24,00:00:00.096,0.01155077922157943
25,00:00:00.1,0.0013221399858593897
26,00:00:00.104,-0.0089940729085356
27,00:00:00.108,-0.038074714480899316
28,00:00:00.112,0.008663100452395177
29,00:00:00.116,0.03914389736019079
30,00:00:00.12,0.010710394359193732
31,00:00:00.124,-0.03006037248997016
32,00:00:00.128,7.971981540321957e-05
33,00:00:00.132,-0.005595370312221346
34,00:00:00.136,-0.02616024995222687
35,00:00:00.14,0.01678575621917846
36,00:00:00.144,0.04496441758237779
37,00:00:00.148,0.014471958216745368
38,00:00:00.152,-0.028288768604397767
39,00:00:00.156,-0.04955344134941694
40,00:00:00.16,0.00996960280463102
41,00:00:00.164,0.044057183200493455
42,00:00:00.168,-0.0005269063403830019
43,00:00:00.172,-0.00977551913820212
44,00:00:00.176,-0.02740997564978894
45,00:00:00.18,-0.004915979836368941
46,00:00:00.184,0.016227819258347133
47,00:00:00.188,0.02421153150498869
48,00:00:00.192,0.029848423320800108
49,00:00:00.196,-0.0510618807747959
50,00:00:00.2,-0.02029110188595952
51,00:00:00.204,0.012449642526917166
52,00:00:00.208,0.0044598660897463525
53,00:00:00.212,0.01441732700914147
54,00:00:00.216,0.00259460997767746
55,00:00:00.22,-0.0007066214457154604
56,00:00:00.224,-0.014214761322364253
57,00:00:00.228,0.02421014400897553
58,00:00:00.232,-0.016456386307254392
59,00:00:00.236,-0.016675930004566908
60,00:00:00.24,0.00866192288231103
61,00:00:00.244,-0.00704743550159037
62,00:00:00.248,0.014775795629248049
63,00:00:00.252,0.02315894747152925
64,00:00:00.256,0.02394892135635014
65,00:00:00.26,-0.07036632462404661
66,00:00:00.264,-0.049600997474044534
67,00:00:00.268,0.04576205153716732
68,00:00:00.272,0.050078270025551305
69,00:00:00.276,0.01781318429857492
70,00:00:00.28,0.00319879152812063
71,00:00:00.284,-0.044992914889007814
72,00:00:00.288,-0.024286389583721715
73,00:00:00.292,-0.00408763776067644
74,00:00:00.296,0.011110649094916878
75,00:00:00.3,0.02136116893962025
76,00:00:00.304,0.008761934586800631
77,00:00:00.308,-0.0017842135857790696
78,00:00:00.312,-0.010768944368464872
79,00:00:00.316,-0.0001996186911128509
80,00:00:00.32,0.00442069303244353
81,00:00:00.324,-0.02990482747554779
82,00:00:00.328,0.0148942018859088
83,00:00:00.332,0.030950870539527435
84,00:00:00.336,-0.00877097388729452
85,00:00:00.34,-0.028242886124644463
86,00:00:00.344,0.0033911707578227
87,00:00:00.348,0.03557072998955848
88,00:00:00.352,0.00830965931527317
89,00:00:00.356,-0.023437748895958076
90,00:00:00.36,-0.031777409370988566
91,00:00:00.364,-0.003501304134260866
92,00:00:00.368,0.01531603001058101
93,00:00:00.372,0.011892754468135541
94,00:00:00.376,0.014203365019056923
95,00:00:00.38,0.009256226243451241
96,00:00:00.384,-0.014441065024584532
97,00:00:00.388,-0.014248177874833352
98,00:00:00.392,-0.01589843537658455
99,00:00:00.396,0.003991259261965791
100,00:00:00.4,0.032362014986574615
101,00:00:00.404,-0.005594497546553629
102,00:00:00.408,0.0005777598125860104
103,00:00:00.412,-0.0010809290688484907
104,00:00:00.416,-0.005689750891178851
105,00:00:00.42,-0.010551049141213301
106,00:00:00.424,-0.014131037780316581
107,00:00:00.428,0.011086634360253811
108,00:00:00.432,0.028775137965567372
109,00:00:00.436,0.00602274551056326
110,00:00:00.44,-0.01974636700469996
111,00:00:00.444,-0.03048604214563963
112,00:00:00.448,0.005981125170364979
113,00:00:00.452,0.012717218953184782
114,00:00:00.456,0.016614232677966356
115,00:00:00.46,0.00062239426188171
116,00:00:00.464,-0.0014800652861595692
117,00:00:00.468,0.04451099503785377
118,00:00:00.472,-0.05310332169756295
119,00:00:00.476,-0.04254016373306509
120,00:00:00.48,0.01662704627960917
121,00:00:00.484,0.02555740160460117
122,00:00:00.488,0.00166309182532132
123,00:00:00.492,0.004007718060165639
124,00:00:00.496,-0.010258476657327278
125,00:00:00.5,0.017284023342654112
126,00:00:00.504,0.02607852639630434
127,00:00:00.508,-0.03678744612261644
128,00:00:00.512,-0.02963208779692654
129,00:00:00.516,0.0106548257172107
130,00:00:00.52,0.01512231770902868
131,00:00:00.524,0.01169346133247018
132,00:00:00.528,-0.00619096634909513
133,00:00:00.532,0.0052717981161549705
134,00:00:00.536,0.0002983538433909399
135,00:00:00.54,-0.02378536108881235
136,00:00:00.544,-0.0007398422458209141
137,00:00:00.548,0.04183130012825129
138,00:00:00.552,-0.008404105901718152
139,00:00:00.556,-0.01697795387008229
140,00:00:00.56,-0.013456224463880031
141,00:00:00.564,-0.02498423587530857
142,00:00:00.568,0.027853284496814002
143,00:00:00.572,0.030427943915128704
144,00:00:00.576,0.003630822233390066
145,00:00:00.58,-0.023520926712080864
146,00:00:00.584,-0.003590345615521082
147,00:00:00.588,-0.00048807030543685003
148,00:00:00.592,0.01579198241233825
149,00:00:00.596,-0.007980438880622387
150,00:00:00.6,0.006552854320034389
151,00:00:00.604,-0.03418643889017401
152,00:00:00.608,-0.00946458207909018
153,00:00:00.612,0.014466720749624077
154,00:00:00.616,0.02775668818503624
155,00:00:00.62,0.02315672975964844
156,00:00:00.624,0.004726342507638038
157,00:00:00.628,-0.029761602170765376
158,00:00:00.632,-0.02199221786577259
159,00:00:00.636,3.563024802134005e-05
160,00:00:00.64,0.0042142210295423865
161,00:00:00.644,-0.015100698219612251
162,00:00:00.648,0.00989710213616489
163,00:00:00.652,0.03477187023963778
164,00:00:00.656,0.01364272378850728
165,00:00:00.66,-0.015985389123670757
166,00:00:00.664,-0.019513039616867848
167,00:00:00.668,-0.018963383510708802
168,00:00:00.672,0.022230064962059242
169,00:00:00.676,0.013329351146239773
170,00:00:00.68,-0.02590746385976674
171,00:00:00.684,-0.022439464926719672
172,00:00:00.688,0.02585949795320627
173,00:00:00.692,0.03490886092185977
174,00:00:00.696,-0.00272122165188194
175,00:00:00.7,-0.021771068684756745
176,00:00:00.704,-0.011523387598572299
177,00:00:00.708,0.013918738346546862
178,00:00:00.712,-0.00015401869313791112
179,00:00:00.716,-0.0030394351633731293
180,00:00:00.72,-0.032974130474031
181,00:00:00.724,0.02951070573180914
182,00:00:00.728,0.012958192033693191
183,00:00:00.732,-0.0033902262803167105
184,00:00:00.736,-0.001302541320910673
185,00:00:00.74,0.0036016292870044795
186,00:00:00.744,-0.01949179149232804
187,00:00:00.748,0.01721612852998079
188,00:00:00.752,-0.0005733647849410783
189,00:00:00.756,-0.025774742767680388
190,00:00:00.76,-0.00041529897134750995
191,00:00:00.764,0.01276850304566321
192,00:00:00.768,0.017207040451467037
193,00:00:00.772,0.012723279651254409
194,00:00:00.776,0.014794796705245956
195,00:00:00.78,-0.037391916383057826
196,00:00:00.784,-0.03180371387861669
197,00:00:00.788,0.0053188389865681494
198,00:00:00.792,0.00505310914013534
199,00:00:00.796,0.017957935750018795
200,00:00:00.8,0.03375203208997847
201,00:00:00.804,-0.00012362748384479958
202,00:00:00.808,-0.024122279995936004
203,00:00:00.812,-0.037594716995954486
204,00:00:00.816,0.012696737656369809
205,00:00:00.82,0.02657267136964949
206,00:00:00.824,0.0027317048516124483
207,00:00:00.828,0.010979196638800202
208,00:00:00.832,-0.013240594998933361
209,00:00:00.836,-0.04455345170572401
210,00:00:00.84,0.020233760122209794
211,00:00:00.844,0.01621304824948311
212,00:00:00.848,0.00434320012573154
213,00:00:00.852,0.01111306576058269
214,00:00:00.856,0.010255585424602027
215,00:00:00.86,-0.014803286758251518
216,00:00:00.864,-0.055618640966713456
217,00:00:00.868,0.02576131979003545
218,00:00:00.872,0.02187859429977829
219,00:00:00.876,0.009770506061613556
220,00:00:00.88,-0.005255915588350037
221,00:00:00.884,0.00987440976314247
222,00:00:00.888,-0.01099635160062462
223,00:00:00.892,-0.03780732676386833
224,00:00:00.896,0.013500219327397645
225,00:00:00.9,0.0271849050186574
226,00:00:00.904,0.019293193472549357
227,00:00:00.908,-0.026143781375139917
228,00:00:00.912,-0.032229843549430356
229,00:00:00.916,0.039314996451139436
230,00:00:00.92,0.0006529446691274704
231,00:00:00.924,-0.013967959806905125
232,00:00:00.928,-0.02179394895210862
233,00:00:00.932,0.00755393703002482
234,00:00:00.936,0.04874972114339479
235,00:00:00.94,-0.00399527244735509
236,00:00:00.944,-0.024840915109962225
237,00:00:00.948,-0.014679665502626463
238,00:00:00.952,-0.010469808767084053
239,00:00:00.956,0.01781676802784209
240,00:00:00.96,0.02057889569550753
241,00:00:00.964,-0.005223051062785087
242,00:00:00.968,-0.03328156494535506
243,00:00:00.972,0.007096075642039068
244,00:00:00.976,0.0337482527829707
245,00:00:00.98,0.0037221079692244495
246,00:00:00.984,-0.005158090294571592
247,00:00:00.988,-0.021010483964346367
248,00:00:00.992,-0.014311542268842504
249,00:00:00.996,-0.0013722480216529255
250,00:00:01,-0.008818575879558931
251,00:00:01.004,0.03415405261330306
252,00:00:01.008,0.057952856179326696
253,00:00:01.012,-0.03186883684247734
254,00:00:01.016,-0.04034297633916138
255,00:00:01.02,-0.03291429998353128
256,00:00:01.024,-0.009078856208361689
257,00:00:01.028,0.03126079472713174
258,00:00:01.032,0.058238914236426347
259,00:00:01.036,-0.00124648795463142
260,00:00:01.04,0.00302106747403741
261,00:00:01.044,-0.047625542036257705
262,00:00:01.048,-0.026657349430024672
263,00:00:01.052,0.012805627193301895
264,00:00:01.056,0.004453680012375109
265,00:00:01.06,0.0083153024315834
266,00:00:01.064,0.030663315206766174
267,00:00:01.068,0.009854241507127881
268,00:00:01.072,-0.005460755521198735
269,00:00:01.076,-0.02927152626216418
270,00:00:01.08,-0.035850624088198016
271,00:00:01.084,0.008117794408462942
272,00:00:01.088,0.043867238564416794
273,00:00:01.092,-0.00948788947425782
274,00:00:01.096,0.0042536185355857
275,00:00:01.1,0.017926682077813907
276,00:00:01.104,-0.032056444324552985
277,00:00:01.108,-0.02975461585447192
278,00:00:01.112,0.03646769048646096
279,00:00:01.116,0.012800480559235439
280,00:00:01.12,-0.0018833805806934803
281,00:00:01.124,-0.00743643962778151
282,00:00:01.128,-0.006550464953761571
283,00:00:01.132,0.01164963957853616
284,00:00:01.136,-0.023613225668668757
285,00:00:01.14,-0.005470727221108921
286,00:00:01.144,0.0277315485291183
287,00:00:01.148,0.0012039470020682227
288,00:00:01.152,-0.016568040766287637
289,00:00:01.156,0.0007938169874250897
290,00:00:01.16,0.004521779455899374
291,00:00:01.164,0.01751189492642883
292,00:00:01.168,0.0033607962395762574
293,00:00:01.172,-0.011556530604138969
294,00:00:01.176,-0.0188314102124423
295,00:00:01.18,-0.004511191509664069
296,00:00:01.184,0.013882097788155098
297,00:00:01.188,-0.0076047107577323905
298,00:00:01.192,0.011774976272135976
299,00:00:01.196,-0.0023125035222619807
300,00:00:01.2,-0.007216998841613529
301,00:00:01.204,0.01629671850241721
302,00:00:01.208,0.010101871375809415
303,00:00:01.212,-0.0022101181093603407
304,00:00:01.216,-0.0073553528636694
305,00:00:01.22,-0.0114652996417135
306,00:00:01.224,-0.04621046688407662
307,00:00:01.228,0.020632681553251996
308,00:00:01.232,0.04049167223274705
309,00:00:01.236,0.014446361456066382
310,00:00:01.24,-0.006150027387775481
311,00:00:01.244,-0.02476986777037381
312,00:00:01.248,-0.00230330368503928
313,00:00:01.252,0.01550636149477214
314,00:00:01.256,-0.019929792499169697
315,00:00:01.26,-0.02018102817237377
316,00:00:01.264,0.02648580959066747
317,00:00:01.268,0.02811961667612195
318,00:00:01.272,-0.006422959966585042
319,00:00:01.276,0.00617688242346048
320,00:00:01.28,-0.02965564513579014
321,00:00:01.284,-0.0310326442122459
322,00:00:01.288,0.01748884981498124
323,00:00:01.292,0.01706791704054919
324,00:00:01.296,0.023890613316325505
325,00:00:01.3,-0.00624325324315578
326,00:00:01.304,-0.01460166485048831
327,00:00:01.308,0.00010999542428180781
328,00:00:01.312,0.00870864820899442
329,00:00:01.316,-0.013724447926506402
330,00:00:01.32,-0.02553749503567815
331,00:00:01.324,0.02335750777274366
332,00:00:01.328,0.004115037620067499
333,00:00:01.332,0.026115025393664858
334,00:00:01.336,-0.005098784167785199
335,00:00:01.34,-0.02518608991522342
336,00:00:01.344,-0.011929723259527236
337,00:00:01.348,0.018673818638490082
338,00:00:01.352,0.026657698675990122
339,00:00:01.356,-0.03147260844707494
340,00:00:01.36,-0.04341376712545757
341,00:00:01.364,0.051785506773740116
342,00:00:01.368,0.03127772128209462
343,00:00:01.372,-0.01339007529895753
344,00:00:01.376,-0.015965635655447837
345,00:00:01.38,-0.036055651493370575
346,00:00:01.384,-0.00300047942437231
347,00:00:01.388,0.03292543953284619
348,00:00:01.392,0.019876388454576926
349,00:00:01.396,0.009458369459025562
350,00:00:01.4,-0.01806142483837906
351,00:00:01.404,-0.01829142589122055
352,00:00:01.408,-0.009798422979656614
353,00:00:01.412,0.00446772121358662
354,00:00:01.416,-0.020023611374199383
355,00:00:01.42,0.0409829802811146
356,00:00:01.424,0.02182552358135581
357,00:00:01.428,-0.00551456343964674
358,00:00:01.432,-0.006411594105884429
359,00:00:01.436,-0.020357257686555337
360,00:00:01.44,-0.0516102025285363
361,00:00:01.444,0.025046760449185943
362,00:00:01.448,0.04616956599056721
363,00:00:01.452,0.0024383921409025797
364,00:00:01.456,-0.0017515020444989204
365,00:00:01.46,0.008141739061102271
366,00:00:01.464,-0.02163239615038041
367,00:00:01.468,-0.02571030822582546
368,00:00:01.472,-0.0020700073800980993
369,00:00:01.476,0.0002051633782684699
370,00:00:01.48,0.024328601197339577
371,00:00:01.484,0.0014038940425962292
372,00:00:01.488,0.00831948639824986
373,00:00:01.492,0.018934119638288366
374,00:00:01.496,-0.005628438200801611
375,00:00:01.5,-0.048380345222540214
376,00:00:01.504,-0.00443986663594838
377,00:00:01.508,0.01914417999796569
378,00:00:01.512,0.01650590123608709
379,00:00:01.516,0.011826858390122652
380,00:00:01.52,-0.03005025954917078
381,00:00:01.524,0.01423937850631774
382,00:00:01.528,-0.001815788811654783
383,00:00:01.532,-0.0031207337742671405
384,00:00:01.536,0.022429198841564375
385,00:00:01.54,-0.02633229445200413
386,00:00:01.544,-0.01649598532821981
387,00:00:01.548,0.02021391643211246
388,00:00:01.552,0.006715621158946316
389,00:00:01.556,0.012754038907587532
390,00:00:01.56,-0.011846424895338692
391,00:00:01.564,-0.01610265905037525
392,00:00:01.568,0.002080485224723822
393,00:00:01.572,0.00221292325295508
394,00:00:01.576,-0.004110945854336019
395,00:00:01.58,0.022388393059372888
396,00:00:01.584,-0.0032325642096111525
397,00:00:01.588,-0.00154544098768383
398,00:00:01.592,-0.00406243442557752
399,00:00:01.596,0.0035779527388513097
400,00:00:01.6,-0.01918483339250089
401,00:00:01.604,-0.005271668545901782
402,00:00:01.608,0.02164303278550505
403,00:00:01.612,0.00949971610680222
404,00:00:01.616,-0.03238005330786105
405,00:00:01.62,0.01476039353292435
406,00:00:01.624,-0.005182215711101889
407,00:00:01.628,0.022795673896325766
408,00:00:01.632,0.00562706869095564
409,00:00:01.636,-0.01362314133439213
410,00:00:01.64,0.015537477331235979
411,00:00:01.644,-0.02263652905821803
412,00:00:01.648,-0.00958166550844911
413,00:00:01.652,0.01525785028934474
414,00:00:01.656,-0.0601147748529912
415,00:00:01.66,0.012381394859403382
416,00:00:01.664,0.07247674465179443
417,00:00:01.668,0.02679303346667435
418,00:00:01.672,-0.027787783415988098
419,00:00:01.676,-0.03873438946902748
420,00:00:01.68,-0.01674403413198889
421,00:00:01.684,0.015923209255561212
422,00:00:01.688,0.016049925237894058
423,00:00:01.692,0.014230835950002073
424,00:00:01.696,-0.021034588105976575
425,00:00:01.7,-0.004865691065788269
426,00:00:01.704,0.00665895768906921
427,00:00:01.708,0.004269505647243937
428,00:00:01.712,-0.00870756176300347
429,00:00:01.716,-0.005318628449458627
430,00:00:01.72,0.022137047722935663
431,00:00:01.724,-0.0062044429942034185
432,00:00:01.728,-0.01498014177195727
433,00:00:01.732,0.01329374255146831
434,00:00:01.736,-0.006918860133737352
435,00:00:01.74,0.00856099859811366
436,00:00:01.744,0.0011379172792658203
437,00:00:01.748,-0.00607028347440063
438,00:00:01.752,-0.008996370655950159
439,00:00:01.756,-0.005409146251622584
440,00:00:01.76,0.002665624982910232
441,00:00:01.764,0.01333451981190592
442,00:00:01.768,0.013129831582773466
443,00:00:01.772,0.01966418465599418
444,00:00:01.776,-0.0257143671624362
445,00:00:01.78,-0.04093317198567093
446,00:00:01.784,0.006231067993212492
447,00:00:01.788,0.01977731881197543
448,00:00:01.792,0.02737894328311083
449,00:00:01.796,0.007089273771271101
450,00:00:01.8,-0.010871559847146241
451,00:00:01.804,-0.05802368232980366
452,00:00:01.808,0.00274675001855939
453,00:00:01.812,0.03870458062738175
454,00:00:01.816,0.00949706719256937
455,00:00:01.82,0.020231366524967626
456,00:00:01.824,-0.01047659036703408
457,00:00:01.828,-0.0460089016705751
458,00:00:01.832,0.01851011952385302
459,00:00:01.836,0.010079973930260167
460,00:00:01.84,-0.010699509875848891
461,00:00:01.844,0.03402985027059907
462,00:00:01.848,-0.006850889767520131
463,00:00:01.852,-0.06357450736686583
464,00:00:01.856,0.0017617217963561372
465,00:00:01.86,0.0631149029359221
466,00:00:01.864,0.01077346806414425
467,00:00:01.868,-0.02630399353802203
468,00:00:01.872,-0.020420187152922122
469,00:00:01.876,0.033721429645083845
470,00:00:01.88,-0.01702875643968579
471,00:00:01.884,-0.01609301520511504
472,00:00:01.888,0.00879039091523737
473,00:00:01.892,0.007048058207146862
474,00:00:01.896,0.0024281884543597716
475,00:00:01.9,-0.007313150446861961
476,00:00:01.904,-0.0047163657291093815
477,00:00:01.908,0.017234775237739093
478,00:00:01.912,-0.005643064127070822
479,00:00:01.916,0.005865239072591071
480,00:00:01.92,-0.007077505113556971
481,00:00:01.924,-0.007075527682900419
482,00:00:01.928,-0.016883747186511762
483,00:00:01.932,0.019879899453371756
484,00:00:01.936,-0.0012868114281445802
485,00:00:01.94,0.00866839534137398
486,00:00:01.944,0.0026161635760218096
487,00:00:01.948,0.01067831786349415
488,00:00:01.952,0.01570382935460657
489,00:00:01.956,-0.0488673998042941
490,00:00:01.96,-0.04213254339993003
491,00:00:01.964,0.03118660394102338
492,00:00:01.968,0.04513184400275356
493,00:00:01.972,0.01262906636111439
494,00:00:01.976,-0.014849499682895893
495,00:00:01.98,0.00036219332832843
496,00:00:01.984,-0.024016055118409013
497,00:00:01.988,-0.040309720672667075
498,00:00:01.992,-0.0008107562316581503
499,00:00:01.996,0.05166652645857539
500,00:00:02,0.04366094525903461
501,00:00:02.004,-0.007277501514181492
502,00:00:02.008,-0.02987922728061676
503,00:00:02.012,-0.03082117345184088
504,00:00:02.016,0.011590381560381544
505,00:00:02.02,-0.00833767838776112
506,00:00:02.024,-0.015015684009995284
507,00:00:02.028,0.01018017902970314
508,00:00:02.032,0.0487618586048484
509,00:00:02.036,0.018588382867164865
510,00:00:02.04,-0.02725943271070717
511,00:00:02.044,-0.03873074892908327
512,00:00:02.048,-0.002324518631212416
513,00:00:02.052,0.0095831248909235
514,00:00:02.056,0.02002992387861014
515,00:00:02.06,0.01628153049387037
516,00:00:02.064,-0.004038627725094548
517,00:00:02.068,-0.061213534325361196
518,00:00:02.072,0.0042426705767866215
519,00:00:02.076,0.0434766393154859
520,00:00:02.08,0.02350022643804552
521,00:00:02.084,-0.006026166258379819
522,00:00:02.088,-0.013864048640243699
523,00:00:02.092,-0.004637656267732379
524,00:00:02.096,-0.0042294654995203
525,00:00:02.1,-0.01640364533523097
526,00:00:02.104,-0.01723553659394384
527,00:00:02.108,0.03164801886305216
528,00:00:02.112,-0.01949511794373395
529,00:00:02.116,0.01707427343353629
530,00:00:02.12,0.05017001996748151
531,00:00:02.124,0.01868718769401312
532,00:00:02.128,-0.0651820965576917
533,00:00:02.132,-0.05620172643102701
534,00:00:02.136,0.010867524106288343
535,00:00:02.14,0.03702243650332096
536,00:00:02.144,0.02458122652024028
537,00:00:02.148,0.002220096648670739
538,00:00:02.152,-0.009037363692186776
539,00:00:02.156,-0.0020154980302322725
540,00:00:02.16,0.00894079043064268
541,00:00:02.164,-0.0123222916154191
542,00:00:02.168,-0.031716004479676485
543,00:00:02.172,0.016883650678209936
544,00:00:02.176,-0.009154632309218865
545,00:00:02.18,0.01414112467318775
546,00:00:02.184,0.04245651335804719
547,00:00:02.188,-0.006585251772776251
548,00:00:02.192,-0.02129308879375458
549,00:00:02.196,-0.025039833155460628
550,00:00:02.2,-0.02696899115107949
551,00:00:02.204,0.018672824793611622
552,00:00:02.208,0.05660168780013926
553,00:00:02.212,0.009776641265489161
554,00:00:02.216,-0.03284761961549522
555,00:00:02.22,-0.0310081266798079
556,00:00:02.224,-0.011125445598736409
557,00:00:02.228,0.0011049869935959604
558,00:00:02.232,0.048484697006642874
559,00:00:02.236,0.02208232262637466
560,00:00:02.24,-0.039659732952714105
561,00:00:02.244,0.0030639158794656396
562,00:00:02.248,0.0009558961610309777
563,00:00:02.252,-0.023093743599019972
564,00:00:02.256,0.010448585380800065
565,00:00:02.26,0.02899277419783179
566,00:00:02.264,0.0032672346569597695
567,00:00:02.268,-0.014731698436662551
568,00:00:02.272,-0.01696043438278137
569,00:00:02.276,-0.01094619184732437
570,00:00:02.28,-0.00106576108373702
571,00:00:02.284,0.00872257724404335
572,00:00:02.288,0.021801932423841226
573,00:00:02.292,0.027125580701977
574,00:00:02.296,-0.021216729888692488
575,00:00:02.3,-0.017312023614067543
576,00:00:02.304,-0.021623324952088307
577,00:00:02.308,-0.00767145049758256
578,00:00:02.312,0.03619316685944799
579,00:00:02.316,0.04249107697978611
580,00:00:02.32,-0.03882268304005266
581,00:00:02.324,-0.012210810091346481
582,00:00:02.328,-0.057878639549016925
583,00:00:02.332,0.03609788138419388
584,00:00:02.336,0.051553947385400534
585,00:00:02.34,0.01827323064208027
586,00:00:02.344,0.0011789773125201464
587,00:00:02.348,-0.0454746070317924
588,00:00:02.352,-0.04837251920253035
589,00:00:02.356,0.003942504408769299
590,00:00:02.36,0.03652185993269093
591,00:00:02.364,0.0356894817668945
592,00:00:02.368,0.017370999092236144
593,00:00:02.372,-0.0664418805390596
594,00:00:02.376,0.004478940041735771
595,00:00:02.38,0.02419481799006461
596,00:00:02.384,0.00571910222060977
597,00:00:02.388,0.00016472593415529186
598,00:00:02.392,-0.02091565355658531
599,00:00:02.396,-0.02110024681314826
600,00:00:02.4,-0.007399477763101439
601,00:00:02.404,0.05298530939035122
602,00:00:02.408,0.04405842628329988
603,00:00:02.412,-0.026955918408930277
604,00:00:02.416,-0.06694521475583316
605,00:00:02.42,-0.04338105022907251
606,00:00:02.424,0.07396914437413218
607,00:00:02.428,0.049735667649656576
608,00:00:02.432,-0.02419644128531217
609,00:00:02.436,-0.050592307001352296
610,00:00:02.44,0.03030412038788196
611,00:00:02.444,0.01352982968091964
612,00:00:02.448,-0.01052822754718364
613,00:00:02.452,-0.0202633864246309
614,00:00:02.456,-0.013445090502500541
615,00:00:02.46,0.0350488973781466
616,00:00:02.464,0.001133023339207291
617,00:00:02.468,0.01917518023401499
618,00:00:02.472,-0.03532754490152003
619,00:00:02.476,-0.007621081080287731
620,00:00:02.48,0.00826295604929328
621,00:00:02.484,0.015325969550758616
622,00:00:02.488,0.00863662245683372
623,00:00:02.492,-0.019673360744491223
624,00:00:02.496,0.0024408972822129787
625,00:00:02.5,-0.04536077985540038
626,00:00:02.504,0.03343747323378917
627,00:00:02.508,0.04859789379406723
628,00:00:02.512,-0.0020020497613586485
629,00:00:02.516,-0.02203211910091337
630,00:00:02.52,-0.036882189102470875
631,00:00:02.524,0.021412441506981846
632,00:00:02.528,0.009708067926112568
633,00:00:02.532,-0.01852292940020559
634,00:00:02.536,-0.01552981301210822
635,00:00:02.54,0.021610910538584
636,00:00:02.544,0.028037904761731576
637,00:00:02.548,0.009993785526603462
638,00:00:02.552,-0.0433510793372989
639,00:00:02.556,0.0011442340910435382
640,00:00:02.56,0.005359310802305122
641,00:00:02.564,-0.003531478578224779
642,00:00:02.568,0.01648437019321132
643,00:00:02.572,0.0152524764416739
644,00:00:02.576,-0.025420050835236938
645,00:00:02.58,-0.019056101540627424
646,00:00:02.584,0.01547155971638862
647,00:00:02.588,0.0075269594090059296
648,00:00:02.592,-0.0142611397895962
649,00:00:02.596,0.01305499591398984
650,00:00:02.6,0.02987470244988801
651,00:00:02.604,-0.00405987573321909
652,00:00:02.608,-0.038791683386079925
653,00:00:02.612,-0.01503893896006047
654,00:00:02.616,-0.003834288967482272
655,00:00:02.62,0.02946662530303001
656,00:00:02.624,0.04208025848492982
657,00:00:02.628,-0.018912701169028868
658,00:00:02.632,-0.030409336788579835
659,00:00:02.636,-0.0025636560749262576
660,00:00:02.64,-0.0027955908117292022
661,00:00:02.644,0.00882888573687523
662,00:00:02.648,0.008626101403933719
663,00:00:02.652,0.007862069141992837
664,00:00:02.656,-0.007037067960482097
665,00:00:02.66,-0.015005009248852744
666,00:00:02.664,0.0204527722671628
667,00:00:02.668,-0.005510736664291473
668,00:00:02.672,0.0004259544657543304
669,00:00:02.676,-0.014590321574360141
670,00:00:02.68,-0.0023880569497123356
671,00:00:02.684,0.03341840580105783
672,00:00:02.688,-0.01749939611181616
673,00:00:02.692,-0.0433721914887428
674,00:00:02.696,0.03627408109605314
675,00:00:02.7,0.03230414399877189
676,00:00:02.704,-0.009435663931071751
677,00:00:02.708,-0.009443445596843958
678,00:00:02.712,-0.02298157569020988
679,00:00:02.716,-0.012258298025699336
680,00:00:02.72,0.0422075693495572
681,00:00:02.724,0.003038208233192569
682,00:00:02.728,-0.0697758835740387
683,00:00:02.732,0.0397224891930818
684,00:00:02.736,0.03233335819095373
685,00:00:02.74,0.01072795270010829
686,00:00:02.744,-0.02014100831001997
687,00:00:02.748,-0.030568203888833478
688,00:00:02.752,0.011828445596620439
689,00:00:02.756,0.01146311615593731
690,00:00:02.76,-0.017494298321253193
691,00:00:02.764,-0.01875818625558166
692,00:00:02.768,0.03442067932337521
693,00:00:02.772,0.0151299170393031
694,00:00:02.776,0.013344877224881169
695,00:00:02.78,-0.01471965620294213
696,00:00:02.784,-0.01213610335253177
697,00:00:02.788,-0.03704277193173764
698,00:00:02.792,-0.0066030229208991
699,00:00:02.796,0.01808085420634593
700,00:00:02.8,0.040494449436664526
701,00:00:02.804,0.0036917575635016
702,00:00:02.808,-0.00010874622967093966
703,00:00:02.812,-0.02130998158827424
704,00:00:02.816,-0.010606475174427029
705,00:00:02.82,0.0024204910732805703
706,00:00:02.824,-0.00877272792422445
707,00:00:02.828,0.011518963801790953
708,00:00:02.832,0.011906732805073261
709,00:00:02.836,0.008446042309515178
710,00:00:02.84,-0.025597421918064377
711,00:00:02.844,-0.012447014334611588
712,00:00:02.848,0.01838607992976905
713,00:00:02.852,0.012460920726880388
714,00:00:02.856,0.01020267233252526
715,00:00:02.86,-0.019238687003962678
716,00:00:02.864,-0.00727935601025822
717,00:00:02.868,-0.008423600695095962
718,00:00:02.872,0.04410471906885505
719,00:00:02.876,-0.026002299971878532
720,00:00:02.88,-0.03011050005443392
721,00:00:02.884,-0.007229928945889671
722,00:00:02.888,0.029024819261394438
723,00:00:02.892,0.03395259799435731
724,00:00:02.896,-0.00013164064876035854
725,00:00:02.9,-0.012155699543654969
726,00:00:02.904,-0.02889849850907918
727,00:00:02.908,0.00013435073196888057
728,00:00:02.912,0.01494535477831959
729,00:00:02.916,-0.04046284779906271
730,00:00:02.92,0.018047258025035217
731,00:00:02.924,0.0442883260548115
732,00:00:02.928,0.009322576690465259
733,00:00:02.932,-0.013963293749839057
734,00:00:02.936,-0.011420267634093803
735,00:00:02.94,-0.03357742540538303
736,00:00:02.944,-0.0059289092896506095
737,00:00:02.948,0.005236656230408697
738,00:00:02.952,0.048772529698908273
739,00:00:02.956,-0.0033670072443783196
740,00:00:02.96,-0.02749824011698369
741,00:00:02.964,0.014331201324239373
742,00:00:02.968,0.0024442080757580698
743,00:00:02.972,-0.000945055187912661
744,00:00:02.976,-0.0019821594469249305
745,00:00:02.98,-0.01890059380093594
746,00:00:02.984,-0.015368674357887357
747,00:00:02.988,-0.0022483078646473617
748,00:00:02.992,0.03408217430114748
749,00:00:02.996,0.04158485913649205
750,00:00:03,-0.00015883427113295122
751,00:00:03.004,-0.054103999398648746
752,00:00:03.008,-0.024362294323509504
753,00:00:03.012,0.02546215406619009
754,00:00:03.016,0.01527463528327644
755,00:00:03.02,-0.035848049446940373
756,00:00:03.024,0.01290140114724636
757,00:00:03.028,0.04292836692184214
758,00:00:03.032,0.01127873477526014
759,00:00:03.036,-0.03699492476880553
760,00:00:03.04,-0.035602305084467004
761,00:00:03.044,0.02121481671929358
762,00:00:03.048,0.03708104137331253
763,00:00:03.052,-0.0130868162959814
764,00:00:03.056,-0.02192034712061281
765,00:00:03.06,-0.007032987661659716
766,00:00:03.064,0.021222639828920337
767,00:00:03.068,-0.006745410850271578
768,00:00:03.072,0.00467639463022351
769,00:00:03.076,0.012549118022434412
770,00:00:03.08,-0.0013587581634055814
771,00:00:03.084,-0.006818361580371838
772,00:00:03.088,-0.02509459608700131
773,00:00:03.092,-0.006273048173170535
774,00:00:03.096,0.03236471302807329
775,00:00:03.1,0.0030660973861813493
776,00:00:03.104,0.011492861900478598
777,00:00:03.108,-0.0182290851662401
778,00:00:03.112,-0.008476030081510528
779,00:00:03.116,-0.012563497992232438
780,00:00:03.12,0.00731194857507945
781,00:00:03.124,0.0006729856759193364
782,00:00:03.128,0.02486460329964759
783,00:00:03.132,0.0030982872704044
784,00:00:03.136,-0.01082410803064704
785,00:00:03.14,-0.008511988737154752
786,00:00:03.144,-0.02325955266132951
787,00:00:03.148,0.01104980730451646
788,00:00:03.152,0.04155666893348094
789,00:00:03.156,-0.01250286260619762
790,00:00:03.16,-0.019864118890836797
791,00:00:03.164,-0.00113187136594206
792,00:00:03.168,-0.0017458212096244097
793,00:00:03.172,-0.013311783492099494
794,00:00:03.176,0.0067386562004685445
795,00:00:03.18,0.02672503050416703
796,00:00:03.184,0.01969179743900895
797,00:00:03.188,-0.0205417200922966
798,00:00:03.192,-0.016806648811325448
799,00:00:03.196,-0.01376564754173155
800,00:00:03.2,-0.0013784726615995203
801,00:00:03.204,0.01831180951558049
802,00:00:03.208,0.002430070315313065
803,00:00:03.212,0.01972835173364731
804,00:00:03.216,0.008929601870477252
805,00:00:03.22,-0.04553911508992314
806,00:00:03.224,0.0029494076443370466
807,00:00:03.228,-0.0011819978244602698
808,00:00:03.232,0.005157858657184985
809,00:00:03.236,0.006516217603348191
810,00:00:03.24,0.010838014772161841
811,00:00:03.244,0.03929978306405249
812,00:00:03.248,-0.06166304461658
813,00:00:03.252,-0.008401378523558413
814,00:00:03.256,0.0198185625486076
815,00:00:03.26,0.00679868599399925
816,00:00:03.264,-0.004422653932124369
817,00:00:03.268,-0.0070437092799693285
818,00:00:03.272,0.0005786844121757841
819,00:00:03.276,0.011878440366217552
820,00:00:03.28,-0.008648116374388339
821,00:00:03.284,0.03859186684712764
822,00:00:03.288,0.00040833326056601005
823,00:00:03.292,-0.04120828025043011
824,00:00:03.296,-0.0600556284189224
825,00:00:03.3,0.01454182527959345
826,00:00:03.304,0.056205724133178626
827,00:00:03.308,0.0384818920865655
828,00:00:03.312,-0.0012549546081572797
829,00:00:03.316,-0.02515596989542244
830,00:00:03.32,-0.011978983413428058
831,00:00:03.324,-0.01539173279888928
832,00:00:03.328,-0.051816997118294204
833,00:00:03.332,0.030314215458929508
834,00:00:03.336,0.04120081150904295
835,00:00:03.34,0.012879925896413619
836,00:00:03.344,0.02048228634521367
837,00:00:03.348,0.0008119586855173302
838,00:00:03.352,-0.05216615670360623
839,00:00:03.356,-0.025521487637888626
840,00:00:03.36,0.002299162792041897
841,00:00:03.364,0.01701823645271356
842,00:00:03.368,0.0029952882323414105
843,00:00:03.372,0.02561839367263021
844,00:00:03.376,0.018457306316122378
845,00:00:03.38,-0.0009699560469016407
846,00:00:03.384,-0.03708862327039246
847,00:00:03.388,-0.019526035059243437
848,00:00:03.392,-0.003938058391213425
849,00:00:03.396,0.019761975156143308
850,00:00:03.4,0.031111956108361472
851,00:00:03.404,0.0019128002459183318
852,00:00:03.408,-0.006265559699386359
853,00:00:03.412,-0.02367725991643964
854,00:00:03.416,-0.01880295854061842
855,00:00:03.42,0.010317150852642948
856,00:00:03.424,0.01523005892522629
857,00:00:03.428,0.015131306585317398
858,00:00:03.432,0.0010382472537458394
859,00:00:03.436,-0.01725962664932017
860,00:00:03.44,-0.029508708976209122
861,00:00:03.444,0.02620896813459693
862,00:00:03.448,0.02174140047281977
863,00:00:03.452,-0.0017187830526381453
864,00:00:03.456,-0.02124685538001359
865,00:00:03.46,-0.0018868360202759487
866,00:00:03.464,0.004074262687936422
867,00:00:03.468,0.001650127145694567
868,00:00:03.472,0.02210701862350105
869,00:00:03.476,-0.020743906730785928
870,00:00:03.48,-0.009801185806281872
871,00:00:03.484,-0.01045790093485266
872,00:00:03.488,0.0023972003255039454
873,00:00:03.492,0.03168903919868179
874,00:00:03.496,0.0037857685165363425
875,00:00:03.5,0.0045375977642834195
876,00:00:03.504,-0.014714273856952783
877,00:00:03.508,-0.03140550712123513
878,00:00:03.512,0.01564025925472379
879,00:00:03.516,0.01341991673689335
880,00:00:03.52,-0.028103619813919047
881,00:00:03.524,0.023347679234575473
882,00:00:03.528,0.00423787825275212
883,00:00:03.532,0.012499402902903972
884,00:00:03.536,0.00863061618292705
885,00:00:03.54,-0.036237564403563696
886,00:00:03.544,0.006280151428654811
887,00:00:03.548,-0.004545467323623591
888,00:00:03.552,0.005678244866430759
889,00:00:03.556,-0.00559956347569823
890,00:00:03.56,-0.01178130065090955
891,00:00:03.564,0.041040597483515726
892,00:00:03.568,0.01760575082153082
893,00:00:03.572,-0.03555058402707796
894,00:00:03.576,-0.015538425184786299
895,00:00:03.58,-0.01402714266441765
896,00:00:03.584,-0.00949141918681558
897,00:00:03.588,0.04458341584540902
898,00:00:03.592,0.03137558372691264
899,00:00:03.596,-0.00889241322875021
900,00:00:03.6,-0.021186572499573272
901,00:00:03.604,-0.031175391282886267
902,00:00:03.608,-0.013094152498524641
903,00:00:03.612,0.02556903311051431
904,00:00:03.616,0.02582817280199381
905,00:00:03.62,-0.008629691175883658
906,00:00:03.624,7.488403934985833e-05
907,00:00:03.628,-0.012777675874531309
908,00:00:03.632,-0.026086037745699276
909,00:00:03.636,0.041870707646012355
910,00:00:03.64,0.03662225941661747
911,00:00:03.644,-0.02290398685727267
912,00:00:03.648,-0.05533684417605397
913,00:00:03.652,0.008019736735150215
914,00:00:03.656,-0.0061104595661163295
915,00:00:03.66,0.005083275842480365
916,00:00:03.664,0.04768315516412259
917,00:00:03.668,0.005670661106705671
918,00:00:03.672,-0.0008478934178129081
919,00:00:03.676,-0.01913250284269452
920,00:00:03.68,-0.03531972691416744
921,00:00:03.684,-0.01983890484552827
922,00:00:03.688,0.03654021024703976
923,00:00:03.692,0.0592864723876118
924,00:00:03.696,-0.0293812481686473
925,00:00:03.7,-0.02608234295621517
926,00:00:03.704,-0.03038880554959187
927,00:00:03.708,0.015191477257758382
928,00:00:03.712,0.03110907110385599
929,00:00:03.716,0.009174005128443229
930,00:00:03.72,-0.008085760346148153
931,00:00:03.724,-0.021497723762877317
932,00:00:03.728,0.01337787206284706
933,00:00:03.732,0.0034166467376053303
934,00:00:03.736,-0.020941795315593478
935,00:00:03.74,0.005624017801892483
936,00:00:03.744,0.0011835048208013203
937,00:00:03.748,0.008442923193797467
938,00:00:03.752,0.0056665275478736
939,00:00:03.756,0.029455158393830005
940,00:00:03.76,-0.037060591392219094
941,00:00:03.764,-0.018902320531196882
942,00:00:03.768,-5.552126094699036e-05
943,00:00:03.772,0.01220282423309978
944,00:00:03.776,-0.00556910363957285
945,00:00:03.78,0.01423007690027592
946,00:00:03.784,0.0365065252408385
947,00:00:03.788,-0.01551517285406586
948,00:00:03.792,-0.035256377886980814
949,00:00:03.796,-0.01695302501320837
950,00:00:03.8,0.02571598533540964
951,00:00:03.804,0.00853866373654455
952,00:00:03.808,-0.00528243987355381
953,00:00:03.812,0.00618558982387185
954,00:00:03.816,0.00701232859864831
955,00:00:03.82,0.018471718300133912
956,00:00:03.824,-0.0546493646688759
957,00:00:03.828,-0.008442311015642207
958,00:00:03.832,0.024236558005213772
959,00:00:03.836,0.007548072258941831
960,00:00:03.84,0.01915649219881747
961,00:00:03.844,0.01635255594737828
962,00:00:03.848,-0.02398059424012899
963,00:00:03.852,-0.01957760355435316
964,00:00:03.856,-0.01679989677359115
965,00:00:03.86,-0.008892867190297695
966,00:00:03.864,0.01509564567822962
967,00:00:03.868,0.02220322401262821
968,00:00:03.872,0.04199303779751059
969,00:00:03.876,0.0020611443032976283
970,00:00:03.88,-0.03905323497019708
971,00:00:03.884,-0.04140466218814254
972,00:00:03.888,-0.0022719040280207905
973,00:00:03.892,0.0262460722588003
974,00:00:03.896,0.02031367598101501
975,00:00:03.9,-0.02173666097223755
976,00:00:03.904,0.01777607575058938
977,00:00:03.908,0.01208097115159035
978,00:00:03.912,-0.0214483346790076
979,00:00:03.916,0.006631847863900484
980,00:00:03.92,0.01453259307891129
981,00:00:03.924,-0.013273498741909851
982,00:00:03.928,-0.016881018411368087
983,00:00:03.932,-0.02039225725457072
984,00:00:03.936,0.018536041898187246
985,00:00:03.94,0.005944944219663738
986,00:00:03.944,0.005820961872814228
987,00:00:03.948,0.047223845031112446
988,00:00:03.952,0.0010400926839793032
989,00:00:03.956,-0.0582403903827071
990,00:00:03.96,-0.016530896638869308
991,00:00:03.964,-0.00050088146235794
992,00:00:03.968,-0.0059073107549920635
993,00:00:03.972,0.03752699354663489
994,00:00:03.976,0.016882698051631458
995,00:00:03.98,-0.005877926480025057
996,00:00:03.984,0.0243699152488261
997,00:00:03.988,-0.0243968887953088
998,00:00:03.992,-0.03318014147225771
999,00:00:03.996,-0.005265966261504214
1000,00:00:04,0.017646881169639517
1001,00:00:04.004,-0.005963225616142166
1002,00:00:04.008,-0.011255457306106102
1003,00:00:04.012,0.029413556680083268
1004,00:00:04.016,0.030399726703763008
1005,00:00:04.02,-0.01030320173595101
1006,00:00:04.024,-0.02561319945380089
1007,00:00:04.028,-0.007349554332904515
1008,00:00:04.032,-0.004854821134358679
1009,00:00:04.036,-0.0026376673486083694
1010,00:00:04.04,0.015691194974351685
1011,00:00:04.044,0.0009564918000251118
1012,00:00:04.048,0.015226304065436121
1013,00:00:04.052,-0.01399347756523639
1014,00:00:04.056,-0.022737332154065388
1015,00:00:04.06,-0.0007112114690244198
1016,00:00:04.064,0.010860144859179861
1017,00:00:04.068,0.02006251830607653
1018,00:00:04.072,0.03806195105426008
1019,00:00:04.076,-0.008515721186995501
1020,00:00:04.08,-0.056671638507395976
1021,00:00:04.084,-0.0483530620113015
1022,00:00:04.088,0.02894403878599399
1023,00:00:04.092,0.055305285379290595
1024,00:00:04.096,0.006773962173610929
1025,00:00:04.1,-0.01537921576527879
1026,00:00:04.104,-0.008668757218401879
1027,00:00:04.108,0.008585762116126692
1028,00:00:04.112,0.016476151766255498
1029,00:00:04.116,-0.03456404502503573
1030,00:00:04.12,-0.031013608910143375
1031,00:00:04.124,-0.000562215762329288
1032,00:00:04.128,0.0350580210797489
1033,00:00:04.132,0.028223925735801462
1034,00:00:04.136,0.00726727955043316
1035,00:00:04.14,-0.019970231456682037
1036,00:00:04.144,-0.01814261119579897
1037,00:00:04.148,0.0015873166266828801
1038,00:00:04.152,0.005553325986966236
1039,00:00:04.156,0.00934077554848041
1040,00:00:04.16,-0.03105480474187064
1041,00:00:04.164,-0.004027793649584048
1042,00:00:04.168,0.02438641921617086
1043,00:00:04.172,0.021463929675519498
1044,00:00:04.176,-0.00416170014068484
1045,00:00:04.18,-0.011839232873171571
1046,00:00:04.184,-0.011306568630971021
1047,00:00:04.188,0.0008654651464894501
1048,00:00:04.192,0.0014269366620283128
1049,00:00:04.196,-0.010110344810527703
1050,00:00:04.2,0.01204041950404647
1051,00:00:04.204,0.031832474400289315
1052,00:00:04.208,-0.01903931191191079
1053,00:00:04.212,-0.014224083861336119
1054,00:00:04.216,-0.006036959966877472
1055,00:00:04.22,-0.0052572055719792895
1056,00:00:04.224,0.00625802855938673
1057,00:00:04.228,0.01134792191442102
1058,00:00:04.232,-0.001978320069611072
1059,00:00:04.236,-0.006909336196258661
1060,00:00:04.24,0.014151838608086161
1061,00:00:04.244,0.042823416646569995
1062,00:00:04.248,-0.009915976203046763
1063,00:00:04.252,-0.0872006062418222
1064,00:00:04.256,-0.010395496152341362
1065,00:00:04.26,0.0387303214520216
1066,00:00:04.264,0.029481988516636172
1067,00:00:04.268,-0.0034418473369442074
1068,00:00:04.272,0.0014599692076444704
1069,00:00:04.276,0.002388233668170872
1070,00:00:04.28,0.003930967068299629
1071,00:00:04.284,0.00524912177934311
1072,00:00:04.288,-0.01764490408822894
1073,00:00:04.292,-0.028519771294668293
1074,00:00:04.296,-0.0015743358526378803
1075,00:00:04.3,0.01819892111234367
1076,00:00:04.304,0.02226243121549486
1077,00:00:04.308,0.00838008103892206
1078,00:00:04.312,-0.019768938887864348
1079,00:00:04.316,-0.02222431893460449
1080,00:00:04.32,0.013193362392485128
1081,00:00:04.324,0.02024944999720904
1082,00:00:04.328,0.00239351607160643
1083,00:00:04.332,-0.017066973727196448
1084,00:00:04.336,-0.01903423946350813
1085,00:00:04.34,0.01033240859396755
1086,00:00:04.344,0.007264522952027622
1087,00:00:04.348,0.024720369256101594
1088,00:00:04.352,-0.00819773972034455
1089,00:00:04.356,-0.026861659716814812
1090,00:00:04.36,0.017900619539432214
1091,00:00:04.364,0.00381922745145857
1092,00:00:04.368,-0.02017461444484072
1093,00:00:04.372,-0.0038313160184770883
1094,00:00:04.376,0.011258400278165909
1095,00:00:04.38,0.009678210830315979
1096,00:00:04.384,-0.03031285293400288
1097,00:00:04.388,0.031108868308365303
1098,00:00:04.392,0.03430881781969223
1099,00:00:04.396,-0.005782940541394085
1100,00:00:04.4,-0.048778578639030463
1101,00:00:04.404,-0.02500310726463795
1102,00:00:04.408,0.02542927791364489
1103,00:00:04.412,0.017143382225185664
1104,00:00:04.416,-0.00202551786787807
1105,00:00:04.42,-7.950558210723812e-05
1106,00:00:04.424,0.019860175845678903
1107,00:00:04.428,0.014152040006592871
1108,00:00:04.432,-0.0779612315818668
1109,00:00:04.436,-0.004148158477619291
1110,00:00:04.44,0.04391130153089767
1111,00:00:04.444,0.03679995099082593
1112,00:00:04.448,0.0015259324572980447
1113,00:00:04.452,-0.0152172592934221
1114,00:00:04.456,-0.027576155029237243
1115,00:00:04.46,-0.03211182326776907
1116,00:00:04.464,0.00196506117936224
1117,00:00:04.468,0.03529233206063506
1118,00:00:04.472,0.026421289891004535
1119,00:00:04.476,-0.005113627121318136
1120,00:00:04.48,0.003506551380269226
1121,00:00:04.484,-0.021343516418710354
1122,00:00:04.488,-0.024446072056889527
1123,00:00:04.492,0.0009551248513162205
1124,00:00:04.496,0.009061332093551758
1125,00:00:04.5,0.01709123747423294
1126,00:00:04.504,0.02851431793533263
1127,00:00:04.508,0.0006818887777626393
1128,00:00:04.512,-0.04516816255636505
1129,00:00:04.516,-0.02597503794822843
1130,00:00:04.52,0.02053435367997734
1131,00:00:04.524,0.025410832371562733
1132,00:00:04.528,0.008158527780324231
1133,00:00:04.532,-0.004374767886474729
1134,00:00:04.536,-0.0151121596572921
1135,00:00:04.54,-0.0032546049915254116
1136,00:00:04.544,0.018745111301541363
1137,00:00:04.548,-0.01667533116415143
1138,00:00:04.552,-0.0007379572489298082
1139,00:00:04.556,-0.02005292614921927
1140,00:00:04.56,0.007040426949970421
1141,00:00:04.564,0.032215383835136856
1142,00:00:04.568,0.014596257358789461
1143,00:00:04.572,-0.0088309598795604
1144,00:00:04.576,-0.020692954538390092
1145,00:00:04.58,-0.012716717086732401
1146,00:00:04.584,0.0032313836272806007
1147,00:00:04.588,0.008785152109339788
1148,00:00:04.592,0.0006671785376965952
1149,00:00:04.596,-0.006459252734202899
1150,00:00:04.6,0.01067046326352283
1151,00:00:04.604,-0.004244963718520016
1152,00:00:04.608,0.005949917016550893
1153,00:00:04.612,0.00014473168994300198
1154,00:00:04.616,-0.0029338486492633906
1155,00:00:04.62,0.00308974680956453
1156,00:00:04.624,-0.013847062131389969
1157,00:00:04.628,-0.01146016543498263
1158,00:00:04.632,0.0006806885357946071
1159,00:00:04.636,0.05069995485246183
1160,00:00:04.64,0.0165767133003101
1161,00:00:04.644,-0.04492643824778499
1162,00:00:04.648,-0.02693174872547389
1163,00:00:04.652,-0.013870846247300502
1164,00:00:04.656,0.021218499634414873
1165,00:00:04.66,0.01026308315340431
1166,00:00:04.664,0.03275804524309931
1167,00:00:04.668,-0.0081003347877413
1168,00:00:04.672,-0.009416407905519031
1169,00:00:04.676,-0.01330216531641776
1170,00:00:04.68,-0.02055671392008663
1171,00:00:04.684,0.02383329297299495
1172,00:00:04.688,0.029769934248179152
1173,00:00:04.692,-0.015930011606542362
1174,00:00:04.696,-0.0474237343296409
1175,00:00:04.7,0.029155791271477924
1176,00:00:04.704,0.00613573309965432
1177,00:00:04.708,-0.0034865719499066507
1178,00:00:04.712,0.014766429201699832
1179,00:00:04.716,0.0023423266829922774
1180,00:00:04.72,-0.01970724039711058
1181,00:00:04.724,0.004694722651038318
1182,00:00:04.728,-0.004017282743006939
1183,00:00:04.732,0.004760211799293761
1184,00:00:04.736,-0.0035669698845595095
1185,00:00:04.74,-0.01153222168795765
1186,00:00:04.744,0.0017310882103629389
1187,00:00:04.748,0.05250476766377687
1188,00:00:04.752,-0.01005613896995782
1189,00:00:04.756,-0.04592769686132671
1190,00:00:04.76,-0.011869350448250849
1191,00:00:04.764,0.00605384795926511
1192,00:00:04.768,0.04116560518741609
1193,00:00:04.772,0.0014335252344608298
1194,00:00:04.776,-0.025066461414098788
1195,00:00:04.78,0.004411322079249653
1196,00:00:04.784,0.0031611733429599584
1197,00:00:04.788,-0.01937537034973503
1198,00:00:04.792,0.0048331277794204704
1199,00:00:04.796,0.02879596035927537
1200,00:00:04.8,-0.0007806749781593637
1201,00:00:04.804,-0.00678652548231185
1202,00:00:04.808,-0.007175206439569591
1203,00:00:04.812,-0.006601034780032929
1204,00:00:04.816,-0.040801845258101814
1205,00:00:04.82,0.0421783402562142
1206,00:00:04.824,0.02447616611607376
1207,00:00:04.828,-0.0129352209623903
1208,00:00:04.832,0.002086803433485329
1209,00:00:04.836,-0.0018958171131089403
1210,00:00:04.84,-0.00861622195225209
1211,00:00:04.844,-0.00459428038448095
1212,00:00:04.848,-0.007754500140436
1213,00:00:04.852,0.0026916039641946606
1214,00:00:04.856,-0.007573921524453903
1215,00:00:04.86,0.007278284523636099
1216,00:00:04.864,0.02990970108658076
1217,00:00:04.868,0.01874769187998024
1218,00:00:04.872,-0.0058408614713698626
1219,00:00:04.876,-0.04065572749823334
1220,00:00:04.88,-0.03065426019020376
1221,00:00:04.884,-0.005330630934622606
1222,00:00:04.888,0.0435587242245674
1223,00:00:04.892,0.02436574874445792
1224,00:00:04.896,-0.03252526279538872
1225,00:00:04.9,0.00838993303477764
1226,00:00:04.904,0.04267642274498942
1227,00:00:04.908,-0.027268377132713822
1228,00:00:04.912,-0.0405784687027335
1229,00:00:04.916,0.01184340645704651
1230,00:00:04.92,0.013919449265813458
1231,00:00:04.924,0.0034493717830628196
1232,00:00:04.928,-0.010188148822635397
1233,00:00:04.932,-0.01789077278226614
1234,00:00:04.936,0.020347062760265558
1235,00:00:04.94,0.03714304231107237
1236,00:00:04.944,-0.013488001466612361
1237,00:00:04.948,-0.01341287605464458
1238,00:00:04.952,-0.02399291098117833
1239,00:00:04.956,-0.0045996321132406506
1240,00:00:04.96,0.01359459757804871
1241,00:00:04.964,0.013084505219012499
1242,00:00:04.968,-0.0049029728397726995
1243,00:00:04.972,0.0020099193789064797
1244,00:00:04.976,0.03404971165582538
1245,00:00:04.98,-0.01839348045177759
1246,00:00:04.984,-0.02551882201805707
1247,00:00:04.988,-0.025231066625565332
1248,00:00:04.992,-0.00487645668908953
1249,00:00:04.996,0.035542668309062705
1250,00:00:05,0.007283515587914732
1251,00:00:05.004,0.03614720702171327
1252,00:00:05.008,-0.00640465330798179
1253,00:00:05.012,-0.03300888044759632
1254,00:00:05.016,0.008868734817951881
1255,00:00:05.02,-0.0698864497244359
1256,00:00:05.024,0.0189529722556472
1257,00:00:05.028,0.056353909894824
1258,00:00:05.032,0.016374837490730033
1259,00:00:05.036,-0.01508073124568909
1260,00:00:05.04,-0.01530086260754615
1261,00:00:05.044,-0.00025090819690376086
1262,00:00:05.048,-0.007046868326142472
1263,00:00:05.052,-0.017731477273628102
1264,00:00:05.056,0.017916079377755537
1265,00:00:05.06,0.024436259176582088
1266,00:00:05.064,0.002035871730186043
1267,00:00:05.068,-0.007876693271100403
1268,00:00:05.072,-0.0529422359541058
1269,00:00:05.076,0.006148952525109042
1270,00:00:05.08,0.04762655589729539
1271,00:00:05.084,0.008481991157168516
1272,00:00:05.088,-0.010817846748977903
1273,00:00:05.092,0.0007497730548493529
1274,00:00:05.096,-0.0010084414388984403
1275,00:00:05.1,-0.04001298034563658
1276,00:00:05.104,0.004937295801937571
1277,00:00:05.108,0.022723475005477688
1278,00:00:05.112,0.014581367839127782
1279,00:00:05.116,-0.00492707686498762
1280,00:00:05.12,0.0009390551131218698
1281,00:00:05.124,0.0007329601794481288
1282,00:00:05.128,-0.020533835777314338
1283,00:00:05.132,0.014018254121765477
1284,00:00:05.136,-0.01604751101695001
1285,00:00:05.14,-0.014655655715614552
1286,00:00:05.144,0.011132078478112817
1287,00:00:05.148,0.03539332561194897
1288,00:00:05.152,0.013581664767116312
1289,00:00:05.156,-0.003892676904797561
1290,00:00:05.16,-0.03582190209999683
1291,00:00:05.164,-0.0436354726552964
1292,00:00:05.168,0.03610853571444752
1293,00:00:05.172,0.047936199232935836
1294,00:00:05.176,-0.02887370320968325
1295,00:00:05.18,-0.005493687000125661
1296,00:00:05.184,0.0041018218907993235
1297,00:00:05.188,-0.02076277090236542
1298,00:00:05.192,-0.0069900250528007815
1299,00:00:05.196,0.03200664580799639
1300,00:00:05.2,0.02221081079915166
1301,00:00:05.204,-0.005809188878629384
1302,00:00:05.208,-0.02476755762472753
1303,00:00:05.212,-0.02687049051746721
1304,00:00:05.216,-0.0002886826987378325
1305,00:00:05.22,0.02613262087106704
1306,00:00:05.224,0.007237563491798941
1307,00:00:05.228,0.03435633052140475
1308,00:00:05.232,-0.047016282565891694
1309,00:00:05.236,-0.02036164375022054
1310,00:00:05.24,0.01891945209354163
1311,00:00:05.244,0.02249012864194813
1312,00:00:05.248,0.0139371438417584
1313,00:00:05.252,-0.0057675497737363565
1314,00:00:05.256,-0.04105962440371507
1315,00:00:05.26,-0.0157215571962297
1316,00:00:05.264,0.008010136458324263
1317,00:00:05.268,0.011920665390789502
1318,00:00:05.272,0.0505138016305864
1319,00:00:05.276,-0.00355551172106061
1320,00:00:05.28,-0.02146974974311893
1321,00:00:05.284,-0.01608197728637606
1322,00:00:05.288,0.0013183283153921296
1323,00:00:05.292,-0.010995726566761729
1324,00:00:05.296,-0.003571002162061629
1325,00:00:05.3,0.030616610310971723
1326,00:00:05.304,-0.0059101218357682315
1327,00:00:05.308,-0.024174513528123463
1328,00:00:05.312,0.00862570141907781
1329,00:00:05.316,0.02862782496958972
1330,00:00:05.32,0.018390205223113302
1331,00:00:05.324,-0.04041176859755072
1332,00:00:05.328,-0.03934030397795139
1333,00:00:05.332,0.031449974921997664
1334,00:00:05.336,0.01980576571077108
1335,00:00:05.34,-0.005450024735182512
1336,00:00:05.344,0.004979879246093336
1337,00:00:05.348,0.01291198789840564
1338,00:00:05.352,-0.0311109744943679
1339,00:00:05.356,-0.018545383121818266
1340,00:00:05.36,0.02668280317448076
1341,00:00:05.364,0.03370989416725933
1342,00:00:05.368,-0.013340344186872261
1343,00:00:05.372,-0.049486694391816854
1344,00:00:05.376,0.00626173382624984
1345,00:00:05.38,0.018516916548833237
1346,00:00:05.384,0.01226705906447027
1347,00:00:05.388,0.010742585523985321
1348,00:00:05.392,-0.0014548677718266901
1349,00:00:05.396,-0.007302647877622805
1350,00:00:05.4,-0.01794373861048373
1351,00:00:05.404,-0.00510109169408679
1352,00:00:05.408,0.01292560622096062
1353,00:00:05.412,-3.999686305179266e-05
1354,00:00:05.416,0.0014685592614114332
1355,00:00:05.42,-0.0006633774401052502
1356,00:00:05.424,0.00873348163440824
1357,00:00:05.428,-0.00879517383873463
1358,00:00:05.432,-0.00990426796488464
1359,00:00:05.436,0.025665333843789963
1360,00:00:05.44,-0.011945524427574086
1361,00:00:05.444,-0.018132923520170163
1362,00:00:05.448,-0.0041354061104357295
1363,00:00:05.452,0.030881748883984955
1364,00:00:05.456,0.029198705102317018
1365,00:00:05.46,-0.03527907631359998
1366,00:00:05.464,-0.022455933270975965
1367,00:00:05.468,-0.00168223679065704
1368,00:00:05.472,-0.01221755717415363
1369,00:00:05.476,0.033647829201072434
1370,00:00:05.48,0.0183388558216393
1371,00:00:05.484,-0.004683941835537551
1372,00:00:05.488,-0.009207239199895415
1373,00:00:05.492,-0.00861808145418764
1374,00:00:05.496,-0.004699470533523709
1375,00:00:05.5,0.01003786013461649
1376,00:00:05.504,0.01123152428772301
1377,00:00:05.508,-0.03538724873214963
1378,00:00:05.512,-0.039033114910125725
1379,00:00:05.516,0.06326321698725229
1380,00:00:05.52,0.03946139803156252
1381,00:00:05.524,-0.009671510983025659
1382,00:00:05.528,-0.03369937697425489
1383,00:00:05.532,-0.020368031226098513
1384,00:00:05.536,-0.00902466542902403
1385,00:00:05.54,0.033373100683093126
1386,00:00:05.544,0.0340437684208155
1387,00:00:05.548,-0.008564876276068391
1388,00:00:05.552,-0.0425658547319472
1389,00:00:05.556,-0.03256816696375602
1390,00:00:05.56,-0.005727035342715683
1391,00:00:05.564,0.04928743373602635
1392,00:00:05.568,0.021054055076092478
1393,00:00:05.572,0.020658403343986734
1394,00:00:05.576,0.007569858047645603
1395,00:00:05.58,-0.04161988385021681
1396,00:00:05.584,-0.03390997403766963
1397,00:00:05.588,0.006244976771995421
1398,00:00:05.592,0.002245395211502905
1399,00:00:05.596,0.01978850224986676
1400,00:00:05.6,0.014614043815527116
1401,00:00:05.604,-0.00972786336205903
1402,00:00:05.608,0.007785017020069059
1403,00:00:05.612,-0.009202219895087191
1404,00:00:05.616,-0.03234507469460367
1405,00:00:05.62,0.005808247835375419
1406,00:00:05.624,0.0279567036777735
1407,00:00:05.628,0.022472498327260858
1408,00:00:05.632,0.00542190403211862
1409,00:00:05.636,-0.029931515222415255
1410,00:00:05.64,-0.03248617332428695
1411,00:00:05.644,0.012699626502580944
1412,00:00:05.648,0.02019724552519619
1413,00:00:05.652,-0.005570914014242579
1414,00:00:05.656,-0.00533501291647553
1415,00:00:05.66,0.03422085475176574
1416,00:00:05.664,-0.022580592893064
1417,00:00:05.668,-0.01723632519133389
1418,00:00:05.672,0.013002297258935869
1419,00:00:05.676,0.015447474637767336
1420,00:00:05.68,-0.006969439331442111
1421,00:00:05.684,-0.026132335100555792
1422,00:00:05.688,-0.01993966056033965
1423,00:00:05.692,0.03923837747424837
1424,00:00:05.696,0.02699451847001909
1425,00:00:05.7,-0.006300131994066759
1426,00:00:05.704,-0.02722015418112278
1427,00:00:05.708,0.0008614411926828277
1428,00:00:05.712,0.006050090771168467
1429,00:00:05.716,-0.020041047770064345
1430,00:00:05.72,-0.00849674007622525
1431,00:00:05.724,0.036581717431545244
1432,00:00:05.728,0.024286664323881272
1433,00:00:05.732,-0.007105713302735241
1434,00:00:05.736,-0.0378474034368991
1435,00:00:05.74,-0.03364724223501986
1436,00:00:05.744,0.02939012646675114
1437,00:00:05.748,0.03122256416827435
1438,00:00:05.752,0.009240449406206622
1439,00:00:05.756,-0.011150475533213473
1440,00:00:05.76,-0.01929983752779665
1441,00:00:05.764,-0.017953995527932413
1442,00:00:05.768,-0.002868957701139152
1443,00:00:05.772,0.032240010797977434
1444,00:00:05.776,0.0245295185595751
1445,00:00:05.78,-0.025619885040214355
1446,00:00:05.784,0.002673981012776502
1447,00:00:05.788,-0.01334422139916569
1448,00:00:05.792,-0.018171187490224797
1449,00:00:05.796,0.009427541750483206
1450,00:00:05.8,0.008773120120167751
1451,00:00:05.804,0.00890441378578543
1452,00:00:05.808,0.028457073494791936
1453,00:00:05.812,-0.008531740051694221
1454,00:00:05.816,-0.02463646749674813
1455,00:00:05.82,-0.017809728626161803
1456,00:00:05.824,0.000546694966033141
1457,00:00:05.828,0.013692676671780648
1458,00:00:05.832,-0.0002560205757617907
1459,00:00:05.836,0.0019389048684388412
1460,00:00:05.84,0.02131222933530809
1461,00:00:05.844,-0.007585724815726275
1462,00:00:05.848,-0.0075731724500656145
1463,00:00:05.852,0.0107270965236239
1464,00:00:05.856,-0.037169470917433445
1465,00:00:05.86,-0.00533555704168979
1466,00:00:05.864,0.0233280470129102
1467,00:00:05.868,0.016737674828618758
1468,00:00:05.872,0.021100774873048078
1469,00:00:05.876,-0.02054360089823607
1470,00:00:05.88,-0.029404544737189987
1471,00:00:05.884,0.004365531438452308
1472,00:00:05.888,0.006882462650537489
1473,00:00:05.892,0.01066489226650447
1474,00:00:05.896,-0.0001485721368226214
1475,00:00:05.9,-0.0006060623272787826
1476,00:00:05.904,0.012697874743025752
1477,00:00:05.908,-0.013833928853273388
1478,00:00:05.912,-0.03764830250293017
1479,00:00:05.916,0.02895219251513482
1480,00:00:05.92,0.01651190919801589
1481,00:00:05.924,-0.00354532129131257
1482,00:00:05.928,-0.012138487771153459
1483,00:00:05.932,0.02190913865342737
1484,00:00:05.936,-0.00206241538398899
1485,00:00:05.94,-0.01831911155022684
1486,00:00:05.944,-0.019136818009428673
1487,00:00:05.948,0.00042028853204102083
1488,00:00:05.952,0.03242370998486874
1489,00:00:05.956,0.01364152731548529
1490,00:00:05.96,-0.035152832046151106
1491,00:00:05.964,0.011213808698812501
1492,00:00:05.968,0.0027840763941640125
1493,00:00:05.972,0.007642644777661186
1494,00:00:05.976,-0.0072061335667967805
1495,00:00:05.98,-0.01152915169950574
1496,00:00:05.984,0.00979965832084417
1497,00:00:05.988,-0.01723145740106702
1498,00:00:05.992,0.01746197592001409
1499,00:00:05.996,0.02272121142596007
1500,00:00:06,-0.023225792217999697
1501,00:00:06.004,-0.029899821151047973
1502,00:00:06.008,0.00946354772895574
1503,00:00:06.012,0.04498629458248614
1504,00:00:06.016,0.008716289885342123
1505,00:00:06.02,-0.02252212679013611
1506,00:00:06.024,-0.02823483943939211
1507,00:00:06.028,-0.01753480627667158
1508,00:00:06.032,0.007693233666941501
1509,00:00:06.036,0.024776238482445447
1510,00:00:06.04,0.04318652825895691
1511,00:00:06.044,-0.006962804473005232
1512,00:00:06.048,-0.03599021676927809
1513,00:00:06.052,-0.02414253121241928
1514,00:00:06.056,0.01192535762675104
1515,00:00:06.06,-0.012320386093051637
1516,00:00:06.064,0.038285600952804096
1517,00:00:06.068,0.01606387319043278
1518,00:00:06.072,-0.015606541652232409
1519,00:00:06.076,-0.025824470318184443
1520,00:00:06.08,-2.1028798073536052e-05
1521,00:00:06.084,0.01243578130379319
1522,00:00:06.088,0.00528532452881336
1523,00:00:06.092,-0.023223942844197158
1524,00:00:06.096,0.033382197609171264
1525,00:00:06.1,0.01608969620428978
1526,00:00:06.104,-0.01417964417487383
1527,00:00:06.108,-0.071017175912857
1528,00:00:06.112,0.02168799162609507
1529,00:00:06.116,0.05407001171261073
1530,00:00:06.12,0.0005063742864876482
1531,00:00:06.124,-0.02448403893504294
1532,00:00:06.128,0.027804856421425918
1533,00:00:06.132,-0.049978685914538794
1534,00:00:06.136,0.026464225258678226
1535,00:00:06.14,0.03838901291601357
1536,00:00:06.144,-0.052312082611024456
1537,00:00:06.148,-0.050934810191392926
1538,00:00:06.152,0.05800513271242377
1539,00:00:06.156,0.029640791937708903
1540,00:00:06.16,-0.03341475920751692
1541,00:00:06.164,0.02453993493691091
1542,00:00:06.168,0.019423737656325102
1543,00:00:06.172,-0.01677596231456846
1544,00:00:06.176,-0.0299308169924188
1545,00:00:06.18,0.00023608747869729952
1546,00:00:06.184,-0.0036655436269939197
1547,00:00:06.188,-0.03745642816647886
1548,00:00:06.192,0.025485944468528067
1549,00:00:06.196,0.062246781773865244
1550,00:00:06.2,0.016453364165499806
1551,00:00:06.204,-0.002098455792292951
1552,00:00:06.208,-0.08266377053223553
1553,00:00:06.212,-0.009254143806174394
1554,00:00:06.216,0.03399842919316145
1555,00:00:06.22,0.030586365144699798
1556,00:00:06.224,-0.015002472908236088
1557,00:00:06.228,-0.04886530048679566
1558,00:00:06.232,0.05285574542358523
1559,00:00:06.236,0.00606139050796629
1560,00:00:06.24,0.0261889114044607
1561,00:00:06.244,-0.04465317609719928
1562,00:00:06.248,-0.03397855930961668
1563,00:00:06.252,0.0053480173810385116
1564,00:00:06.256,0.03099751146510244
1565,00:00:06.26,0.012181223952211434
1566,00:00:06.264,-0.015176874963799488
1567,00:00:06.268,0.03022364666685464
1568,00:00:06.272,0.012280623486731215
1569,00:00:06.276,-0.11248968727886681
1570,00:00:06.28,0.03000182332471011
1571,00:00:06.284,0.060461129847681136
1572,00:00:06.288,0.045382750220596825
1573,00:00:06.292,-0.013319774065166722
1574,00:00:06.296,-0.06543714017607273
1575,00:00:06.3,-0.0964916851371527
1576,00:00:06.304,0.0829114420339465
1577,00:00:06.308,0.07392148533836011
1578,00:00:06.312,0.0003338765454827823
1579,00:00:06.316,-0.026747600641101578
1580,00:00:06.32,-0.03961998876184217
1581,00:00:06.324,0.004300325294025249
1582,00:00:06.328,0.00683765788562597
1583,00:00:06.332,0.013896083110012109
1584,00:00:06.336,-0.0004562579561024898
1585,00:00:06.34,0.005240723490715031
1586,00:00:06.344,0.01739630615338682
1587,00:00:06.348,-0.02809912362135944
1588,00:00:06.352,-0.0584526052698493
1589,00:00:06.356,0.04872900526970629
1590,00:00:06.36,0.033740632701665156
1591,00:00:06.364,-0.00039639056194573424
1592,00:00:06.368,-0.00675147585570812
1593,00:00:06.372,-0.026328750420361802
1594,00:00:06.376,0.0035686672199517415
1595,00:00:06.38,0.002828590106219062
1596,00:00:06.384,-0.0038840407505631508
1597,00:00:06.388,-0.008982230385299772
1598,00:00:06.392,0.019558611907996237
1599,00:00:06.396,0.02413469040766363
1600,00:00:06.4,0.01727690431289376
1601,00:00:06.404,-0.02993881795555349
1602,00:00:06.408,-0.1100509110838174
1603,00:00:06.412,0.07046480197459462
1604,00:00:06.416,0.04525084607303147
1605,00:00:06.42,0.00944302347488701
1606,00:00:06.424,0.011854086638777494
1607,00:00:06.428,-0.01472589559853077
1608,00:00:06.432,-0.03603674378246077
1609,00:00:06.436,-0.00960297556594014
1610,00:00:06.44,-0.0016700704582035212
1611,00:00:06.444,-0.0555831990204751
1612,00:00:06.448,0.05458933406043795
1613,00:00:06.452,0.07507341075688595
1614,00:00:06.456,0.014119093073531978
1615,00:00:06.46,-0.01779993693344296
1616,00:00:06.464,-0.05865650903433561
1617,00:00:06.468,-0.03638769034296276
1618,00:00:06.472,0.0011035227216780203
1619,00:00:06.476,0.038182168733328525
1620,00:00:06.48,0.030523095279932
1621,00:00:06.484,0.010309663368389014
1622,00:00:06.488,-0.0634906388586388
1623,00:00:06.492,-0.024322681478224743
1624,00:00:06.496,0.0711610838770866
1625,00:00:06.5,0.014981182059273101
1626,00:00:06.504,0.011424377094954261
1627,00:00:06.508,-0.005505997891305014
1628,00:00:06.512,-0.0590293016284704
1629,00:00:06.516,-0.08097472786903383
1630,00:00:06.52,0.06781275756657121
1631,00:00:06.524,0.0765211610123516
1632,00:00:06.528,0.024007088853977607
1633,00:00:06.532,-0.04671938065439465
1634,00:00:06.536,-0.04953225026838487
1635,00:00:06.54,-0.03369192266836771
1636,00:00:06.544,0.07175558642484248
1637,00:00:06.548,0.04773475229740148
1638,00:00:06.552,-0.04383935267105697
1639,00:00:06.556,-0.029953722492791653
1640,00:00:06.56,-0.03159324452281002
1641,00:00:06.564,0.037048242986202184
1642,00:00:06.568,0.06659451313316822
1643,00:00:06.572,-0.02109929115977137
1644,00:00:06.576,-0.08290554024279119
1645,00:00:06.58,0.03458421156392431
1646,00:00:06.584,0.01558959088288248
1647,00:00:06.588,0.012011463288217821
1648,00:00:06.592,0.021413991518784335
1649,00:00:06.596,-0.032887782435864196
1650,00:00:06.6,-0.06209771707653999
1651,00:00:06.604,0.05025830172235147
1652,00:00:06.608,0.0476139830425382
1653,00:00:06.612,-0.012304694391787063
1654,00:00:06.616,-0.01973129087127743
1655,00:00:06.62,-0.03070921078324318
1656,00:00:06.624,0.0011300677433610413
1657,00:00:06.628,0.0367532307282091
1658,00:00:06.632,0.01648564916104081
1659,00:00:06.636,-0.02899443684145809
1660,00:00:06.64,-0.02585844346322121
1661,00:00:06.644,0.02509881602600218
1662,00:00:06.648,0.013983132550492881
1663,00:00:06.652,-0.00493741664104164
1664,00:00:06.656,-0.006596997613087301
1665,00:00:06.66,-0.03207192057743668
1666,00:00:06.664,0.019629390910267826
1667,00:00:06.668,0.026266023283824342
1668,00:00:06.672,0.0017275208374485397
1669,00:00:06.676,-0.0024220878258347407
1670,00:00:06.68,0.01397522166371349
1671,00:00:06.684,-0.056202067993581295
1672,00:00:06.688,-0.01221188134513796
1673,00:00:06.692,0.02332616597414016
1674,00:00:06.696,0.04313987877685574
1675,00:00:06.7,-0.019022025400772687
1676,00:00:06.704,-0.011376880574971427
1677,00:00:06.708,0.02373089222237472
1678,00:00:06.712,-0.021576783008640597
1679,00:00:06.716,-0.017498033557785706
1680,00:00:06.72,0.01565992715768516
1681,00:00:06.724,0.025615885155275433
1682,00:00:06.728,0.014855086104944326
1683,00:00:06.732,-0.05201149964705105
1684,00:00:06.736,-0.0702520459890366
1685,00:00:06.74,0.0826112180948257
1686,00:00:06.744,0.03592493987525815
1687,00:00:06.748,-0.006287560565397151
1688,00:00:06.752,-0.005156285304110499
1689,00:00:06.756,-0.010811881627887439
1690,00:00:06.76,-0.003618471972004039
1691,00:00:06.764,-0.04052414605394005
1692,00:00:06.768,-0.011473377991933369
1693,00:00:06.772,0.024817905388772467
1694,00:00:06.776,0.02828246855642652
1695,00:00:06.78,0.043871679110452505
1696,00:00:06.784,-0.03055290784686797
1697,00:00:06.788,-0.041494164615869515
1698,00:00:06.792,0.012257070862688124
1699,00:00:06.796,0.0012712949537672124
1700,00:00:06.8,0.02838960639201107
1701,00:00:06.804,-0.03499869816005228
1702,00:00:06.808,-0.00835436413763091
1703,00:00:06.812,0.01957410876639189
1704,00:00:06.816,0.009829249640461054
1705,00:00:06.82,-0.003314804744150018
1706,00:00:06.824,0.012280073948204519
1707,00:00:06.828,-0.0030669504776597127
1708,00:00:06.832,-0.0452422313392162
1709,00:00:06.836,-0.006403861210856115
1710,00:00:06.84,0.05581320944475007
1711,00:00:06.844,0.00394380651414395
1712,00:00:06.848,-0.008663630113005638
1713,00:00:06.852,0.0028973326461709773
1714,00:00:06.856,-0.03426679945550866
1715,00:00:06.86,-0.006022443063557154
1716,00:00:06.864,0.01059220265597105
1717,00:00:06.868,0.0201262864284217
1718,00:00:06.872,0.01944231567904349
1719,00:00:06.876,-0.01722288454766384
1720,00:00:06.88,-0.019370986148715
1721,00:00:06.884,-0.0036994866713939644
1722,00:00:06.888,-0.01077043684199454
1723,00:00:06.892,0.027908900752663578
1724,00:00:06.896,0.03099428908899431
1725,00:00:06.9,-0.010384196182712942
1726,00:00:06.904,-0.021887997630983577
1727,00:00:06.908,-0.02381571289151905
1728,00:00:06.912,-0.00822266592876985
1729,00:00:06.916,0.02164042368531231
1730,00:00:06.92,0.01881102751940493
1731,00:00:06.924,-0.006698063632939015
1732,00:00:06.928,0.007012978894636031
1733,00:00:06.932,-0.0091723158257082
1734,00:00:06.936,0.02077480731531982
1735,00:00:06.94,-0.01513772550970316
1736,00:00:06.944,-0.03170389030128719
1737,00:00:06.948,0.015689475461840602
1738,00:00:06.952,0.007449273194652009
1739,00:00:06.956,0.00714073423296213
1740,00:00:06.96,-0.03868811670690777
1741,00:00:06.964,0.035909160040318924
1742,00:00:06.968,0.026946620142553036
1743,00:00:06.972,0.00351607520133257
1744,00:00:06.976,-0.0528277270495892
1745,00:00:06.98,-0.000770684273447841
1746,00:00:06.984,0.043026962317526264
1747,00:00:06.988,-0.031121518695727008
1748,00:00:06.992,-0.03285323549062022
1749,00:00:06.996,0.04454807029105719
1750,00:00:07,0.02210668567568064
1751,00:00:07.004,-0.010629421565681692
1752,00:00:07.008,-0.004624680150300259
1753,00:00:07.012,0.011156079825013907
1754,00:00:07.016,-0.058737820014357615
1755,00:00:07.02,-0.014385859016329071
1756,00:00:07.024,0.061067367903888205
1757,00:00:07.028,0.01905092131346472
1758,00:00:07.032,0.00398478924762459
1759,00:00:07.036,-0.012537658680230379
1760,00:00:07.04,-0.05936887953430412
1761,00:00:07.044,0.005878985190065577
1762,00:00:07.048,0.03840025328099731
1763,00:00:07.052,-0.001879922579973938
1764,00:00:07.056,0.02502458472736176
1765,00:00:07.06,0.01134210103191431
1766,00:00:07.064,-0.0667483629658818
1767,00:00:07.068,-0.0007874714210629099
1768,00:00:07.072,0.0231133948545903
1769,00:00:07.076,-0.013227534262114211
1770,00:00:07.08,0.03191828727722168
1771,00:00:07.084,0.012446206877939408
1772,00:00:07.088,-0.011396979098208249
1773,00:00:07.092,-0.0154012457933277
1774,00:00:07.096,0.019887707390807946
1775,00:00:07.1,-0.02863546228036285
1776,00:00:07.104,-0.05601670686155556
1777,00:00:07.108,0.03031310718506582
1778,00:00:07.112,0.06758733559399843
1779,00:00:07.116,0.01141963637201111
1780,00:00:07.12,-0.01187311613466591
1781,00:00:07.124,-0.0379775706678629
1782,00:00:07.128,-0.00607137777842581
1783,00:00:07.132,-0.013481400441378348
1784,00:00:07.136,0.03637065185466777
1785,00:00:07.14,-0.004207259655231605
1786,00:00:07.144,-0.06252040661638608
1787,00:00:07.148,0.06559897679835554
1788,00:00:07.152,0.01933211507275702
1789,00:00:07.156,0.0011902299011126178
1790,00:00:07.16,-0.01927471417002376
1791,00:00:07.164,-0.00612535653635859
1792,00:00:07.168,-0.03470770013518633
1793,00:00:07.172,-0.02730858745053408
1794,00:00:07.176,0.06177681777626268
1795,00:00:07.18,0.04462501656962555
1796,00:00:07.184,0.00027281779330220156
1797,00:00:07.188,-0.0774411521852016
1798,00:00:07.192,-0.02648617886006837
1799,00:00:07.196,0.04327324480982492
1800,00:00:07.2,0.03735376289114353
1801,00:00:07.204,0.01327401667367665
1802,00:00:07.208,-0.04162480123341085
1803,00:00:07.212,-0.028061262532901355
1804,00:00:07.216,0.02465076581574981
1805,00:00:07.22,0.0035113191697746554
1806,00:00:07.224,0.015892585506662744
1807,00:00:07.228,-0.0007486497052013909
1808,00:00:07.232,-0.010545102064497769
1809,00:00:07.236,0.008357180282473519
1810,00:00:07.24,-0.03671441646292805
1811,00:00:07.244,0.01126624806784094
1812,00:00:07.248,-0.0010120435617864058
1813,00:00:07.252,0.02830502903088929
1814,00:00:07.256,0.025750656612217423
1815,00:00:07.26,-0.041099515277892316
1816,00:00:07.264,-0.0055459828581660995
1817,00:00:07.268,-0.012652840698137904
1818,00:00:07.272,0.013096902752295119
1819,00:00:07.276,0.02214314870070662
1820,00:00:07.28,0.00583909591659903
1821,00:00:07.284,-0.01068114326335494
1822,00:00:07.288,-0.0253356099128723
1823,00:00:07.292,-0.02642048464622349
1824,00:00:07.296,0.05399345001205807
1825,00:00:07.3,0.030827349604806008
1826,00:00:07.304,-0.03287620935589075
1827,00:00:07.308,-0.030652194982394562
1828,00:00:07.312,0.0043948881793767205
1829,00:00:07.316,0.008689074020367121
1830,00:00:07.32,0.00458033010363579
1831,00:00:07.324,0.013308632886037218
1832,00:00:07.328,0.01051484793424606
1833,00:00:07.332,-0.019215455395169542
1834,00:00:07.336,-0.01362861832603813
1835,00:00:07.34,0.01394870789954439
1836,00:00:07.344,0.00404143531341106
1837,00:00:07.348,-0.023469570092856877
1838,00:00:07.352,0.013236307306215122
1839,00:00:07.356,0.015618449542671468
1840,00:00:07.36,0.005324844270944593
1841,00:00:07.364,0.001815992640331391
1842,00:00:07.368,-0.04335276142228396
1843,00:00:07.372,-0.00908310525119307
1844,00:00:07.376,0.04120263666845854
1845,00:00:07.38,0.02545274386648091
1846,00:00:07.384,-0.029298980254679904
1847,00:00:07.388,-0.021565223345532982
1848,00:00:07.392,0.015974881564034156
1849,00:00:07.396,0.006725239567458641
1850,00:00:07.4,0.00870229327119887
1851,00:00:07.404,-0.01450986484996975
1852,00:00:07.408,-0.01353026309516281
1853,00:00:07.412,0.015311077702790499
1854,00:00:07.416,-0.0018832013010978612
1855,00:00:07.42,0.011161283880937836
1856,00:00:07.424,-0.00765009247697887
1857,00:00:07.428,-0.0023527321172877817
1858,00:00:07.432,0.0016452849376946705
1859,00:00:07.436,-0.00597938406281177
1860,00:00:07.44,0.02125213621184229
1861,00:00:07.444,-0.0061307386495173
1862,00:00:07.448,-0.06282256031408903
1863,00:00:07.452,0.026644556783139674
1864,00:00:07.456,0.052672505378723096
1865,00:00:07.46,0.027079191664597595
1866,00:00:07.464,-0.024876986630260972
1867,00:00:07.468,-0.048597001470625394
1868,00:00:07.472,-0.03947588684968646
1869,00:00:07.476,0.0292038768529892
1870,00:00:07.48,0.04796006157994278
1871,00:00:07.484,0.019965643761679565
1872,00:00:07.488,-0.009007239365018908
1873,00:00:07.492,-0.036072996037546566
1874,00:00:07.496,-0.0023286782670766102
1875,00:00:07.5,-0.006129876128397881
1876,00:00:07.504,-0.01870012190192938
1877,00:00:07.508,0.050640830304473625
1878,00:00:07.512,0.01744074851740149
1879,00:00:07.516,-0.04438341967761513
1880,00:00:07.52,-0.002071398776024579
1881,00:00:07.524,0.011827328038634734
1882,00:00:07.528,0.009700157446786758
1883,00:00:07.532,0.00023426441475747975
1884,00:00:07.536,0.0066716534784063706
1885,00:00:07.54,-0.0367789836600422
1886,00:00:07.544,-0.009840030455961822
1887,00:00:07.548,0.036165820434689605
1888,00:00:07.552,-0.00802728231064976
1889,00:00:07.556,0.024107450852170587
1890,00:00:07.56,0.0003493463154882002
1891,00:00:07.564,-0.027743230573833037
1892,00:00:07.568,-0.008491922373650597
1893,00:00:07.572,0.010043330956250431
1894,00:00:07.576,-0.01667710686888313
1895,00:00:07.58,0.035684182308614254
1896,00:00:07.584,0.002771148225292559
1897,00:00:07.588,-0.01006838338798844
1898,00:00:07.592,-0.010141561273485429
1899,00:00:07.596,-0.000609219132456925
1900,00:00:07.6,-0.013645732688019021
1901,00:00:07.604,0.010152228409424448
1902,00:00:07.608,0.02395348227582876
1903,00:00:07.612,-0.00513814145233482
1904,00:00:07.616,-0.02206815587123854
1905,00:00:07.62,0.006573724560439578
1906,00:00:07.624,-0.00703437719494104
1907,00:00:07.628,-0.0015913927927613397
1908,00:00:07.632,0.017745512421242872
1909,00:00:07.636,0.01838075276464226
1910,00:00:07.64,0.0004971745293005339
1911,00:00:07.644,-0.01874064555158836
1912,00:00:07.648,-0.04178929817862809
1913,00:00:07.652,-0.0032974015921354216
1914,00:00:07.656,0.053407878149300814
1915,00:00:07.66,0.014667178853414951
1916,00:00:07.664,-0.019731706241145758
1917,00:00:07.668,-0.014830565516604118
1918,00:00:07.672,0.006254561943933359
1919,00:00:07.676,0.004074255353771145
1920,00:00:07.68,-0.02255852287635208
1921,00:00:07.684,0.02163478801958267
1922,00:00:07.688,0.0010460545308887716
1923,00:00:07.692,-0.010223945177131101
1924,00:00:07.696,0.013635401002829901
1925,00:00:07.7,-0.013391245156526569
1926,00:00:07.704,-0.010862698632990983
1927,00:00:07.708,0.03933724947273731
1928,00:00:07.712,-0.01547737524379045
1929,00:00:07.716,-0.01955628977157178
1930,00:00:07.72,0.00612599262967705
1931,00:00:07.724,0.0022159519139677173
1932,00:00:07.728,0.0007506274268962448
1933,00:00:07.732,0.02350670099258425
1934,00:00:07.736,-0.012501930585131
1935,00:00:07.74,-0.0250162980519235
1936,00:00:07.744,0.00253103743307293
1937,00:00:07.748,0.009320917422883218
1938,00:00:07.752,0.02971628168597818
1939,00:00:07.756,-0.00499217910692097
1940,00:00:07.76,-0.02686051116324959
1941,00:00:07.764,-0.0030447887256741506
1942,00:00:07.768,0.00012697515194303333
1943,00:00:07.772,-0.0061883036978542805
1944,00:00:07.776,0.01938139647245407
1945,00:00:07.78,0.012158756144344807
1946,00:00:07.784,-0.00942180096171796
1947,00:00:07.788,-0.009107492864131919
1948,00:00:07.792,0.009810096584260459
1949,00:00:07.796,-0.011543883476406329
1950,00:00:07.8,0.01052191166672855
1951,00:00:07.804,0.0018707665731199099
1952,00:00:07.808,-0.00926499580964448
1953,00:00:07.812,-0.0458835326135159
1954,00:00:07.816,0.04355000669602301
1955,00:00:07.82,0.02506657061167054
1956,00:00:07.824,0.0008045425638556411
1957,00:00:07.828,0.0018253543821629076
1958,00:00:07.832,-0.0336830755695701
1959,00:00:07.836,-0.010680255480110638
1960,00:00:07.84,0.02279989561066028
1961,00:00:07.844,0.0065661040134728016
1962,00:00:07.848,-0.02416067756712438
1963,00:00:07.852,0.01993536693044004
1964,00:00:07.856,0.010665715439245101
1965,00:00:07.86,-0.013880187150789428
1966,00:00:07.864,-0.010614325961796567
1967,00:00:07.868,-0.01329140202142298
1968,00:00:07.872,0.02572555036749689
1969,00:00:07.876,0.02710730419494216
1970,00:00:07.88,-0.029917427804321092
1971,00:00:07.884,0.004080462735146269
1972,00:00:07.888,-0.0121279243612662
1973,00:00:07.892,-0.02197218337096277
1974,00:00:07.896,0.03220453392714258
1975,00:00:07.9,0.025832451879978183
1976,00:00:07.904,-0.05105461180210115
1977,00:00:07.908,0.0399201968684793
1978,00:00:07.912,-0.003347700054291637
1979,00:00:07.916,-0.02409323374740781
1980,00:00:07.92,0.009301816404331472
1981,00:00:07.924,-0.004645346198230981
1982,00:00:07.928,-0.005618321243673559
1983,00:00:07.932,0.0241041611880064
1984,00:00:07.936,-0.00948616833193231
1985,00:00:07.94,0.005041882861405599
1986,00:00:07.944,-0.0231773778796196
1987,00:00:07.948,0.0073691759025677995
1988,00:00:07.952,0.01108236331492661
1989,00:00:07.956,0.021466490288730704
1990,00:00:07.96,-0.017440258525312002
1991,00:00:07.964,-0.026044706348329782
1992,00:00:07.968,0.004487178986892098
1993,00:00:07.972,0.00955090648494657
1994,00:00:07.976,-0.03584319207584482
1995,00:00:07.98,0.0612333994358778
1996,00:00:07.984,0.04056852671783414
1997,00:00:07.988,-0.013314090436324517
1998,00:00:07.992,-0.06181441573426128
1999,00:00:07.996,-0.0514343156246469
2000,00:00:08,0.0114135602489114
2001,00:00:08.004,0.04866402779953208
2002,00:00:08.008,0.0465573174878955
2003,00:00:08.012,-0.005542739061638709
2004,00:00:08.016,-0.031467666383832596
2005,00:00:08.02,-0.005547457723878287
2006,00:00:08.024,-0.01369296642951667
2007,00:00:08.028,0.0018683121888898244
2008,00:00:08.032,0.02054656390100714
2009,00:00:08.036,-0.002473682165145877
2010,00:00:08.04,-0.02718982659280298
2011,00:00:08.044,0.02488853875547652
2012,00:00:08.048,0.013387105696892842
2013,00:00:08.052,7.386785000560239e-05
2014,00:00:08.056,-0.030511622782796663
2015,00:00:08.06,0.004758978495374325
2016,00:00:08.064,0.01857195771299305
2017,00:00:08.068,-0.0008328978437930293
2018,00:00:08.072,-0.0177913615480065
2019,00:00:08.076,-0.01685338397510354
2020,00:00:08.08,0.02005759108578789
2021,00:00:08.084,0.03133005462586873
2022,00:00:08.088,0.0018601006158860418
2023,00:00:08.092,-0.01729788037482653
2024,00:00:08.096,-0.050198588869534495
2025,00:00:08.1,0.038454423658549806
2026,00:00:08.104,0.014216583891538953
2027,00:00:08.108,-0.0018993602134287392
2028,00:00:08.112,-0.01828543457668278
2029,00:00:08.116,-0.0009125201031565701
2030,00:00:08.12,0.005616885668132461
2031,00:00:08.124,-0.023704460589215128
2032,00:00:08.128,0.05073320958763364
2033,00:00:08.132,0.01924531045369808
2034,00:00:08.136,-0.025561719667166447
2035,00:00:08.14,-0.03668600507080554
2036,00:00:08.144,-0.0217662830837071
2037,00:00:08.148,0.010825965728145096
2038,00:00:08.152,0.03692607162520293
2039,00:00:08.156,0.01443917991127816
2040,00:00:08.16,-0.0021865388262085617
2041,00:00:08.164,-0.007757464773021638
2042,00:00:08.168,-0.005427874915767456
2043,00:00:08.172,-0.008746161009185013
2044,00:00:08.176,-0.01162465754896402
2045,00:00:08.18,0.005677426001057029
2046,00:00:08.184,0.004077559919096535
2047,00:00:08.188,0.0024066339829005266
2048,00:00:08.192,0.01584741473197936
2049,00:00:08.196,0.0055627408146392615
2050,00:00:08.2,-0.037204543128609616
2051,00:00:08.204,0.0024316268973052497
2052,00:00:08.208,0.011420262977480911
2053,00:00:08.212,0.02436010399833326
2054,00:00:08.216,-0.0037726576119894175
2055,00:00:08.22,-0.012841814430430512
2056,00:00:08.224,-0.016330648257280672
2057,00:00:08.228,0.0006468560313805903
2058,00:00:08.232,0.0010936096077784861
2059,00:00:08.236,0.010719839774537832
2060,00:00:08.24,0.016373490449041128
2061,00:00:08.244,3.5773962736108944e-05
2062,00:00:08.248,-0.00523331784643233
2063,00:00:08.252,-0.02429547288920731
2064,00:00:08.256,-0.009043677127920091
2065,00:00:08.26,0.005516323260962969
2066,00:00:08.264,0.02001440245658159
2067,00:00:08.268,0.018657506909221407
2068,00:00:08.272,-0.0014403458335436842
2069,00:00:08.276,-0.0099251716164872
2070,00:00:08.28,-0.01194233383284882
2071,00:00:08.284,-0.007690616614127068
2072,00:00:08.288,-0.00963750667870049
2073,00:00:08.292,-0.003235260141082108
2074,00:00:08.296,0.0149813797324896
2075,00:00:08.3,0.036345719126984505
2076,00:00:08.304,-0.008374708238989122
2077,00:00:08.308,-0.026280524325557008
2078,00:00:08.312,0.00466334959492087
2079,00:00:08.316,-0.005277758988086112
2080,00:00:08.32,-0.009799054940231151
2081,00:00:08.324,0.02997007651720196
2082,00:00:08.328,0.004118193406611681
2083,00:00:08.332,-0.01429514808114623
2084,00:00:08.336,-0.01627836644183845
2085,00:00:08.34,-0.00566438585519791
2086,00:00:08.344,0.010802539880387482
2087,00:00:08.348,0.025857564614852863
2088,00:00:08.352,-0.02526401262730359
2089,00:00:08.356,-0.0029937834478914694
2090,00:00:08.36,0.019768137019127607
2091,00:00:08.364,-0.0020750159164890604
2092,00:00:08.368,-0.00023497943766415705
2093,00:00:08.372,-0.01608625031076371
2094,00:00:08.376,0.00892228865996003
2095,00:00:08.38,0.00025024125352501
2096,00:00:08.384,0.019267005263827783
2097,00:00:08.388,-0.020395789761096243
2098,00:00:08.392,-0.03672782564535743
2099,00:00:08.396,0.01473794458433986
2100,00:00:08.4,0.048201643396168954
2101,00:00:08.404,0.014403583714738478
2102,00:00:08.408,-0.03667762852273887
2103,00:00:08.412,-0.047202378045767504
2104,00:00:08.416,0.02560465456917881
2105,00:00:08.42,0.03821387561038139
2106,00:00:08.424,0.015621770755387844
2107,00:00:08.428,-0.02873870590701699
2108,00:00:08.432,-0.011293028946965922
2109,00:00:08.436,-0.027360157575458267
2110,00:00:08.44,-0.02450021356344221
2111,00:00:08.444,0.07195751176914193
2112,00:00:08.448,0.041826805565506255
2113,00:00:08.452,-0.0375102814286947
2114,00:00:08.456,-0.017539388965815302
2115,00:00:08.46,-0.02246977970935404
2116,00:00:08.464,-0.01121648162370548
2117,00:00:08.468,0.020003495388664316
2118,00:00:08.472,0.023528181482106468
2119,00:00:08.476,-0.0027676500612869802
2120,00:00:08.48,0.013792579295113678
2121,00:00:08.484,-0.044284712523222
2122,00:00:08.488,0.017697968287393458
2123,00:00:08.492,0.014803798636421558
2124,00:00:08.496,0.00485319155268371
2125,00:00:08.5,-0.01632715133018792
2126,00:00:08.504,-0.041433511301875205
2127,00:00:08.508,0.040456973016262075
2128,00:00:08.512,-0.00161095522344113
2129,00:00:08.516,0.02061614440754055
2130,00:00:08.52,-0.002798788482323289
2131,00:00:08.524,-0.010851603932678706
2132,00:00:08.528,-0.01318525476381183
2133,00:00:08.532,0.0005277664458844806
2134,00:00:08.536,0.01101596560329199
2135,00:00:08.54,0.021008413750678308
2136,00:00:08.544,-0.05191019084304567
2137,00:00:08.548,-0.0036258207401260794
2138,00:00:08.552,0.04712151549756529
2139,00:00:08.556,-0.00037917279405519713
2140,00:00:08.56,0.0015411311760544916
2141,00:00:08.564,-0.016919427318498492
2142,00:00:08.568,0.024502962012775274
2143,00:00:08.572,-0.0668466836214065
2144,00:00:08.576,-0.006603018613532181
2145,00:00:08.58,0.0666425637900829
2146,00:00:08.584,0.024640814866870635
2147,00:00:08.588,-0.01673675235360861
2148,00:00:08.592,-0.01419859938323497
2149,00:00:08.596,-0.018891108455136408
2150,00:00:08.6,-0.02473434232524594
2151,00:00:08.604,-0.02685375651344658
2152,00:00:08.608,0.05028907948872076
2153,00:00:08.612,0.06710449047386648
2154,00:00:08.616,0.010474130045622601
2155,00:00:08.62,-0.05717684514820574
2156,00:00:08.624,-0.055240474641323103
2157,00:00:08.628,-0.016790920868515972
2158,00:00:08.632,0.03576044389046727
2159,00:00:08.636,0.04357416462153196
2160,00:00:08.64,0.015454463020432737
2161,00:00:08.644,-0.003875526075717063
2162,00:00:08.648,-0.011168766999617219
2163,00:00:08.652,-0.011461625108495337
2164,00:00:08.656,-0.02458112221211191
2165,00:00:08.66,-0.06445569358766078
2166,00:00:08.664,0.04689815733581774
2167,00:00:08.668,0.053826733725145445
2168,00:00:08.672,0.05349005898460742
2169,00:00:08.676,-0.02326560788787899
2170,00:00:08.68,-0.04796037892811009
2171,00:00:08.684,-0.018550934808445177
2172,00:00:08.688,-0.01643005339428777
2173,00:00:08.692,-0.00904152344446629
2174,00:00:08.696,0.03052562987431881
2175,00:00:08.7,0.01479808764997875
2176,00:00:08.704,0.021074230782687657
2177,00:00:08.708,-0.006754428701242438
2178,00:00:08.712,-0.009802715387195411
2179,00:00:08.716,0.006901076862050107
2180,00:00:08.72,-0.0028545123059302985
2181,00:00:08.724,-0.03156542428769172
2182,00:00:08.728,0.02201752900145945
2183,00:00:08.732,-0.0016180963721126305
2184,00:00:08.736,-0.030824201181530928
2185,00:00:08.74,0.00689115794375538
2186,00:00:08.744,0.03558534523472192
2187,00:00:08.748,0.00515909027308226
2188,00:00:08.752,0.006372642994392667
2189,00:00:08.756,-0.0027247609104961066
2190,00:00:08.76,-0.028346555307507494
2191,00:00:08.764,-0.034209199715405786
2192,00:00:08.768,0.026906149461865477
2193,00:00:08.772,0.029874800704419516
2194,00:00:08.776,0.021818556939251714
2195,00:00:08.78,-0.03874309733510012
2196,00:00:08.784,-0.006303958420176073
2197,00:00:08.788,-0.0031468127854168454
2198,00:00:08.792,0.0031140898936428208
2199,00:00:08.796,0.01649545133113863
2200,00:00:08.8,0.0015122714685276138
2201,00:00:08.804,-0.03273551445454355
2202,00:00:08.808,0.023611508368048848
2203,00:00:08.812,0.0225616535171866
2204,00:00:08.816,-0.025160656310617893
2205,00:00:08.82,-0.008034071885049338
2206,00:00:08.824,0.0029119481332600308
2207,00:00:08.828,0.03754404000937937
2208,00:00:08.832,-0.03314438671804964
2209,00:00:08.836,-0.025763958343304666
2210,00:00:08.84,0.01442902651615441
2211,00:00:08.844,0.03575181937776507
2212,00:00:08.848,-0.02310588350519538
2213,00:00:08.852,-0.00300882576630102
2214,00:00:08.856,0.014723515967489215
2215,00:00:08.86,0.01291439693886786
2216,00:00:08.864,-0.01035430293995886
2217,00:00:08.868,-0.03100300440564753
2218,00:00:08.872,-0.005133352940902122
2219,00:00:08.876,0.007722638023551558
2220,00:00:08.88,0.00860635936260223
2221,00:00:08.884,0.0055475160479545585
2222,00:00:08.888,0.02506448095664382
2223,00:00:08.892,0.005326060112565761
2224,00:00:08.896,-0.019591542077250754
2225,00:00:08.9,-0.02898394808289599
2226,00:00:08.904,0.00456480262801052
2227,00:00:08.908,-0.0031165252439677707
2228,00:00:08.912,0.01492908340878784
2229,00:00:08.916,0.018799583427608024
2230,00:00:08.92,-0.01486036973074078
2231,00:00:08.924,0.017603306332603097
2232,00:00:08.928,0.0097468588501215
2233,00:00:08.932,-0.03901367494836457
2234,00:00:08.936,-0.017787507735192797
2235,00:00:08.94,-0.0007882965801400124
2236,00:00:08.944,0.0159429423511028
2237,00:00:08.948,0.033632126287557226
2238,00:00:08.952,0.012192957161460103
2239,00:00:08.956,-0.014010080660227672
2240,00:00:08.96,-0.014484569546766598
2241,00:00:08.964,-0.0008307773387059604
2242,00:00:08.968,-0.0374106345698237
2243,00:00:08.972,0.01712312735617166
2244,00:00:08.976,0.01182450773194436
2245,00:00:08.98,0.01749222981743516
2246,00:00:08.984,0.0033159466693177897
2247,00:00:08.988,-0.00804848759435117
2248,00:00:08.992,-0.012539964867755767
2249,00:00:08.996,-0.00849629170261324
2250,00:00:09,0.017640081932768236
2251,00:00:09.004,0.018120906315743923
2252,00:00:09.008,-0.04188264650292695
2253,00:00:09.012,0.005770411866251386
2254,00:00:09.016,0.0219349707476795
2255,00:00:09.02,0.0074499089532764655
2256,00:00:09.024,-0.010957462596707048
2257,00:00:09.028,0.007221739622764289
2258,00:00:09.032,-0.01397953135892747
2259,00:00:09.036,-0.00374812679365278
2260,00:00:09.04,-0.01635247911326585
2261,00:00:09.044,-0.0011181595036759999
2262,00:00:09.048,0.03711438318714501
2263,00:00:09.052,0.02219166932627559
2264,00:00:09.056,-0.04237882269808325
2265,00:00:09.06,-0.01131109404377639
2266,00:00:09.064,0.025843928568065135
2267,00:00:09.068,0.00862916477490217
2268,00:00:09.072,-0.02073814219329504
2269,00:00:09.076,0.002777616318780948
2270,00:00:09.08,0.009869489818811392
2271,00:00:09.084,-0.016792268848803363
2272,00:00:09.088,-0.043518996564671335
2273,00:00:09.092,0.055004969239234994
2274,00:00:09.096,0.035157197155058426
2275,00:00:09.1,0.0011420664231991389
2276,00:00:09.104,-0.038553277496248484
2277,00:00:09.108,-0.013067540712654601
2278,00:00:09.112,-0.0072394721210002795
2279,00:00:09.116,-0.01069880736758932
2280,00:00:09.12,0.013255468627903597
2281,00:00:09.124,0.0387620802503079
2282,00:00:09.128,0.028886422514915452
2283,00:00:09.132,-0.037804246647283414
2284,00:00:09.136,-0.03770794044248762
2285,00:00:09.14,-0.01502511929720636
2286,00:00:09.144,0.03435014688875532
2287,00:00:09.148,0.017463548574596668
2288,00:00:09.152,0.01553451002109796
2289,00:00:09.156,-0.01715501432772724
2290,00:00:09.16,-0.013094957685098049
2291,00:00:09.164,-0.01858505432028328
2292,00:00:09.168,-0.00035887397825717926
2293,00:00:09.172,0.03588644042611126
2294,00:00:09.176,0.013610297581180979
2295,00:00:09.18,-0.02774625318124883
2296,00:00:09.184,-0.01641225581988693
2297,00:00:09.188,0.03171068243682378
2298,00:00:09.192,-0.021728230640292154
2299,00:00:09.196,-0.026993264444172417
2300,00:00:09.2,0.02415344212204223
2301,00:00:09.204,0.026120380498468897
2302,00:00:09.208,0.009441989532206199
2303,00:00:09.212,-0.02292034798301753
2304,00:00:09.216,0.0068873203563271125
2305,00:00:09.22,-0.006154395305202339
2306,00:00:09.224,-0.02371092932298782
2307,00:00:09.228,-0.00599361001513899
2308,00:00:09.232,0.02151923952624202
2309,00:00:09.236,0.016619084170088172
2310,00:00:09.24,0.0032201514404732734
2311,00:00:09.244,-0.004310111631639303
2312,00:00:09.248,-0.00874143239343539
2313,00:00:09.252,-0.02001534262672067
2314,00:00:09.256,-0.018317019799724228
2315,00:00:09.26,0.04081433406099672
2316,00:00:09.264,0.03225365770049396
2317,00:00:09.268,-0.016647799740894705
2318,00:00:09.272,-0.02802213304676114
2319,00:00:09.276,-0.00895240472164005
2320,00:00:09.28,-0.0006066251080483255
2321,00:00:09.284,0.005891257780604061
2322,00:00:09.288,0.02855217247270051
2323,00:00:09.292,0.0068243052810430145
2324,00:00:09.296,-0.040146016515791375
2325,00:00:09.3,-0.00889003090560437
2326,00:00:09.304,0.03655210649594664
2327,00:00:09.308,0.0028901465702802004
2328,00:00:09.312,0.0012787309242412405
2329,00:00:09.316,-0.03105504717677833
2330,00:00:09.32,-0.004170814252574926
2331,00:00:09.324,0.02021230384707448
2332,00:00:09.328,0.003859630203805863
2333,00:00:09.332,-0.00566116604022682
2334,00:00:09.336,0.018417015904560654
2335,00:00:09.34,-0.01376306312158706
2336,00:00:09.344,-0.0255345501936972
2337,00:00:09.348,0.015184585237875572
2338,00:00:09.352,-0.0014856979832984464
2339,00:00:09.356,0.02139954688027497
2340,00:00:09.36,0.00991999881807714
2341,00:00:09.364,-0.022255291230976568
2342,00:00:09.368,-0.005403041141107685
2343,00:00:09.372,-0.0004224466392770401
2344,00:00:09.376,-0.013785358110908415
2345,00:00:09.38,0.01068305349326696
2346,00:00:09.384,0.016517028212547302
2347,00:00:09.388,-0.0007246446330100298
2348,00:00:09.392,0.009405627613887189
2349,00:00:09.396,-0.03845860622823235
2350,00:00:09.4,0.00286968471482396
2351,00:00:09.404,0.053028823807835565
2352,00:00:09.408,-0.01517421519383788
2353,00:00:09.412,-0.044637053040787536
2354,00:00:09.416,-0.009917988674715168
2355,00:00:09.42,0.0326612438075244
2356,00:00:09.424,0.031484473496675464
2357,00:00:09.428,-0.01622678618878126
2358,00:00:09.432,-0.012470552290324167
2359,00:00:09.436,-0.002309634699486199
2360,00:00:09.44,0.01800089667085555
2361,00:00:09.444,-0.04122198693221443
2362,00:00:09.448,-0.00774139002896846
2363,00:00:09.452,0.01010422222316265
2364,00:00:09.456,0.05222581746056676
2365,00:00:09.46,0.008860620670020582
2366,00:00:09.464,-0.013067317195236688
2367,00:00:09.468,-0.03676583152264355
2368,00:00:09.472,-0.0013692579232156307
2369,00:00:09.476,-0.017057681747246527
2370,00:00:09.48,-0.00341927749104798
2371,00:00:09.484,0.04894035402685405
2372,00:00:09.488,0.02072814991697669
2373,00:00:09.492,-0.014894943102262928
2374,00:00:09.496,-0.02371705137193203
2375,00:00:09.5,-0.01967768371105193
2376,00:00:09.504,-0.006858279783045878
2377,00:00:09.508,0.02220405684784053
2378,00:00:09.512,0.03338595340028408
2379,00:00:09.516,-0.0022676540393149498
2380,00:00:09.52,-0.02087324066087607
2381,00:00:09.524,-0.00500254821963609
2382,00:00:09.528,-0.00495888621662743
2383,00:00:09.532,-0.04188695177435872
2384,00:00:09.536,0.01142513030208648
2385,00:00:09.54,0.07034354191273454
2386,00:00:09.544,0.014123824112175488
2387,00:00:09.548,-0.019746423000469852
2388,00:00:09.552,-0.017077956348657608
2389,00:00:09.556,-0.03834116348298266
2390,00:00:09.56,-0.022878541203681366
2391,00:00:09.564,0.02544434415176506
2392,00:00:09.568,0.03121835809724876
2393,00:00:09.572,0.02291422290727501
2394,00:00:09.576,0.010285411408403881
2395,00:00:09.58,-0.018740559578873234
2396,00:00:09.584,-0.04143766406923535
2397,00:00:09.588,-0.01212177565321328
2398,00:00:09.592,0.01471356186084448
2399,00:00:09.596,0.03288908302783967
2400,00:00:09.6,-0.009424575837329028
2401,00:00:09.604,-0.02110405685380092
2402,00:00:09.608,0.022834209863390166
2403,00:00:09.612,0.013739991467446061
2404,00:00:09.616,-0.012576179578900339
2405,00:00:09.62,-0.026270146016031528
2406,00:00:09.624,0.0144589267583797
2407,00:00:09.628,-0.029133705422282212
2408,00:00:09.632,0.04009824350941926
2409,00:00:09.636,0.04677860438823701
2410,00:00:09.64,-0.038018913473933935
2411,00:00:09.644,-0.039564564242027686
2412,00:00:09.648,0.007845445303246379
2413,00:00:09.652,-0.00093761854805052
2414,00:00:09.656,-0.00495674554258585
2415,00:00:09.66,0.019528241246007393
2416,00:00:09.664,0.032833632081747034
2417,00:00:09.668,0.0005493841599673104
2418,00:00:09.672,-0.03303587553091352
2419,00:00:09.676,-0.010275256587192461
2420,00:00:09.68,-0.007687855046242479
2421,00:00:09.684,-0.004061859101057049
2422,00:00:09.688,0.035361985210329294
2423,00:00:09.692,0.01505654049105942
2424,00:00:09.696,-0.032301721046678736
2425,00:00:09.7,-0.0075722641631728056
2426,00:00:09.704,0.01166639104485511
2427,00:00:09.708,0.0022839301382191445
2428,00:00:09.712,0.00020208780188114015
2429,00:00:09.716,0.022939060174394437
2430,00:00:09.72,-0.0133307655341923
2431,00:00:09.724,-0.03648565872572366
2432,00:00:09.728,0.009252800140529878
2433,00:00:09.732,0.01457916141953319
2434,00:00:09.736,-0.013970230754239338
2435,00:00:09.74,0.03960717702284455
2436,00:00:09.744,0.007033881731331339
2437,00:00:09.748,-0.040253729064716026
2438,00:00:09.752,-0.018989212752785485
2439,00:00:09.756,0.02930208854377269
2440,00:00:09.76,0.01275523623917252
2441,00:00:09.764,-0.01871566707268357
2442,00:00:09.768,0.0009621875615266674
2443,00:00:09.772,0.01972929970361291
2444,00:00:09.776,-0.0005158311105333301
2445,00:00:09.78,-0.02379752276465292
2446,00:00:09.784,-0.015880145539995335
2447,00:00:09.788,0.0062237721867859285
2448,00:00:09.792,0.01929280115291476
2449,00:00:09.796,0.018764835782349068
2450,00:00:09.8,-0.006740811397321519
2451,00:00:09.804,-0.0029560431867139423
2452,00:00:09.808,-0.006407503810805792
2453,00:00:09.812,-0.011274389224126938
2454,00:00:09.816,-0.0023395457828883125
2455,00:00:09.82,-0.0031819984833418814
2456,00:00:09.824,-0.00811105757020413
2457,00:00:09.828,0.022112456150352955
2458,00:00:09.832,0.049749106168747004
2459,00:00:09.836,-0.02362763043493036
2460,00:00:09.84,-0.057306999340653406
2461,00:00:09.844,-0.00464395130984485
2462,00:00:09.848,0.01910186844179404
2463,00:00:09.852,0.03709004819393158
2464,00:00:09.856,0.01564521435648203
2465,00:00:09.86,-0.0663739182054997
2466,00:00:09.864,0.01326219260226935
2467,00:00:09.868,0.04260224848985668
2468,00:00:09.872,-0.020214589603710954
2469,00:00:09.876,-0.00942032446619124
2470,00:00:09.88,0.01215768838301301
2471,00:00:09.884,-0.01238511118572205
2472,00:00:09.888,-0.03586418624036005
2473,00:00:09.892,0.028600576333701628
2474,00:00:09.896,0.028240909799933475
2475,00:00:09.9,0.01195418857969343
2476,00:00:09.904,-0.01495640631765127
2477,00:00:09.908,-0.01771676877979187
2478,00:00:09.912,-0.0031097927130758684
2479,00:00:09.916,0.004680661790189333
2480,00:00:09.92,-0.025638343999162323
2481,00:00:09.924,0.0010348956566303908
2482,00:00:09.928,0.02850269176997248
2483,00:00:09.932,0.02749877655878667
2484,00:00:09.936,0.00594254606403411
2485,00:00:09.94,-0.02461192221380773
2486,00:00:09.944,-0.02906648768112062
2487,00:00:09.948,0.007576666073873641
2488,00:00:09.952,-0.004955903626978399
2489,00:00:09.956,-0.0103956344537437
2490,00:00:09.96,0.01627115020528436
2491,00:00:09.964,0.030994638800621022
2492,00:00:09.968,0.0032063465332612404
2493,00:00:09.972,-0.005280814599245781
2494,00:00:09.976,-0.02159888786263762
2495,00:00:09.98,-0.01325596938841044
2496,00:00:09.984,0.0018455872777849462
2497,00:00:09.988,0.0016117944614961743
2498,00:00:09.992,0.02143549104221162
2499,00:00:09.996,-0.01399244973436001
2500,00:00:10,0.011756097082979979
2501,00:00:10.004,0.00413857190869749
2502,00:00:10.008,0.00211524311453108
2503,00:00:10.012,-0.017157892696559422
2504,00:00:10.016,-0.016594034153968047
2505,00:00:10.02,0.01532634615432471
2506,00:00:10.024,0.00881368899717924
2507,00:00:10.028,-0.014671064476715363
2508,00:00:10.032,0.02393806051259167
2509,00:00:10.036,-2.1858606487509553e-05
2510,00:00:10.04,-0.01525777601636946
2511,00:00:10.044,-0.00847592100035399
2512,00:00:10.048,0.009646017293562185
2513,00:00:10.052,-0.0035508729051798604
2514,00:00:10.056,0.02223226800560948
2515,00:00:10.06,-0.0264388010837138
2516,00:00:10.064,0.010863617702852935
2517,00:00:10.068,-0.02120575463050041
2518,00:00:10.072,0.020880004158243568
2519,00:00:10.076,0.014928923919796989
2520,00:00:10.08,-0.01344424160197377
2521,00:00:10.084,-0.00892011751420796
2522,00:00:10.088,0.009193643491016699
2523,00:00:10.092,-0.008360705964150832
2524,00:00:10.096,0.01055085984989999
2525,00:00:10.1,0.005939221111475488
2526,00:00:10.104,-0.006715809577144651
2527,00:00:10.108,-0.03194528631865974
2528,00:00:10.112,-0.012445703847333789
2529,00:00:10.116,0.048063657246530084
2530,00:00:10.12,0.01423354959115386
2531,00:00:10.124,0.0036022725980728826
2532,00:00:10.128,-0.01072718040086329
2533,00:00:10.132,-0.01757293706759808
2534,00:00:10.136,-0.013219089014455628
2535,00:00:10.14,-0.0015042786269532423
2536,00:00:10.144,0.0027008267352357394
2537,00:00:10.148,0.006501130643300715
2538,00:00:10.152,0.01305779162794352
2539,00:00:10.156,0.0087820258922875
2540,00:00:10.16,0.015276742167770863
2541,00:00:10.164,-0.027415441814810117
2542,00:00:10.168,-0.0313992542214692
2543,00:00:10.172,0.017729807179421214
2544,00:00:10.176,0.02294281707145278
2545,00:00:10.18,-0.002464944613166157
2546,00:00:10.184,-0.020994626567699032
2547,00:00:10.188,-1.5103025361900332e-05
2548,00:00:10.192,0.00877750886138528
2549,00:00:10.196,0.003980951703852042
2550,00:00:10.2,0.02172618143958974
2551,00:00:10.204,0.004601786262355707
2552,00:00:10.208,-0.03693279018625621
2553,00:00:10.212,-0.0033040477428585005
2554,00:00:10.216,0.0038721542805433243
2555,00:00:10.22,-0.005107711302116506
2556,00:00:10.224,0.01582052744925023
2557,00:00:10.228,-0.0003883510362356793
2558,00:00:10.232,-0.00330318510532382
2559,00:00:10.236,0.00492445286363364
2560,00:00:10.24,-0.0007465954404324016
2561,00:00:10.244,0.020079965703189328
2562,00:00:10.248,-0.005099674308439713
2563,00:00:10.252,-0.032055524643510594
2564,00:00:10.256,-0.025929730618372542
2565,00:00:10.26,0.028351664077490537
2566,00:00:10.264,0.03783104382455345
2567,00:00:10.268,0.01128364168107512
2568,00:00:10.272,-0.03134429754936714
2569,00:00:10.276,-0.02175635879393666
2570,00:00:10.28,-0.00582256179768592
2571,00:00:10.284,0.016663233051076528
2572,00:00:10.288,0.0029002680385019674
2573,00:00:10.292,0.008848137105815109
2574,00:00:10.296,0.00375392806017771
2575,00:00:10.3,-0.008531785570085049
2576,00:00:10.304,0.01743908948265016
2577,00:00:10.308,-0.01529278070665896
2578,00:00:10.312,-0.02287171408534052
2579,00:00:10.316,-0.008067326270975181
2580,00:00:10.32,0.034171229694038664
2581,00:00:10.324,0.01707798638381065
2582,00:00:10.328,-0.014647819509264045
2583,00:00:10.332,-0.023280363995581848
2584,00:00:10.336,0.0006082537584007099
2585,00:00:10.34,0.02418616344220939
2586,00:00:10.344,-0.00730392779223621
2587,00:00:10.348,0.004232054576277731
2588,00:00:10.352,-0.00885340198874474
2589,00:00:10.356,0.0025345003232359895
2590,00:00:10.36,-0.005365856864955279
2591,00:00:10.364,0.003841202589683244
2592,00:00:10.368,-0.0268429660936818
2593,00:00:10.372,0.01851510431151838
2594,00:00:10.376,0.03503127302974466
2595,00:00:10.38,-0.002533814433263616
2596,00:00:10.384,-0.024703552946448323
2597,00:00:10.388,-0.01266098441556092
2598,00:00:10.392,0.02749891637358817
2599,00:00:10.396,-0.026530692819505958
2600,00:00:10.4,-0.00578115181997417
2601,00:00:10.404,0.01246229093521833
2602,00:00:10.408,0.003492464427836234
2603,00:00:10.412,0.00808061310090125
2604,00:00:10.416,0.01440483797341581
2605,00:00:10.42,0.0032609638292342494
2606,00:00:10.424,-0.013988181097374762
2607,00:00:10.428,-0.03690713687683457
2608,00:00:10.432,0.006863566988613451
2609,00:00:10.436,0.01668973593041301
2610,00:00:10.44,-0.007565476087620496
2611,00:00:10.444,0.011737226042896511
2612,00:00:10.448,0.01691890158690517
2613,00:00:10.452,0.0090734506957233
2614,00:00:10.456,-0.01900131790898736
2615,00:00:10.46,-0.014880178263410893
2616,00:00:10.464,-0.00721882906509563
2617,00:00:10.468,0.011087357066571709
2618,00:00:10.472,-0.004270617675501854
2619,00:00:10.476,0.01696140412241218
2620,00:00:10.48,-0.010038408596301455
2621,00:00:10.484,-0.01301201339811086
2622,00:00:10.488,0.02019895566627379
2623,00:00:10.492,0.01581301982514564
2624,00:00:10.496,-0.00951853471997311
2625,00:00:10.5,-0.026952451094985
2626,00:00:10.504,-0.019662118982523683
2627,00:00:10.508,0.0288958214223385
2628,00:00:10.512,0.040279940702021046
2629,00:00:10.516,-0.007455354119883846
2630,00:00:10.52,-0.03727502236142752
2631,00:00:10.524,-0.00792605057358739
2632,00:00:10.528,-0.00023613491794094617
2633,00:00:10.532,0.019143125216942274
2634,00:00:10.536,-0.007312826113775377
2635,00:00:10.54,0.01081947516649961
2636,00:00:10.544,0.01120084151625635
2637,00:00:10.548,0.0010013041319325553
2638,00:00:10.552,-0.029907735530287017
2639,00:00:10.556,0.0023540651891380605
2640,00:00:10.56,0.01354706427082418
2641,00:00:10.564,-0.00011880826787092263
2642,00:00:10.568,0.011722731636837121
2643,00:00:10.572,-0.006994215189479287
2644,00:00:10.576,-0.029491403372958278
2645,00:00:10.58,0.0052511591929942395
2646,00:00:10.584,0.010314145431038922
2647,00:00:10.588,0.01005948240344878
2648,00:00:10.592,0.009601513331290334
2649,00:00:10.596,0.00229166599456221
2650,00:00:10.6,-0.01062848558649418
2651,00:00:10.604,-0.005273666931316252
2652,00:00:10.608,0.023832058534026146
2653,00:00:10.612,-0.033118686566012925
2654,00:00:10.616,-0.05426284298300747
2655,00:00:10.62,0.04391546314582227
2656,00:00:10.624,0.044601464178413146
2657,00:00:10.628,0.022200932260602737
2658,00:00:10.632,-0.024224394233897363
2659,00:00:10.636,-0.03441019961610442
2660,00:00:10.64,-0.00606867007445544
2661,00:00:10.644,0.006234029511688284
2662,00:00:10.648,0.01059181301388889
2663,00:00:10.652,-0.00660898111527785
2664,00:00:10.656,0.0037679267989005946
2665,00:00:10.66,0.021129748201929047
2666,00:00:10.664,-0.005511771305464209
2667,00:00:10.668,-0.01940316311083734
2668,00:00:10.672,0.0009732163744047301
2669,00:00:10.676,0.014028751989826558
2670,00:00:10.68,-0.0020425091497600005
2671,00:00:10.684,-0.01840219646692276
2672,00:00:10.688,0.00597632047720254
2673,00:00:10.692,0.017779953603167076
2674,00:00:10.696,-0.005322632307070313
2675,00:00:10.7,-0.007489470764994623
2676,00:00:10.704,0.00343497516587376
2677,00:00:10.708,-0.014736651093699035
2678,00:00:10.712,0.006070793722756199
2679,00:00:10.716,0.014190100599080331
2680,00:00:10.72,0.010054524216684516
2681,00:00:10.724,-0.0030004831496626004
2682,00:00:10.728,-0.010209397412836529
2683,00:00:10.732,-0.013539692459744405
2684,00:00:10.736,-0.010527022124733776
2685,00:00:10.74,0.00615947728510947
2686,00:00:10.744,0.020680166315287372
2687,00:00:10.748,0.00795662496238947
2688,00:00:10.752,0.00309752335306257
2689,00:00:10.756,-0.026152022182941402
2690,00:00:10.76,0.00027381663676350095
2691,00:00:10.764,-0.0038670815702062052
2692,00:00:10.768,0.01844704477116466
2693,00:00:10.772,0.01120309275574983
2694,00:00:10.776,-0.01824052070151086
2695,00:00:10.78,-0.0098420829162933
2696,00:00:10.784,0.02599862683564427
2697,00:00:10.788,-0.0004109377041458997
2698,00:00:10.792,-0.05610036326106637
2699,00:00:10.796,0.0071169752627611195
2700,00:00:10.8,0.0394300948828459
2701,00:00:10.804,0.01966785080730913
2702,00:00:10.808,0.01383416214957834
2703,00:00:10.812,-0.01741144052357413
2704,00:00:10.816,-0.02811476041097194
2705,00:00:10.82,-0.011060128919780228
2706,00:00:10.824,-0.011228607283555871
2707,00:00:10.828,0.015028439389425337
2708,00:00:10.832,0.01952801411971448
2709,00:00:10.836,0.0029168367618694962
2710,00:00:10.84,0.010230998508632176
2711,00:00:10.844,-0.004326995695009821
2712,00:00:10.848,-0.030071698129177087
2713,00:00:10.852,-0.010720007936470221
2714,00:00:10.856,0.02246663719415668
2715,00:00:10.86,0.015819845837540966
2716,00:00:10.864,0.011508020805194977
2717,00:00:10.868,0.005123502109199771
2718,00:00:10.872,-0.02411427430342883
2719,00:00:10.876,-0.037380327936261865
2720,00:00:10.88,-0.0172082236967981
2721,00:00:10.884,0.053494499064981896
2722,00:00:10.888,0.028016484808176728
2723,00:00:10.892,-0.014390450756763998
2724,00:00:10.896,-0.007894543203292411
2725,00:00:10.9,-0.024608707753941427
2726,00:00:10.904,0.0073046437464655
2727,00:00:10.908,-0.01664759661071006
2728,00:00:10.912,0.03386771539226171
2729,00:00:10.916,0.03426362993195653
2730,00:00:10.92,-0.03108861706277822
2731,00:00:10.924,-0.03997457158402544
2732,00:00:10.928,0.006027490599080931
2733,00:00:10.932,0.02184617993771101
2734,00:00:10.936,0.01476744702085853
2735,00:00:10.94,-0.004157948518695776
2736,00:00:10.944,-0.017340193095151363
2737,00:00:10.948,-0.002577354316599669
2738,00:00:10.952,0.0007017484749667392
2739,00:00:10.956,0.015997832408174907
2740,00:00:10.96,0.010986355133354702
2741,00:00:10.964,-0.006071721843909495
2742,00:00:10.968,-0.03685309947468342
2743,00:00:10.972,0.00238028215244412
2744,00:00:10.976,0.02503822394646705
2745,00:00:10.98,0.031323072034865666
2746,00:00:10.984,-0.018829128443030606
2747,00:00:10.988,-0.037542590871453396
2748,00:00:10.992,0.014276799163781113
2749,00:00:10.996,0.00688032549805939
2750,00:00:11,-0.01003565522842112
2751,00:00:11.004,0.00571888266131282
2752,00:00:11.008,0.015019501588540127
2753,00:00:11.012,0.00524727175798035
2754,00:00:11.016,-0.0028149138670414712
2755,00:00:11.02,-0.025189413398038613
2756,00:00:11.024,0.013836335157975551
2757,00:00:11.028,0.0012657987826969483
2758,00:00:11.032,-0.0069409864372573845
2759,00:00:11.036,-0.002406149986200033
2760,00:00:11.04,0.004947718494804577
2761,00:00:11.044,0.004817347275093189
2762,00:00:11.048,0.0018622989300638429
2763,00:00:11.052,-0.0008696606382727701
2764,00:00:11.056,-0.0020935983338858967
2765,00:00:11.06,-0.0039397825021296705
2766,00:00:11.064,-0.00098839658312499
2767,00:00:11.068,0.009935349636407409
2768,00:00:11.072,-0.0013928194530308307
2769,00:00:11.076,-0.0068759395508095605
2770,00:00:11.08,-0.0056911767314886666
2771,00:00:11.084,0.01106281811371446
2772,00:00:11.088,-0.013569253263995051
2773,00:00:11.092,-0.001899389142636201
2774,00:00:11.096,0.02427903003990655
2775,00:00:11.1,-0.006585514434846109
2776,00:00:11.104,-0.008087136899121102
2777,00:00:11.108,0.01688623521476984
2778,00:00:11.112,0.00377056398428977
2779,00:00:11.116,-0.03714085835963489
2780,00:00:11.12,0.00805752398446203
2781,00:00:11.124,0.01713640743400902
2782,00:00:11.128,-0.011370887630619114
2783,00:00:11.132,-6.70175068080499e-05
2784,00:00:11.136,-5.982787115498911e-05
2785,00:00:11.14,-0.0028495715878307155
2786,00:00:11.144,0.02062739199027422
2787,00:00:11.148,0.014250881969928748
2788,00:00:11.152,-0.011021542362868812
2789,00:00:11.156,-0.01985393371433019
2790,00:00:11.16,-0.03684450872242457
2791,00:00:11.164,0.006640379084274181
2792,00:00:11.168,0.042469265521503985
2793,00:00:11.172,0.01948851859197022
2794,00:00:11.176,-0.0012665545218624222
2795,00:00:11.18,-0.02273907558992502
2796,00:00:11.184,-0.015907653782051032
2797,00:00:11.188,0.011965422658249712
2798,00:00:11.192,-0.00118082156404853
2799,00:00:11.196,-0.0152270013932139
2800,00:00:11.2,0.01150178199168295
2801,00:00:11.204,0.02212039276491855
2802,00:00:11.208,-0.031222623307257932
2803,00:00:11.212,0.022550950292497908
2804,00:00:11.216,-0.0009032867674250236
2805,00:00:11.22,-0.004302005749195811
2806,00:00:11.224,-0.0040743832942098405
2807,00:00:11.228,-0.004098866600543254
2808,00:00:11.232,0.004164047102676703
2809,00:00:11.236,-0.0052246421109884995
2810,00:00:11.24,0.005943126641795981
2811,00:00:11.244,0.01936706318520013
2812,00:00:11.248,-0.004971785354427991
2813,00:00:11.252,-0.034288697410374866
2814,00:00:11.256,-0.0010417031589895478
2815,00:00:11.26,0.02344152331352238
2816,00:00:11.264,-0.005298989010043439
2817,00:00:11.268,-0.0067372164921835065
2818,00:00:11.272,0.03311990131624045
2819,00:00:11.276,0.01074481522664427
2820,00:00:11.28,-0.0477153919637204
2821,00:00:11.284,-0.00354536296799779
2822,00:00:11.288,0.014088630850892517
2823,00:00:11.292,-0.005436221465060957
2824,00:00:11.296,0.0017136554233729796
2825,00:00:11.3,0.02916452335193758
2826,00:00:11.304,-0.01179783791303634
2827,00:00:11.308,-0.00939979986287654
2828,00:00:11.312,-0.00814405782148242
2829,00:00:11.316,-0.00621399621013552
2830,00:00:11.32,0.008924338500946755
2831,00:00:11.324,-0.0127730849198997
2832,00:00:11.328,0.02003425266593694
2833,00:00:11.332,0.005939414259046319
2834,00:00:11.336,0.007689508609473721
2835,00:00:11.34,0.009714914369396858
2836,00:00:11.344,-0.010935354046523548
2837,00:00:11.348,-0.05166448745876556
2838,00:00:11.352,0.0018555014648882194
2839,00:00:11.356,0.01231632893905044
2840,00:00:11.36,0.04510028287768368
2841,00:00:11.364,0.02190813509514551
2842,00:00:11.368,-0.02672031159454491
2843,00:00:11.372,-0.02612913865596051
2844,00:00:11.376,-0.02631922601722184
2845,00:00:11.38,0.02646624390035864
2846,00:00:11.384,0.00895790383219717
2847,00:00:11.388,-0.010184300132095819
2848,00:00:11.392,0.017950675726751783
2849,00:00:11.396,0.0071568040875718
2850,00:00:11.4,-0.008867505472153429
2851,00:00:11.404,-0.02426217123866083
2852,00:00:11.408,0.017612487426959
2853,00:00:11.412,0.006457388866692809
2854,00:00:11.416,0.00033687963150441994
2855,00:00:11.42,-0.017061068676412088
2856,00:00:11.424,0.00452906487043948
2857,00:00:11.428,0.015204063860437624
2858,00:00:11.432,-0.007197502593044195
2859,00:00:11.436,-0.018273602472618222
2860,00:00:11.44,-0.002496521366992968
2861,00:00:11.444,0.020908503793179968
2862,00:00:11.448,0.017470467835664732
2863,00:00:11.452,0.016412357450462885
2864,00:00:11.456,-0.03791553294286134
2865,00:00:11.46,-0.011870709480717775
2866,00:00:11.464,-0.02904943376779561
2867,00:00:11.468,0.013561966887209571
2868,00:00:11.472,0.04585102526471028
2869,00:00:11.476,0.02494290005415678
2870,00:00:11.48,-0.020993957063183213
2871,00:00:11.484,-0.027868427336216
2872,00:00:11.488,-0.019471008796244825
2873,00:00:11.492,0.0104143623029813
2874,00:00:11.496,0.01531970128417015
2875,00:00:11.5,0.01724085293244572
2876,00:00:11.504,0.0012068018550053256
2877,00:00:11.508,-0.016590794548392285
2878,00:00:11.512,-0.0392650077119469
2879,00:00:11.516,0.01730114384554328
2880,00:00:11.52,0.03857103642076257
2881,00:00:11.524,0.01653011376038194
2882,00:00:11.528,-0.01432027239934544
2883,00:00:11.532,-0.029801425313053166
2884,00:00:11.536,-0.01643655868247151
2885,00:00:11.54,-0.006692636539810299
2886,00:00:11.544,0.02626803191378714
2887,00:00:11.548,0.034363782033324256
2888,00:00:11.552,0.006483623525127769
2889,00:00:11.556,-0.04518149141222237
2890,00:00:11.56,-0.0021827422315254903
2891,00:00:11.564,0.0170181091525592
2892,00:00:11.568,-0.011856083059683439
2893,00:00:11.572,0.006733852671459322
2894,00:00:11.576,0.003565871156752106
2895,00:00:11.58,-0.010388292164861925
2896,00:00:11.584,0.02465031668543815
2897,00:00:11.588,-0.01565280277282
2898,00:00:11.592,-0.015484979492612221
2899,00:00:11.596,-0.013371612963965163
2900,00:00:11.6,0.041682378388941274
2901,00:00:11.604,0.018999309744685847
2902,00:00:11.608,-0.029669093666598166
2903,00:00:11.612,-0.01364899706095456
2904,00:00:11.616,-0.01168030663393433
2905,00:00:11.62,0.01908789423760024
2906,00:00:11.624,0.02477857796475292
2907,00:00:11.628,-0.022878026124089998
2908,00:00:11.632,-0.013753464874753263
2909,00:00:11.636,0.018383459653705372
2910,00:00:11.64,0.00861149840056897
2911,00:00:11.644,-0.007361070835031559
2912,00:00:11.648,-0.0230470155365765
2913,00:00:11.652,0.016332517610862834
2914,00:00:11.656,0.01088770886417478
2915,00:00:11.66,-0.016539147589355707
2916,00:00:11.664,-0.0028292115312069667
2917,00:00:11.668,0.02273140638135368
2918,00:00:11.672,0.0021108493674546498
2919,00:00:11.676,-0.014744749641977289
2920,00:00:11.68,-0.007629169500432909
2921,00:00:11.684,-0.004343017455539669
2922,00:00:11.688,0.009946478821802877
2923,00:00:11.692,0.016042339266277843
2924,00:00:11.696,-0.027291594538837644
2925,00:00:11.7,0.01631399872712791
2926,00:00:11.704,0.003590872933273208
2927,00:00:11.708,-0.0087938274955377
2928,00:00:11.712,0.006262111535761467
2929,00:00:11.716,-0.003527452237904079
2930,00:00:11.72,-0.005354774650186288
2931,00:00:11.724,-0.006717298878356821
2932,00:00:11.728,0.017427408369258074
2933,00:00:11.732,0.046420529484748826
2934,00:00:11.736,-0.0370466120075435
2935,00:00:11.74,-0.07421002909541131
2936,00:00:11.744,0.006292953155934811
2937,00:00:11.748,0.05012081284075977
2938,00:00:11.752,0.02958725497592245
2939,00:00:11.756,-0.00040328211616724946
2940,00:00:11.76,-0.019007376569788896
2941,00:00:11.764,0.0011920334654860155
2942,00:00:11.768,-0.0020506043219938896
2943,00:00:11.772,-0.00045714621955994495
2944,00:00:11.776,-0.01240606303326786
2945,00:00:11.78,-0.013877316996513381
2946,00:00:11.784,-0.0015130204847082459
2947,00:00:11.788,0.02319187724788211
2948,00:00:11.792,0.02238623902667313
2949,00:00:11.796,-0.0335791232064366
2950,00:00:11.8,-0.021091958624310743
2951,00:00:11.804,0.03310285881161685
2952,00:00:11.808,0.02761439327150584
2953,00:00:11.812,-0.01856043818406763
2954,00:00:11.816,-0.00415443978272379
2955,00:00:11.82,0.009709537553135295
2956,00:00:11.824,-0.03628531761933124
2957,00:00:11.828,-0.00998490350320935
2958,00:00:11.832,0.015081127174198631
2959,00:00:11.836,0.032067194697447114
2960,00:00:11.84,-0.00664003379642963
2961,00:00:11.844,-0.00765291927382351
2962,00:00:11.848,-0.015630177629645914
2963,00:00:11.852,0.02040314022451639
2964,00:00:11.856,0.00526992417871953
2965,00:00:11.86,-0.008944342145696279
2966,00:00:11.864,-0.026611432433128388
2967,00:00:11.868,-0.007539543323218821
2968,00:00:11.872,0.02380045526660977
2969,00:00:11.876,0.0263886660686694
2970,00:00:11.88,0.00782404444180429
2971,00:00:11.884,-0.015036073047667731
2972,00:00:11.888,-0.0173176438547671
2973,00:00:11.892,-0.01343630277551713
2974,00:00:11.896,-0.01049834908917546
2975,00:00:11.9,0.024884448939701504
2976,00:00:11.904,0.020560590084642213
2977,00:00:11.908,0.00021826033480465976
2978,00:00:11.912,-0.022795438882894807
2979,00:00:11.916,-0.00937606731895358
2980,00:00:11.92,0.022317550145089633
2981,00:00:11.924,0.0015276799676939888
2982,00:00:11.928,-0.015324205509386957
2983,00:00:11.932,-0.01965845329686998
2984,00:00:11.936,0.02357619244139646
2985,00:00:11.94,0.03079297719523312
2986,00:00:11.944,-0.02069491054862737
2987,00:00:11.948,-0.01787220709957187
2988,00:00:11.952,0.01211648341268305
2989,00:00:11.956,-0.00402684765867889
2990,00:00:11.96,-0.01691399287665266
2991,00:00:11.964,0.0136648183688521
2992,00:00:11.968,0.00042634498095140197
2993,00:00:11.972,0.006593106023501572
2994,00:00:11.976,0.01318451948463918
2995,00:00:11.98,-0.011511148564750356
2996,00:00:11.984,0.0008315078448504201
2997,00:00:11.988,0.011594439274631439
2998,00:00:11.992,-0.021736879192758334
2999,00:00:11.996,-0.007667729165405031
3000,00:00:12,-0.00822500209324062
3001,00:00:12.004,0.02025529043748974
3002,00:00:12.008,0.0057593795063439765
3003,00:00:12.012,-0.0060249411544646145
3004,00:00:12.016,0.01681620185263457
3005,00:00:12.02,0.0017148556071333618
3006,00:00:12.024,-0.02670435700565577
3007,00:00:12.028,-0.00654438923811545
3008,00:00:12.032,-0.0024584287893958433
3009,00:00:12.036,0.02533697918988768
3010,00:00:12.04,0.005005177066777832
3011,00:00:12.044,-0.004262029891833672
3012,00:00:12.048,0.004275390645489094
3013,00:00:12.052,0.0026568339671939507
3014,00:00:12.056,-0.03963845688849687
3015,00:00:12.06,0.0029249060899019293
3016,00:00:12.064,0.007860435289330826
3017,00:00:12.068,0.03539571654982865
3018,00:00:12.072,-0.0008896011859178504
3019,00:00:12.076,-0.02388437837362292
3020,00:00:12.08,0.00428313179872929
3021,00:00:12.084,-0.012791158806066983
3022,00:00:12.088,0.00338515127077698
3023,00:00:12.092,0.014155527343973531
3024,00:00:12.096,0.008037508378038178
3025,00:00:12.1,-0.00942598981782794
3026,00:00:12.104,-0.01932986825704576
3027,00:00:12.108,0.007099667564034459
3028,00:00:12.112,0.00849826284684241
3029,00:00:12.116,0.015357851050794121
3030,00:00:12.12,0.0010738220007624494
3031,00:00:12.124,-0.01414442807435989
3032,00:00:12.128,-0.02420514752157038
3033,00:00:12.132,0.006423871731385578
3034,00:00:12.136,0.00501515367068351
3035,00:00:12.14,-0.0061802284908480925
3036,00:00:12.144,0.02160551887936888
3037,00:00:12.148,0.033808093518018716
3038,00:00:12.152,0.005281516001559792
3039,00:00:12.156,-0.039957132888957816
3040,00:00:12.16,-0.013997360365465318
3041,00:00:12.164,-0.01352088717976585
3042,00:00:12.168,-0.05048175761476165
3043,00:00:12.172,0.05488274339586499
3044,00:00:12.176,0.04305430589010934
3045,00:00:12.18,0.01581641996745017
3046,00:00:12.184,0.002691401168704029
3047,00:00:12.188,-0.02829369041137396
3048,00:00:12.192,-0.03752564114984123
3049,00:00:12.196,-0.0039754803292453254
3050,00:00:12.2,0.01149317597446502
3051,00:00:12.204,-0.0009986241057049453
3052,00:00:12.208,0.0076782035175711
3053,00:00:12.212,0.01255300152115524
3054,00:00:12.216,0.03833802882581949
3055,00:00:12.22,0.013807783718220864
3056,00:00:12.224,-0.039743083063513006
3057,00:00:12.228,-0.06604161299765106
3058,00:00:12.232,-0.008582745809690095
3059,00:00:12.236,0.03169903112575411
3060,00:00:12.24,0.023920609797642076
3061,00:00:12.244,0.02788522117771211
3062,00:00:12.248,0.01823828206397594
3063,00:00:12.252,-0.0015328816371038597
3064,00:00:12.256,-0.045047467807307826
3065,00:00:12.26,-0.029034632490947856
3066,00:00:12.264,-0.0029412127914838536
3067,00:00:12.268,0.01863305631559345
3068,00:00:12.272,0.02264740783721212
3069,00:00:12.276,0.019822057685814836
3070,00:00:12.28,-0.011051075765863061
3071,00:00:12.284,-0.00028694886714220047
3072,00:00:12.288,-0.01752544520422818
3073,00:00:12.292,-0.0009603642392903506
3074,00:00:12.296,-0.028656018199399145
3075,00:00:12.3,0.012426315573975453
3076,00:00:12.304,0.03204564660700275
3077,00:00:12.308,-0.006524763302877542
3078,00:00:12.312,0.01998942393402104
3079,00:00:12.316,-0.00040291359619005086
3080,00:00:12.32,-0.01790567417629065
3081,00:00:12.324,-0.04226968437433242
3082,00:00:12.328,0.0036435482325032293
3083,00:00:12.332,0.02984246751293539
3084,00:00:12.336,0.0257786476286128
3085,00:00:12.34,-0.014499420940410353
3086,00:00:12.344,-0.01071774819865823
3087,00:00:12.348,-0.0018423680448904599
3088,00:00:12.352,0.01783266139682384
3089,00:00:12.356,-0.02675273903878408
3090,00:00:12.36,-0.01709782402031127
3091,00:00:12.364,0.03259686985984442
3092,00:00:12.368,0.0023288652300834586
3093,00:00:12.372,0.011682640761137056
3094,00:00:12.376,0.00588234560564161
3095,00:00:12.38,-0.01608929748181253
3096,00:00:12.384,-0.02042649826034901
3097,00:00:12.388,-0.017447415157221216
3098,00:00:12.392,0.027958353050053092
3099,00:00:12.396,0.004963773302733899
3100,00:00:12.4,-0.008695930009707808
3101,00:00:12.404,0.013824556939653121
3102,00:00:12.408,0.00924821523949505
3103,00:00:12.412,-0.022278672549873608
3104,00:00:12.416,0.015718178940005607
3105,00:00:12.42,-0.02306789020076392
3106,00:00:12.424,0.008937790906202291
3107,00:00:12.428,0.005449923803098499
3108,00:00:12.432,0.005719778244383582
3109,00:00:12.436,-0.000745024444768201
3110,00:00:12.44,-0.011049186810851097
3111,00:00:12.444,0.0115577292162925
3112,00:00:12.448,-0.013357150601223151
3113,00:00:12.452,-0.019830764445941864
3114,00:00:12.456,0.011084205470979209
3115,00:00:12.46,0.01404327107593416
3116,00:00:12.464,0.025730633526109138
3117,00:00:12.468,0.015292278490960551
