,Elapsed Time,EMG
0,00:00:00,-2.6985141523182383
1,00:00:00.004,2.5658433772623566
2,00:00:00.008,2.1387068629264867
3,00:00:00.012,0.21113468334078844
4,00:00:00.016,-1.0771669670939432
5,00:00:00.02,-1.3054576180875317
6,00:00:00.024,-0.8377450201660398
7,00:00:00.028,-0.14491650741547318
8,00:00:00.032,0.4163191383704539
9,00:00:00.036,0.5240173973143099
10,00:00:00.04,0.3803542926907544
11,00:00:00.044,0.18580064596608276
12,00:00:00.048,-0.060232844203710625
13,00:00:00.052,-0.1747107952833178
14,00:00:00.056,-0.16410288214683552
15,00:00:00.06,-0.07558372558560225
16,00:00:00.064,0.029026699485257258
17,00:00:00.068,0.06213585054501894
18,00:00:00.072,0.017605237895622884
19,00:00:00.076,0.0186353088356555
20,00:00:00.08,0.004875557729974389
21,00:00:00.084,-6.020298314979018e-05
22,00:00:00.088,-0.0051434333436191325
23,00:00:00.092,0.01584538153838369
24,00:00:00.096,-0.04801696276990693
25,00:00:00.1,-0.002859646541764959
26,00:00:00.104,0.0313054463476874
27,00:00:00.108,0.006902269553393171
28,00:00:00.112,-0.006221461109817021
29,00:00:00.116,-0.02341890265233812
30,00:00:00.12,0.01873600803082806
31,00:00:00.124,-0.00937244994565848
32,00:00:00.128,0.00559302547480906
33,00:00:00.132,0.02985615283250808
34,00:00:00.136,-0.04612727183848621
35,00:00:00.14,-0.0047878744080662805
36,00:00:00.144,0.03757563070394103
37,00:00:00.148,-0.024811847135424663
38,00:00:00.152,-0.0076865444425493895
39,00:00:00.156,0.016392801189795116
40,00:00:00.16,0.03582881239708517
41,00:00:00.164,-0.03427556715905661
42,00:00:00.168,-0.014419783954508613
43,00:00:00.172,0.01587474136613309
44,00:00:00.176,0.010933112353086473
45,00:00:00.18,-0.013611724367365245
46,00:00:00.184,-0.01294099865481257
47,00:00:00.188,0.0008741496130824002
48,00:00:00.192,-0.01552580855786802
49,00:00:00.196,0.04543662257492541
50,00:00:00.2,0.018190634436905405
51,00:00:00.204,-0.03585245949216183
52,00:00:00.208,-0.02160443540196864
53,00:00:00.212,0.01964919082820414
54,00:00:00.216,0.02053136937320235
55,00:00:00.22,-0.05198350455611951
56,00:00:00.224,0.05036336462944738
57,00:00:00.228,-0.003497424535453342
58,00:00:00.232,-0.020829181885346784
59,00:00:00.236,-0.004503804724663489
60,00:00:00.24,-0.0051404514815658504
61,00:00:00.244,0.06080796744208787
62,00:00:00.248,-0.022438304498791688
63,00:00:00.252,-0.04099155543372033
64,00:00:00.256,-0.013066881481790884
65,00:00:00.26,0.01901610428467393
66,00:00:00.264,0.006915006786584889
67,00:00:00.268,0.026209322619251907
68,00:00:00.272,-0.023404717911034868
69,00:00:00.276,0.008405678963754337
70,00:00:00.28,0.013496319996193041
71,00:00:00.284,-0.01997861824929717
72,00:00:00.288,0.03936334024183456
73,00:00:00.292,-0.039181201136671
74,00:00:00.296,-0.0435441141016781
75,00:00:00.3,0.02470120147336272
76,00:00:00.304,0.00984943844377989
77,00:00:00.308,0.03087694710120553
78,00:00:00.312,0.0037438005674630594
79,00:00:00.316,-0.01983665631269102
80,00:00:00.32,-0.020514647825621082
81,00:00:00.324,-0.004548051278106849
82,00:00:00.328,0.03736276109702881
83,00:00:00.332,-0.00533300638198852
84,00:00:00.336,-0.005867420302820394
85,00:00:00.34,0.0006513327825814505
86,00:00:00.344,-0.026012915186584037
87,00:00:00.348,0.018430866737617166
88,00:00:00.352,-0.014767054002731955
89,00:00:00.356,0.0170794416917488
90,00:00:00.36,0.0011499968823045492
91,00:00:00.364,0.033721516359946704
92,00:00:00.368,0.005461251363158232
93,00:00:00.372,-0.04811867605894805
94,00:00:00.376,-0.03049638390075411
95,00:00:00.38,0.001078921603038921
96,00:00:00.384,0.02208452066406614
97,00:00:00.388,0.023649611743167022
98,00:00:00.392,0.020931889535859238
99,00:00:00.396,-0.027134379954077307
100,00:00:00.4,-0.007961168186739122
101,00:00:00.404,-0.004962650127708921
102,00:00:00.408,0.01372242509387437
103,00:00:00.412,0.00968366488814351
104,00:00:00.416,-0.006196660455316319
105,00:00:00.42,0.005771375785116105
106,00:00:00.424,-0.0104349326575175
107,00:00:00.428,-0.025673491851193872
108,00:00:00.432,-0.01973568554967645
109,00:00:00.436,0.041525282431393855
110,00:00:00.44,0.0196640007197857
111,00:00:00.444,0.00985952001065011
112,00:00:00.448,-0.0203706519678235
113,00:00:00.452,-0.03128642239607871
114,00:00:00.456,0.06366351712495094
115,00:00:00.46,-0.0035717180871870317
116,00:00:00.464,-0.10277680493891232
117,00:00:00.468,0.013970168773084931
118,00:00:00.472,0.057275208993814886
119,00:00:00.476,0.04485831689089529
120,00:00:00.48,-0.041031072847545105
121,00:00:00.484,-0.01782765705138443
122,00:00:00.488,0.004335865844041109
123,00:00:00.492,-0.006673941912595184
124,00:00:00.496,-0.0011417559580877597
125,00:00:00.5,0.019844877533614663
126,00:00:00.504,0.0016718496917746918
127,00:00:00.508,0.006299889777437778
128,00:00:00.512,0.01512434938922522
129,00:00:00.516,-0.03589775320142512
130,00:00:00.52,-0.030254493251959454
131,00:00:00.524,0.006844015850219875
132,00:00:00.528,0.016828541614813706
133,00:00:00.532,0.036133484391029876
134,00:00:00.536,-0.001610233710380245
135,00:00:00.54,-0.02021839050576091
136,00:00:00.544,-0.01031747425440696
137,00:00:00.548,0.0038583460263908517
138,00:00:00.552,0.02167725237086416
139,00:00:00.556,0.006977537763304991
140,00:00:00.56,-0.04201236693188553
141,00:00:00.564,-0.034713033121079186
142,00:00:00.568,0.048316622618585825
143,00:00:00.572,0.023249758873134872
144,00:00:00.576,-0.00694676954299216
145,00:00:00.58,-0.02090224460698661
146,00:00:00.584,0.03370208421256393
147,00:00:00.588,-0.002677557291463013
148,00:00:00.592,-0.03317799372598527
149,00:00:00.596,-0.017301628133282072
150,00:00:00.6,-0.0037003351608291303
151,00:00:00.604,0.031891415710560964
152,00:00:00.608,0.01315413741394877
153,00:00:00.612,-0.0012725838460027712
154,00:00:00.616,-0.02422705444041634
155,00:00:00.62,0.041841287631541574
156,00:00:00.624,-0.0010976929042954033
157,00:00:00.628,-0.012992861971724758
158,00:00:00.632,-0.038482984527945574
159,00:00:00.636,-0.015599697828292871
160,00:00:00.64,-0.010538340808125216
161,00:00:00.644,0.04724563751369725
162,00:00:00.648,0.04469955712556832
163,00:00:00.652,-0.014100113417953251
164,00:00:00.656,-0.01888475404120986
165,00:00:00.66,-0.02132470533251766
166,00:00:00.664,-0.005060511641204352
167,00:00:00.668,0.01599013607483358
168,00:00:00.672,-0.0011849717702716602
169,00:00:00.676,0.00018328952137381012
170,00:00:00.68,0.007432489246639301
171,00:00:00.684,-0.013055028626695279
172,00:00:00.688,-0.00276741793641122
173,00:00:00.692,0.00963668269105256
174,00:00:00.696,-0.0029630086792167267
175,00:00:00.7,0.011023899307474532
176,00:00:00.704,0.02348839130718261
177,00:00:00.708,-0.01521731773391366
178,00:00:00.712,-0.01974879438057545
179,00:00:00.716,-0.04116682894527911
180,00:00:00.72,0.03460917132906613
181,00:00:00.724,-0.01203928468748932
182,00:00:00.728,0.06050314975436773
183,00:00:00.732,-0.0019842438632622795
184,00:00:00.736,-0.04021719587035476
185,00:00:00.74,-0.01942182407947253
186,00:00:00.744,-0.006368458853103239
187,00:00:00.748,0.04548974140197966
188,00:00:00.752,-0.01293084491044278
189,00:00:00.756,-0.02136097743641587
190,00:00:00.76,0.03102218778803941
191,00:00:00.764,0.001673326361924389
192,00:00:00.768,-0.008521911135176242
193,00:00:00.772,-0.014210119959898314
194,00:00:00.776,-0.0037334706867113987
195,00:00:00.78,0.04069706669542939
196,00:00:00.784,-0.03184859501197937
197,00:00:00.788,-0.014621221227571372
198,00:00:00.792,0.019527295604348155
199,00:00:00.796,-0.002789685444440694
200,00:00:00.8,-0.024016496026888497
201,00:00:00.804,0.05202664621174338
202,00:00:00.808,0.00489719223696739
203,00:00:00.812,-0.046092832693830146
204,00:00:00.816,0.00478351197671148
205,00:00:00.82,0.00033817999064923027
206,00:00:00.824,-0.005387405399233103
207,00:00:00.828,0.02098754281178121
208,00:00:00.832,0.0006534317508339604
209,00:00:00.836,0.0061670170398429
210,00:00:00.84,-0.012955683429026931
211,00:00:00.844,-0.01731548551470041
212,00:00:00.848,0.022192835807800293
213,00:00:00.852,-2.297328319400896e-05
214,00:00:00.856,-0.0278544644825161
215,00:00:00.86,0.0290550040081143
216,00:00:00.864,0.02069498132914308
217,00:00:00.868,-0.0391403627581894
218,00:00:00.872,-0.006781970034353468
219,00:00:00.876,0.051880584156606416
220,00:00:00.88,-0.03498248336836693
221,00:00:00.884,-0.007528268732130559
222,00:00:00.888,0.01369201811030512
223,00:00:00.892,-0.021352171464968706
224,00:00:00.896,0.03562543634325265
225,00:00:00.9,-0.03167789895087482
226,00:00:00.904,-0.0057842213427648
227,00:00:00.908,0.05019683265709321
228,00:00:00.912,-0.013562659732997404
229,00:00:00.916,-0.020950497128069387
230,00:00:00.92,-0.01733751758001743
231,00:00:00.924,-0.005846560932695879
232,00:00:00.928,0.01987982052378355
233,00:00:00.932,0.032379926182329655
234,00:00:00.936,-0.02032199647510427
235,00:00:00.94,-0.0060600774595513905
236,00:00:00.944,0.029050876153632936
237,00:00:00.948,-0.026299382559955085
238,00:00:00.952,-0.032638788747135536
239,00:00:00.956,0.017563940491527312
240,00:00:00.96,0.02186969458125528
241,00:00:00.964,-0.02830803627148266
242,00:00:00.968,0.03394319745711985
243,00:00:00.972,0.02437318884767591
244,00:00:00.976,-0.03761933883652092
245,00:00:00.98,-0.025238357950001983
246,00:00:00.984,-0.0010229516774415345
247,00:00:00.988,0.015895442105829712
248,00:00:00.992,0.03210512502118947
249,00:00:00.996,-0.019110855180770183
250,00:00:01,0.026386709883809062
251,00:00:01.004,-0.04133199853822592
252,00:00:01.008,-0.0009117145091295607
253,00:00:01.012,-0.006369315029587604
254,00:00:01.016,0.008863938273862013
255,00:00:01.02,0.01801078487187619
256,00:00:01.024,0.0053252768993843624
257,00:00:01.028,0.004192499793134631
258,00:00:01.032,-0.013204334070906038
259,00:00:01.036,-0.02467122324742373
260,00:00:01.04,0.005423207767307752
261,00:00:01.044,0.016603387659415582
262,00:00:01.048,-0.0018462062580511
263,00:00:01.052,0.004267115611582989
264,00:00:01.056,0.014039180707186422
265,00:00:01.06,-0.036702499142848004
266,00:00:01.064,0.03331763367168605
267,00:00:01.068,-0.005263203231152144
268,00:00:01.072,-0.03005895996466281
269,00:00:01.076,0.006008270836900961
270,00:00:01.08,-0.0010335720144212194
271,00:00:01.084,0.00965777365490794
272,00:00:01.088,0.03034585365094241
273,00:00:01.092,0.0074846064671874775
274,00:00:01.096,-0.012108602211810628
275,00:00:01.1,-0.03894975373987107
276,00:00:01.104,0.014953780453652157
277,00:00:01.108,-0.022259381483309002
278,00:00:01.112,-0.006533166881126816
279,00:00:01.116,0.0257618544856087
280,00:00:01.12,0.022583814337849627
281,00:00:01.124,0.01116253531654366
282,00:00:01.128,0.008515475783497074
283,00:00:01.132,-0.03035340126371009
284,00:00:01.136,-0.04096257733181126
285,00:00:01.14,0.016629699966870245
286,00:00:01.144,0.024439828470349312
287,00:00:01.148,-0.018998627550899982
288,00:00:01.152,0.01543152285739785
289,00:00:01.156,0.017109187319874722
290,00:00:01.16,-0.01353450492024417
291,00:00:01.164,0.01968970289453866
292,00:00:01.168,-0.01679527037777007
293,00:00:01.172,-0.046146415639668696
294,00:00:01.176,0.013793067075312138
295,00:00:01.18,0.04146535834297533
296,00:00:01.184,0.0007290062494576003
297,00:00:01.188,-0.010265231132507312
298,00:00:01.192,-0.02080296573694795
299,00:00:01.196,-0.00991410179994998
300,00:00:01.2,0.01195446634665132
301,00:00:01.204,0.025746000930666868
302,00:00:01.208,0.0007932148873805973
303,00:00:01.212,0.02298718690872191
304,00:00:01.216,-0.04581990011502063
305,00:00:01.22,-0.02064488176256416
306,00:00:01.224,0.02884651185013351
307,00:00:01.228,-0.026872772257775047
308,00:00:01.232,0.02908544242382053
309,00:00:01.236,0.022269450128078485
310,00:00:01.24,-0.04108050791546707
311,00:00:01.244,-0.013761446694843511
312,00:00:01.248,0.05483979918062692
313,00:00:01.252,0.013345175888389401
314,00:00:01.256,-0.03335780650377271
315,00:00:01.26,-0.017051248461939443
316,00:00:01.264,-0.0138606838881969
317,00:00:01.268,0.010443065431900312
318,00:00:01.272,0.015137352747842642
319,00:00:01.276,0.011476677143946318
320,00:00:01.28,0.018079944769851884
321,00:00:01.284,-0.03175563021795822
322,00:00:01.288,-0.02493598824366923
323,00:00:01.292,0.03664977103471758
324,00:00:01.296,-0.022471379488706592
325,00:00:01.3,0.02889867778867484
326,00:00:01.304,-0.006534046726301404
327,00:00:01.308,-0.020517318218480803
328,00:00:01.312,-0.00027116833007312553
329,00:00:01.316,0.022087807999923794
330,00:00:01.32,-0.006813215557485819
331,00:00:01.324,-0.025162464706227152
332,00:00:01.328,0.026066848397022127
333,00:00:01.332,0.0001652833889238558
334,00:00:01.336,0.022796601988375256
335,00:00:01.34,-0.05652139149606228
336,00:00:01.344,0.036131325177848395
337,00:00:01.348,-0.01372704375535251
338,00:00:01.352,0.005489333998411831
339,00:00:01.356,0.02449703356251116
340,00:00:01.36,-0.008641442633233961
341,00:00:01.364,-0.03803469520062205
342,00:00:01.368,-0.0207161959260702
343,00:00:01.372,0.03631163015961645
344,00:00:01.376,0.03824624512344597
345,00:00:01.38,0.00441598473116756
346,00:00:01.384,-0.030256107449531517
347,00:00:01.388,-0.02628388861194256
348,00:00:01.392,0.0003044316545128987
349,00:00:01.396,0.01439889799803493
350,00:00:01.4,0.028958753682672943
351,00:00:01.404,-0.023699058161582756
352,00:00:01.408,0.015210114186629663
353,00:00:01.412,-0.0165247796103358
354,00:00:01.416,-0.01987026957795026
355,00:00:01.42,0.0192851135507227
356,00:00:01.424,0.019652184331789557
357,00:00:01.428,-0.01901381323114037
358,00:00:01.432,-0.0055424359161406755
359,00:00:01.436,-0.00293637078721077
360,00:00:01.44,0.01163751096464694
361,00:00:01.444,0.03156507597304877
362,00:00:01.448,-0.01438982109539211
363,00:00:01.452,-0.040755787398666116
364,00:00:01.456,-0.006830502621596714
365,00:00:01.46,0.02697415975853798
366,00:00:01.464,0.03783995809499172
367,00:00:01.468,-0.032344768056646045
368,00:00:01.472,-0.006002290872856961
369,00:00:01.476,0.02558965398930013
370,00:00:01.48,-0.043621840653941056
371,00:00:01.484,0.008381924126297229
372,00:00:01.488,-0.012449805100914096
373,00:00:01.492,-0.00786444800905883
374,00:00:01.496,0.060638485476374626
375,00:00:01.5,0.00953178224153809
376,00:00:01.504,-0.01571688661351803
377,00:00:01.508,0.009110583050642117
378,00:00:01.512,-0.04217619867995385
379,00:00:01.516,-0.04199785646051165
380,00:00:01.52,0.023682999802986132
381,00:00:01.524,0.03561709774658081
382,00:00:01.528,0.012410762712534013
383,00:00:01.532,-0.0015856246463955299
384,00:00:01.536,-0.005507860536454268
385,00:00:01.54,-0.0012655201135203257
386,00:00:01.544,0.0026013192255049922
387,00:00:01.548,-0.02342656915425325
388,00:00:01.552,-0.01983037567697466
389,00:00:01.556,0.0213345389347524
390,00:00:01.56,0.00758215866517275
391,00:00:01.564,0.0136250734794885
392,00:00:01.568,0.02287019765935837
393,00:00:01.572,-0.035321650560945286
394,00:00:01.576,-0.011402219068259
395,00:00:01.58,-0.004474336747080089
396,00:00:01.584,0.0040201761876233096
397,00:00:01.588,0.041266228305175845
398,00:00:01.592,-0.0182843132643029
399,00:00:01.596,-0.01838800124824048
400,00:00:01.6,-0.001292049724725075
401,00:00:01.604,0.005252444185316609
402,00:00:01.608,0.01153784245252606
403,00:00:01.612,-0.005387223558500414
404,00:00:01.616,-0.015550857409834879
405,00:00:01.62,0.013388979248702537
406,00:00:01.624,0.01919607527088374
407,00:00:01.628,-0.015478726127184962
408,00:00:01.632,-0.01717374380677936
409,00:00:01.636,0.01073815487325189
410,00:00:01.64,0.00785071181599051
411,00:00:01.644,0.005662602605298157
412,00:00:01.648,-0.004651348455809045
413,00:00:01.652,-0.006925275883986575
414,00:00:01.656,0.0019295052625238392
415,00:00:01.66,-0.016738713497034048
416,00:00:01.664,0.005095586646348239
417,00:00:01.668,0.0021729457657784206
418,00:00:01.672,0.01700321503449233
419,00:00:01.676,0.016260557458736037
420,00:00:01.68,-0.0198126039467752
421,00:00:01.684,-0.03468106500804426
422,00:00:01.688,0.036131589207798256
423,00:00:01.692,0.03928806586191054
424,00:00:01.696,-0.07909682998433706
425,00:00:01.7,0.01641277689486748
426,00:00:01.704,0.03506803279742603
427,00:00:01.708,-0.01715452596545223
428,00:00:01.712,-0.003817208198597652
429,00:00:01.716,0.011689159378875054
430,00:00:01.72,-0.026505496469326352
431,00:00:01.724,0.02516274974914265
432,00:00:01.728,0.010371976706665002
433,00:00:01.732,-0.039073568885214544
434,00:00:01.736,0.013296083314344289
435,00:00:01.74,0.012668455019593187
436,00:00:01.744,0.00896276999264956
437,00:00:01.748,-0.008106683915684695
438,00:00:01.752,-0.008345484442543242
439,00:00:01.756,-0.00927411532029506
440,00:00:01.76,0.0013050048146396901
441,00:00:01.764,0.01636753138154747
442,00:00:01.768,0.02081457199528809
443,00:00:01.772,-0.0060245089698582905
444,00:00:01.776,-0.027662892360240193
445,00:00:01.78,-0.039740927983075436
446,00:00:01.784,0.05342362681403754
447,00:00:01.788,-0.010514016699744347
448,00:00:01.792,0.010375320678576782
449,00:00:01.796,0.02122626360505819
450,00:00:01.8,-0.009572815029969173
451,00:00:01.804,-0.03882167956908231
452,00:00:01.808,0.01147282985039055
453,00:00:01.812,0.012064560316503012
454,00:00:01.816,-0.008926351089030511
455,00:00:01.82,-0.02434038277715449
456,00:00:01.824,0.028481033397838442
457,00:00:01.828,0.03232377534732227
458,00:00:01.832,-0.0061893435195088786
459,00:00:01.836,-0.01766091003082689
460,00:00:01.84,-0.01569074112921955
461,00:00:01.844,0.003742246888577939
462,00:00:01.848,-0.007575702620670201
463,00:00:01.852,0.01330524845980106
464,00:00:01.856,0.000534317921847112
465,00:00:01.86,0.01376014319248501
466,00:00:01.864,-0.01951159734744582
467,00:00:01.868,-0.004371269256807869
468,00:00:01.872,0.0065415247020154995
469,00:00:01.876,0.002296188846230538
470,00:00:01.88,0.02086537750437853
471,00:00:01.884,-0.0222195473033935
472,00:00:01.888,0.02700761053711174
473,00:00:01.892,-0.02473203325644143
474,00:00:01.896,-0.03335348260588943
475,00:00:01.9,-0.0007880586199462388
476,00:00:01.904,0.041059559443965526
477,00:00:01.908,0.0025196466594934507
478,00:00:01.912,-0.004412881331518291
479,00:00:01.916,0.020626224853913314
480,00:00:01.92,0.0033515794202685096
481,00:00:01.924,-0.05359035567380491
482,00:00:01.928,0.010789107764139789
483,00:00:01.932,0.00031340180430556967
484,00:00:01.936,0.021429366664961008
485,00:00:01.94,-0.00968350423499942
486,00:00:01.944,0.0017939560348167998
487,00:00:01.948,-0.00743156298995017
488,00:00:01.952,-0.01231921644648536
489,00:00:01.956,0.05548070115037263
490,00:00:01.96,-0.00879249116405845
491,00:00:01.964,-0.033368638018146206
492,00:00:01.968,-0.005049960105679893
493,00:00:01.972,-0.0004358079750091011
494,00:00:01.976,0.006290662102401298
495,00:00:01.98,-0.00455088098533446
496,00:00:01.984,0.010552634485065878
497,00:00:01.988,0.01006780844181776
498,00:00:01.992,0.0009495647391304348
499,00:00:01.996,-0.011893154121935371
500,00:00:02,-0.0030166571377776502
501,00:00:02.004,0.01099102152511481
502,00:00:02.008,-0.02910367399454115
503,00:00:02.012,0.029363160370849142
504,00:00:02.016,-0.0038754446431994403
505,00:00:02.02,-0.005282860132865623
506,00:00:02.024,-0.0059372587129474415
507,00:00:02.028,-0.0010277007240802002
508,00:00:02.032,0.01973728253506124
509,00:00:02.036,-0.003142941743135428
510,00:00:02.04,-0.0033723050728440207
511,00:00:02.044,-0.010449978522956368
512,00:00:02.048,-0.00987390382215381
513,00:00:02.052,0.023781343683367623
514,00:00:02.056,0.0051965089514851605
515,00:00:02.06,0.0061618462787009914
516,00:00:02.064,-0.020632662752177604
517,00:00:02.068,-0.021541534821153632
518,00:00:02.072,-0.014442312996834522
519,00:00:02.076,0.04918217379599812
520,00:00:02.08,-0.00926489010453227
521,00:00:02.084,0.006521978415548781
522,00:00:02.088,-0.0018448902992531599
523,00:00:02.092,-0.01291047898121181
524,00:00:02.096,0.01856345846317707
525,00:00:02.1,0.007606798782944671
526,00:00:02.104,-0.04507316695526245
527,00:00:02.108,0.007448768941685559
528,00:00:02.112,0.006294675171375309
529,00:00:02.116,0.01480072387494143
530,00:00:02.12,0.001426848408300423
531,00:00:02.124,0.002440914977341821
532,00:00:02.128,-0.003482440894003954
533,00:00:02.132,-0.01038582203909752
534,00:00:02.136,0.042907685507088886
535,00:00:02.14,-0.0371789140626788
536,00:00:02.144,-0.03830478270538156
537,00:00:02.148,0.02287679398432373
538,00:00:02.152,-0.012816353235393749
539,00:00:02.156,0.05391782382503151
540,00:00:02.16,0.03037112345919011
541,00:00:02.164,-0.05220926599577061
542,00:00:02.168,-0.03390019387006759
543,00:00:02.172,0.022623143799137352
544,00:00:02.176,-0.017027306836098433
545,00:00:02.18,0.007593450485728679
546,00:00:02.184,0.04417093330994246
547,00:00:02.188,-0.00415704445913434
548,00:00:02.192,-0.02148746029706672
549,00:00:02.196,-0.000721445539966163
550,00:00:02.2,-0.008335642633028332
551,00:00:02.204,-0.013329171109944582
552,00:00:02.208,0.011071856133639799
553,00:00:02.212,0.01381673477590084
554,00:00:02.216,0.027639430016279182
555,00:00:02.22,-0.01861035590991373
556,00:00:02.224,-0.007022151490673447
557,00:00:02.228,-0.04748381674289699
558,00:00:02.232,0.022013419424183688
559,00:00:02.236,0.00910816853865981
560,00:00:02.24,0.03321888623759149
561,00:00:02.244,0.02492827409878374
562,00:00:02.248,-0.03910374687984585
563,00:00:02.252,-0.03479508846066892
564,00:00:02.256,-0.0028047853265888963
565,00:00:02.26,-0.0004484828677959688
566,00:00:02.264,0.03821734338998794
567,00:00:02.268,0.01922409271355715
568,00:00:02.272,-0.01438495889306066
569,00:00:02.276,-0.00169841980095953
570,00:00:02.28,-0.02717343159019943
571,00:00:02.284,0.008407473971601558
572,00:00:02.288,-0.006893304060213221
573,00:00:02.292,0.036539852619171115
574,00:00:02.296,-0.035149315372109434
575,00:00:02.3,-0.03578262589871882
576,00:00:02.304,0.07698457362130286
577,00:00:02.308,0.05220767436549066
578,00:00:02.312,-0.09350469192577285
579,00:00:02.316,-0.04837668710388245
580,00:00:02.32,0.02702918299473824
581,00:00:02.324,0.049898914527148
582,00:00:02.328,0.020664295996539267
583,00:00:02.332,-0.03035860066302119
584,00:00:02.336,-0.02324632578529413
585,00:00:02.34,-0.009090910956729197
586,00:00:02.344,0.03715792065486313
587,00:00:02.348,0.010165657731704426
588,00:00:02.352,-0.024680508300662072
589,00:00:02.356,0.004583929403452204
590,00:00:02.36,-0.012669577321503284
591,00:00:02.364,0.007228846196085212
592,00:00:02.368,0.00969051639549434
593,00:00:02.372,0.00224656052887438
594,00:00:02.376,-0.02252777479588984
595,00:00:02.38,0.022771841846406512
596,00:00:02.384,0.00973917287774388
597,00:00:02.388,-0.03576208939193749
598,00:00:02.392,0.00016824170597829141
599,00:00:02.396,0.04177151806652554
600,00:00:02.4,-0.01666174549609421
601,00:00:02.404,-0.03357090987265108
602,00:00:02.408,0.023643355547392265
603,00:00:02.412,0.01076861633919177
604,00:00:02.416,-0.0289545697160065
605,00:00:02.42,0.026807467686012408
606,00:00:02.424,0.026370063656941008
607,00:00:02.428,-0.01320319983642547
608,00:00:02.432,-0.032143361633643494
609,00:00:02.436,-0.007815633085556328
610,00:00:02.44,-0.007975497283041501
611,00:00:02.444,0.043146845535375206
612,00:00:02.448,-0.010903780348599
613,00:00:02.452,0.009230002411641179
614,00:00:02.456,-0.023762502125464425
615,00:00:02.46,0.021825380623340655
616,00:00:02.464,-0.004583038855344102
617,00:00:02.468,-0.023726538289338357
618,00:00:02.472,0.00495512830093503
619,00:00:02.476,0.01832840638235212
620,00:00:02.48,-0.008225583238527182
621,00:00:02.484,0.029047473566606682
622,00:00:02.488,-0.017525927163660523
623,00:00:02.492,-0.01729335403069851
624,00:00:02.496,-0.018773378804326068
625,00:00:02.5,0.021524538169615012
626,00:00:02.504,0.01970117259770628
627,00:00:02.508,-0.007548084482550625
628,00:00:02.512,-0.01167524768970907
629,00:00:02.516,0.006718616932630541
630,00:00:02.52,-0.010598542634397742
631,00:00:02.524,0.024199461564421626
632,00:00:02.528,-0.01129813783336433
633,00:00:02.532,-0.004238412366248612
634,00:00:02.536,-0.01736165827605872
635,00:00:02.54,0.0017315912991761797
636,00:00:02.544,0.01708864234387871
637,00:00:02.548,0.006334051955491319
638,00:00:02.552,-0.0003274560440332374
639,00:00:02.556,-0.00749702588655057
640,00:00:02.56,-0.0016690951597411177
641,00:00:02.564,0.015526002753176681
642,00:00:02.568,-0.01453673088690267
643,00:00:02.572,-0.0067967926152050495
644,00:00:02.576,-0.0038419382181018595
645,00:00:02.58,0.01406341418623928
646,00:00:02.584,0.007570218527689581
647,00:00:02.588,-0.0270365390751977
648,00:00:02.592,0.04597445693798359
649,00:00:02.596,-0.034627915825694806
650,00:00:02.6,-0.02622613729909064
651,00:00:02.604,0.04751238063909117
652,00:00:02.608,-0.02244686277117583
653,00:00:02.612,0.02284151548519734
654,00:00:02.616,-0.01239321159664536
655,00:00:02.62,-0.02069864142686121
656,00:00:02.624,0.0054061409609858
657,00:00:02.628,0.02196118514984851
658,00:00:02.632,-0.010671971365809444
659,00:00:02.636,-0.0034581171348690588
660,00:00:02.64,0.03111910168081524
661,00:00:02.644,-0.0303872581571341
662,00:00:02.648,-0.0004650652408599914
663,00:00:02.652,0.0050903027877211605
664,00:00:02.656,-0.02074205328244717
665,00:00:02.66,0.02027510292828083
666,00:00:02.664,-0.007556382217444482
667,00:00:02.668,-0.011598722412600172
668,00:00:02.672,0.037814775947481345
669,00:00:02.676,0.0030569438822567506
670,00:00:02.68,-0.032025341643020525
671,00:00:02.684,-0.006903185974806551
672,00:00:02.688,0.004891727119684221
673,00:00:02.692,0.034637969452887725
674,00:00:02.696,0.0026366822421550265
675,00:00:02.7,-0.03705201484262938
676,00:00:02.704,-0.004476657370105391
677,00:00:02.708,0.006755083159077945
678,00:00:02.712,-0.00518027762882412
679,00:00:02.716,0.0032330077374353996
680,00:00:02.72,0.0012805755250155596
681,00:00:02.724,0.03531722771003837
682,00:00:02.728,-0.0015312130562961076
683,00:00:02.732,-0.01986410934478039
684,00:00:02.736,-0.012480170000344508
685,00:00:02.74,0.003096655011177089
686,00:00:02.744,0.005685009033186358
687,00:00:02.748,-0.005359056063753092
688,00:00:02.752,-0.017381689278408843
689,00:00:02.756,0.03227635845541958
690,00:00:02.76,0.00807935348711908
691,00:00:02.764,-0.02672995527973396
692,00:00:02.768,-0.05246970010921356
693,00:00:02.772,0.14102271618321582
694,00:00:02.776,-0.059929419308900875
695,00:00:02.78,-0.06506895925849675
696,00:00:02.784,0.06320458929985755
697,00:00:02.788,-0.02995543740689751
698,00:00:02.792,-0.021516018605325368
699,00:00:02.796,0.02137738559395075
700,00:00:02.8,0.012216245522722569
701,00:00:02.804,0.008048952557146589
702,00:00:02.808,0.015623275656253096
703,00:00:02.812,0.005239665042608979
704,00:00:02.816,-0.02788310521282253
705,00:00:02.82,-0.0037070692051202098
706,00:00:02.824,-0.02477291808463631
707,00:00:02.828,0.004152603255761278
708,00:00:02.832,0.00923652853816748
709,00:00:02.836,0.03389227844309066
710,00:00:02.84,-0.009576389915309829
711,00:00:02.844,0.0014455253258347407
712,00:00:02.848,-0.0018418701365589818
713,00:00:02.852,-0.016315357992425568
714,00:00:02.856,-0.008953884127549824
715,00:00:02.86,-0.00860522105358541
716,00:00:02.864,0.03408393589779734
717,00:00:02.868,-0.029207461513578878
718,00:00:02.872,0.052435116289416286
719,00:00:02.876,-0.04348385939374563
720,00:00:02.88,0.01534813840407874
721,00:00:02.884,0.009020021883770829
722,00:00:02.888,-0.01543136243708428
723,00:00:02.892,-0.028411712963134
724,00:00:02.896,0.037532827351242276
725,00:00:02.9,-0.0023709945380687592
726,00:00:02.904,-0.00492406915873289
727,00:00:02.908,-0.018278274277690836
728,00:00:02.912,0.004270263714715838
729,00:00:02.916,0.03887128038331864
730,00:00:02.92,-0.02284984407015145
731,00:00:02.924,-0.01716407760977745
732,00:00:02.928,0.005641143390676002
733,00:00:02.932,0.02224639314226802
734,00:00:02.936,-0.01468117642798466
735,00:00:02.94,-2.272239362355384e-05
736,00:00:02.944,0.004216855159029361
737,00:00:02.948,-0.01611582655459642
738,00:00:02.952,0.03378962737042456
739,00:00:02.956,-0.0161206269985996
740,00:00:02.96,-0.0025548338890075697
741,00:00:02.964,-0.01963436772348361
742,00:00:02.968,0.0034697099172263327
743,00:00:02.972,0.024711388134164698
744,00:00:02.976,-0.02269257372245196
745,00:00:02.98,-0.003664930351078493
746,00:00:02.984,0.026180782355368193
747,00:00:02.988,0.01445964904269201
748,00:00:02.992,-0.02885863347910338
749,00:00:02.996,0.00579855532851065
750,00:00:03,-0.01013574167154729
751,00:00:03.004,-0.001955629326403143
752,00:00:03.008,0.0043170916615054
753,00:00:03.012,0.00790235114982352
754,00:00:03.016,0.0038889385614311323
755,00:00:03.02,0.013653268761117991
756,00:00:03.024,-0.01717204507440329
757,00:00:03.028,-0.029258335009217217
758,00:00:03.032,0.02338096546009183
759,00:00:03.036,0.005591652821749433
760,00:00:03.04,-0.004497543442994362
761,00:00:03.044,0.0005598110146820094
762,00:00:03.048,0.006574976549018143
763,00:00:03.052,0.01440906710922717
764,00:00:03.056,-0.01270067831501357
765,00:00:03.06,-0.04333205334842201
766,00:00:03.064,0.03014617739245291
767,00:00:03.068,0.00102636660449207
768,00:00:03.072,0.03681832260917872
769,00:00:03.076,-0.0279524439247325
770,00:00:03.08,-0.02444671234115963
771,00:00:03.084,0.02592730708420278
772,00:00:03.088,0.009142203140072518
773,00:00:03.092,-0.015412075445055951
774,00:00:03.096,0.016613328538369426
775,00:00:03.1,-0.0355577203445137
776,00:00:03.104,-0.0004536492051556598
777,00:00:03.108,-0.00344234099611645
778,00:00:03.112,0.04680600948631755
779,00:00:03.116,-0.00969911087304355
780,00:00:03.12,0.009611515328288082
781,00:00:03.124,-0.027085166890174157
782,00:00:03.128,-0.012207817344460664
783,00:00:03.132,0.002539563458412929
784,00:00:03.136,0.013531163334846476
785,00:00:03.14,0.02535766491200781
786,00:00:03.144,-0.00674843799788505
787,00:00:03.148,-0.044046604307368384
788,00:00:03.152,0.0066883547697215795
789,00:00:03.156,0.02393203484825785
790,00:00:03.16,0.0010527787962928796
791,00:00:03.164,0.0023246300406754
792,00:00:03.168,-0.01462083752267064
793,00:00:03.172,-0.0012701121158898345
794,00:00:03.176,0.03015857189893725
795,00:00:03.18,-0.014055053004994978
796,00:00:03.184,-0.033585716504603624
797,00:00:03.188,0.0016119063366204509
798,00:00:03.192,0.03981207869946961
799,00:00:03.196,0.02716890641022478
800,00:00:03.2,-0.05350445327349012
801,00:00:03.204,-0.006228237529285254
802,00:00:03.208,0.0021639689803123214
803,00:00:03.212,0.02235659584403038
804,00:00:03.216,-0.03697356954216953
805,00:00:03.22,0.020526481093838783
806,00:00:03.224,0.04639606096316125
807,00:00:03.228,-0.0120054933213396
808,00:00:03.232,-0.03099231328815227
809,00:00:03.236,-0.005697977729141688
810,00:00:03.24,0.01537598646245892
811,00:00:03.244,-0.020118006505072127
812,00:00:03.248,-0.011784296453697607
813,00:00:03.252,0.029846828198060418
814,00:00:03.256,0.00903032859787345
815,00:00:03.26,-0.013984215416712681
816,00:00:03.264,0.019067811314016567
817,00:00:03.268,-0.0026267415378242696
818,00:00:03.272,-0.004887418006546801
819,00:00:03.276,-0.03615553909912702
820,00:00:03.28,0.009254259901354079
821,00:00:03.284,0.02602285717148327
822,00:00:03.288,-0.007991475518792871
823,00:00:03.292,-0.008704956970177593
824,00:00:03.296,0.043015255592763445
825,00:00:03.3,-0.023854118073359156
826,00:00:03.304,-0.04666356649249791
827,00:00:03.308,0.03712216950953002
828,00:00:03.312,0.01933700637891894
829,00:00:03.316,-0.024767533774138473
830,00:00:03.32,-0.0158694932470098
831,00:00:03.324,0.021275496575981365
832,00:00:03.328,-0.009314214927144349
833,00:00:03.332,0.009384242643136535
834,00:00:03.336,0.0094467707676813
835,00:00:03.34,-0.0017950928304344407
836,00:00:03.344,0.002023582579568046
837,00:00:03.348,-0.025832739542238352
838,00:00:03.352,0.0009064488112926622
839,00:00:03.356,0.00558768725022676
840,00:00:03.36,0.01213085144991058
841,00:00:03.364,0.0020621273433789594
842,00:00:03.368,-0.00556258903816343
843,00:00:03.372,0.018472856609150733
844,00:00:03.376,0.00243373913690444
845,00:00:03.38,-0.04611640190705661
846,00:00:03.384,0.02210413105785842
847,00:00:03.388,-0.003163655521348188
848,00:00:03.392,-0.004715648537967351
849,00:00:03.396,0.0008530411869288011
850,00:00:03.4,0.00504652480594814
851,00:00:03.404,0.032478176173754036
852,00:00:03.408,-0.0037514686118811503
853,00:00:03.412,-0.03045357833616435
854,00:00:03.416,-0.012041842448525129
855,00:00:03.42,0.0055284481495618595
856,00:00:03.424,0.022623517084866807
857,00:00:03.428,0.007914232468465345
858,00:00:03.432,-0.025772179942578112
859,00:00:03.436,-0.019257672829553457
860,00:00:03.44,0.01330862613394854
861,00:00:03.444,0.016613134648650933
862,00:00:03.448,0.03105682879686356
863,00:00:03.452,-0.014229733729735013
864,00:00:03.456,-0.010752668604254736
865,00:00:03.46,-0.02352383686229592
866,00:00:03.464,0.0020616633119061763
867,00:00:03.468,-0.010885069379582989
868,00:00:03.472,0.03164394292980431
869,00:00:03.476,-0.012135194847360212
870,00:00:03.48,-0.004744672449305662
871,00:00:03.484,0.049203210975974826
872,00:00:03.488,-0.022455137572251302
873,00:00:03.492,-0.03909577869490019
874,00:00:03.496,0.010776200215332161
875,00:00:03.5,0.0036060901475138754
876,00:00:03.504,0.00972477067261931
877,00:00:03.508,-0.020884524099528803
878,00:00:03.512,0.01128835242707283
879,00:00:03.516,0.023054862627759538
880,00:00:03.52,0.012964848428964618
881,00:00:03.524,0.006056460784748141
882,00:00:03.528,-0.053041701903566774
883,00:00:03.532,-0.023438184434780848
884,00:00:03.536,0.0008178837597370087
885,00:00:03.54,0.04405959649011493
886,00:00:03.544,0.031723525142297086
887,00:00:03.548,-0.008288161596283289
888,00:00:03.552,-0.024432834121398652
889,00:00:03.556,-0.01368734007701286
890,00:00:03.56,-0.0165329813025892
891,00:00:03.564,0.03143907443154599
892,00:00:03.568,0.008478026633383704
893,00:00:03.572,-0.003928463265765557
894,00:00:03.576,-0.011415946333727332
895,00:00:03.58,-0.009503792622126639
896,00:00:03.584,-0.02131399512290954
897,00:00:03.588,0.05883957911282778
898,00:00:03.592,0.02307548886165023
899,00:00:03.596,-0.03916360111907126
900,00:00:03.6,-0.0261346073821187
901,00:00:03.604,0.003994748927652839
902,00:00:03.608,-0.006425513885915252
903,00:00:03.612,0.0015529061201959805
904,00:00:03.616,0.013279337552376098
905,00:00:03.62,-0.004045979585498641
906,00:00:03.624,0.019134430913254584
907,00:00:03.628,0.04022626252844927
908,00:00:03.632,-0.03248469407844817
909,00:00:03.636,-0.03586678672581912
910,00:00:03.64,0.01531550590880214
911,00:00:03.644,-0.008011285957763905
912,00:00:03.648,-0.008206543396227069
913,00:00:03.652,0.012575480155646829
914,00:00:03.656,-0.0026991239283233907
915,00:00:03.66,0.011610754765570119
916,00:00:03.664,0.02722014347091322
917,00:00:03.668,-0.023365050554275492
918,00:00:03.672,-0.0034473990090191295
919,00:00:03.676,-0.023138643358834046
920,00:00:03.68,0.007662688381969922
921,00:00:03.684,0.0337826234754175
922,00:00:03.688,-0.024836920434609114
923,00:00:03.692,-0.010643571207765488
924,00:00:03.696,0.016153417294844978
925,00:00:03.7,0.0018246971303597101
926,00:00:03.704,0.01044475345406681
927,00:00:03.708,-0.009440686204470694
928,00:00:03.712,-0.012289491831325034
929,00:00:03.716,-0.004005455179139971
930,00:00:03.72,-0.004711188608780479
931,00:00:03.724,0.01218776078894735
932,00:00:03.728,0.003065689932555009
933,00:00:03.732,0.00765885831788183
934,00:00:03.736,0.04303217167034742
935,00:00:03.74,-0.043484727852046476
936,00:00:03.744,-0.031966895330697354
937,00:00:03.748,0.00990625249687582
938,00:00:03.752,0.014568033191608301
939,00:00:03.756,-0.00146284978836777
940,00:00:03.76,-0.013715656939894003
941,00:00:03.764,0.005451122298836691
942,00:00:03.768,0.025061312859179452
943,00:00:03.772,0.024529281305149222
944,00:00:03.776,-0.01682578772306446
945,00:00:03.78,-0.03791879664640877
946,00:00:03.784,-0.02663901774212718
947,00:00:03.788,0.017557884624693522
948,00:00:03.792,0.05549951724242422
949,00:00:03.796,-0.017534390441142023
950,00:00:03.8,-0.042010101722553345
951,00:00:03.804,0.04340037982910868
952,00:00:03.808,0.03107900498434903
953,00:00:03.812,-0.03645466815214597
954,00:00:03.816,-0.03637825744226572
955,00:00:03.82,-0.01368224620819092
956,00:00:03.824,0.01673711091279986
957,00:00:03.828,0.06488147476920865
958,00:00:03.832,-0.03461264166980984
959,00:00:03.836,-0.01358983214595353
960,00:00:03.84,0.05748850177042185
961,00:00:03.844,-0.05059651611372824
962,00:00:03.848,-0.026702590752392986
963,00:00:03.852,-0.003997226944193239
964,00:00:03.856,0.024970385711640113
965,00:00:03.86,0.004840837558731441
966,00:00:03.864,0.02451209304854279
967,00:00:03.868,-0.0071418854640796356
968,00:00:03.872,-0.01776028238236903
969,00:00:03.876,0.00984600698575377
970,00:00:03.88,-0.01198277855291961
971,00:00:03.884,-0.012044229195453249
972,00:00:03.888,-0.00916527164372383
973,00:00:03.892,0.04878251999616626
974,00:00:03.896,-0.00313176901545376
975,00:00:03.9,-0.02919503417797386
976,00:00:03.904,-0.0063555082306266004
977,00:00:03.908,0.02357514831237499
978,00:00:03.912,0.00435325084254152
979,00:00:03.916,-0.004494875320233406
980,00:00:03.92,-1.7779879272008386e-05
981,00:00:03.924,-0.04127477729343808
982,00:00:03.928,0.02971494803205131
983,00:00:03.932,0.0025395274860784463
984,00:00:03.936,-0.00709123304113741
985,00:00:03.94,0.01155812689103183
986,00:00:03.944,-0.00047797476872800046
987,00:00:03.948,0.0029871528968214997
988,00:00:03.952,0.019052297458983958
989,00:00:03.956,-0.02649287279928101
990,00:00:03.96,-0.01845717499963942
991,00:00:03.964,0.01719742428394966
992,00:00:03.968,-0.00383534654974937
993,00:00:03.972,0.011790092103183273
994,00:00:03.976,0.00973702105693519
995,00:00:03.98,-0.03817175887525078
996,00:00:03.984,0.025697855977341543
997,00:00:03.988,0.012765991035848849
998,00:00:03.992,0.016171295777894504
999,00:00:03.996,-0.02960268221795554
1000,00:00:04,-0.06305954139679668
1001,00:00:04.004,0.023505740362452343
1002,00:00:04.008,0.10371118504554029
1003,00:00:04.012,-0.052734580123797045
1004,00:00:04.016,-0.019094313320238143
1005,00:00:04.02,0.0032157152891159014
1006,00:00:04.024,-0.01108794414903967
1007,00:00:04.028,0.0028086449019611003
1008,00:00:04.032,0.01044748909771443
1009,00:00:04.036,0.0009012228110805097
1010,00:00:04.04,0.013246830087155121
1011,00:00:04.044,-0.002008690146794831
1012,00:00:04.048,-0.0105009728576988
1013,00:00:04.052,-0.017943288345122686
1014,00:00:04.056,0.016633607447147376
1015,00:00:04.06,0.019728198181837794
1016,00:00:04.064,-0.02779053128324454
1017,00:00:04.068,-0.01976167783141135
1018,00:00:04.072,0.03848075168207292
1019,00:00:04.076,-0.00668334960937504
1020,00:00:04.08,-0.015410874213557697
1021,00:00:04.084,0.01968019409105182
1022,00:00:04.088,0.004429568973137014
1023,00:00:04.092,-0.0009871723596006606
1024,00:00:04.096,-0.0052072284743189794
1025,00:00:04.1,-0.012125491863116651
1026,00:00:04.104,-0.022830230649560704
1027,00:00:04.108,0.011062694888096265
1028,00:00:04.112,0.04137692367658017
1029,00:00:04.116,-0.00793147971853608
1030,00:00:04.12,-0.02889753854833541
1031,00:00:04.124,0.027848332654684768
1032,00:00:04.128,-0.01140332967042923
1033,00:00:04.132,-0.048472417634911794
1034,00:00:04.136,0.05524729454191411
1035,00:00:04.14,0.011337499265209773
1036,00:00:04.144,-0.0007872646674514164
1037,00:00:04.148,-0.02062623342499138
1038,00:00:04.152,-0.028825895162299275
1039,00:00:04.156,0.0100458470988088
1040,00:00:04.16,0.018194042844697802
1041,00:00:04.164,0.011382511729607317
1042,00:00:04.168,-0.0006133415736257987
1043,00:00:04.172,-0.015534950127403167
1044,00:00:04.176,0.019409637898206707
1045,00:00:04.18,-0.00833618384785947
1046,00:00:04.184,-0.0026251953095197955
1047,00:00:04.188,-0.02053438103757795
1048,00:00:04.192,0.009740144014358519
1049,00:00:04.196,0.004920749575830998
1050,00:00:04.2,-0.006974612828344148
1051,00:00:04.204,0.01396046974696219
1052,00:00:04.208,0.03363100695423785
1053,00:00:04.212,-0.041807435685768744
1054,00:00:04.216,-0.019493919156957387
1055,00:00:04.22,0.03248409368097786
1056,00:00:04.224,-0.00942456570919603
1057,00:00:04.228,-0.0016988078714348792
1058,00:00:04.232,-0.01625980879180135
1059,00:00:04.236,0.01421670196577907
1060,00:00:04.24,0.01538894505938513
1061,00:00:04.244,0.00737035507336259
1062,00:00:04.248,-0.04149652249179779
1063,00:00:04.252,0.02368509536609058
1064,00:00:04.256,0.016592451836913893
1065,00:00:04.26,-0.007785790949128599
1066,00:00:04.264,-0.02458743914030497
1067,00:00:04.268,-0.009555061347782619
1068,00:00:04.272,0.029890115838497912
1069,00:00:04.276,-0.0037369979545474
1070,00:00:04.28,0.02231393149122598
1071,00:00:04.284,-0.0037194821052253108
1072,00:00:04.288,-0.03274279925972224
1073,00:00:04.292,-0.01113159640226513
1074,00:00:04.296,0.00882115053900634
1075,00:00:04.3,0.01759328308980914
1076,00:00:04.304,0.009165772236883632
1077,00:00:04.308,-0.00318431714549665
1078,00:00:04.312,-0.02740625594742597
1079,00:00:04.316,0.02308170450851324
1080,00:00:04.32,0.01310298801399768
1081,00:00:04.324,-0.013862318359315388
1082,00:00:04.328,-0.00179855630267411
1083,00:00:04.332,-0.012455446179956258
1084,00:00:04.336,0.017121538694482265
1085,00:00:04.34,-0.020449565854505674
1086,00:00:04.344,-0.0102795006241649
1087,00:00:04.348,0.015037719160318305
1088,00:00:04.352,0.04185959557071326
1089,00:00:04.356,-0.01995384925976392
1090,00:00:04.36,-0.0072883903048932275
1091,00:00:04.364,-0.0013766170013695895
1092,00:00:04.368,-0.02089989697560667
1093,00:00:04.372,0.00024037715047597972
1094,00:00:04.376,-0.00264746032189578
1095,00:00:04.38,0.02155397052410993
1096,00:00:04.384,0.029133716481737723
1097,00:00:04.388,-0.007032928078842816
1098,00:00:04.392,-0.0300931702367961
1099,00:00:04.396,-0.02042929036542771
1100,00:00:04.4,0.01669340225635099
1101,00:00:04.404,0.018064360017888303
1102,00:00:04.408,-0.03482565423473717
1103,00:00:04.412,0.046070055570453336
1104,00:00:04.416,0.008536307024769499
1105,00:00:04.42,-0.005658838083036244
1106,00:00:04.424,-0.04895406402647489
1107,00:00:04.428,-0.002059520746115557
1108,00:00:04.432,0.003588554303860297
1109,00:00:04.436,0.03585891483817249
1110,00:00:04.44,0.003177989274263408
1111,00:00:04.444,-0.0024853537324815997
1112,00:00:04.448,3.4507480449969766e-05
1113,00:00:04.452,-0.02249652834143492
1114,00:00:04.456,0.001310266088694301
1115,00:00:04.46,0.013335303170606539
1116,00:00:04.464,-0.0072344504296779095
1117,00:00:04.468,-0.0063313003629445995
1118,00:00:04.472,0.03137464349856598
1119,00:00:04.476,0.010390196694061181
1120,00:00:04.48,-0.05503382952883837
1121,00:00:04.484,-0.03798431693576272
1122,00:00:04.488,0.052461273618973715
1123,00:00:04.492,0.05826344527304168
1124,00:00:04.496,-0.01843145117163658
1125,00:00:04.5,-0.030513334611896408
1126,00:00:04.504,-0.02516532409936193
1127,00:00:04.508,-0.019518958055414298
1128,00:00:04.512,0.04096487164497373
1129,00:00:04.516,0.02738577825948604
1130,00:00:04.52,-0.020931350532919182
1131,00:00:04.524,0.01811227481812239
1132,00:00:04.528,-0.030785416078288084
1133,00:00:04.532,-0.004311210126616061
1134,00:00:04.536,0.012902604619739584
1135,00:00:04.54,-0.004557502688840011
1136,00:00:04.544,0.009096781082917027
1137,00:00:04.548,0.004478484275750812
1138,00:00:04.552,-0.004542494425550108
1139,00:00:04.556,-0.011911189358215793
1140,00:00:04.56,0.0008042128756642298
1141,00:00:04.564,-0.0033923340961337107
1142,00:00:04.568,0.03681862028315664
1143,00:00:04.572,-0.015772685757838207
1144,00:00:04.576,-0.02607704233378173
1145,00:00:04.58,0.0048888943856582115
1146,00:00:04.584,-0.006889711134135732
1147,00:00:04.588,0.024981047026813034
1148,00:00:04.592,0.02130082051735368
1149,00:00:04.596,-0.020866484846919782
1150,00:00:04.6,-0.03453579683264254
1151,00:00:04.604,0.02258133096620442
1152,00:00:04.608,-0.006830313359387219
1153,00:00:04.612,-0.0009759934619068805
1154,00:00:04.616,0.020342311792774133
1155,00:00:04.62,0.01646680571138862
1156,00:00:04.624,-0.007751453435048487
1157,00:00:04.628,-0.03638854832388462
1158,00:00:04.632,0.003914271015673865
1159,00:00:04.636,0.023213097825646442
1160,00:00:04.64,-0.012020155787467991
1161,00:00:04.644,-0.00555094960145652
1162,00:00:04.648,0.01596075866837055
1163,00:00:04.652,0.0076222518109716475
1164,00:00:04.656,-0.03107384010218085
1165,00:00:04.66,0.02271199622191492
1166,00:00:04.664,0.024585528764873764
1167,00:00:04.668,-0.03131733788177376
1168,00:00:04.672,-0.025295556697528768
1169,00:00:04.676,0.013807384297251698
1170,00:00:04.68,0.0035392162390053584
1171,00:00:04.684,-0.0027121999301015763
1172,00:00:04.688,0.04772741394117477
1173,00:00:04.692,-0.02083585201762609
1174,00:00:04.696,-0.02938290964812037
1175,00:00:04.7,-0.004869444761425288
1176,00:00:04.704,0.015327551693189884
1177,00:00:04.708,0.02011867077089843
1178,00:00:04.712,-0.018096667772624638
1179,00:00:04.716,0.00078409619163721
1180,00:00:04.72,-0.0011590844951570017
1181,00:00:04.724,-0.006096740253269669
1182,00:00:04.728,0.005097424320410936
1183,00:00:04.732,0.0227360437856987
1184,00:00:04.736,-0.013100828335154836
1185,00:00:04.74,-0.007873282651416959
1186,00:00:04.744,-0.00601701514096931
1187,00:00:04.748,-0.03182663652114573
1188,00:00:04.752,0.04524228454101838
1189,00:00:04.756,0.02307392423972489
1190,00:00:04.76,2.542603760957978e-05
1191,00:00:04.764,-0.01946105307433752
1192,00:00:04.768,-0.029890109086409173
1193,00:00:04.772,-0.005568577442318201
1194,00:00:04.776,-0.02348042465746407
1195,00:00:04.78,0.05135070718824865
1196,00:00:04.784,0.03591920278267939
1197,00:00:04.788,-0.009578118566423672
1198,00:00:04.792,-0.01967089530080562
1199,00:00:04.796,-0.02206799760460857
1200,00:00:04.8,-0.002516552805900501
1201,00:00:04.804,0.010980686773109483
1202,00:00:04.808,0.0041480083018541275
1203,00:00:04.812,0.00996736448723823
1204,00:00:04.816,-0.01358779147267342
1205,00:00:04.82,-0.000799912202637637
1206,00:00:04.824,0.0015789980534464216
1207,00:00:04.828,0.011445556068792941
1208,00:00:04.832,-0.009436488180654125
1209,00:00:04.836,0.016976945335045467
1210,00:00:04.84,-0.009673499967902871
1211,00:00:04.844,-0.02883699256926779
1212,00:00:04.848,0.014788607135415095
1213,00:00:04.852,0.0009477024432271697
1214,00:00:04.856,-0.0009184223599731593
1215,00:00:04.86,0.034575299825519365
1216,00:00:04.864,0.000733036082237893
1217,00:00:04.868,-0.036037013866007286
1218,00:00:04.872,-0.0147816191019956
1219,00:00:04.876,0.005129382803261251
1220,00:00:04.88,0.04472650680691005
1221,00:00:04.884,-0.030514799494994797
1222,00:00:04.888,0.006381479790434206
1223,00:00:04.892,-0.014725574466865506
1224,00:00:04.896,0.007196907303296028
1225,00:00:04.9,0.01351075852289794
1226,00:00:04.904,-0.0020935460925102303
1227,00:00:04.908,0.013686149439308801
1228,00:00:04.912,-0.01660767034627498
1229,00:00:04.916,-0.031506507890299004
1230,00:00:04.92,0.012322529044467956
1231,00:00:04.924,0.008275316096842289
1232,00:00:04.928,0.015381993725895868
1233,00:00:04.932,0.02590592252090575
1234,00:00:04.936,-0.022306975210085473
1235,00:00:04.94,-0.01603590906597674
1236,00:00:04.944,-0.006731368514010646
1237,00:00:04.948,-0.009270533919334415
1238,00:00:04.952,0.008707644345122386
1239,00:00:04.956,0.02760419948026536
1240,00:00:04.96,-0.00530037400312719
1241,00:00:04.964,0.0003059578593820299
1242,00:00:04.968,-0.012750500813126573
1243,00:00:04.972,-0.0054028187878430705
1244,00:00:04.976,0.0029750355752184605
1245,00:00:04.98,-0.014729710179381097
1246,00:00:04.984,0.044831174076534835
1247,00:00:04.988,-0.012925544928293672
1248,00:00:04.992,-0.01924968941602857
1249,00:00:04.996,-0.011820038314908719
1250,00:00:05,0.01390685047954317
1251,00:00:05.004,0.0016087589319795387
1252,00:00:05.008,0.016635435982607312
1253,00:00:05.012,-0.002116455492796373
1254,00:00:05.016,-0.0023342743515967906
1255,00:00:05.02,-0.02129154931753868
1256,00:00:05.024,0.0004305439069867516
1257,00:00:05.028,0.0011846227571367905
1258,00:00:05.032,0.006039422005414994
1259,00:00:05.036,0.01540564524475485
1260,00:00:05.04,-0.013984534598421302
1261,00:00:05.044,0.02227782644331451
1262,00:00:05.048,-0.012836855370551351
1263,00:00:05.052,-0.0034927631932078007
1264,00:00:05.056,0.0004724772079499097
1265,00:00:05.06,-0.00972844799980521
1266,00:00:05.064,-0.02599198045209051
1267,00:00:05.068,0.019475767854601103
1268,00:00:05.072,0.011590844020247498
1269,00:00:05.076,0.014483477803878533
1270,00:00:05.08,0.016602396732196198
1271,00:00:05.084,-0.027678239392116707
1272,00:00:05.088,0.009714897554658847
1273,00:00:05.092,-0.001070679805707186
1274,00:00:05.096,-0.05223183589987457
1275,00:00:05.1,0.00793976429849863
1276,00:00:05.104,0.03977010026574129
1277,00:00:05.108,0.03441735915839669
1278,00:00:05.112,-0.04155184235423805
1279,00:00:05.116,-0.0021881051943637405
1280,00:00:05.12,0.00032995501533151193
1281,00:00:05.124,0.0029502295001293524
1282,00:00:05.128,0.0029677045531571397
1283,00:00:05.132,-0.0008841378148645301
1284,00:00:05.136,-0.01746669039130213
1285,00:00:05.14,0.01552621088922017
1286,00:00:05.144,0.010996644850820383
1287,00:00:05.148,-0.009241798892617201
1288,00:00:05.152,-0.01643284247256811
1289,00:00:05.156,-0.012155607866588978
1290,00:00:05.16,0.044430029578507016
1291,00:00:05.164,4.4312328100218346e-05
1292,00:00:05.168,0.01885358660001655
1293,00:00:05.172,-0.051720108487643315
1294,00:00:05.176,-0.02193658705800776
1295,00:00:05.18,0.04015917098149654
1296,00:00:05.184,-0.007468961644917692
1297,00:00:05.188,0.0166261887643486
1298,00:00:05.192,-0.023740786127746095
1299,00:00:05.196,0.01963175367563965
1300,00:00:05.2,0.01282456377521161
1301,00:00:05.204,-0.02442546305246649
1302,00:00:05.208,-0.01987796393223106
1303,00:00:05.212,0.02002099854871626
1304,00:00:05.216,-0.003375964646693321
1305,00:00:05.22,-0.00423215189948678
1306,00:00:05.224,0.034513482358306646
1307,00:00:05.228,-0.011892887239810064
1308,00:00:05.232,-0.0036118672578595162
1309,00:00:05.236,-0.01605419721454384
1310,00:00:05.24,0.00973543641157446
1311,00:00:05.244,0.00258324760943655
1312,00:00:05.248,-0.03925537411123514
1313,00:00:05.252,0.026276342105120448
1314,00:00:05.256,0.01477146806428209
1315,00:00:05.26,0.015156446024775522
1316,00:00:05.264,0.0025842094328254296
1317,00:00:05.268,-0.03320576611440625
1318,00:00:05.272,0.0014849877916276498
1319,00:00:05.276,-0.008426375687122352
1320,00:00:05.28,0.0014255536661948818
1321,00:00:05.284,0.0052921278402209716
1322,00:00:05.288,0.02633548754965888
1323,00:00:05.292,0.01736259926110504
1324,00:00:05.296,-0.023516270332038493
1325,00:00:05.3,-0.03325459128245714
1326,00:00:05.304,0.008144289255142281
1327,00:00:05.308,0.00950122391805052
1328,00:00:05.312,-0.0018546215724200002
1329,00:00:05.316,-0.004319470608606961
1330,00:00:05.32,0.03414200781844559
1331,00:00:05.324,-0.005765819922089571
1332,00:00:05.328,-0.015555047895759337
1333,00:00:05.332,-0.004339517676271488
1334,00:00:05.336,-0.022459707688540193
1335,00:00:05.34,0.019075199590588385
1336,00:00:05.344,0.01681900257244706
1337,00:00:05.348,-0.007303513506485625
1338,00:00:05.352,0.0010061500361189112
1339,00:00:05.356,-0.004976174095645538
1340,00:00:05.36,-0.00544512376654894
1341,00:00:05.364,-0.002315513323992449
1342,00:00:05.368,0.011638516036327923
1343,00:00:05.372,0.009969282895326576
1344,00:00:05.376,-0.0166398172732443
1345,00:00:05.38,-0.0035950332239735915
1346,00:00:05.384,0.008792928885668537
1347,00:00:05.388,-0.006305988412350347
1348,00:00:05.392,-0.002748462138697552
1349,00:00:05.396,0.0320196989923716
1350,00:00:05.4,-0.01847204286605122
1351,00:00:05.404,-0.02547929994761948
1352,00:00:05.408,0.005169508338440213
1353,00:00:05.412,0.0035587056772783104
1354,00:00:05.416,0.015553153702057898
1355,00:00:05.42,-0.0025836663553490506
1356,00:00:05.424,0.02006030455231664
1357,00:00:05.428,-0.01925307675264779
1358,00:00:05.432,-0.007802003732649604
1359,00:00:05.436,-0.026758738677017408
1360,00:00:05.44,0.03318553743883967
1361,00:00:05.444,0.02235729526728392
1362,00:00:05.448,-0.012400234278175055
1363,00:00:05.452,-0.01840660301968459
1364,00:00:05.456,-0.010045192844700089
1365,00:00:05.46,0.019360053760465273
1366,00:00:05.464,-0.021036021702457233
1367,00:00:05.468,0.01545431884005663
1368,00:00:05.472,0.00591581617482006
1369,00:00:05.476,-6.612739525736072e-05
1370,00:00:05.48,0.010058335261419419
1371,00:00:05.484,0.035773654934018864
1372,00:00:05.488,-0.04986646329052746
1373,00:00:05.492,-0.029380733612924773
1374,00:00:05.496,-0.016401835251599592
1375,00:00:05.5,0.024530300172045834
1376,00:00:05.504,0.03497328050434594
1377,00:00:05.508,0.009191842284053512
1378,00:00:05.512,-0.007625232014106562
1379,00:00:05.516,-0.0001114441547543088
1380,00:00:05.52,-0.01680995710194118
1381,00:00:05.524,-0.018571274296846216
1382,00:00:05.528,0.035351532511413084
1383,00:00:05.532,-0.004081555642187592
1384,00:00:05.536,-0.03389345074538137
1385,00:00:05.54,0.00556014664471149
1386,00:00:05.544,0.018222226633952246
1387,00:00:05.548,0.04261918948031963
1388,00:00:05.552,-0.05991792632266881
1389,00:00:05.556,-0.005036727059632536
1390,00:00:05.56,0.03550034575164321
1391,00:00:05.564,0.0004400731995700992
1392,00:00:05.568,-0.016942109912633868
1393,00:00:05.572,-0.01330186333507299
1394,00:00:05.576,0.018307907273992872
1395,00:00:05.58,0.01132283499464393
1396,00:00:05.584,-0.01455100683961064
1397,00:00:05.588,0.015234714257530913
1398,00:00:05.592,-0.043485370930284276
1399,00:00:05.596,0.023597133345902
1400,00:00:05.6,0.011489186363178307
1401,00:00:05.604,-0.0082143465988338
1402,00:00:05.608,0.006960481172427541
1403,00:00:05.612,0.01243561331648385
1404,00:00:05.616,-0.020196163561195107
1405,00:00:05.62,-0.03906360798282549
1406,00:00:05.624,0.06770608667284253
1407,00:00:05.628,0.01675449451431632
1408,00:00:05.632,-0.03525457321666179
1409,00:00:05.636,-0.017968461848795438
1410,00:00:05.64,-0.009196938015520618
1411,00:00:05.644,-0.01138417872425635
1412,00:00:05.648,0.007036176510155201
1413,00:00:05.652,0.04715637554181744
1414,00:00:05.656,0.01989332167431715
1415,00:00:05.66,-0.03702232067007567
1416,00:00:05.664,-0.024610565931652634
1417,00:00:05.668,0.012600309273693693
1418,00:00:05.672,0.012565347424242639
1419,00:00:05.676,-0.005622102413326503
1420,00:00:05.68,-0.011180341942235869
1421,00:00:05.684,-0.004374634474515891
1422,00:00:05.688,0.06162330368533729
1423,00:00:05.692,-0.03563245554687456
1424,00:00:05.696,-0.03898076526820658
1425,00:00:05.7,0.017965701466891873
1426,00:00:05.704,0.004099469631910321
1427,00:00:05.708,-0.000680924858897921
1428,00:00:05.712,0.010244952631182972
1429,00:00:05.716,0.01685434067621826
1430,00:00:05.72,-0.02278130431659519
1431,00:00:05.724,-0.00732806988526136
1432,00:00:05.728,0.022179709572810673
1433,00:00:05.732,-0.0005546748870983824
1434,00:00:05.736,-0.01773524470627308
1435,00:00:05.74,-0.0024574754061177503
1436,00:00:05.744,0.005593979556579084
1437,00:00:05.748,0.00010531849693506089
1438,00:00:05.752,-0.00137149635702371
1439,00:00:05.756,-0.01698480464983737
1440,00:00:05.76,0.05633873969782142
1441,00:00:05.764,-0.00178099330514669
1442,00:00:05.768,-0.05409610364586119
1443,00:00:05.772,-0.017620340804569375
1444,00:00:05.776,0.04434886632952835
1445,00:00:05.78,-0.0018267431296408211
1446,00:00:05.784,0.003399430075660288
1447,00:00:05.788,-0.012849185819504807
1448,00:00:05.792,0.02657452272251252
1449,00:00:05.796,-0.024863814935088227
1450,00:00:05.8,-0.016966751718427965
1451,00:00:05.804,0.01899371342733503
1452,00:00:05.808,0.001534791954327378
1453,00:00:05.812,-0.004475831752642968
1454,00:00:05.816,0.01963106845505534
1455,00:00:05.82,0.003564101178199072
1456,00:00:05.824,-0.01802924554795024
1457,00:00:05.828,-0.0005606749909929957
1458,00:00:05.832,-0.0030270721763372786
1459,00:00:05.836,-0.02181990630924697
1460,00:00:05.84,-0.00812423974275589
1461,00:00:05.844,0.050312191538978354
1462,00:00:05.848,0.0017107478342950596
1463,00:00:05.852,-0.00961225945502516
1464,00:00:05.856,-0.01146537484601141
1465,00:00:05.86,-0.006916923914104639
1466,00:00:05.864,0.02411124476930122
1467,00:00:05.868,-0.020304455538280274
1468,00:00:05.872,-0.00271884282119572
1469,00:00:05.876,0.02254270389676093
1470,00:00:05.88,-0.0654397793114185
1471,00:00:05.884,0.06369572412222627
1472,00:00:05.888,0.036509036086499705
1473,00:00:05.892,-0.03650247398763899
1474,00:00:05.896,-0.03996668988838787
1475,00:00:05.9,0.005540801212191651
1476,00:00:05.904,0.0121514789061621
1477,00:00:05.908,0.0048274309374392
1478,00:00:05.912,0.026167173182329893
1479,00:00:05.916,-0.01501293783076108
1480,00:00:05.92,-0.010344736336264756
1481,00:00:05.924,-0.015216526589938465
1482,00:00:05.928,0.028736955981003162
1483,00:00:05.932,-0.014712882461026273
1484,00:00:05.936,-0.00019882900960508862
1485,00:00:05.94,0.032497344771400094
1486,00:00:05.944,0.008046172442846
1487,00:00:05.948,-0.05612004129216074
1488,00:00:05.952,0.0015428484184667407
1489,00:00:05.956,-0.01393319061025979
1490,00:00:05.96,0.017057728953659528
1491,00:00:05.964,0.03598755656275892
1492,00:00:05.968,5.830032750963991e-05
1493,00:00:05.972,-0.007389185018837424
1494,00:00:05.976,-0.008013434649910754
1495,00:00:05.98,-0.007498635939555288
1496,00:00:05.984,-0.016769309528172058
1497,00:00:05.988,0.01567929028533403
1498,00:00:05.992,0.0062963389791547905
1499,00:00:05.996,-0.0011289184913039199
1500,00:00:06,-0.0056600195821374984
1501,00:00:06.004,-0.006652882031630725
1502,00:00:06.008,0.03037265595048666
1503,00:00:06.012,-0.01076700678095225
1504,00:00:06.016,-0.02640911765047347
1505,00:00:06.02,0.02151175448670983
1506,00:00:06.024,0.015931298839859658
1507,00:00:06.028,-0.030383755802176927
1508,00:00:06.032,0.013836237369105248
1509,00:00:06.036,-0.009853949828539047
1510,00:00:06.04,-0.0071902988711372
1511,00:00:06.044,0.02032305407919925
1512,00:00:06.048,-0.006553959101438521
1513,00:00:06.052,-0.007441270863637332
1514,00:00:06.056,0.015752502484247068
1515,00:00:06.06,0.0008042993722483542
1516,00:00:06.064,0.009191071148961774
1517,00:00:06.068,-0.03369832289172338
1518,00:00:06.072,-0.008520807969034703
1519,00:00:06.076,0.02678730495972558
1520,00:00:06.08,0.00977479969151323
1521,00:00:06.084,0.009972173022106259
1522,00:00:06.088,-0.01908603141782803
1523,00:00:06.092,-0.028432155377231514
1524,00:00:06.096,0.01664004984195341
1525,00:00:06.1,-0.00037200434599071654
1526,00:00:06.104,0.011130787199363123
1527,00:00:06.108,0.01118828961625695
1528,00:00:06.112,-0.01251941337250169
1529,00:00:06.116,-0.006356276804581241
1530,00:00:06.12,0.004871686222031678
1531,00:00:06.124,0.01249284693039958
1532,00:00:06.128,-0.0116165173240006
1533,00:00:06.132,0.0035115970531478507
1534,00:00:06.136,-0.00794548913836482
1535,00:00:06.14,-0.01479538623243576
1536,00:00:06.144,0.023892639670521063
1537,00:00:06.148,0.005163037521924707
1538,00:00:06.152,-0.00867115799337625
1539,00:00:06.156,-0.0149314622394741
1540,00:00:06.16,0.013263590924907455
1541,00:00:06.164,0.009841055609285857
1542,00:00:06.168,-0.01065991504583508
1543,00:00:06.172,-0.01308622141368689
1544,00:00:06.176,0.01746302377432581
1545,00:00:06.18,0.01494830870069564
1546,00:00:06.184,-0.01245436677709218
1547,00:00:06.188,-0.016898273956030597
1548,00:00:06.192,-0.004355232929810868
1549,00:00:06.196,0.01671590376645329
1550,00:00:06.2,-0.01498686615377662
1551,00:00:06.204,0.03696877346374095
1552,00:00:06.208,-0.01379220001399514
1553,00:00:06.212,-0.025160939403576797
1554,00:00:06.216,0.029671424999833038
1555,00:00:06.22,-0.014404566958546687
1556,00:00:06.224,-0.010691089439205841
1557,00:00:06.228,0.018705192022025578
1558,00:00:06.232,0.00546441646292806
1559,00:00:06.236,-0.02142288775939958
1560,00:00:06.24,-0.02752442006021736
1561,00:00:06.244,0.022251988470088687
1562,00:00:06.248,0.043505008332431296
1563,00:00:06.252,-0.0017198817804455705
1564,00:00:06.256,-0.03147791977971788
1565,00:00:06.26,-0.02189853973686693
1566,00:00:06.264,0.01227159076370295
1567,00:00:06.268,0.020308575592935058
1568,00:00:06.272,-0.00436981697566807
1569,00:00:06.276,0.011797403916716579
1570,00:00:06.28,-0.011633520014584021
1571,00:00:06.284,-0.01013610057998448
1572,00:00:06.288,0.00424255291000009
1573,00:00:06.292,0.008399808779358867
1574,00:00:06.296,0.000917492085136409
1575,00:00:06.3,-0.01931589038576934
1576,00:00:06.304,-0.004106013802811529
1577,00:00:06.308,0.010170543915592129
1578,00:00:06.312,0.0359949278645218
1579,00:00:06.316,-0.018321610376005947
1580,00:00:06.32,-0.02890136023052045
1581,00:00:06.324,-0.01316277217119934
1582,00:00:06.328,0.05908665934111924
1583,00:00:06.332,0.012982726664631662
1584,00:00:06.336,-0.04928472498431795
1585,00:00:06.34,-0.01877909619361163
1586,00:00:06.344,0.004863810023380259
1587,00:00:06.348,0.01673283940181133
1588,00:00:06.352,-0.0036441022530198097
1589,00:00:06.356,0.03442058153450483
1590,00:00:06.36,-0.014118423685431512
1591,00:00:06.364,-0.0143389292061329
1592,00:00:06.368,0.0032854188466444594
1593,00:00:06.372,0.01133238768670707
1594,00:00:06.376,-0.03163788374513387
1595,00:00:06.38,0.01841753069311381
1596,00:00:06.384,0.021399671546532783
1597,00:00:06.388,-0.01633316930383445
1598,00:00:06.392,-0.01900542274233888
1599,00:00:06.396,0.00962187279947103
1600,00:00:06.4,-0.010703057516366217
1601,00:00:06.404,0.01198382256552578
1602,00:00:06.408,0.02730638871435078
1603,00:00:06.412,0.005539100500754966
1604,00:00:06.416,-0.03231180144939571
1605,00:00:06.42,-0.01716177922207862
1606,00:00:06.424,0.006413582945242529
1607,00:00:06.428,0.02911333274096252
1608,00:00:06.432,-0.00078988214954733
1609,00:00:06.436,-0.02097525424323974
1610,00:00:06.44,-0.02580326050519944
1611,00:00:06.444,0.03944679285632445
1612,00:00:06.448,0.02068451105151321
1613,00:00:06.452,-0.0082701442297548
1614,00:00:06.456,-0.029077535960823322
1615,00:00:06.46,-0.0167342006461695
1616,00:00:06.464,0.02668793615885074
1617,00:00:06.468,0.009855559095740303
1618,00:00:06.472,0.02196767972782255
1619,00:00:06.476,-0.04140238283434886
1620,00:00:06.48,-0.015206316486001062
1621,00:00:06.484,0.015329221030697272
1622,00:00:06.488,0.00958901457488532
1623,00:00:06.492,0.0036448342725634887
1624,00:00:06.496,0.01625640597194435
1625,00:00:06.5,0.005085662938654419
1626,00:00:06.504,-0.02831309475004674
1627,00:00:06.508,-0.034365595318377004
1628,00:00:06.512,0.04586431058123708
1629,00:00:06.516,-0.00880951236467804
1630,00:00:06.52,0.00302003444812729
1631,00:00:06.524,0.0047009792178869195
1632,00:00:06.528,-0.02962295827455822
1633,00:00:06.532,0.02551964558369952
1634,00:00:06.536,0.035385930794291226
1635,00:00:06.54,-0.03983017080463469
1636,00:00:06.544,-0.008724965038709398
1637,00:00:06.548,-0.0011420284863561427
1638,00:00:06.552,0.009042526129633221
1639,00:00:06.556,-0.0037894407287240106
1640,00:00:06.56,0.0069753741991007675
1641,00:00:06.564,0.01396281784400339
1642,00:00:06.568,0.0032953665358945693
1643,00:00:06.572,-0.02338839950971307
1644,00:00:06.576,-0.00453167560044676
1645,00:00:06.58,0.0075484127737581695
1646,00:00:06.584,-0.02606215048581363
1647,00:00:06.588,0.04226223891600967
1648,00:00:06.592,-0.012534146197140206
1649,00:00:06.596,0.03493613621685659
1650,00:00:06.6,-0.03906618943437932
1651,00:00:06.604,-0.04142074735136703
1652,00:00:06.608,0.04100079485215244
1653,00:00:06.612,0.04830274614869264
1654,00:00:06.616,-0.02459436655044557
1655,00:00:06.62,-0.047837032820098116
1656,00:00:06.624,-0.00784191535785794
1657,00:00:06.628,0.04851384763605894
1658,00:00:06.632,-0.005479332758113719
1659,00:00:06.636,-0.002850907389074532
1660,00:00:06.64,-0.008650720585137618
1661,00:00:06.644,0.007991780759766687
1662,00:00:06.648,-0.010721644794102763
1663,00:00:06.652,-0.00778631214052441
1664,00:00:06.656,0.05062957294285304
1665,00:00:06.66,-0.0263170218095183
1666,00:00:06.664,-0.025214396533556338
1667,00:00:06.668,-0.008205972611904139
1668,00:00:06.672,0.008599350461736321
1669,00:00:06.676,0.02891988423652947
1670,00:00:06.68,0.005012491485103939
1671,00:00:06.684,-0.02065716311335562
1672,00:00:06.688,0.003162222448736464
1673,00:00:06.692,0.001045951779815364
1674,00:00:06.696,0.00855626724660397
1675,00:00:06.7,-0.006190545856952669
1676,00:00:06.704,-0.030113285058178018
1677,00:00:06.708,-0.00013382872566585977
1678,00:00:06.712,0.0243082987144589
1679,00:00:06.716,0.02314125886186956
1680,00:00:06.72,-0.016341193579137322
1681,00:00:06.724,0.01351946918293833
1682,00:00:06.728,-0.026941535295918542
1683,00:00:06.732,0.0016415249556302712
1684,00:00:06.736,-0.01524239988066259
1685,00:00:06.74,0.01969767897389827
1686,00:00:06.744,0.013056317460723185
1687,00:00:06.748,-0.009222149965353338
1688,00:00:06.752,-0.0089119230397046
1689,00:00:06.756,0.02295830775983633
1690,00:00:06.76,0.012990893796086332
1691,00:00:06.764,-0.04011449217796322
1692,00:00:06.768,-0.02468634070828552
1693,00:00:06.772,0.020077450957614942
1694,00:00:06.776,0.009904286998789757
1695,00:00:06.78,0.025322312489151948
1696,00:00:06.784,0.01107304287143051
1697,00:00:06.788,-0.01262327143922448
1698,00:00:06.792,-0.029818411334417753
1699,00:00:06.796,-0.02004631399177015
1700,00:00:06.8,0.021203315758611965
1701,00:00:06.804,-0.0015127134975045893
1702,00:00:06.808,6.114819552749395e-05
1703,00:00:06.812,0.02629294898360965
1704,00:00:06.816,0.02070912870112811
1705,00:00:06.82,-0.01198580116033551
1706,00:00:06.824,-0.02552259151707408
1707,00:00:06.828,-0.01746369525790213
1708,00:00:06.832,0.00535677594598381
1709,00:00:06.836,0.0081393393920735
1710,00:00:06.84,-0.0034969139378517996
1711,00:00:06.844,0.0009432478691451217
1712,00:00:06.848,0.028566333930939478
1713,00:00:06.852,0.01975747605320061
1714,00:00:06.856,-0.03170124092139307
1715,00:00:06.86,-0.03135552536696202
1716,00:00:06.864,-0.01075044716708364
1717,00:00:06.868,0.02285346272401509
1718,00:00:06.872,0.02134420163929461
1719,00:00:06.876,-0.000576708232983939
1720,00:00:06.88,0.0161683605401777
1721,00:00:06.884,-0.014400840504095
1722,00:00:06.888,-0.027250867104157805
1723,00:00:06.892,-0.0020401031943038097
1724,00:00:06.896,0.020159785723080845
1725,00:00:06.9,0.002793202045722865
1726,00:00:06.904,-0.00035535072674974235
1727,00:00:06.908,-0.008511932333931322
1728,00:00:06.912,-0.006871561694424599
1729,00:00:06.916,0.01963765197433533
1730,00:00:06.92,0.010980069870129231
1731,00:00:06.924,-0.032463015522807843
1732,00:00:06.928,0.006353979930281638
1733,00:00:06.932,0.01861310948152092
1734,00:00:06.936,-0.006649235961958771
1735,00:00:06.94,-0.01997324265539646
1736,00:00:06.944,-0.01493967697024347
1737,00:00:06.948,0.05042495531961322
1738,00:00:06.952,0.02056775242090228
1739,00:00:06.956,-0.047345722559839466
1740,00:00:06.96,-0.03324474138207738
1741,00:00:06.964,0.01194911077618599
1742,00:00:06.968,0.04595262953080233
1743,00:00:06.972,0.02120723528787491
1744,00:00:06.976,-0.021239607885945613
1745,00:00:06.98,-0.04403302379068917
1746,00:00:06.984,-0.007323422934860041
1747,00:00:06.988,0.048762608319520964
1748,00:00:06.992,-0.017920531972777057
1749,00:00:06.996,0.00639947224408388
1750,00:00:07,0.0022013997659087207
1751,00:00:07.004,-0.004886376264039429
1752,00:00:07.008,-0.014999866485595688
1753,00:00:07.012,-0.00423997594043613
1754,00:00:07.016,0.04596491670235989
1755,00:00:07.02,-0.03990375995635987
1756,00:00:07.024,0.03361213277094069
1757,00:00:07.028,-0.00587620201986278
1758,00:00:07.032,-0.040641603409312686
1759,00:00:07.036,-0.01388818118721249
1760,00:00:07.04,0.0311534600332379
1761,00:00:07.044,0.018927993805846213
1762,00:00:07.048,0.007015754810709053
1763,00:00:07.052,-0.0005130913341417896
1764,00:00:07.056,-0.02609840082004669
1765,00:00:07.06,0.00030084571335465085
1766,00:00:07.064,0.02244925184641037
1767,00:00:07.068,-0.030968088423833248
1768,00:00:07.072,0.0026794575387612003
1769,00:00:07.076,0.024004691746085917
1770,00:00:07.08,0.0025188399013132204
1771,00:00:07.084,-0.02249860810115938
1772,00:00:07.088,0.0071440194733440685
1773,00:00:07.092,-0.00946790317539126
1774,00:00:07.096,0.007634585257619709
1775,00:00:07.1,0.03747733752243219
1776,00:00:07.104,-0.01621819485444577
1777,00:00:07.108,-0.04728321114089342
1778,00:00:07.112,-0.011680676601827152
1779,00:00:07.116,0.031003640731796643
1780,00:00:07.12,0.05431191297248012
1781,00:00:07.124,-0.02349103032611308
1782,00:00:07.128,-0.022715773433446898
1783,00:00:07.132,-0.0042920133564621
1784,00:00:07.136,-0.00701676856260747
1785,00:00:07.14,0.0016850207466632214
1786,00:00:07.144,0.00770483911037446
1787,00:00:07.148,0.011905640480108552
1788,00:00:07.152,0.008287635224405713
1789,00:00:07.156,0.005006961524486542
1790,00:00:07.16,-0.040298323696333724
1791,00:00:07.164,0.01901297736912962
1792,00:00:07.168,-0.00855350540950894
1793,00:00:07.172,0.008680967031978067
1794,00:00:07.176,-0.016857719601830468
1795,00:00:07.18,-0.007821498438715938
1796,00:00:07.184,0.05408215941861274
1797,00:00:07.188,0.038201583200134295
1798,00:00:07.192,-0.07092299731448291
1799,00:00:07.196,-0.04774466343224053
1800,00:00:07.2,0.024457208695821506
1801,00:00:07.204,0.03184290183708067
1802,00:00:07.208,0.0046184365637600405
1803,00:00:07.212,-0.000930489972233781
1804,00:00:07.216,0.0071308787446469415
1805,00:00:07.22,-0.002940846607089072
1806,00:00:07.224,-0.024645338300615577
1807,00:00:07.228,0.0125295324251056
1808,00:00:07.232,-0.01729015028104185
1809,00:00:07.236,0.007716960855759673
1810,00:00:07.24,0.0067307804711162905
1811,00:00:07.244,0.007229485316202039
1812,00:00:07.248,-0.0017276550643146003
1813,00:00:07.252,0.0060781934298574794
1814,00:00:07.256,-0.012809640931664045
1815,00:00:07.26,0.0059294513339410064
1816,00:00:07.264,-0.004945363703882327
1817,00:00:07.268,0.0013384842313825893
1818,00:00:07.272,-0.0005057528614997794
1819,00:00:07.276,0.012606374220922575
1820,00:00:07.28,-0.00891122641041879
1821,00:00:07.284,-0.010907225543633107
1822,00:00:07.288,0.001924812560901025
1823,00:00:07.292,-0.015737668611109243
1824,00:00:07.296,0.033660993445664644
1825,00:00:07.3,0.01369598833844066
1826,00:00:07.304,-0.007068967912346069
1827,00:00:07.308,-0.027901297959033376
1828,00:00:07.312,-0.0067128702939953655
1829,00:00:07.316,-0.0029094181372784087
1830,00:00:07.32,0.01248892419971526
1831,00:00:07.324,0.03351398254744713
1832,00:00:07.328,-0.022169499890878783
1833,00:00:07.332,0.0005791413423139619
1834,00:00:07.336,-0.03096575103700166
1835,00:00:07.34,0.01960858679376544
1836,00:00:07.344,0.04037323121156077
1837,00:00:07.348,-0.0047047352418303524
1838,00:00:07.352,-0.04174228338524699
1839,00:00:07.356,-0.03330155462026601
1840,00:00:07.36,0.026653196662664424
1841,00:00:07.364,0.02369167539291087
1842,00:00:07.368,0.010017314227297888
1843,00:00:07.372,0.02080614829901607
1844,00:00:07.376,-0.00647009001113474
1845,00:00:07.38,-0.03024931799154728
1846,00:00:07.384,-0.026782438857480863
1847,00:00:07.388,-0.004874697537161411
1848,00:00:07.392,0.016525916988030083
1849,00:00:07.396,0.03831203514710065
1850,00:00:07.4,-0.02074718568474053
1851,00:00:07.404,0.0022246713051572373
1852,00:00:07.408,0.018675102852284877
1853,00:00:07.412,-0.009955343324691019
1854,00:00:07.416,-0.019178641116013768
1855,00:00:07.42,-0.02531264123535944
1856,00:00:07.424,0.016815426410175874
1857,00:00:07.428,0.04661209415644406
1858,00:00:07.432,-0.02957446034997699
1859,00:00:07.436,0.013289398513734299
1860,00:00:07.44,-0.0106739164330065
1861,00:00:07.444,-0.017496941320132464
1862,00:00:07.448,0.01679298467934129
1863,00:00:07.452,-0.020281235221773428
1864,00:00:07.456,0.00034916121512654913
1865,00:00:07.46,0.05143664265051477
1866,00:00:07.464,-0.01299811631906778
1867,00:00:07.468,-0.0395370716905745
1868,00:00:07.472,-0.012696122983470549
1869,00:00:07.476,0.01326243847142907
1870,00:00:07.48,0.027553805848583558
1871,00:00:07.484,-0.00592565617989749
1872,00:00:07.488,0.015587565954774568
1873,00:00:07.492,-0.012072004494257268
1874,00:00:07.496,0.01302611461142077
1875,00:00:07.5,-0.006607435352634642
1876,00:00:07.504,-0.02619057241827241
1877,00:00:07.508,-0.01724267657846218
1878,00:00:07.512,0.00395662197843196
1879,00:00:07.516,0.03269424033351235
1880,00:00:07.52,-0.008480939315631979
1881,00:00:07.524,-0.0016452313866466613
1882,00:00:07.528,0.03315870242659005
1883,00:00:07.532,-0.03132306225597852
1884,00:00:07.536,0.0032946087885648
1885,00:00:07.54,-0.0007339462608797449
1886,00:00:07.544,-0.001157896360382481
1887,00:00:07.548,-0.021302720997482538
1888,00:00:07.552,0.01768572319997476
1889,00:00:07.556,-0.002150800311937929
1890,00:00:07.56,0.00462720729410648
1891,00:00:07.564,0.00724925758549948
1892,00:00:07.568,0.01684574084356427
1893,00:00:07.572,-0.01022937847301363
1894,00:00:07.576,-0.03031101962551479
1895,00:00:07.58,0.008417398377787284
1896,00:00:07.584,0.010951925767585611
1897,00:00:07.588,-0.0029840383213013966
1898,00:00:07.592,-0.01155454292893417
1899,00:00:07.596,-0.0024083754979074
1900,00:00:07.6,0.025025383103638943
1901,00:00:07.604,-0.0069204955361783504
1902,00:00:07.608,-0.00873570295516402
1903,00:00:07.612,0.01890145963989199
1904,00:00:07.616,0.0191115783527494
1905,00:00:07.62,-0.02649760781787335
1906,00:00:07.624,-0.03202181938104332
1907,00:00:07.628,0.003977409563958622
1908,00:00:07.632,0.021041639032773635
1909,00:00:07.636,0.010058564017526798
1910,00:00:07.64,-0.01289731846190989
1911,00:00:07.644,0.00420802924782036
1912,00:00:07.648,-0.010269689606502649
1913,00:00:07.652,0.01999505248386412
1914,00:00:07.656,0.0129686940927058
1915,00:00:07.66,-0.029230027459561818
1916,00:00:07.664,-0.006565332063473761
1917,00:00:07.668,-0.01022051903419197
1918,00:00:07.672,0.028851201059296692
1919,00:00:07.676,0.0122855381341651
1920,00:00:07.68,-0.018498273566365207
1921,00:00:07.684,0.0028409004444256494
1922,00:00:07.688,-0.0124191474169492
1923,00:00:07.692,0.0030555122066289195
1924,00:00:07.696,0.0005785245448350906
1925,00:00:07.7,0.033209059387445464
1926,00:00:07.704,-0.003742208937182999
1927,00:00:07.708,-0.04386982711730526
1928,00:00:07.712,-0.009319532662630099
1929,00:00:07.716,0.012892092578113029
1930,00:00:07.72,0.036725088022649253
1931,00:00:07.724,0.004300692235119632
1932,00:00:07.728,-0.02053059823811049
1933,00:00:07.732,0.0019711725544766575
1934,00:00:07.736,-0.007363188546150888
1935,00:00:07.74,-0.014585678465664408
1936,00:00:07.744,0.01283935271203519
1937,00:00:07.748,-0.010978897276800122
1938,00:00:07.752,0.0036183334887028296
1939,00:00:07.756,0.02506877202540639
1940,00:00:07.76,0.007420389214530579
1941,00:00:07.764,-0.01631568139418957
1942,00:00:07.768,-0.01134314248338341
1943,00:00:07.772,0.0010165697894990396
1944,00:00:07.776,0.005079249851405636
1945,00:00:07.78,-0.02933156373910603
1946,00:00:07.784,0.01588275842368605
1947,00:00:07.788,0.05303292756434532
1948,00:00:07.792,-0.01896735990885642
1949,00:00:07.796,-0.022676574240904294
1950,00:00:07.8,-0.02193185314536096
1951,00:00:07.804,0.016531657194718722
1952,00:00:07.808,0.017496112734079413
1953,00:00:07.812,-0.0025557698099873986
1954,00:00:07.816,-0.005030047497712075
1955,00:00:07.82,-0.00861404417082667
1956,00:00:07.824,-0.004381212638691069
1957,00:00:07.828,-0.00708729680627582
1958,00:00:07.832,0.03314122091978786
1959,00:00:07.836,0.0018420014530420303
1960,00:00:07.84,3.9054080843909864e-05
1961,00:00:07.844,-0.038721695542335496
1962,00:00:07.848,0.0048706973902881605
1963,00:00:07.852,0.014657221792731448
1964,00:00:07.856,-0.009249550057575131
1965,00:00:07.86,0.05637783743441105
1966,00:00:07.864,-0.03309450834058228
1967,00:00:07.868,-0.03133765887469052
1968,00:00:07.872,-0.011878925026394399
1969,00:00:07.876,0.039506001630797996
1970,00:00:07.88,0.014139661332592368
1971,00:00:07.884,-0.053117520175874136
1972,00:00:07.888,0.04500779090449214
1973,00:00:07.892,-0.030373934656381593
1974,00:00:07.896,0.0273454026319087
1975,00:00:07.9,-0.003592364024370905
1976,00:00:07.904,-0.027217774651944672
1977,00:00:07.908,0.026078130118548842
1978,00:00:07.912,0.03278677351772788
1979,00:00:07.916,-0.04113311786204581
1980,00:00:07.92,-0.01686546183191244
1981,00:00:07.924,-0.00506977550685405
1982,00:00:07.928,0.01531277780304664
1983,00:00:07.932,0.0225453861057758
1984,00:00:07.936,-0.012827860424295073
1985,00:00:07.94,-0.0053326534107326976
1986,00:00:07.944,0.02209946513175963
1987,00:00:07.948,0.002644398715346972
1988,00:00:07.952,-0.04607213148847221
1989,00:00:07.956,0.0038563536363653596
1990,00:00:07.96,0.04209462320432065
1991,00:00:07.964,-0.0195464575663209
1992,00:00:07.968,-0.027528550359420447
1993,00:00:07.972,0.014115536148892702
1994,00:00:07.976,0.03386954253073786
1995,00:00:07.98,0.011960184841882437
1996,00:00:07.984,-0.021135940682143
1997,00:00:07.988,-0.042756491340696826
1998,00:00:07.992,0.010214129928499422
1999,00:00:07.996,0.03589118097443141
2000,00:00:08,-0.013328158238437032
2001,00:00:08.004,-0.02166121173650022
2002,00:00:08.008,0.01106614759191871
2003,00:00:08.012,0.01834757439792157
2004,00:00:08.016,-6.77125062793515e-05
2005,00:00:08.02,-0.007889582309871919
2006,00:00:08.024,-0.011440710397437201
2007,00:00:08.028,0.028066644968930583
2008,00:00:08.032,-0.00855671672616154
2009,00:00:08.036,-0.029390107840299627
2010,00:00:08.04,0.014312336745206272
2011,00:00:08.044,0.01078324828995392
2012,00:00:08.048,-0.0116106893401593
2013,00:00:08.052,-0.030650836881250153
2014,00:00:08.056,0.052334728185087415
2015,00:00:08.06,0.011996820103377139
2016,00:00:08.064,-0.021616370882838958
2017,00:00:08.068,0.001444052904844239
2018,00:00:08.072,-0.0170073667541146
2019,00:00:08.076,-0.016550886910408732
2020,00:00:08.08,-0.0048298279289155505
2021,00:00:08.084,0.06729001901112491
2022,00:00:08.088,-0.02381354663521051
2023,00:00:08.092,0.018734574085101485
2024,00:00:08.096,-0.059601665067020776
2025,00:00:08.1,0.0006581270135939104
2026,00:00:08.104,0.02305128762964155
2027,00:00:08.108,-0.0030956994742155214
2028,00:00:08.112,0.025991547387093326
2029,00:00:08.116,-0.004063258296810071
2030,00:00:08.12,-0.02013603178784253
2031,00:00:08.124,-0.0005637444555759083
2032,00:00:08.128,0.01479918556287885
2033,00:00:08.132,-0.004625111760105931
2034,00:00:08.136,-0.01376275444636122
2035,00:00:08.14,0.0023595166858285705
2036,00:00:08.144,0.01423472794704139
2037,00:00:08.148,-0.012332010548561811
2038,00:00:08.152,-0.00215251953341067
2039,00:00:08.156,-0.002005870046559722
2040,00:00:08.16,0.02154464786872266
2041,00:00:08.164,-0.010355836275266483
2042,00:00:08.168,0.01254858146421606
2043,00:00:08.172,0.01000471645966176
2044,00:00:08.176,-0.0550736268050969
2045,00:00:08.18,0.016944570234045362
2046,00:00:08.184,0.0011656386777758902
2047,00:00:08.188,0.03886230285570494
2048,00:00:08.192,-0.00997182307764881
2049,00:00:08.196,-0.02066920278593895
2050,00:00:08.2,0.00212964182719594
2051,00:00:08.204,-0.014080558787100024
2052,00:00:08.208,0.006346072070300571
2053,00:00:08.212,-0.02725583221763371
2054,00:00:08.216,0.05610925948712976
2055,00:00:08.22,0.012117831036448427
2056,00:00:08.224,-0.021801199793117107
2057,00:00:08.228,0.003348860307596589
2058,00:00:08.232,-0.013167500903364271
2059,00:00:08.236,-0.012354126200079925
2060,00:00:08.24,0.00651244586333628
2061,00:00:08.244,-0.0016351845115422786
2062,00:00:08.248,0.014087548479437849
2063,00:00:08.252,0.001226882915943861
2064,00:00:08.256,-0.00896386336535213
2065,00:00:08.26,-0.017686323961243047
2066,00:00:08.264,0.014674101490527421
2067,00:00:08.268,-0.00266430643387139
2068,00:00:08.272,0.023358517151791602
2069,00:00:08.276,-0.0102387549704872
2070,00:00:08.28,0.012944065732881467
2071,00:00:08.284,-0.004501111252466215
2072,00:00:08.288,-0.017162187024951012
2073,00:00:08.292,-0.02784333645831794
2074,00:00:08.296,0.01293996651656926
2075,00:00:08.3,0.02343635144643488
2076,00:00:08.304,0.0108757882844657
2077,00:00:08.308,-0.01747455017175523
2078,00:00:08.312,-0.0018280176445841512
2079,00:00:08.316,0.013105612481012937
2080,00:00:08.32,-0.00980198988690972
2081,00:00:08.324,-0.0018297331407666198
2082,00:00:08.328,-0.01256381906569004
2083,00:00:08.332,-0.011003115505445752
2084,00:00:08.336,0.0523547146003693
2085,00:00:08.34,0.02243314543738961
2086,00:00:08.344,-0.057429091772064594
2087,00:00:08.348,-0.0501162325963378
2088,00:00:08.352,0.04490942833945153
2089,00:00:08.356,0.03054199973121284
2090,00:00:08.36,-0.001983387395739531
2091,00:00:08.364,-0.004045846406370399
2092,00:00:08.368,-0.02193919708952302
2093,00:00:08.372,0.01505960430949926
2094,00:00:08.376,-0.014680338208563619
2095,00:00:08.38,0.023120617493987108
2096,00:00:08.384,-0.018870159517973648
2097,00:00:08.388,-0.00959932710975405
2098,00:00:08.392,0.020584730198606842
2099,00:00:08.396,-0.00570668396539986
2100,00:00:08.4,0.0014177919365465814
2101,00:00:08.404,0.0037999111227691095
2102,00:00:08.408,0.006299819797277452
2103,00:00:08.412,-0.00883954437449575
2104,00:00:08.416,-0.01031705178320404
2105,00:00:08.42,0.0016517858020961198
2106,00:00:08.424,-0.024800489190965898
2107,00:00:08.428,0.032658186391927316
2108,00:00:08.432,0.06540632294490932
2109,00:00:08.436,-0.06411326804663983
2110,00:00:08.44,-0.03823049279890256
2111,00:00:08.444,0.016071306308731437
2112,00:00:08.448,0.013418520771665497
2113,00:00:08.452,0.007552639566711149
2114,00:00:08.456,0.0021384628489613507
2115,00:00:08.46,0.021686560183297815
2116,00:00:08.464,-0.03425306221470234
2117,00:00:08.468,0.00266500189900392
2118,00:00:08.472,0.0188076589256525
2119,00:00:08.476,-0.018873097491450636
2120,00:00:08.48,0.016327633682521943
2121,00:00:08.484,-0.010839516762644082
2122,00:00:08.488,-0.007245889515615956
2123,00:00:08.492,-0.006602900073630736
2124,00:00:08.496,-0.01703861879650506
2125,00:00:08.5,0.0415179273113608
2126,00:00:08.504,0.035410514217801406
2127,00:00:08.508,-0.01639462844468657
2128,00:00:08.512,-0.04123873263597491
2129,00:00:08.516,-0.00712896732147783
2130,00:00:08.52,-0.014262567157857148
2131,00:00:08.524,0.03061053971759972
2132,00:00:08.528,0.03692892892286187
2133,00:00:08.532,-0.034545261412859
2134,00:00:08.536,-0.01331105758436021
2135,00:00:08.54,0.017631140770390588
2136,00:00:08.544,-0.004473245702683941
2137,00:00:08.548,-0.00598631927277892
2138,00:00:08.552,0.019827653653919742
2139,00:00:08.556,-0.004000060027465242
2140,00:00:08.56,-0.013518632389605044
2141,00:00:08.564,-0.00402201199904075
2142,00:00:08.568,0.017146369675174362
2143,00:00:08.572,-0.017339286394417328
2144,00:00:08.576,0.006263590999878945
2145,00:00:08.58,-0.007713771658018251
2146,00:00:08.584,0.019111557921860332
2147,00:00:08.588,0.0003416482159081802
2148,00:00:08.592,-0.0060716615989804285
2149,00:00:08.596,-0.01577902247663584
2150,00:00:08.6,0.01397576532326639
2151,00:00:08.604,0.00099926715483889
2152,00:00:08.608,0.002123949932865803
2153,00:00:08.612,-0.009386116405948951
2154,00:00:08.616,0.004864112823270249
2155,00:00:08.62,0.018402221379801582
2156,00:00:08.624,-0.02663033502176404
2157,00:00:08.628,-0.025278705637902
2158,00:00:08.632,0.04838875937275589
2159,00:00:08.636,0.014476840675342832
2160,00:00:08.64,-0.03837577300146228
2161,00:00:08.644,-0.003884340694639828
2162,00:00:08.648,-0.01120095752412453
2163,00:00:08.652,0.03530827490612868
2164,00:00:08.656,0.03477152530103928
2165,00:00:08.66,-0.05395154282450673
2166,00:00:08.664,-0.027134757150633994
2167,00:00:08.668,0.028977658192161436
2168,00:00:08.672,0.010647014249116179
2169,00:00:08.676,0.010357769206166299
2170,00:00:08.68,-0.0219650322105736
2171,00:00:08.684,0.004794176667928739
2172,00:00:08.688,0.011310420464724299
2173,00:00:08.692,-6.0318270698180194e-05
2174,00:00:08.696,-0.012235620059072971
2175,00:00:08.7,-0.012582304574607402
2176,00:00:08.704,0.005604200065135951
2177,00:00:08.708,0.04376985215640167
2178,00:00:08.712,-0.02438337448984389
2179,00:00:08.716,-0.022806456458056318
2180,00:00:08.72,-0.0015108399093150902
2181,00:00:08.724,0.01406763610430062
2182,00:00:08.728,0.00035861454671248794
2183,00:00:08.732,-0.008823500014841551
2184,00:00:08.736,0.017380887176841497
2185,00:00:08.74,0.0025391383096575702
2186,00:00:08.744,0.0015264642424881875
2187,00:00:08.748,-0.02415239904075865
2188,00:00:08.752,0.009686320088803773
2189,00:00:08.756,0.011214687488973162
2190,00:00:08.76,-0.0015121472060854943
2191,00:00:08.764,-0.017144717741757666
2192,00:00:08.768,-0.00407698377966881
2193,00:00:08.772,-0.00849521975032985
2194,00:00:08.776,0.04331673413980751
2195,00:00:08.78,-0.00034520981716917344
2196,00:00:08.784,-0.01186933065764602
2197,00:00:08.788,-0.02602991112507881
2198,00:00:08.792,0.004082738829310981
2199,00:00:08.796,0.02007785975001753
2200,00:00:08.8,0.0002735152374952702
2201,00:00:08.804,0.003415766055695711
2202,00:00:08.808,-0.00947151379659772
2203,00:00:08.812,-0.00944034964777533
2204,00:00:08.816,-0.009635351016186181
2205,00:00:08.82,0.016774555202573538
2206,00:00:08.824,0.006528055062517531
2207,00:00:08.828,0.009393407497555049
2208,00:00:08.832,0.011233104858547453
2209,00:00:08.836,-0.03913482453208415
2210,00:00:08.84,-0.009255411452613731
2211,00:00:08.844,0.01085280231200157
2212,00:00:08.848,0.003025914542377047
2213,00:00:08.852,0.01733370893634858
2214,00:00:08.856,0.03964362549595532
2215,00:00:08.86,-0.03488765969814264
2216,00:00:08.864,-0.03582876641303301
2217,00:00:08.868,-0.007384763215668531
2218,00:00:08.872,0.016268414910882698
2219,00:00:08.876,0.02140968292951582
2220,00:00:08.88,0.004529255907982631
2221,00:00:08.884,0.0022291669156402406
2222,00:00:08.888,-0.00784816686064005
2223,00:00:08.892,-0.02776028634980322
2224,00:00:08.896,0.00025398196885362387
2225,00:00:08.9,0.034835600294172764
2226,00:00:08.904,0.00661060074344277
2227,00:00:08.908,-0.026006571017205757
2228,00:00:08.912,0.02197390526998783
2229,00:00:08.916,-0.02690024906769396
2230,00:00:08.92,-0.02338253555353734
2231,00:00:08.924,0.036796115455217646
2232,00:00:08.928,0.03637539083138107
2233,00:00:08.932,-0.061982863117009415
2234,00:00:08.936,0.01019845926202834
2235,00:00:08.94,0.02789171319454906
2236,00:00:08.944,-0.0024832640774547603
2237,00:00:08.948,-0.021633614785969278
2238,00:00:08.952,0.0056494644377380505
2239,00:00:08.956,0.008436973206698908
2240,00:00:08.96,-0.02840487984940413
2241,00:00:08.964,0.014501005061902095
2242,00:00:08.968,0.01937625254504385
2243,00:00:08.972,0.010404173284769117
2244,00:00:08.976,-0.02004631049931048
2245,00:00:08.98,0.01114807580597694
2246,00:00:08.984,-0.03014004696160559
2247,00:00:08.988,-0.0017644952749833547
2248,00:00:08.992,0.02381971990689636
2249,00:00:08.996,0.00830923323519528
2250,00:00:09,-0.02633776050060984
2251,00:00:09.004,0.01811662968248125
2252,00:00:09.008,0.028785787522792892
2253,00:00:09.012,-0.05215023597702387
2254,00:00:09.016,0.005182196851819842
2255,00:00:09.02,0.000179709808435298
2256,00:00:09.024,0.03133563464507461
2257,00:00:09.028,-0.008252489380538474
2258,00:00:09.032,-0.00873470865190029
2259,00:00:09.036,-0.02386538474820554
2260,00:00:09.04,0.029270649421960143
2261,00:00:09.044,-0.0076996925636194655
2262,00:00:09.048,0.012432122137397531
2263,00:00:09.052,-0.00903585972264414
2264,00:00:09.056,-0.007693863008171321
2265,00:00:09.06,0.00332021783106028
2266,00:00:09.064,0.01226447615772484
2267,00:00:09.068,-0.010732135036960268
2268,00:00:09.072,-0.007748707314021871
2269,00:00:09.076,0.006825550459325279
2270,00:00:09.08,0.007861734135076423
2271,00:00:09.084,-0.015647408436052487
2272,00:00:09.088,-0.004882502340478805
2273,00:00:09.092,0.034449318423867246
2274,00:00:09.096,0.016461225342936828
2275,00:00:09.1,-0.0314889809815213
2276,00:00:09.104,-0.029858423396944958
2277,00:00:09.108,-0.0072769601829349995
2278,00:00:09.112,0.02573554497212168
2279,00:00:09.116,0.0012360699474811493
2280,00:00:09.12,0.01771977217867973
2281,00:00:09.124,0.0032207749900408133
2282,00:00:09.128,0.006827931574662218
2283,00:00:09.132,-0.01768360391724851
2284,00:00:09.136,-0.01124784303829075
2285,00:00:09.14,-0.03121944423764942
2286,00:00:09.144,0.03128943592309951
2287,00:00:09.148,0.030013502604560878
2288,00:00:09.152,-0.01909515028819443
2289,00:00:09.156,-0.0014505644794553596
2290,00:00:09.16,0.0017426775302738012
2291,00:00:09.164,-0.01265168865211307
2292,00:00:09.168,-0.01944269344676286
2293,00:00:09.172,0.030697096954099848
2294,00:00:09.176,0.024211212992668117
2295,00:00:09.18,-0.012186986859887818
2296,00:00:09.184,-0.018067405093461282
2297,00:00:09.188,-0.022495337761938537
2298,00:00:09.192,-0.0006174260633997671
2299,00:00:09.196,0.02971077186521138
2300,00:00:09.2,0.007334618945606049
2301,00:00:09.204,-0.012308215780649334
2302,00:00:09.208,0.04065337777137762
2303,00:00:09.212,-0.0188527414575219
2304,00:00:09.216,-0.02860306669026609
2305,00:00:09.22,-0.027802122291177567
2306,00:00:09.224,0.010914844926446652
2307,00:00:09.228,0.01837756484746933
2308,00:00:09.232,0.0016304650343954702
2309,00:00:09.236,0.029436455573886647
2310,00:00:09.24,0.010038971668109312
2311,00:00:09.244,-0.04102343693375582
2312,00:00:09.248,-0.01535509759560224
2313,00:00:09.252,0.01902083470486105
2314,00:00:09.256,-0.0035413730656728096
2315,00:00:09.26,0.0009198352927342089
2316,00:00:09.264,0.019083931925706562
2317,00:00:09.268,-0.001090777106583121
2318,00:00:09.272,-0.0237421303754672
2319,00:00:09.276,0.003474882105365391
2320,00:00:09.28,0.0038880174979567398
2321,00:00:09.284,0.005964626907370981
2322,00:00:09.288,0.00675072567537427
2323,00:00:09.292,-0.00910330703482032
2324,00:00:09.296,5.9566402342169664e-05
2325,00:00:09.3,0.0047787297517061286
2326,00:00:09.304,-0.01286317640915516
2327,00:00:09.308,-0.013147125020623141
2328,00:00:09.312,0.02332551358267663
2329,00:00:09.316,0.026011867448687574
2330,00:00:09.32,-0.000346807297319212
2331,00:00:09.324,-0.030712423846125537
2332,00:00:09.328,-0.04083967016777026
2333,00:00:09.332,0.016956252744421363
2334,00:00:09.336,0.02992000384256241
2335,00:00:09.34,0.016678303305525298
2336,00:00:09.344,0.00392990652471786
2337,00:00:09.348,-0.01186896464787423
2338,00:00:09.352,-0.016213147740927476
2339,00:00:09.356,-0.018775257514789662
2340,00:00:09.36,0.008582893759012219
2341,00:00:09.364,0.028583578532561618
2342,00:00:09.368,-0.01340432767756278
2343,00:00:09.372,0.0017380542121827602
2344,00:00:09.376,0.005891476175747809
2345,00:00:09.38,-0.02614284213632343
2346,00:00:09.384,0.01552716945298016
2347,00:00:09.388,0.01375963131431486
2348,00:00:09.392,-0.013340440607862554
2349,00:00:09.396,-0.010092059150338182
2350,00:00:09.4,0.02714962908066805
2351,00:00:09.404,0.03081390401348469
2352,00:00:09.408,-0.05944946489762513
2353,00:00:09.412,-0.03556147450581192
2354,00:00:09.416,0.03227481967769561
2355,00:00:09.42,0.008382661268115097
2356,00:00:09.424,0.02491408446803691
2357,00:00:09.428,-0.0050458286423236106
2358,00:00:09.432,-0.0020187958143651516
2359,00:00:09.436,0.031851107953116305
2360,00:00:09.44,-0.037904362892731976
2361,00:00:09.444,-0.03758373809978362
2362,00:00:09.448,0.015937016927637212
2363,00:00:09.452,0.014044148381799421
2364,00:00:09.456,0.0019847854273393794
2365,00:00:09.46,0.0018454662349540758
2366,00:00:09.464,0.0027874611550942003
2367,00:00:09.468,-6.128009408712908e-05
2368,00:00:09.472,-0.004076822835486387
2369,00:00:09.476,0.02068506993236947
2370,00:00:09.48,0.02247968828305603
2371,00:00:09.484,-0.06788428925210613
2372,00:00:09.488,-0.008051443845033621
2373,00:00:09.492,0.027915082464460315
2374,00:00:09.496,0.00555572332814336
2375,00:00:09.5,0.00204581511206925
2376,00:00:09.504,0.00855716317892074
2377,00:00:09.508,0.00405274145305155
2378,00:00:09.512,-0.0024381408002227406
2379,00:00:09.516,-0.03301762510091072
2380,00:00:09.52,0.03231170843355349
2381,00:00:09.524,-0.01452009053900843
2382,00:00:09.528,-0.0005994854727759905
2383,00:00:09.532,0.013629074906930352
2384,00:00:09.536,-0.013579216494690651
2385,00:00:09.54,0.0024957971181721397
2386,00:00:09.544,-0.017256577964872108
2387,00:00:09.548,0.014060337445698729
2388,00:00:09.552,0.016582037787884533
2389,00:00:09.556,0.006694231415167431
2390,00:00:09.56,-0.01808486483059828
2391,00:00:09.564,0.0115674103144556
2392,00:00:09.568,-0.01674648839980364
2393,00:00:09.572,0.0020123600552324258
2394,00:00:09.576,-0.009648273990023878
2395,00:00:09.58,-0.0007321017328650106
2396,00:00:09.584,0.009671261301264129
2397,00:00:09.588,0.01542053336743264
2398,00:00:09.592,-0.00628518080338832
2399,00:00:09.596,0.007903333753347428
2400,00:00:09.6,-0.01126148970797658
2401,00:00:09.604,0.01147347036749125
2402,00:00:09.608,-0.035927790682762875
2403,00:00:09.612,0.019968662876635793
2404,00:00:09.616,-0.011163133545778657
2405,00:00:09.62,0.0062191945035010585
2406,00:00:09.624,0.01836648909375075
2407,00:00:09.628,0.00650031073018908
2408,00:00:09.632,-0.0141758187673986
2409,00:00:09.636,-0.021230788202956298
2410,00:00:09.64,0.01434829179197546
2411,00:00:09.644,0.0025755590759217904
2412,00:00:09.648,0.01807442586869001
2413,00:00:09.652,0.006862479960545899
2414,00:00:09.656,-0.03156100236810745
2415,00:00:09.66,-0.01989423763006929
2416,00:00:09.664,0.014139432460069688
2417,00:00:09.668,0.033778480603359584
2418,00:00:09.672,-0.007700025686062817
2419,00:00:09.676,-0.03108999738469726
2420,00:00:09.68,0.008277429864392621
2421,00:00:09.684,0.02222817763686178
2422,00:00:09.688,-0.0054799581412226005
2423,00:00:09.692,-0.014608974801376459
2424,00:00:09.696,0.00892487581586466
2425,00:00:09.7,-0.0014663071051472841
2426,00:00:09.704,0.00721371220424772
2427,00:00:09.708,-0.006828424084233118
2428,00:00:09.712,0.0015407465398311697
2429,00:00:09.716,-0.005415205843746693
2430,00:00:09.72,0.01921687391586597
2431,00:00:09.724,-0.012907066848129038
2432,00:00:09.728,-0.018529158725868928
2433,00:00:09.732,0.003641925053671
2434,00:00:09.736,0.0061237651389092
2435,00:00:09.74,0.0034167993580922497
2436,00:00:09.744,0.03422229248099034
2437,00:00:09.748,-0.008684186323080217
2438,00:00:09.752,-0.03328456077724686
2439,00:00:09.756,-0.02170699462294577
2440,00:00:09.76,0.030446622869931148
2441,00:00:09.764,0.008945969981141394
2442,00:00:09.768,-0.00676138349808752
2443,00:00:09.772,-0.007797055761329811
2444,00:00:09.776,0.02230560383759442
2445,00:00:09.78,-0.006614815050852491
2446,00:00:09.784,-0.003796223318204282
2447,00:00:09.788,0.010431748349219519
2448,00:00:09.792,-0.03579880460165434
2449,00:00:09.796,0.004995026916731149
2450,00:00:09.8,0.02463000547140832
2451,00:00:09.804,-0.002662326209247088
2452,00:00:09.808,-0.017285010835621506
2453,00:00:09.812,0.006792679312638888
2454,00:00:09.816,0.01136205205693841
2455,00:00:09.82,-0.0024105980992317096
2456,00:00:09.824,0.0024844435392878963
2457,00:00:09.828,-0.005308991880156098
2458,00:00:09.832,0.008152102585881948
2459,00:00:09.836,-0.021080610807985088
2460,00:00:09.84,-0.002479347167536619
2461,00:00:09.844,0.022142892703413967
2462,00:00:09.848,-0.017462696298025618
2463,00:00:09.852,0.01769311027601364
2464,00:00:09.856,-0.0011257701553404403
2465,00:00:09.86,0.0024980357848107776
2466,00:00:09.864,-0.01818191062193359
2467,00:00:09.868,0.006839228401076975
2468,00:00:09.872,-0.002295068872626817
2469,00:00:09.876,0.0013596810167655305
2470,00:00:09.88,0.00853034120518717
2471,00:00:09.884,-0.012636439525522299
2472,00:00:09.888,0.00958932307548821
2473,00:00:09.892,-0.006634286255575721
2474,00:00:09.896,0.007557064411230363
2475,00:00:09.9,-0.008801327086985111
2476,00:00:09.904,0.00934219115879387
2477,00:00:09.908,0.002693395479582302
2478,00:00:09.912,-0.025798148475587382
2479,00:00:09.916,0.015012392133939989
2480,00:00:09.92,0.027248708065599227
2481,00:00:09.924,0.00762633746489883
2482,00:00:09.928,-0.027724239975214025
2483,00:00:09.932,-0.05564419459551577
2484,00:00:09.936,0.028718376881442992
2485,00:00:09.94,0.03690125327557325
2486,00:00:09.944,0.003565546125173579
2487,00:00:09.948,-0.0080293004866689
2488,00:00:09.952,-0.012453249073587358
2489,00:00:09.956,0.005891740758670496
2490,00:00:09.96,-0.0008080503903329702
2491,00:00:09.964,-0.000435347901657189
2492,00:00:09.968,0.00892205769196153
2493,00:00:09.972,-0.01554284337908028
2494,00:00:09.976,-0.015292151132598531
2495,00:00:09.98,0.00641630170866847
2496,00:00:09.984,0.015517103020101793
2497,00:00:09.988,0.026655444875359532
2498,00:00:09.992,-0.02299030654830858
2499,00:00:09.996,-0.008086688350886119
2500,00:00:10,-0.00107568863313646
2501,00:00:10.004,-0.004656473356590135
2502,00:00:10.008,0.007824942877050487
2503,00:00:10.012,0.00822175957728177
2504,00:00:10.016,-0.0031480006873607696
2505,00:00:10.02,-0.010703792795538892
2506,00:00:10.024,0.01210856786929071
2507,00:00:10.028,-0.0005441461689770326
2508,00:00:10.032,-0.02099765976890925
2509,00:00:10.036,0.01039001019671556
2510,00:00:10.04,0.04340535122901204
2511,00:00:10.044,-0.0358411622146377
2512,00:00:10.048,0.004914706805720925
2513,00:00:10.052,-0.034555892460048226
2514,00:00:10.056,-0.020185069151921177
2515,00:00:10.06,0.06407509138807652
2516,00:00:10.064,0.009968449885491238
2517,00:00:10.068,-0.02788111520931126
2518,00:00:10.072,0.01676143775694074
2519,00:00:10.076,-0.010438531870022399
2520,00:00:10.08,-0.008956209290772638
2521,00:00:10.084,-0.007243450731039042
2522,00:00:10.088,0.01204108831007034
2523,00:00:10.092,0.003311725333333031
2524,00:00:10.096,-0.005351128929760308
2525,00:00:10.1,-0.00253390206489712
2526,00:00:10.104,0.009822408203035591
2527,00:00:10.108,0.0014820301057625338
2528,00:00:10.112,-0.012181416153907769
2529,00:00:10.116,0.005246538203209643
2530,00:00:10.12,-0.012618440996448073
2531,00:00:10.124,0.014960686676204166
2532,00:00:10.128,0.020155201666057138
2533,00:00:10.132,-0.0424997685477138
2534,00:00:10.136,0.017887929221615206
2535,00:00:10.14,0.02285243757069107
2536,00:00:10.144,-0.009587806649506052
2537,00:00:10.148,-0.019302698594401545
2538,00:00:10.152,-0.027113498654216583
2539,00:00:10.156,0.01724410918541255
2540,00:00:10.16,0.03405529027804735
2541,00:00:10.164,0.00894693844020364
2542,00:00:10.168,-0.01487819803878664
2543,00:00:10.172,-0.005973023871774779
2544,00:00:10.176,-0.027983802545350125
2545,00:00:10.18,0.017663571052253222
2546,00:00:10.184,0.01443125982768832
2547,00:00:10.188,-0.0033229091204703617
2548,00:00:10.192,-0.013804527930915328
2549,00:00:10.196,0.015869526192545887
2550,00:00:10.2,0.011916145915165523
2551,00:00:10.204,-0.011031385976821191
2552,00:00:10.208,-0.03446044260635975
2553,00:00:10.212,0.01716042915359144
2554,00:00:10.216,0.005388367339037359
2555,00:00:10.22,-0.0128664616495371
2556,00:00:10.224,0.02735213097184892
2557,00:00:10.228,0.0318628927925602
2558,00:00:10.232,-0.031174013041891088
2559,00:00:10.236,-0.035096470266580554
2560,00:00:10.24,0.008929253439418928
2561,00:00:10.244,0.006600354381589566
2562,00:00:10.248,0.0048551911022514166
2563,00:00:10.252,0.015624386491253972
2564,00:00:10.256,-0.002009654708672306
2565,00:00:10.26,-0.01128156343474989
2566,00:00:10.264,0.00463274610228836
2567,00:00:10.268,-0.01695332792587578
2568,00:00:10.272,0.02498170733451839
2569,00:00:10.276,0.014854915032628922
2570,00:00:10.28,-0.03360878583043819
2571,00:00:10.284,-0.02668158989399676
2572,00:00:10.288,-0.0010270182392559898
2573,00:00:10.292,0.03746708715334532
2574,00:00:10.296,0.022748006333131385
2575,00:00:10.3,0.015588689595460802
2576,00:00:10.304,-0.028257114230655182
2577,00:00:10.308,-0.0322118997573853
2578,00:00:10.312,0.005641494877636464
2579,00:00:10.316,0.023887622286565605
2580,00:00:10.32,-0.016154583077877756
2581,00:00:10.324,-0.01446075318381192
2582,00:00:10.328,0.0139281428419054
2583,00:00:10.332,0.002014375641010679
2584,00:00:10.336,0.014953317353501897
2585,00:00:10.34,0.018964592367410618
2586,00:00:10.344,-0.02631580969318744
2587,00:00:10.348,-0.006822551367804391
2588,00:00:10.352,-0.004532102961093191
2589,00:00:10.356,-0.0011236544232816163
2590,00:00:10.36,0.024930321320425684
2591,00:00:10.364,-0.005557080730795829
2592,00:00:10.368,-0.0139904329553246
2593,00:00:10.372,-0.011223213281482458
2594,00:00:10.376,-0.000701561104506259
2595,00:00:10.38,0.0090187668101862
2596,00:00:10.384,0.01075111958198249
2597,00:00:10.388,0.010492417495697699
2598,00:00:10.392,0.00468882254790515
2599,00:00:10.396,-0.0045714937150478675
2600,00:00:10.4,-0.02158496249467132
2601,00:00:10.404,-0.01274994225241243
2602,00:00:10.408,0.0032162691932171566
2603,00:00:10.412,0.03454169118776916
2604,00:00:10.416,-0.0025000108289532402
2605,00:00:10.42,-0.02302834764122963
2606,00:00:10.424,0.0006428537890314995
2607,00:00:10.428,-0.004290081560611749
2608,00:00:10.432,-0.002751520834863179
2609,00:00:10.436,0.04939197894418608
2610,00:00:10.44,0.011466288939118418
2611,00:00:10.444,-0.0628425906179473
2612,00:00:10.448,-0.017426219070330203
2613,00:00:10.452,-0.0025924553629010903
2614,00:00:10.456,0.03007481852546333
2615,00:00:10.46,0.029883342795073983
2616,00:00:10.464,-0.00636690389364958
2617,00:00:10.468,-0.015146612306125429
2618,00:00:10.472,-0.001953901140950621
2619,00:00:10.476,0.019129235006403147
2620,00:00:10.48,-0.02635186235420412
2621,00:00:10.484,-0.003638291789684454
2622,00:00:10.488,-0.01219414244405925
2623,00:00:10.492,0.016706669703125933
2624,00:00:10.496,0.01786432456719922
2625,00:00:10.5,0.0009125540964305496
2626,00:00:10.504,-0.0018248250707983975
2627,00:00:10.508,-0.008171335794031622
2628,00:00:10.512,-0.012939775013364898
2629,00:00:10.516,0.0015265569090843392
2630,00:00:10.52,0.01042709837201982
2631,00:00:10.524,0.01157441618852319
2632,00:00:10.528,-0.04449164913967243
2633,00:00:10.532,0.05741433659568433
2634,00:00:10.536,0.010035466402769094
2635,00:00:10.54,-0.059251085622236084
2636,00:00:10.544,0.014718160964548619
2637,00:00:10.548,-0.007812177296727899
2638,00:00:10.552,0.008845416246913339
2639,00:00:10.556,0.00823418702930213
2640,00:00:10.56,0.004979528253898059
2641,00:00:10.564,-0.0011674056295305512
2642,00:00:10.568,-5.720625631514854e-05
2643,00:00:10.572,-0.0034582899279484974
2644,00:00:10.576,0.0018311835010535564
2645,00:00:10.58,-0.004301077913623882
2646,00:00:10.584,-0.0045024272549199
2647,00:00:10.588,0.00889021658804267
2648,00:00:10.592,0.0062904747974244
2649,00:00:10.596,-0.014748127199709412
2650,00:00:10.6,0.0031172854360193005
2651,00:00:10.604,-0.0021402461570687553
2652,00:00:10.608,0.01279495772905644
2653,00:00:10.612,-0.006983463186770681
2654,00:00:10.616,-0.0191977648064494
2655,00:00:10.62,0.00666413363069296
2656,00:00:10.624,0.01487481856020163
2657,00:00:10.628,0.02070032549090687
2658,00:00:10.632,-0.022918684408068657
2659,00:00:10.636,-0.00788600835949179
2660,00:00:10.64,0.034068343229591805
2661,00:00:10.644,-0.031834446359425825
2662,00:00:10.648,-0.01486481353640556
2663,00:00:10.652,0.006059371167793869
2664,00:00:10.656,0.0145466597750783
2665,00:00:10.66,-0.00955940247513354
2666,00:00:10.664,-0.004386499524116528
2667,00:00:10.668,0.02335663652047513
2668,00:00:10.672,0.013314955867826939
2669,00:00:10.676,-0.01376545376842845
2670,00:00:10.68,-0.015185580239631225
2671,00:00:10.684,-0.01709253340959548
2672,00:00:10.688,0.01987217925488951
2673,00:00:10.692,-0.00015570363029837955
2674,00:00:10.696,0.02020726772025231
2675,00:00:10.7,-0.004870396107435232
2676,00:00:10.704,-0.03955366462469099
2677,00:00:10.708,0.01850825548172001
2678,00:00:10.712,0.012955573482031472
2679,00:00:10.716,-0.00672044209204614
2680,00:00:10.72,0.01112346391892059
2681,00:00:10.724,-0.0069560774427372945
2682,00:00:10.728,-0.012639254680834669
2683,00:00:10.732,0.004812933650100609
2684,00:00:10.736,0.026230131741613122
2685,00:00:10.74,-0.0014722388586961201
2686,00:00:10.744,-0.05212317709811032
2687,00:00:10.748,0.027924550697207413
2688,00:00:10.752,0.0281990561634302
2689,00:00:10.756,-0.01557561004301536
2690,00:00:10.76,-0.030219362117350088
2691,00:00:10.764,0.0038547152653336607
2692,00:00:10.768,0.004061935178469832
2693,00:00:10.772,0.02529421844519677
2694,00:00:10.776,0.011886907741427422
2695,00:00:10.78,0.0032667610794305316
2696,00:00:10.784,-0.027081888634711532
2697,00:00:10.788,-0.043066372629254966
2698,00:00:10.792,0.03738094371510674
2699,00:00:10.796,0.02425350993871693
2700,00:00:10.8,-0.007782015949487679
2701,00:00:10.804,-0.0070090324152261
2702,00:00:10.808,-0.010879253095481543
2703,00:00:10.812,0.01247814763337373
2704,00:00:10.816,-0.01283225812949244
2705,00:00:10.82,0.013719504640903334
2706,00:00:10.824,-0.0034917361044790552
2707,00:00:10.828,-0.004664626714657052
2708,00:00:10.832,0.00930048269219696
2709,00:00:10.836,-0.02256352349650118
2710,00:00:10.84,0.028947378508746617
2711,00:00:10.844,-0.01787842647172509
2712,00:00:10.848,-0.027860829490236966
2713,00:00:10.852,0.08243443990068046
2714,00:00:10.856,-0.030115995090454803
2715,00:00:10.86,-0.02745899488218128
2716,00:00:10.864,0.003039900679141328
2717,00:00:10.868,-0.02743720263242721
2718,00:00:10.872,0.0037108007818460274
2719,00:00:10.876,0.024689178098924503
2720,00:00:10.88,0.02187042636796827
2721,00:00:10.884,0.01207086700014771
2722,00:00:10.888,-0.0029529141611419393
2723,00:00:10.892,-0.02894993766676636
2724,00:00:10.896,-0.009933417662978169
2725,00:00:10.9,0.00623846147209406
2726,00:00:10.904,-0.01609804993495344
2727,00:00:10.908,0.0034692696062847894
2728,00:00:10.912,0.02426283690147098
2729,00:00:10.916,0.01121095917187631
2730,00:00:10.92,-0.016888176236534474
2731,00:00:10.924,0.013104257406666847
2732,00:00:10.928,-0.015355583745986251
2733,00:00:10.932,0.006524069234728792
2734,00:00:10.936,-0.018529590335674605
2735,00:00:10.94,0.017243159934878387
2736,00:00:10.944,0.00807432644069195
2737,00:00:10.948,-0.0305761853232979
2738,00:00:10.952,0.03806588519364594
2739,00:00:10.956,-0.027726562693715102
2740,00:00:10.96,-0.008662606822326743
2741,00:00:10.964,0.017313798423856462
2742,00:00:10.968,0.020561687473673325
2743,00:00:10.972,-0.026109245925908953
2744,00:00:10.976,-0.01023960579186678
2745,00:00:10.98,0.020163473905995488
2746,00:00:10.984,0.0038129445165395698
2747,00:00:10.988,0.003463862223725295
2748,00:00:10.992,0.0047431217972189015
2749,00:00:10.996,-0.01916922791860995
2750,00:00:11,-0.0167328711831942
2751,00:00:11.004,0.01051250426098704
2752,00:00:11.008,0.009743637143401405
2753,00:00:11.012,0.00663502642419189
2754,00:00:11.016,-0.00015307648573069984
2755,00:00:11.02,-0.004218560527078781
2756,00:00:11.024,-0.01482978276908399
2757,00:00:11.028,0.009611432673409559
2758,00:00:11.032,-0.006098039913922551
2759,00:00:11.036,0.014804752892814601
2760,00:00:11.04,-0.0029398479964584103
2761,00:00:11.044,0.004265235271304849
2762,00:00:11.048,-0.014977316313888829
2763,00:00:11.052,0.004958073608577254
2764,00:00:11.056,0.010328814852982749
2765,00:00:11.06,0.014275742345489562
2766,00:00:11.064,-0.03789976541884242
2767,00:00:11.068,-0.013466557022184127
2768,00:00:11.072,0.03542198939248916
2769,00:00:11.076,0.01808366621844472
2770,00:00:11.08,-0.0109097487293184
2771,00:00:11.084,-0.0261648478917778
2772,00:00:11.088,-0.013638630509376512
2773,00:00:11.092,0.019714144989848116
2774,00:00:11.096,0.031935513019561754
2775,00:00:11.1,-0.023785850964486578
2776,00:00:11.104,-0.003137351555778882
2777,00:00:11.108,-0.00042406155262141986
2778,00:00:11.112,0.0007754109101369994
2779,00:00:11.116,0.0009709456935525097
2780,00:00:11.12,-0.005585274426266553
2781,00:00:11.124,0.004039671155624094
2782,00:00:11.128,0.006764641759218649
2783,00:00:11.132,0.010221572534646846
2784,00:00:11.136,-0.006306948431301868
2785,00:00:11.14,-0.010377849685028202
2786,00:00:11.144,-0.01706535322591662
2787,00:00:11.148,-0.0013658030657097801
2788,00:00:11.152,0.025495040463283637
2789,00:00:11.156,0.00746511702891439
2790,00:00:11.16,-0.01803169399499884
2791,00:00:11.164,0.00680705066770316
2792,00:00:11.168,0.018501150421798188
2793,00:00:11.172,-0.031246798345819157
2794,00:00:11.176,0.003029693092685198
2795,00:00:11.18,0.0026075211353599904
2796,00:00:11.184,0.028922258410602798
2797,00:00:11.188,-0.02002855215687305
2798,00:00:11.192,-0.02830453566275542
2799,00:00:11.196,0.02195380721241236
2800,00:00:11.2,0.0215752557851374
2801,00:00:11.204,-0.03027925221249454
2802,00:00:11.208,-0.001976530067622587
2803,00:00:11.212,0.024194034282118082
2804,00:00:11.216,-0.002394380280747989
2805,00:00:11.22,-0.00966014771256592
2806,00:00:11.224,-0.00033877111854962484
2807,00:00:11.228,0.00788707938045262
2808,00:00:11.232,-0.01744853460695594
2809,00:00:11.236,0.006785243109334261
2810,00:00:11.24,0.01903862017206848
2811,00:00:11.244,-0.011022938648238691
2812,00:00:11.248,-0.006446331273764332
2813,00:00:11.252,0.006569890771061175
2814,00:00:11.256,-0.00240755220875144
2815,00:00:11.26,-0.020624311175197384
2816,00:00:11.264,0.005540901503991302
2817,00:00:11.268,0.01960148561920509
2818,00:00:11.272,-0.0004042854998260806
2819,00:00:11.276,0.01578853349201377
2820,00:00:11.28,-0.012504501501098289
2821,00:00:11.284,-0.01399934245273471
2822,00:00:11.288,-0.013996553840115672
2823,00:00:11.292,0.010159610537812079
2824,00:00:11.296,0.03105516487266866
2825,00:00:11.3,-0.022328440099954668
2826,00:00:11.304,-0.01633820729330179
2827,00:00:11.308,0.02231496293097742
2828,00:00:11.312,0.01687726634554562
2829,00:00:11.316,-0.00391683680936686
2830,00:00:11.32,-0.03817801084369424
2831,00:00:11.324,-0.019207076169550412
2832,00:00:11.328,0.01738181756809353
2833,00:00:11.332,0.05407859850674861
2834,00:00:11.336,0.010637828614562759
2835,00:00:11.34,-0.05337816523388029
2836,00:00:11.344,-0.014179679565131682
2837,00:00:11.348,0.024800755083560992
2838,00:00:11.352,0.0005391841405071305
2839,00:00:11.356,-0.0008961504790931923
2840,00:00:11.36,-0.010617357213050103
2841,00:00:11.364,0.006118993274867529
2842,00:00:11.368,0.02508949069306254
2843,00:00:11.372,0.009100292809307542
2844,00:00:11.376,-0.0379888651950751
2845,00:00:11.38,-0.01762988604605199
2846,00:00:11.384,0.01068587345071137
2847,00:00:11.388,0.00683077890425921
2848,00:00:11.392,0.014580036513507338
2849,00:00:11.396,0.009285396256018433
2850,00:00:11.4,-0.001819813158363109
2851,00:00:11.404,-0.012396664998959757
2852,00:00:11.408,-0.006317303574178371
2853,00:00:11.412,0.0010177242502322813
2854,00:00:11.416,0.002184028504416348
2855,00:00:11.42,-0.006938526785233992
2856,00:00:11.424,0.008302179339807474
2857,00:00:11.428,-0.00392798148095608
2858,00:00:11.432,0.022841032128781087
2859,00:00:11.436,-0.017448054510168752
2860,00:00:11.44,-0.005171584431082
2861,00:00:11.444,-0.01819073176011444
2862,00:00:11.448,0.046937687555328
2863,00:00:11.452,-0.007024225546047088
2864,00:00:11.456,-0.02513117407215763
2865,00:00:11.46,-0.005647498415783039
2866,00:00:11.464,0.00228330760728568
2867,00:00:11.468,-0.0015843057772144883
2868,00:00:11.472,0.02050073779537342
2869,00:00:11.476,-0.004452723165741185
2870,00:00:11.48,0.0034753061481751476
2871,00:00:11.484,0.008735403825994578
2872,00:00:11.488,-0.017524333961773702
2873,00:00:11.492,-0.0009370032130391285
2874,00:00:11.496,-0.0027058061677962555
2875,00:00:11.5,3.1944073270980325e-06
2876,00:00:11.504,-0.0038143738638609388
2877,00:00:11.508,0.008869046781910622
2878,00:00:11.512,0.011020912555977688
2879,00:00:11.516,0.0011795806931331736
2880,00:00:11.52,-0.01874325750395655
2881,00:00:11.524,-0.0019741099094972014
2882,00:00:11.528,0.009191218719934112
2883,00:00:11.532,0.0034907701192423615
2884,00:00:11.536,0.0036004041903652225
2885,00:00:11.54,-0.001981571229407564
2886,00:00:11.544,-0.009169202006887645
2887,00:00:11.548,-0.006547744967974718
2888,00:00:11.552,-0.0006250073784030971
2889,00:00:11.556,0.01009320525918156
2890,00:00:11.56,0.01168285158928484
2891,00:00:11.564,-0.00881570694036782
2892,00:00:11.568,0.007844090461730959
2893,00:00:11.572,-0.02008113055489956
2894,00:00:11.576,0.00655912887305021
2895,00:00:11.58,0.014127837386695322
2896,00:00:11.584,-0.0102652144851163
2897,00:00:11.588,-0.010210322448983792
2898,00:00:11.592,-0.00012109299132134809
2899,00:00:11.596,0.025271142832934888
2900,00:00:11.6,-0.00031608226709071985
2901,00:00:11.604,-0.010653481062035997
2902,00:00:11.608,-0.020133299753069878
2903,00:00:11.612,0.00386635866016149
2904,00:00:11.616,0.009721827984321816
2905,00:00:11.62,0.002594457240775224
2906,00:00:11.624,-0.00276313000358641
2907,00:00:11.628,0.01118966657668348
2908,00:00:11.632,-0.004452697874512527
2909,00:00:11.636,0.003054782777326175
2910,00:00:11.64,0.000743832279113121
2911,00:00:11.644,-0.02566626644693323
2912,00:00:11.648,0.009229505667462943
2913,00:00:11.652,0.01653846801491458
2914,00:00:11.656,0.0050013987347484
2915,00:00:11.66,-0.019993086229078482
2916,00:00:11.664,0.0009995866566897028
2917,00:00:11.668,0.01777244906406848
2918,00:00:11.672,-0.02117782743880521
2919,00:00:11.676,0.004105078347492966
2920,00:00:11.68,0.009293595212511767
2921,00:00:11.684,-0.007434391241986273
2922,00:00:11.688,-0.007662671909201887
2923,00:00:11.692,0.004727497696876531
2924,00:00:11.696,0.02505915111396461
2925,00:00:11.7,0.008546469121938575
2926,00:00:11.704,-0.03016637638211246
2927,00:00:11.708,-0.02533617662265899
2928,00:00:11.712,0.013276136247441169
2929,00:00:11.716,0.02837199508212506
2930,00:00:11.72,0.0012073072139173798
2931,00:00:11.724,-0.01114866998977962
2932,00:00:11.728,-0.0170639855787158
2933,00:00:11.732,0.005621857009828131
2934,00:00:11.736,0.009152486920356752
2935,00:00:11.74,0.00896485056728124
2936,00:00:11.744,-0.0001507198903709702
2937,00:00:11.748,-0.01039908686652779
2938,00:00:11.752,-0.0069114710204303195
2939,00:00:11.756,-0.004606081522069859
2940,00:00:11.76,0.013859579805284763
2941,00:00:11.764,-0.00868074200116101
2942,00:00:11.768,0.00589265767484903
2943,00:00:11.772,0.02290314156562088
2944,00:00:11.776,-0.01822269009426236
2945,00:00:11.78,-0.01771015208214527
2946,00:00:11.784,0.02273240988142793
2947,00:00:11.788,0.0037873585242777993
2948,00:00:11.792,-0.03934044150810226
2949,00:00:11.796,0.023892886412795605
2950,00:00:11.8,0.00927657855208963
2951,00:00:11.804,-0.014768142253160553
2952,00:00:11.808,-0.01723399199545383
2953,00:00:11.812,0.03752546699251984
2954,00:00:11.816,0.02940661087632175
2955,00:00:11.82,-0.03494786331430077
2956,00:00:11.824,-0.013161474606022239
2957,00:00:11.828,-0.00264773151138797
2958,00:00:11.832,0.002130584063706923
2959,00:00:11.836,-0.0026826134417206114
2960,00:00:11.84,0.002696969546377652
2961,00:00:11.844,0.029087209608405787
2962,00:00:11.848,-0.020416986779309802
2963,00:00:11.852,-0.018202917417511337
2964,00:00:11.856,0.01234190858667716
2965,00:00:11.86,0.01409232686273754
2966,00:00:11.864,0.0028844525804743205
2967,00:00:11.868,-0.007992772705620151
2968,00:00:11.872,-0.012283689575269818
2969,00:00:11.876,0.0024150292156264117
2970,00:00:11.88,-0.0039721938082948405
2971,00:00:11.884,-0.004537106025964022
2972,00:00:11.888,0.00983240583445877
2973,00:00:11.892,0.02714679273776707
2974,00:00:11.896,0.007486079819500398
2975,00:00:11.9,-0.032600751321297125
2976,00:00:11.904,-0.014953814446926101
2977,00:00:11.908,0.00470984098501504
2978,00:00:11.912,0.0065438717138022115
2979,00:00:11.916,-0.00060187769122422
2980,00:00:11.92,0.0027479040436446615
2981,00:00:11.924,0.005009976041037591
2982,00:00:11.928,0.00802028458565473
2983,00:00:11.932,0.0052791745401919304
2984,00:00:11.936,-0.004551210557110608
2985,00:00:11.94,-0.005126991542056199
2986,00:00:11.944,-0.011499908287078149
2987,00:00:11.948,-0.022521310951560698
2988,00:00:11.952,0.01315116812475026
2989,00:00:11.956,0.02480709576047957
2990,00:00:11.96,0.00010693891090341216
2991,00:00:11.964,0.005149359349161389
2992,00:00:11.968,-0.01556210545822976
2993,00:00:11.972,-0.009256039782485464
2994,00:00:11.976,0.005413900827989011
2995,00:00:11.98,0.0194345265626907
2996,00:00:11.984,-0.014794547576457266
2997,00:00:11.988,0.0016289839695673434
2998,00:00:11.992,0.007714595645666121
2999,00:00:11.996,-0.009635819587856548
3000,00:00:12,-0.012041838606819521
3001,00:00:12.004,0.0009781550616025925
3002,00:00:12.008,0.00109636026900258
3003,00:00:12.012,0.02135198353789751
3004,00:00:12.016,0.004629240371286876
3005,00:00:12.02,-0.01873533311299973
3006,00:00:12.024,-0.0033560157753527195
3007,00:00:12.028,0.007684683019760994
3008,00:00:12.032,-0.005801208142656831
3009,00:00:12.036,0.0173958750674501
3010,00:00:12.04,-0.005348906255676446
3011,00:00:12.044,-0.019486251985654277
3012,00:00:12.048,0.011296275712084027
3013,00:00:12.052,0.0027341161621734526
3014,00:00:12.056,0.007616794551722704
3015,00:00:12.06,-0.027847552206367282
3016,00:00:12.064,0.008460130897219635
3017,00:00:12.068,0.02647563035134222
3018,00:00:12.072,0.001328315469436351
3019,00:00:12.076,-0.02330031327437607
3020,00:00:12.08,-0.0015122406184673014
3021,00:00:12.084,0.018687495496124057
3022,00:00:12.088,-0.02300857420777899
3023,00:00:12.092,0.007518709317082534
3024,00:00:12.096,-0.0021289489232003706
3025,00:00:12.1,0.0028432067483663706
3026,00:00:12.104,0.0020515623036772013
3027,00:00:12.108,0.008764670034906887
3028,00:00:12.112,-0.010305192205123593
3029,00:00:12.116,0.00549468013923615
3030,00:00:12.12,0.0036104300525039504
3031,00:00:12.124,-0.00571443035732955
3032,00:00:12.128,0.003907443955540711
3033,00:00:12.132,-0.0125823337584734
3034,00:00:12.136,-0.004704408580437299
3035,00:00:12.14,0.03395353967789561
3036,00:00:12.144,-0.019327444024383987
3037,00:00:12.148,-0.0190424742759205
3038,00:00:12.152,0.013397693051956573
3039,00:00:12.156,0.01386141145485453
3040,00:00:12.16,-0.01486391527578235
3041,00:00:12.164,-0.013925584498792899
3042,00:00:12.168,0.03491769696120168
3043,00:00:12.172,-0.01384388259612027
3044,00:00:12.176,0.0021816985681653057
3045,00:00:12.18,0.003075120737776109
3046,00:00:12.184,0.0013813069090247605
3047,00:00:12.188,-0.013834691140800739
3048,00:00:12.192,-0.008006376243429213
3049,00:00:12.196,0.0035288332728669112
3050,00:00:12.2,-0.0014869139995425992
3051,00:00:12.204,0.017148809973150488
3052,00:00:12.208,0.00016590068116783922
3053,00:00:12.212,0.00033977674320339983
3054,00:00:12.216,-0.0026020840741693904
3055,00:00:12.22,-0.01846315199509263
3056,00:00:12.224,0.0191111615858972
3057,00:00:12.228,-0.0015806381125002995
3058,00:00:12.232,0.0014301794581114812
3059,00:00:12.236,-0.005835573421791201
3060,00:00:12.24,-0.005886288476176531
3061,00:00:12.244,0.00209338043350727
3062,00:00:12.248,0.00414769886992871
3063,00:00:12.252,0.000803333066869518
3064,00:00:12.256,-0.0015047948108986029
3065,00:00:12.26,0.0046350262127816885
3066,00:00:12.264,0.008196704089641592
3067,00:00:12.268,-0.00963607407175005
3068,00:00:12.272,-0.0019493564032018206
3069,00:00:12.276,-0.001200181068270495
3070,00:00:12.28,-0.013714487897232178
3071,00:00:12.284,0.0070738983340561425
3072,00:00:12.288,0.01623333035968241
3073,00:00:12.292,0.0013478253968059722
3074,00:00:12.296,-0.01149348565377299
3075,00:00:12.3,-0.01217971078585834
3076,00:00:12.304,0.03457647445611657
3077,00:00:12.308,-0.019700748729519508
3078,00:00:12.312,-0.01656791917048388
3079,00:00:12.316,0.01855008816346526
3080,00:00:12.32,0.0008018156513571722
3081,00:00:12.324,-0.005528007750399411
3082,00:00:12.328,0.0018199109472334402
3083,00:00:12.332,0.005866646999493241
3084,00:00:12.336,-0.016523394035175443
3085,00:00:12.34,0.00316751631908119
3086,00:00:12.344,0.005983270762953956
3087,00:00:12.348,0.015554706798866391
3088,00:00:12.352,0.006814465625211652
3089,00:00:12.356,-0.03118307184195144
3090,00:00:12.36,-0.006921451189555243
3091,00:00:12.364,0.015401628799736493
3092,00:00:12.368,0.010697111953049909
3093,00:00:12.372,-0.01814290185575373
3094,00:00:12.376,0.016294274450046962
3095,00:00:12.38,0.01086080260574816
3096,00:00:12.384,-0.025443466380238495
3097,00:00:12.388,0.017744900193065353
3098,00:00:12.392,-0.01215095166116955
3099,00:00:12.396,-0.024940124712884475
3100,00:00:12.4,0.0009816399251576452
3101,00:00:12.404,0.040252658771350994
3102,00:00:12.408,0.006685212487354921
3103,00:00:12.412,-0.00864767120219767
3104,00:00:12.416,-0.01319100742693994
3105,00:00:12.42,-0.00701139611192047
3106,00:00:12.424,0.00851364200934767
3107,00:00:12.428,0.0024883307050913694
3108,00:00:12.432,-0.012256436632014804
3109,00:00:12.436,0.0007292635273188405
3110,00:00:12.44,0.006211418542079631
3111,00:00:12.444,0.009765819420863412
