Elapsed Time,EMG1,EMG2,EMG3,BioRadio Event,
00:00:00,0.132849931716919,-1.18942201137543,-0.481580972671509,0,
00:00:00.004,-0.132647976279259,1.12978398799896,0.458274811506271,0,
00:00:00.008,-0.101240560412407,0.9470174908638,0.376802414655685,0,
00:00:00.012,-0.00442900927737355,0.0991344302892685,0.047099344432354,0,
00:00:00.016,0.0623355433344841,-0.477691143751144,-0.190054222941399,0,
00:00:00.02,0.0491882562637329,-0.595856010913849,-0.24364946782589,0,
00:00:00.024,0.0435572005808353,-0.37127473950386,-0.147285938262939,0,
00:00:00.028,0.00646956358104944,-0.0519727878272533,-0.0265398118644953,0,
00:00:00.032,-0.0242376532405615,0.178180396556854,0.0678967460989952,0,
00:00:00.036,-0.0318843089044094,0.242441758513451,0.104801520705223,0,
00:00:00.04,-0.013041571713984,0.199504092335701,0.0820252224802971,0,
00:00:00.044,0.0101175671443343,0.0668811276555061,-0.00782178808003664,0,
00:00:00.048,0.00223082606680691,-0.0559084974229336,0.0159815549850464,0,
00:00:00.052,-0.00761579815298319,-0.0823915973305702,-0.0166458208113909,0,
00:00:00.056,-0.00384781369939446,-0.0521941222250462,-0.0513921193778515,0,
00:00:00.06,0.010709585621953,-0.0409309901297092,-0.0112600214779377,0,
00:00:00.064,0.00616540899500251,0.000850295415148139,0.000413423753343523,0,
00:00:00.068,0.00127550051547587,0.0346837900578976,0.0188543424010277,0,
00:00:00.072,0.00221943855285645,0.0339480526745319,0.0129831824451685,0,
00:00:00.076,-0.00684377457946539,0.00548670254647732,-0.00217320490628481,0,
00:00:00.08,-0.0158445686101913,-0.0263358689844608,-0.00536275049671531,0,
00:00:00.084,0.0128541514277458,0.0139895975589752,-0.00345820491202176,0,
00:00:00.088,0.00212263921275735,0.00018010321946349,-0.000616769306361675,0,
00:00:00.092,0.00654121907427907,0.00309306872077286,0.00534758344292641,0,
00:00:00.096,-0.00119999866001308,-0.0127944173291326,-0.00651598675176501,0,
00:00:00.1,-0.00208272156305611,-0.0169997923076153,0.0058372956700623,0,
00:00:00.104,-0.0117479553446174,0.0139722907915711,0.00538993999361992,0,
00:00:00.108,0.0111836744472384,0.0266790054738522,-0.00343708484433591,0,
00:00:00.112,-0.00259294779971242,-0.0179896242916584,-0.00946647860109806,0,
00:00:00.116,-0.00161465082783252,-0.0250729061663151,-0.015839409083128,0,
00:00:00.12,-0.0131436148658395,0.000808657787274569,0.0168790556490421,0,
00:00:00.124,0.011988845653832,0.0198675617575645,0.0256567168980837,0,
00:00:00.128,0.00632808823138475,0.0178065188229084,-0.0145887061953545,0,
00:00:00.132,0.00571942748501897,-0.00863734073936939,-0.00579895731061697,0,
00:00:00.136,0.00286885793320835,0.000238471475313418,-0.00659690657630563,0,
00:00:00.14,-0.0116636557504535,-0.013802626170218,0.00520766340196133,0,
00:00:00.144,-0.0151548758149147,-0.00252716103568673,0.00359491538256407,0,
00:00:00.148,0.00853659491986036,0.00911413691937923,-0.00870144739747047,0,
00:00:00.152,0.000606207817327231,-0.00826508738100529,-0.000819675216916949,0,
00:00:00.156,0.00633397093042731,0.00348777556791902,-0.00013200037938077,0,
00:00:00.16,0.0101540489122272,0.0111488876864314,0.0250942371785641,0,
00:00:00.164,-0.016425458714366,-0.00993552152067423,-0.00597134791314602,0,
00:00:00.168,0.00649899709969759,0.00237141246907413,-0.0169296357780695,0,
00:00:00.172,0.00915996171534061,0.012738736346364,-0.010255859233439,0,
00:00:00.176,-0.013622909784317,-0.0103492941707373,0.00842340104281902,0,
00:00:00.18,-0.00846687611192465,-0.0269672013819218,0.00707719568163157,0,
00:00:00.184,0.00783096253871918,0.0191438887268305,0.00771796330809593,0,
00:00:00.188,0.00523931626230478,0.0106061678379774,0.0044887256808579,0,
00:00:00.192,-0.00229437439702451,0.00201752269640565,-0.0151223307475448,0,
00:00:00.196,0.00534737994894385,-0.00517471926286817,-0.0113032842054963,0,
00:00:00.2,0.00579287717118859,-0.00438634445890784,0.00719435280188918,0,
00:00:00.204,-0.0149982152506709,-0.00134805915877223,0.00652546994388103,0,
00:00:00.208,-0.0119960196316242,-0.00314878765493631,0.00156658003106713,0,
00:00:00.212,0.0255613643676043,0.0140400351956487,0.00453537190333009,0,
00:00:00.216,-0.00446910271421075,-0.0136611890047789,0.00641180062666535,0,
00:00:00.22,0.0110838431864977,0.018599608913064,-0.0156106073409319,0,
00:00:00.224,-0.0222129803150892,-0.0104465307667851,-0.0051552252843976,0,
00:00:00.228,-0.0167317092418671,-0.012146919965744,0.00185328489169478,0,
00:00:00.232,0.0117477802559733,0.014862135052681,0.0168386455625296,0,
00:00:00.236,0.025661563500762,-0.0034746048040688,-0.0165663547813892,0,
00:00:00.24,0.0124584697186947,-0.00940638408064842,-0.00884840916842222,0,
00:00:00.244,-0.0311058610677719,-0.0100191673263907,0.0170147083699703,0,
00:00:00.248,-0.00378206302411854,0.0315654240548611,0.00483351433649659,0,
00:00:00.252,-0.00220979494042695,-0.000594631477724761,0.000806758704129606,0,
00:00:00.256,0.00759690487757325,-0.0182126108556986,0.0072284173220396,0,
00:00:00.26,-0.002065344247967,-0.00811827462166548,-0.0079713761806488,0,
00:00:00.264,0.00130428012926131,0.00606513395905495,-0.0296469647437334,0,
00:00:00.268,0.0127107137814164,0.0173554979264736,0.00516959885135293,0,
00:00:00.272,-0.00181559612974524,0.00174440571572632,0.0185639541596174,0,
00:00:00.276,0.00114815798588097,0.000256326427916065,0.00428193947300315,0,
00:00:00.28,0.00509054306894541,-0.000285687710857019,0.00951425358653069,0,
00:00:00.284,-0.0155393686145544,-0.0165082514286041,-0.00984128098934889,0,
00:00:00.288,-0.0151596534997225,-0.0250152703374624,-0.00979106221348047,0,
00:00:00.292,0.00347486464306712,0.00173979857936502,-0.00335306744091213,0,
00:00:00.296,0.00767931807786226,0.0263785682618618,0.000135795475216582,0,
00:00:00.3,0.0098939361050725,0.031354483217001,0.00424034241586924,0,
00:00:00.304,0.0004592387995217,-0.0129144703969359,0.0195561908185482,0,
00:00:00.308,0.0131785850971937,-0.00359400454908609,-0.0149461524561048,0,
00:00:00.312,-0.0127878366038203,-0.028941759839654,-0.00728794652968645,0,
00:00:00.316,-0.0140461465343833,0.00160238856915385,0.00658439332619309,0,
00:00:00.32,0.00503137893974781,0.00773240020498633,0.000185953336767852,0,
00:00:00.324,-0.00670153694227338,0.00732206273823977,0.00735318288207054,0,
00:00:00.328,0.0112909069284797,0.00997345708310604,-0.0123811680823565,0,
00:00:00.332,0.0184238124638796,0.00447992561385036,-0.0105651319026947,0,
00:00:00.336,-0.0117958514019847,-0.0210876874625683,0.0214212946593761,0,
00:00:00.34,-0.0172416605055332,-0.0113950399681926,-0.00128809071611613,0,
00:00:00.344,-0.000663564365822822,0.00731052039191127,-0.000985236023552716,0,
00:00:00.348,0.00213435408659279,0.00226604496128857,0.00605165818706155,0,
00:00:00.352,0.00818732473999262,0.0182507298886776,-0.0186787657439709,0,
00:00:00.356,0.0125152673572302,0.0134465461596847,-0.000189900005352683,0,
00:00:00.36,-0.00429194327443838,-0.0218659453094006,0.00358983059413731,0,
00:00:00.364,-0.000807639502454549,-0.0140584465116262,0.00474592531099916,0,
00:00:00.368,-0.00786877050995827,0.00298674451187253,0.00749665917828679,0,
00:00:00.372,-0.00925816036760807,0.0110554555431008,0.00114585529081523,0,
00:00:00.376,0.00376457674428821,0.00279708951711655,-0.018598286435008,0,
00:00:00.38,0.0062577179633081,-0.0062925023958087,0.012776623480022,0,
00:00:00.384,0.00590428430587053,0.00267044454813004,0.00428896863013506,0,
00:00:00.388,-0.00149373232852668,0.0115649923682213,-0.0107672130689025,0,
00:00:00.392,-0.00330627360381186,-0.0259603634476662,0.00117313046939671,0,
00:00:00.396,-0.00230147177353501,-0.00513429567217827,-0.00100199948064983,0,
00:00:00.4,0.00980778783559799,0.0169327110052109,0.0117067415267229,0,
00:00:00.404,-0.0112737026065588,0.00777537981048226,-0.000899682228919119,0,
00:00:00.408,-0.0134613132104278,0.000748063030187041,-0.0160395782440901,0,
00:00:00.412,0.00739406328648329,0.00113666453398764,-0.00114880269393325,0,
00:00:00.416,0.0173716451972723,-0.00765005685389042,0.0104123055934906,0,
00:00:00.42,0.00461445143446326,0.000479635695228353,-0.00351763423532248,0,
00:00:00.424,-0.00875728484243155,-0.00281890435144305,0.0121945338323712,0,
00:00:00.428,-0.00136391306295991,-0.00656566396355629,0.0148468716070056,0,
00:00:00.432,-0.0040237894281745,-0.00064726488199085,-0.0273075979202986,0,
00:00:00.436,-0.0131899602711201,-0.00603255024179816,-0.00892763119190931,0,
00:00:00.44,0.0136911747977138,0.0276604145765305,0.00465439399704337,0,
00:00:00.444,0.00162630260456353,0.00170328782405704,-0.00149634480476379,0,
00:00:00.448,-0.00053869845578447,-0.0168021693825722,0.0202613063156605,0,
00:00:00.452,0.00212327879853547,-0.000587125075981021,0.003409328404814,0,
00:00:00.456,0.00481110205873847,0.00667591067031026,-0.0175865702331066,0,
00:00:00.46,-0.00922170002013445,-0.0110694002360106,-0.00341961719095707,0,
00:00:00.464,0.00304249185137451,0.00829862989485264,0.00255195912905037,0,
00:00:00.468,0.00179206440225244,0.0177777893841267,-0.00475953752174973,0,
00:00:00.472,-0.00770593900233507,-0.0216210726648569,0.016327291727066,0,
00:00:00.476,0.00319150113500655,-0.013034513220191,-0.00100931408815086,0,
00:00:00.48,-0.0114807905629277,-0.0135009828954935,-0.000910685397684574,0,
00:00:00.484,0.00793070811778307,0.0206846296787262,-0.0135897761210799,0,
00:00:00.488,0.0201444625854492,0.0328994244337082,0.00826437957584858,0,
00:00:00.492,-0.0014281568583101,-0.000310752628138289,0.00609026150777936,0,
00:00:00.496,-0.0157038737088442,-0.0079796751961112,-0.00703188078477979,0,
00:00:00.5,0.0038621574640274,-0.0155887072905898,-0.013213574886322,0,
00:00:00.504,-0.014678630977869,-0.0342650227248669,0.0186225231736898,0,
00:00:00.508,0.00261431932449341,0.0145934568718076,0.000132802902953699,0,
00:00:00.512,0.0146462768316269,0.0299610383808613,-0.0123028326779604,0,
00:00:00.516,0.00488950498402119,0.00143330695573241,0.00954734440892935,0,
00:00:00.52,-0.00467810640111566,0.00104875268880278,-0.00164800032507628,0,
00:00:00.524,-0.00954823289066553,-0.0163345858454704,0.00260884361341596,0,
00:00:00.528,0.00133353029377759,-0.00707837520167232,0.00709057692438364,0,
00:00:00.532,0.0118616446852684,0.00791422557085752,-0.00528197083622217,0,
00:00:00.536,-0.0161503478884697,-0.00857998430728912,-0.00709015363827348,0,
00:00:00.54,0.00134210637770593,0.00805242080241442,0.00248502055183053,0,
00:00:00.544,0.0166907105594873,0.0207395050674677,-0.00975125003606081,0,
00:00:00.548,-0.00323913316242397,-0.00501296855509281,-0.00241823541000485,0,
00:00:00.552,-0.0113653503358364,-0.0244296714663506,0.00758110918104649,0,
00:00:00.556,-0.00235640676692128,-0.0111112734302878,0.00787441991269588,0,
00:00:00.56,0.00307029602117836,0.0259595047682524,0.00986219197511673,0,
00:00:00.564,0.0187692418694496,0.0198970045894384,-0.0108847115188837,0,
00:00:00.568,-0.0173738747835159,-0.0332897119224072,-0.00208477815613151,0,
00:00:00.572,-0.00517146661877632,0.010348497889936,0.00169872248079628,0,
00:00:00.576,0.00662633730098605,0.0116289760917425,0.00165563472546637,0,
00:00:00.58,0.00703252758830786,-0.0135273346677423,-0.0165414363145828,0,
00:00:00.584,-0.00163323781453073,-0.00966157671064138,0.008262331597507,0,
00:00:00.588,-0.0187353510409594,0.00248110597021878,0.0152495689690113,0,
00:00:00.592,0.0190793629735708,0.0211401004344225,-0.0220503620803356,0,
00:00:00.596,0.00288387923501432,-0.00233296491205692,0.0121925361454487,0,
00:00:00.6,-0.00838874094188213,-0.0176672302186489,0.012081878259778,0,
00:00:00.604,-0.011326739564538,-0.0156784988939762,-0.0211203005164862,0,
00:00:00.608,0.00652316398918629,0.0124205863103271,0.00297464383766055,0,
00:00:00.612,0.0106737669557333,0.0179687812924385,0.0217034406960011,0,
00:00:00.616,0.00831930246204138,0.0164447315037251,-0.00612289644777775,0,
00:00:00.62,-0.00224941736087203,-0.00215687719173729,-0.0224972236901522,0,
00:00:00.624,-0.0145132401958108,-0.0222818683832884,-0.00160995870828629,0,
00:00:00.628,-0.00595161784440279,-0.0187140088528395,0.0221853908151388,0,
00:00:00.632,0.0013045878149569,-0.0011483357520774,-0.0140539780259132,0,
00:00:00.636,0.00465016113594174,0.0149647425860167,-0.00359690259210765,0,
00:00:00.64,0.00230114534497261,0.0293633155524731,0.0111779188737273,0,
00:00:00.644,0.0104082096368074,-0.00321244820952415,0.00107327499426901,0,
00:00:00.648,0.00186657172162086,-0.032194834202528,0.0117841362953186,0,
00:00:00.652,-0.0162338241934776,-0.00373837095685303,0.000244818074861541,0,
00:00:00.656,-0.00809252820909023,0.00581837678328156,-0.025986073538661,0,
00:00:00.66,0.00510933296754956,0.0106423422694206,0.00729290302842855,0,
00:00:00.664,0.0144986296072602,0.0103221256285906,-0.000834060134366155,0,
00:00:00.668,0.00156392797362059,0.000360338483005762,-0.00852009374648333,0,
00:00:00.672,-0.00805755145847797,-0.0231668818742037,0.00566644733771682,0,
00:00:00.676,0.0037407202180475,0.00629940116778016,0.0194590333849192,0,
00:00:00.68,-0.00309211411513388,0.00467609381303191,-0.00411836709827185,0,
00:00:00.684,-0.00520350690931082,0.00678733456879854,0.000719993782695383,0,
00:00:00.688,0.00109986739698797,-0.00541170593351126,-0.00759735284373164,0,
00:00:00.692,0.000621613406110555,-0.00622641434893012,-0.0122943101450801,0,
00:00:00.696,0.0142653500661254,0.0164384376257658,0.00859677512198687,0,
00:00:00.7,-0.013969405554235,0.00472378125414252,0.0051528736948967,0,
00:00:00.704,-0.00680409604683518,-0.0309864319860935,-0.00351853272877634,0,
00:00:00.708,0.0124922031536698,-0.00244459602981806,-0.016655569896102,0,
00:00:00.712,-0.00167317956220359,0.0100029427558184,0.020930141210556,0,
00:00:00.716,-0.000858671206515282,0.0229589231312275,0.0161473359912634,0,
00:00:00.72,-0.000461570889456198,-0.0148939257487655,-0.00766247510910034,0,
00:00:00.724,-0.000242356050875969,0.00385528546757996,-0.0164870135486126,0,
00:00:00.728,-0.00632519973441958,-0.00614648405462503,-0.00978105142712593,0,
00:00:00.732,0.0142269190400839,0.005071931052953,0.0125872688367963,0,
00:00:00.736,-0.0050039947964251,-0.000297542312182486,0.00492206122726202,0,
00:00:00.74,-0.00815779250115156,-0.00696469703689218,0.00217500841245055,0,
00:00:00.744,-0.00175681710243225,-0.0151679264381528,-0.00592802697792649,0,
00:00:00.748,0.0118648549541831,0.0182209294289351,-0.0035762230399996,0,
00:00:00.752,0.00728507619351149,0.0266369786113501,0.000494751147925854,0,
00:00:00.756,-0.0113817472010851,-0.0148562332615256,-0.00147621007636189,0,
00:00:00.76,-0.0106107471510768,-0.0217213332653046,0.0127293597906828,0,
00:00:00.764,0.00544128008186817,-0.000765159667935222,0.000590733776334673,0,
00:00:00.768,-0.00200980436056852,-0.00990547426044941,0.00145446672104299,0,
00:00:00.772,0.00396729772910476,0.0345803126692772,-0.0128636928275228,0,
00:00:00.776,0.0237102694809437,0.0207629762589931,-0.0157122798264027,0,
00:00:00.78,-0.0108466986566782,-0.0329599976539612,0.0112494761124253,0,
00:00:00.784,-0.0147757939994335,-0.0192728266119957,0.0230434108525515,0,
00:00:00.788,-0.00886616203933954,0.00593397486954927,-0.00695071276277304,0,
00:00:00.792,0.00782226957380772,0.0274313576519489,-0.0167468674480915,0,
00:00:00.796,-0.0026895641349256,-0.0402065701782703,0.00334939151071012,0,
00:00:00.8,0.0020773527212441,0.00299757579341531,0.0167774520814419,0,
00:00:00.804,0.0102694593369961,0.0448280535638332,-0.00267217773944139,0,
00:00:00.808,0.00577228749170899,0.0117934374138713,-0.0273966509848833,0,
00:00:00.812,0.0052682482637465,-0.0134021574631333,0.00715587381273508,0,
00:00:00.816,-0.00453285407274961,-0.0207206979393959,0.0130737945437431,0,
00:00:00.82,-0.015823882073164,-0.0414207465946674,0.00912258587777615,0,
00:00:00.824,-0.00617256527766585,0.0222331043332815,-0.00656471587717533,0,
00:00:00.828,0.00188103399705142,0.0201996620744467,-0.00227979058399796,0,
00:00:00.832,0.00758885499089956,0.0101873585954309,-0.00376904127188027,0,
00:00:00.836,0.00518298847600818,-0.00594001077115536,-0.00363202532753348,0,
00:00:00.84,-0.00522719277068973,0.0089320745319128,0.0131130516529083,0,
00:00:00.844,-3.27219931932632E-05,-0.0131952054798603,-0.00646276259794831,0,
00:00:00.848,0.010540634393692,-0.00795354135334492,-0.0065227746963501,0,
00:00:00.852,-0.00595439504832029,-0.00290027656592429,-0.00525021087378263,0,
00:00:00.856,-0.0101900268346071,0.00135872839018703,0.0173091683536768,0,
00:00:00.86,0.0128757040947676,0.0243970863521099,0.00143329834099859,0,
00:00:00.864,-0.00242018094286323,-0.00356830121017993,-0.0135108502581716,0,
00:00:00.868,-0.0109514221549034,-0.0175859834998846,0.00467715132981539,0,
00:00:00.872,0.0183502733707428,-0.000161754578584805,-0.00198132847435772,0,
00:00:00.876,-0.00810374598950148,-0.00715881213545799,0.00770367775112391,0,
00:00:00.88,-0.0316619463264942,0.00348044070415199,-0.0124959731474519,0,
00:00:00.884,0.0156879890710115,0.0162761472165585,-0.000435775815276429,0,
00:00:00.888,0.0360254906117916,-0.00563542684540153,0.00765303429216146,0,
00:00:00.892,0.00666359486058354,0.0119638759642839,0.00983882788568735,0,
00:00:00.896,-0.015499584376812,-0.000580143125262111,0.00321150640957057,0,
00:00:00.9,-0.0303548853844404,-0.019396997988224,-0.00964871514588594,0,
00:00:00.904,-0.00617674086242914,-0.0140306632965803,-0.00653407163918018,0,
00:00:00.908,0.0177951473742723,0.0111827757209539,-0.00685094622895122,0,
00:00:00.912,0.013663163408637,0.0149656031280756,0.000407380575779825,0,
00:00:00.916,-0.00769884930923581,0.0057868086732924,0.00753470230847597,0,
00:00:00.92,0.00286300899460912,-0.00303656538017094,-0.00434676464647055,0,
00:00:00.924,-0.000669386412482709,-0.00664101587608457,0.022031070664525,0,
00:00:00.928,0.00213895970955491,-0.0116809122264385,-0.00537322601303458,0,
00:00:00.932,-0.0118895769119263,-0.00860639568418264,-0.010309100151062,0,
00:00:00.936,0.00401766691356897,0.0239974595606327,-0.00586508121341467,0,
00:00:00.94,0.000752874882891774,0.00692357635125518,-0.00428370386362076,0,
00:00:00.944,0.00116420281119645,-0.0123782195150852,0.0112750427797437,0,
00:00:00.948,0.00363154453225434,0.000484662275994197,0.00076870177872479,0,
00:00:00.952,-0.000872684002388269,-0.0092401709407568,0.0176687892526388,0,
00:00:00.956,0.00271455128677189,0.0131743000820279,-0.0181103982031345,0,
00:00:00.96,0.00570437358692288,0.00864973850548267,-0.0144765581935644,0,
00:00:00.964,-0.0214609801769257,-0.0242187585681677,0.00289485021494329,0,
00:00:00.968,0.00589393125846982,0.00825770199298859,0.0140197956934571,0,
00:00:00.972,0.00381100294180214,0.00428050244227052,-0.0104652233421803,0,
00:00:00.976,-0.00398576585575938,-0.00784746930003166,0.0108832390978932,0,
00:00:00.98,0.00470885122194886,-0.00600506644695997,0.000261826120549813,0,
00:00:00.984,0.0129649396985769,0.0168691463768482,0.00366966240108013,0,
00:00:00.988,0.00180948409251869,0.0223046503961086,-0.00798111967742443,0,
00:00:00.992,-0.0201144218444824,-0.0264099054038525,-0.00772922718897462,0,
00:00:00.996,-0.00387403951026499,-0.00646037980914116,0.00377959478646517,0,
00:00:01,0.0122132319957018,0.00704731000587344,0.00487081287428737,0,
00:00:01.004,-0.0149606289342046,-0.0138731906190515,0.00839834753423929,0,
00:00:01.008,0.0129030030220747,0.0109956841915846,-0.00855056382715702,0,
00:00:01.012,0.0163080394268036,0.0087725967168808,-0.00683589046820998,0,
00:00:01.016,-0.026506882160902,-0.0161406677216291,-0.000627606001216918,0,
00:00:01.02,0.0128403501585126,0.000650409143418074,0.0138873569667339,0,
00:00:01.024,0.00107611645944417,0.0136424778029323,-0.00160516088362783,0,
00:00:01.028,-0.0131956646218896,0.00465986412018538,-0.0222291108220816,0,
00:00:01.032,0.0156620405614376,0.00365928141400218,0.00781085109338164,0,
00:00:01.036,-0.000509256846271455,-0.0154074029996991,0.0164922904223204,0,
00:00:01.04,-0.00714332284405828,-0.00738952727988362,0.00636679213494062,0,
00:00:01.044,0.000297817285172641,0.00926267821341753,-0.0124464510008693,0,
00:00:01.048,0.000926766253542155,-0.00278725498355925,0.0057908738963306,0,
00:00:01.052,-0.00624807504937053,-0.00784025341272354,-0.014298889786005,0,
00:00:01.056,0.00327447080053389,0.0159761589020491,-0.000713589950464666,0,
00:00:01.06,0.00229470827616751,-0.0122810835018754,0.00821016728878021,0,
00:00:01.064,-0.00218962645158172,0.00815206672996283,-0.00212174514308572,0,
00:00:01.068,0.0175068285316229,0.0279412157833576,0.00261480524204671,0,
00:00:01.072,-0.00440915068611503,-0.0151598369702697,-0.00912747625261545,0,
00:00:01.076,-0.0163057893514633,-0.0309280026704073,0.0111101930961013,0,
00:00:01.08,-0.00299049308523536,-0.00218806136399508,0.0024544217158109,0,
00:00:01.084,0.00154461269266903,0.00995462015271187,0.00198836741037667,0,
00:00:01.088,0.00687302136793733,0.00429366389289498,-0.00923460442572832,0,
00:00:01.092,0.00481375446543098,0.015655018389225,-0.00136302539613098,0,
00:00:01.096,0.00918309483677149,0.00317575060762465,0.000918267120141536,0,
00:00:01.1,-0.0118661066517234,-0.00574883352965117,-0.0072475397028029,0,
00:00:01.104,-0.0155247589573264,-0.0287747960537672,0.00644603744149208,0,
00:00:01.108,0.0111357904970646,0.0205700825899839,0.0066926209256053,0,
00:00:01.112,0.0160006657242775,0.0175640620291233,-0.00810633320361376,0,
00:00:01.116,-0.0149249536916614,-0.0215893108397722,0.012354914098978,0,
00:00:01.12,-0.00984477903693914,-0.00687001505866647,0.0176404900848866,0,
00:00:01.124,0.00799686275422573,0.0159667246043682,-0.0374358035624027,0,
00:00:01.128,0.00827316846698523,-0.000831075361929834,-0.00087722932221368,0,
00:00:01.132,0.00478370860219002,-0.00873277522623539,0.00667523965239525,0,
00:00:01.136,3.91737557947636E-05,0.00326748169027269,0.000281251559499651,0,
00:00:01.14,-0.00746165681630373,0.00134219916071743,0.0153585271909833,0,
00:00:01.144,-0.0210061427205801,0.000386815721867606,0.000992555636912584,0,
00:00:01.148,0.0157817825675011,-0.00212470511905849,-0.014458229765296,0,
00:00:01.152,0.00497506465762854,-0.0106720812618732,-0.00285790883935988,0,
00:00:01.156,0.00511056277900934,0.0153910117223859,0.00707434862852097,0,
00:00:01.16,-0.000186388861038722,0.0224840305745602,0.00208397815003991,0,
00:00:01.164,-0.00382826593704522,-0.0152706122025847,-0.00286555662751198,0,
00:00:01.168,-0.00207914412021637,-0.0177275612950325,0.00243089208379388,0,
00:00:01.172,-0.0187846645712852,-0.0216830689460039,-0.00772581901401281,0,
00:00:01.176,0.00804724078625441,0.0127656497061253,0.0103932227939367,0,
00:00:01.18,0.020897638052702,0.0417700707912445,-0.00164172472432256,0,
00:00:01.184,0.00318233575671911,-0.00862736627459526,-0.00603650277480483,0,
00:00:01.188,-0.00866977125406265,-0.023638341575861,0.00395953841507435,0,
00:00:01.192,-0.0166319347918034,-0.00360509450547397,-0.00210651475936174,0,
00:00:01.196,0.00239505991339684,0.0114467144012451,-0.00988727435469627,0,
00:00:01.2,0.0221085213124752,0.0168792381882668,0.0124290585517883,0,
00:00:01.204,-0.0125116519629955,-0.027730705216527,-1.53541514009703E-05,0,
00:00:01.208,-0.00416203076019883,-0.00995955243706703,0.0111336745321751,0,
00:00:01.212,-0.00171097076963633,0.0133116822689772,-0.013881541788578,0,
00:00:01.216,0.00391462165862322,0.0133875422179699,-0.00492224469780922,0,
00:00:01.22,0.00125781644601375,0.0112192342057824,-0.00278756208717823,0,
00:00:01.224,0.00287905801087618,-0.00863050669431686,0.0221648290753365,0,
00:00:01.228,-0.00143404153641313,-0.0047106952406466,0.00699738785624504,0,
00:00:01.232,0.0046832743100822,-0.00334456353448331,-0.0446286275982857,0,
00:00:01.236,-0.00436056684702635,-0.0126324472948909,0.00266350596211851,0,
00:00:01.24,-0.0107557997107506,-0.00981095898896456,0.0279352441430092,0,
00:00:01.244,0.00853434018790722,0.0136276092380285,0.0123245995491743,0,
00:00:01.248,0.00627786060795188,0.017858674749732,-0.0120169827714562,0,
00:00:01.252,-0.00654889456927776,0.00339366612024605,-0.00920163840055466,0,
00:00:01.256,-0.00858013611286879,-0.0119098024442792,0.00302150449715555,0,
00:00:01.26,0.0107290735468268,0.000214482512092218,-0.00657081883400679,0,
00:00:01.264,0.00276844413019717,-0.0126099130138755,0.00441899709403515,0,
00:00:01.268,-0.00541040766984224,0.00344911846332252,-0.000179643000592478,0,
00:00:01.272,0.00787362270057201,0.0154197867959738,0.0046360488049686,0,
00:00:01.276,-0.00636604893952608,0.00911119487136602,0.00377127365209162,0,
00:00:01.28,-0.00930600054562092,-0.0219836495816708,-0.0098391268402338,0,
00:00:01.284,0.0140660777688026,-0.0086855897679925,-0.00476719159632921,0,
00:00:01.288,-0.00780825270339847,-0.00126479170285165,0.00862100999802351,0,
00:00:01.292,0.00355031015351415,0.0178391262888908,0.0037137889303267,0,
00:00:01.296,0.00482393009588122,0.0183636844158173,-0.00655360519886017,0,
00:00:01.3,-0.0149982171133161,-0.0366012714803219,0.00163925439119339,0,
00:00:01.304,0.00986634101718664,0.00496620265766978,0.0171987749636173,0,
00:00:01.308,0.00754921743646264,0.0273304581642151,-0.0190732683986425,0,
00:00:01.312,-0.00469943275675178,-0.00290156831033528,0.00197607418522239,0,
00:00:01.316,-0.0221386589109898,-0.0268171727657318,0.00675064790993929,0,
00:00:01.32,0.0218845102936029,0.00435487739741802,-0.0132272886112332,0,
00:00:01.324,0.0124309426173568,0.0130029786378145,-0.0209397599101067,0,
00:00:01.328,-0.00456130970269442,0.00216529611498117,0.0321578606963158,0,
00:00:01.332,-0.0246546249836683,-0.01257458422333,-0.000210038342629559,0,
00:00:01.336,-0.00204427842982113,-0.0118420105427504,0.00250340159982443,0,
00:00:01.34,0.0131816025823355,0.00511188805103302,0.00229706196114421,0,
00:00:01.344,0.0141519028693438,0.0346123091876507,-0.00222857156768441,0,
00:00:01.348,0.000130672196974047,0.00405612355098128,-0.000581931264605373,0,
00:00:01.352,-0.0110625382512808,-0.024971442297101,-0.00807449035346508,0,
00:00:01.356,-0.0114880874752998,-0.0218340717256069,-0.011286816559732,0,
00:00:01.36,0.015839196741581,0.00611048424616456,0.00612021656706929,0,
00:00:01.364,-0.000736613525077701,0.0160513576120138,0.00632554339244962,0,
00:00:01.368,-0.0133039392530918,-0.00670073693618178,-0.0019313587108627,0,
00:00:01.372,-0.00576171791180968,-0.0148749044165015,0.0280325189232826,0,
00:00:01.376,0.0204175598919392,0.0372176133096218,-0.0179089363664389,0,
00:00:01.38,0.00683428114280105,0.0111692063510418,-0.015930512920022,0,
00:00:01.384,-0.00145242968574166,-0.0107571296393871,0.00178272591438144,0,
00:00:01.388,-0.0112828882411122,-0.0219057463109493,-0.00962105114012957,0,
00:00:01.392,-0.0177779328078032,-0.023296682164073,0.0125696370378137,0,
00:00:01.396,0.00931319314986467,0.00141932442784309,0.0116718551144004,0,
00:00:01.4,0.00997083447873592,0.0176367294043303,0.0116773657500744,0,
00:00:01.404,0.0136804543435574,0.0285481046885252,-0.0176120046526194,0,
00:00:01.408,-0.00147094007115811,0.0156425200402737,-0.010666380636394,0,
00:00:01.412,-0.0195585396140814,-0.035985566675663,0.00365799805149436,0,
00:00:01.416,-0.0051297121681273,-0.0326893478631973,-0.000634488242212683,0,
00:00:01.42,0.00180478999391198,0.0202517919242382,0.0212246868759394,0,
00:00:01.424,0.0167170837521553,0.0320342555642128,-0.0154373245313764,0,
00:00:01.428,0.00249580410309136,-0.0112015213817358,-0.00319046247750521,0,
00:00:01.432,-0.0152861494570971,-0.0202794075012207,0.00745081296190619,0,
00:00:01.436,0.0039187902584672,0.00356445973739028,-0.0103415474295616,0,
00:00:01.44,0.0089474031701684,0.0212900340557098,-8.16628817119636E-05,0,
00:00:01.444,-0.00117890036199242,0.00397101184353232,0.014750674366951,0,
00:00:01.448,-0.020042285323143,-0.0256180986762047,-0.0098438560962677,0,
00:00:01.452,0.0049655819311738,-0.00208533345721662,-0.00451820250600576,0,
00:00:01.456,0.00969619024544954,0.00169945345260203,0.00797280296683311,0,
00:00:01.46,0.00971990171819925,0.00751215778291225,0.00878106523305178,0,
00:00:01.464,0.000273226323770359,0.0160753801465034,-0.00723920203745365,0,
00:00:01.468,-0.0187126062810421,-0.0145910000428557,-0.0117137059569359,0,
00:00:01.472,-0.00136889412533492,-0.0102501288056374,0.00346267456188798,0,
00:00:01.476,0.00360929500311613,0.00293553690426052,-0.00306283612735569,0,
00:00:01.48,0.0159948002547026,0.0113582815974951,0.020652187988162,0,
00:00:01.484,-0.00155178527347744,0.00345773878507316,-0.0183797888457775,0,
00:00:01.488,-0.00679977238178253,-0.0018869600025937,0.00241699302569032,0,
00:00:01.492,-0.00110664556268603,0.00657008774578571,0.00969784613698721,0,
00:00:01.496,-0.00966974906623363,-0.00884182285517454,0.000388638232834637,0,
00:00:01.5,0.00409980351105332,-0.0113861905410886,-0.00652651442214847,0,
00:00:01.504,0.00755511876195669,0.000426282727858052,-0.00473917601630092,0,
00:00:01.508,-0.00572270713746548,0.00160608894657344,-0.0111148776486516,0,
00:00:01.512,-0.00454986561089754,-0.0114672714844346,0.0140155851840973,0,
00:00:01.516,0.0169705413281918,0.0169009082019329,0.0255741737782955,0,
00:00:01.52,-0.00384588749147952,0.0258038323372602,-0.0188644006848335,0,
00:00:01.524,-0.00457638641819358,-0.010288936085999,-0.0151920868083835,0,
00:00:01.528,-0.00294384500011802,-0.0331091694533825,-0.00519567308947444,0,
00:00:01.532,-0.00284530385397375,-0.00184529658872634,0.00543722882866859,0,
00:00:01.536,-0.003480693558231,0.0187666192650795,0.0071525308303535,0,
00:00:01.54,0.00886452477425337,0.0110616665333509,0.0254057813435793,0,
00:00:01.544,0.0144269885495305,0.0179957151412964,-0.0122399386018515,0,
00:00:01.548,-0.00988094601780176,-0.0204786416143179,-0.0150892874225974,0,
00:00:01.552,-0.0103562837466598,-0.0232415515929461,-0.00811084639281034,0,
00:00:01.556,-0.00327310850843787,-0.00556976906955242,0.0148607883602381,0,
00:00:01.56,0.00688999332487583,0.0233827754855156,-0.000103753358416725,0,
00:00:01.564,0.0071124117821455,0.005302962847054,-0.000805498741101474,0,
00:00:01.568,-0.00346971116960049,-0.00236434629186988,-0.00536941038444638,0,
00:00:01.572,-0.00193018605932593,-0.0018083251779899,0.0112804025411606,0,
00:00:01.576,-0.0095118023455143,-0.00865825545042753,-0.00498460698872805,0,
00:00:01.58,0.00740479212254286,0.00380456331185997,-0.00394500326365232,0,
00:00:01.584,0.00464814063161612,-0.00227302731946111,-0.00182174029760063,0,
00:00:01.588,-0.00507771922275424,0.0129370074719191,-0.0039271404966712,0,
00:00:01.592,0.0129936328157783,-0.000484760239487514,-0.00711943209171295,0,
00:00:01.596,-0.00703717209398746,-0.0146449925377965,0.0104256402701139,0,
00:00:01.6,-0.00971899926662445,-0.0145325995981693,0.0129534155130386,0,
00:00:01.604,0.0101153310388327,0.0345614030957222,0.0209605358541012,0,
00:00:01.608,-0.0121880481019616,-0.0134710902348161,-0.0216457471251488,0,
00:00:01.612,-0.000455365312518552,-0.0135084837675095,-0.0139838233590126,0,
00:00:01.616,0.0120274312794209,0.0260960441082716,-0.00729539850726724,0,
00:00:01.62,0.00422830507159233,0.00096994754858315,0.00149365141987801,0,
00:00:01.624,0.00643994240090251,-0.0154323615133762,0.00425341259688139,0,
00:00:01.628,-0.0162620786577463,-0.000821712776087224,0.0207768920809031,0,
00:00:01.632,-0.0102350637316704,0.00122891238424927,-0.0212670769542456,0,
00:00:01.636,0.00724055664613843,-0.0102476850152016,-0.00397052383050323,0,
00:00:01.64,0.00142817536834627,0.00304386275820434,0.028050759807229,0,
00:00:01.644,0.0148596921935678,0.0095725879073143,-0.010650297626853,0,
00:00:01.648,-0.00254285056143999,0.0141253964975476,0.000942339655011892,0,
00:00:01.652,-0.0116553129628301,-0.0077987820841372,-0.00787776987999678,0,
00:00:01.656,-0.00567676452919841,-0.0182955432683229,-0.0112173166126013,0,
00:00:01.66,0.00174041092395782,-0.00294216326437891,0.0206565726548433,0,
00:00:01.664,0.00315991323441267,0.0238591972738504,-0.00143709604162723,0,
00:00:01.668,0.0148907992988825,0.0036396395880729,-0.0155157698318362,0,
00:00:01.672,-0.0022692761849612,-0.00939586665481329,-0.00526862917467952,0,
00:00:01.676,-0.00699719227850437,-0.0131214065477252,0.0118641974404454,0,
00:00:01.68,-0.0092973355203867,-0.011942426674068,0.00960064679384232,0,
00:00:01.684,0.00256098946556449,0.014706620015204,0.00196268921718001,0,
00:00:01.688,0.00681465491652489,0.0223330985754728,0.000466388475615531,0,
00:00:01.692,0.00704065943136811,0.00481683062389493,-0.0133161013945937,0,
00:00:01.696,-0.0115072224289179,-0.0244137179106474,0.00119676359463483,0,
00:00:01.7,-0.00455875834450126,-0.0122060757130384,-0.0061291572637856,0,
00:00:01.704,-0.00221478356979787,0.00418377621099353,0.01004867721349,0,
00:00:01.708,0.012610693462193,0.0133902281522751,-0.00695347553119063,0,
00:00:01.712,0.0112529238685966,0.00508403172716498,0.00173555559013039,0,
00:00:01.716,-0.0137630775570869,0.00101193180307746,0.0125768156722188,0,
00:00:01.72,0.00275666103698313,-0.00774363242089748,-0.00910748913884163,0,
00:00:01.724,-0.00337607529945672,-0.00305638508871198,-0.00218188995495439,0,
00:00:01.728,-0.00763705186545849,-0.00225516478531063,0.00946205761283636,0,
00:00:01.732,-0.00130487780552357,0.00312067777849734,-0.00406360300257802,0,
00:00:01.736,0.0104641132056713,0.00709838094189763,-0.00550106493756175,0,
00:00:01.74,-0.00037504913052544,0.00120326364412904,-0.00647216243669391,0,
00:00:01.744,-0.00552577944472432,-0.0120217930525541,0.0111307613551617,0,
00:00:01.748,0.00603426992893219,-0.00509217055514455,-0.00018532169633545,0,
00:00:01.752,0.0125633757561445,0.0137933325022459,-0.0169166661798954,0,
00:00:01.756,-0.010411080904305,0.00731030246242881,0.0167663209140301,0,
00:00:01.76,-0.00787925999611616,-0.012831256724894,0.00369259458966553,0,
00:00:01.764,-0.00245982548221946,-0.00545091740787029,0.00498764682561159,0,
00:00:01.768,-0.000327186222421005,-0.000235888219322078,-0.00407163705676794,0,
00:00:01.772,0.00529349502176046,0.0130843743681908,-0.000238825072301552,0,
00:00:01.776,-0.00397180393338203,0.00390323740430176,-0.0124074146151543,0,
00:00:01.78,0.0112435212358832,-0.0238731522113085,-0.00390865048393607,0,
00:00:01.784,0.0116977319121361,0.0206031892448664,0.00689150858670473,0,
00:00:01.788,-0.00885445065796375,0.0169272720813751,-0.0174221005290747,0,
00:00:01.792,-0.0179070588201284,-0.0203904341906309,0.0269993655383587,0,
00:00:01.796,-0.00439738994464278,-0.0183914173394442,0.0206477306783199,0,
00:00:01.8,0.00720181176438928,0.00833767559379339,-0.0261231251060963,0,
00:00:01.804,0.0120817460119724,0.00578347640112042,-0.00169467949308455,0,
00:00:01.808,2.24147479457315E-05,0.00554327759891748,-0.011258595623076,0,
00:00:01.812,-0.00976469647139311,-0.00280625582672656,0.00879499688744545,0,
00:00:01.816,0.000916343356948346,-0.00422741798684001,0.00350143667310476,0,
00:00:01.82,0.00998499803245068,0.00631215050816536,0.00522138504311442,0,
00:00:01.824,-0.00548396911472082,0.00948698725551367,-0.00814713910222054,0,
00:00:01.828,0.00559172313660383,-0.0034338238183409,0.00226144143380225,0,
00:00:01.832,-0.0122692473232746,-0.0314659588038921,-0.0120263015851378,0,
00:00:01.836,0.0087819891050458,0.00865908712148666,0.0160325895994902,0,
00:00:01.84,-0.00413509085774422,0.0177844893187284,0.00593871204182506,0,
00:00:01.844,-0.00799597520381212,0.0108438804745674,-0.0104651758447289,0,
00:00:01.848,-0.000275960803264752,-0.0100028933957219,-0.00371601711958647,0,
00:00:01.852,0.007693937048316,-0.0131564596667886,0.0245771445333958,0,
00:00:01.856,0.0126324044540524,0.012146832421422,-0.0140559775754809,0,
00:00:01.86,0.00216366350650787,0.00872159749269485,-0.0133141297847033,0,
00:00:01.864,-0.00862620119005442,-0.00725619914010167,-0.0128017282113433,0,
00:00:01.868,-0.0127839175984263,-0.0176144763827324,0.0152011821046472,0,
00:00:01.872,-0.00404206570237875,-0.00503773987293243,0.012936981394887,0,
00:00:01.876,0.00823109224438667,0.00699368491768837,-0.00353330466896296,0,
00:00:01.88,0.00298372260294855,0.0170048363506794,-0.00295453681610525,0,
00:00:01.884,0.00192733539734036,0.00372327142395079,-0.00180265831295401,0,
00:00:01.888,0.00542516494169831,0.00527655752375722,0.00143247738014907,0,
00:00:01.892,0.000510730606038123,-0.0127255823463202,-0.00597099028527737,0,
00:00:01.896,-0.00367912813089788,-0.0060503613203764,0.0048671206459403,0,
00:00:01.9,-0.0169405713677406,-0.0164541266858578,-0.00258408673107624,0,
00:00:01.904,0.0112002305686474,0.0186815913766623,0.0140944849699736,0,
00:00:01.908,0.0138334091752768,0.0156952049583197,-0.00121491798199713,0,
00:00:01.912,-0.00921420939266682,-0.0122593808919191,-0.0207315534353256,0,
00:00:01.916,-0.0146762421354651,-0.0144017646089196,-0.0101784095168114,0,
00:00:01.92,0.00871149729937315,0.0174296628683805,0.0145271047949791,0,
00:00:01.924,0.00885878223925829,0.0028258734382689,0.01376046333462,0,
00:00:01.928,0.00221052835695446,-0.0110580334439874,0.00450012041255832,0,
00:00:01.932,-0.00926648173481226,-0.00194287369959056,-0.00549469236284494,0,
00:00:01.936,0.00556517485529184,-0.00445511797443032,-0.00238663982599974,0,
00:00:01.94,-0.00625863345339894,0.010337513871491,-0.00136276835110039,0,
00:00:01.944,-0.00155064498540014,-0.00804740656167269,-0.00536343501880765,0,
00:00:01.948,0.00147068162914366,0.0131407212466002,-0.0075445850379765,0,
00:00:01.952,0.00439022108912468,0.0109743075445294,-0.00217644195072353,0,
00:00:01.956,0.00174352142494172,-0.0156078822910786,0.00749596022069454,0,
00:00:01.96,-0.00731107639148831,-0.0117809968069196,0.0100147435441613,0,
00:00:01.964,-0.00456684082746506,-0.00721142301335931,0.00599873904138803,0,
00:00:01.968,0.0090483957901597,0.0161024741828442,-0.00415704911574721,0,
00:00:01.972,0.00854108482599258,0.0245729964226484,-0.012714808806777,0,
00:00:01.976,0.00444709789007902,-0.00417107762768865,0.00989570841193199,0,
00:00:01.98,-0.013470702804625,-0.0236471462994814,0.000205893753445707,0,
00:00:01.984,-0.00745895598083735,-0.0194983929395676,-0.018902076408267,0,
00:00:01.988,-0.00264430791139603,0.0157951768487692,0.00768300192430615,0,
00:00:01.992,0.00549871707335114,0.00672202091664076,0.00789382494986057,0,
00:00:01.996,0.0141472201794386,0.00989961251616478,0.00588439358398318,0,
00:00:02,-0.00714453589171171,-0.0103883445262909,0.00186379626393318,0,
00:00:02.004,-0.00282787927426398,0.00103129982016981,-0.0163857210427523,0,
00:00:02.008,-0.0113495532423258,0.00734850764274597,0.00808317959308624,0,
00:00:02.012,0.00564359221607447,0.00372136849910021,-0.00862608104944229,0,
00:00:02.016,0.0166614446789026,0.00041489111026749,-0.00410777796059847,0,
00:00:02.02,-0.00345505611039698,-0.0149205988273025,0.0221826694905758,0,
00:00:02.024,-0.00902026146650314,-0.0148528711870313,0.00782668776810169,0,
00:00:02.028,0.010558744892478,0.0114210546016693,-0.010295539163053,0,
00:00:02.032,-0.0143984369933605,-0.0107971895486116,-0.0134553285315633,0,
00:00:02.036,-0.00572476210072637,0.019843528047204,-0.00539676798507571,0,
00:00:02.04,0.0117869609966874,0.0278342440724373,0.00879241526126862,0,
00:00:02.044,0.00334982201457024,-0.010241886600852,0.00839886534959078,0,
00:00:02.048,0.0054029943421483,-0.00132571160793304,-0.0138950711116195,0,
00:00:02.052,-0.0162624567747116,-0.0373389050364494,-0.00105305796023458,0,
00:00:02.056,0.00554876634851098,-0.00476662395521998,0.0101664634421468,0,
00:00:02.06,-0.00471428176388144,0.0115747610107064,0.0107864122837782,0,
00:00:02.064,0.010279162786901,0.0242057014256716,-0.00807853695005178,0,
00:00:02.068,0.00300903199240565,-0.00376065610907972,-0.00341161945834756,0,
00:00:02.072,-0.0047329580411315,-0.00108519615605474,-0.0036904364824295,0,
00:00:02.076,-0.00242179119959474,-0.00279060960747302,0.00343734701164067,0,
00:00:02.08,-0.00977333076298237,-0.0119232647120953,-0.00229802215471864,0,
00:00:02.084,0.009402209892869,0.00734739378094673,0.00312982499599457,0,
00:00:02.088,0.00485145626589656,0.00798473972827196,0.00136438000481576,0,
00:00:02.092,-0.00640418101102114,-0.0123655358329415,-0.00937193538993597,0,
00:00:02.096,0.00112044939305633,-0.00158002250827849,0.00387476454488933,0,
00:00:02.1,0.00211767666041851,-0.00216691265814006,0.0154746538028121,0,
00:00:02.104,-0.00129974039737135,0.0188813433051109,-0.00993606168776751,0,
00:00:02.108,0.00138464302290231,0.00984698999673128,-0.00929984450340271,0,
00:00:02.112,-0.00363934738561511,-0.0223196260631084,0.004620760679245,0,
00:00:02.116,0.0156842768192291,0.0030979027505964,-0.0102037629112601,0,
00:00:02.12,-0.0118094542995095,-0.0116771114990115,0.016514528542757,0,
00:00:02.124,-0.0145918102934957,-0.00271827867254615,0.00764278322458267,0,
00:00:02.128,0.00876349303871393,0.0150742763653398,-0.0233530830591917,0,
00:00:02.132,-0.00176768354140222,-0.000645152933429927,0.0125501779839396,0,
00:00:02.136,0.0118920700624585,0.0201443638652563,0.00609951419755816,0,
00:00:02.14,0.00318124028854072,-0.00974466744810343,0.00123738101683557,0,
00:00:02.144,-0.00754439877346158,-0.0159609373658895,-0.0082591213285923,0,
00:00:02.148,0.000679210352245718,0.00109999603591859,-0.00777392648160458,0,
00:00:02.152,-0.00454816967248917,-0.00768830860033631,0.00775556825101376,0,
00:00:02.156,-0.0044346759095788,8.09772536740638E-05,0.0028213681653142,0,
00:00:02.16,-0.00125810108147562,0.0110611794516444,-0.00312098348513246,0,
00:00:02.164,0.0102456463500857,0.0121964747086167,-0.00242163939401507,0,
00:00:02.168,0.00175130204297602,-0.000540703302249312,-0.00425333855673671,0,
00:00:02.172,0.00507444562390447,-0.00662370072677732,0.00123724108561873,0,
00:00:02.176,0.000820758112240583,-0.0107129700481892,0.0171874035149813,0,
00:00:02.18,-0.032553032040596,-0.0180014055222273,0.00293361954391003,0,
00:00:02.184,0.0144263487309217,0.0275642760097981,-0.0199665948748589,0,
00:00:02.188,0.023055600002408,0.0115306992083788,-0.00810801889747381,0,
00:00:02.192,0.00130519771482795,-0.00660991622135043,0.00566743453964591,0,
00:00:02.196,-0.0200639944523573,-0.00876318477094173,0.00845763459801674,0,
00:00:02.2,-0.00452935043722391,-0.00453557725995779,0.00317155406810343,0,
00:00:02.204,0.00490314327180386,0.00638636108487844,0.00887622125446796,0,
00:00:02.208,0.00666648475453258,0.0112975239753723,-0.00462159421294928,0,
00:00:02.212,-0.00457996968179941,-0.0117731913924217,-0.00784086529165506,0,
00:00:02.216,-0.00269651995040476,-0.0206475555896759,-0.00932484585791826,0,
00:00:02.22,-0.00289663998410106,-0.000157297516125254,0.00508573930710554,0,
00:00:02.224,0.0153293507173657,0.012476222589612,0.00545929931104183,0,
00:00:02.228,0.0103194247931242,0.029922790825367,0.0100827775895596,0,
00:00:02.232,-0.0235369484871626,-0.00268040434457362,-0.0111793000251055,0,
00:00:02.236,-0.0133278109133244,-0.017606807872653,-0.0233375988900661,0,
00:00:02.24,0.0158778075128794,-0.00728327594697475,0.0173195786774158,0,
00:00:02.244,0.010310735553503,-0.000983247649855912,0.0185666382312775,0,
00:00:02.248,0.00530588766559958,0.0104315197095275,-0.00857953913509846,0,
00:00:02.252,-0.0147009640932083,-0.00718658464029431,-0.00608449056744576,0,
00:00:02.256,0.00345508195459843,-0.000531375233549625,0.00520595954731107,0,
00:00:02.26,-0.00871994718909264,-0.000318602746119723,-0.00389389367774129,0,
00:00:02.264,-0.0115173645317554,-0.00667064730077982,-0.00666502397507429,0,
00:00:02.268,0.0157894100993872,0.0123626030981541,0.0212272573262453,0,
00:00:02.272,0.00891362596303225,-0.00408551748842001,-0.00402096705511212,0,
00:00:02.276,0.00622387602925301,0.00727593153715134,-0.016746561974287,0,
00:00:02.28,-0.00432760920375586,0.00807066261768341,0.000967797648627311,0,
00:00:02.284,-0.0133567033335567,0.000382389349397272,0.00197526486590505,0,
00:00:02.288,0.007140361238271,0.000452936830697581,0.00214463006705046,0,
00:00:02.292,0.00180832843761891,-0.021404916420579,-0.00458564283326268,0,
00:00:02.296,-0.0151762431487441,-0.0267614722251892,-0.00569773092865944,0,
00:00:02.3,0.00821649003773928,0.0222732853144407,0.0210260879248381,0,
00:00:02.304,0.00166528788395226,0.0137565014883876,0.00610195891931653,0,
00:00:02.308,0.00315066962502897,0.00639953417703509,-0.00724704097956419,0,
00:00:02.312,0.0097382627427578,0.00457216752693057,-0.00472980830818415,0,
00:00:02.316,-0.0167707148939371,0.00333393015898764,-0.0109415734186769,0,
00:00:02.32,0.00600314047187567,-0.0108506409451365,-0.00772057613357902,0,
00:00:02.324,-0.00358068803325295,-0.0214804746210575,0.0119696483016014,0,
00:00:02.328,-0.0120377838611603,-0.0116305062547326,0.0100421151146293,0,
00:00:02.332,0.017903121188283,0.0317189283668995,-0.0102269640192389,0,
00:00:02.336,0.0137359136715531,0.00459047732874751,0.00622615776956081,0,
00:00:02.34,-0.00340557401068509,0.0132127674296498,0.0150371082127094,0,
00:00:02.344,-0.0229086484760046,-0.0276923347264528,-0.0211263503879309,0,
00:00:02.348,-0.00320267141796649,-0.00691684568300843,0.00582456681877375,0,
00:00:02.352,0.0124770551919937,0.00712881656363606,0.00158937519881874,0,
00:00:02.356,0.00152569590136409,0.0163892023265362,-0.0156032359227538,0,
00:00:02.36,-0.000662085600197315,-0.00415724329650402,-0.00679177325218916,0,
00:00:02.364,0.00394228007644415,0.00100009131710976,0.0173779707401991,0,
00:00:02.368,0.000542425143066794,0.000832374324090779,0.0190818160772324,0,
00:00:02.372,-0.00479290168732405,-0.0200783181935549,-0.00240625347942114,0,
00:00:02.376,0.00273389485664666,-0.0122705241665244,-0.0318093486130238,0,
00:00:02.38,-0.00850069243460894,0.0144404517486691,0.00173444324173033,0,
00:00:02.384,-0.00343603058718145,0.0093745980411768,0.0266066771000624,0,
00:00:02.388,0.00308522814884782,0.0209378991276026,0.00390088022686541,0,
00:00:02.392,0.00148535461630672,-0.00297793070785701,-0.0167854595929384,0,
00:00:02.396,0.0207005143165588,-0.0163959935307503,-0.0126749826595187,0,
00:00:02.4,-0.0135124698281288,-0.0233314633369446,0.00865202955901623,0,
00:00:02.404,0.00137610698584467,0.0167585015296936,0.00666229007765651,0,
00:00:02.408,-0.0040357350371778,0.0191956870257854,0.00661096395924687,0,
00:00:02.412,-0.00956937111914158,-0.00556587846949697,-0.0151992598548532,0,
00:00:02.416,0.0114449607208371,-0.0118886129930615,0.00850640889257193,0,
00:00:02.42,0.00866868440061808,-0.00336449779570103,0.0123496158048511,0,
00:00:02.424,-0.0123540861532092,0.00397022999823093,-0.0135120386257768,0,
00:00:02.428,-0.00822323188185692,0.00576007505878806,-0.016856774687767,0,
00:00:02.432,-0.00334566179662943,-0.00903510022908449,0.00512698944658041,0,
00:00:02.436,0.0182421635836363,0.00349414674565196,0.0168954227119684,0,
00:00:02.44,-0.00279384013265371,0.00702442368492484,0.00752820307388902,0,
00:00:02.444,0.00481117470189929,0.004276969935745,-0.0198446419090033,0,
00:00:02.448,-0.00142189906910062,-0.0106317512691021,0.00162090628873557,0,
00:00:02.452,-0.00805879849940538,-0.0017856303602457,0.0082471426576376,0,
00:00:02.456,0.00684982212260365,-0.00241257646121085,0.0119199426844716,0,
00:00:02.46,-0.00608484819531441,-0.00223194411955774,-0.00557332066819072,0,
00:00:02.464,-6.16681281826459E-05,0.0185564141720533,-0.0188277699053288,0,
00:00:02.468,-0.00118059001397341,0.0134839275851846,-0.00760651892051101,0,
00:00:02.472,-0.00174041406717151,-0.028743002563715,0.00486202863976359,0,
00:00:02.476,0.00766546418890357,-0.00454916572198272,0.0141227906569839,0,
00:00:02.48,-0.00276605156250298,0.00398386921733618,0.0144260693341494,0,
00:00:02.484,-0.00230839825235307,0.00265277642756701,-0.00410966854542494,0,
00:00:02.488,0.00451712822541595,0.00454929005354643,-0.0204263925552368,0,
00:00:02.492,0.00410343520343304,0.00192173360846937,6.50033980491571E-05,0,
00:00:02.496,-0.00758341420441866,-0.0111944284290075,-0.000573493074625731,0,
00:00:02.5,-0.0047226632013917,0.00787689443677664,0.0144009739160538,0,
00:00:02.504,0.000681677891407162,0.00444483757019043,0.00215905858203769,0,
00:00:02.508,0.0119236893951893,0.00841878820210695,-0.0142550682649016,0,
00:00:02.512,-0.0044370498508215,-0.0123650683090091,0.0155309233814478,0,
00:00:02.516,-0.00913665723055601,-0.017635764554143,-0.00856370944529772,0,
00:00:02.52,0.00907532125711441,0.0113327112048864,0.00676464475691319,0,
00:00:02.524,0.00339062232524157,0.0096233943477273,-0.0186150837689638,0,
00:00:02.528,-0.00595517596229911,-0.00295170187018812,0.0091649554669857,0,
00:00:02.532,-0.00598777690902352,0.0102525558322668,-0.00694590946659446,0,
00:00:02.536,0.0063880798406899,-0.000737362657673657,-0.00297243217937648,0,
00:00:02.54,0.00240122596733272,-0.0156670473515987,0.0225537791848183,0,
00:00:02.544,-0.00244459020905197,-0.00156574603170156,0.00144064612686634,0,
00:00:02.548,0.00258407439105213,0.0071148332208395,-0.0109384041279554,0,
00:00:02.552,0.0108332457020879,0.00114476855378598,-0.0111727025359869,0,
00:00:02.556,-0.0283888671547174,-0.0182242356240749,0.0161752104759216,0,
00:00:02.56,0.00311929755844176,0.00577407702803612,0.00759855471551418,0,
00:00:02.564,0.00869001727551222,0.0162906348705292,-0.0173764638602734,0,
00:00:02.568,0.0133257545530796,0.00832492858171463,-0.0105520514771342,0,
00:00:02.572,0.00501550966873765,0.00434543192386627,-0.000326055276673287,0,
00:00:02.576,-0.0141081139445305,-0.00482436316087842,0.00624588364735246,0,
00:00:02.58,-0.0143237300217152,-0.0259716417640448,0.0219568181782961,0,
00:00:02.584,0.00711617851629853,-0.00464689126238227,0.0221523642539978,0,
00:00:02.588,0.00642520654946566,0.000756065594032407,-0.0399517193436623,0,
00:00:02.592,-0.00306746875867248,0.00910334289073944,-0.0253239646553993,0,
00:00:02.596,0.0100947013124824,0.0232661217451096,0.0319990776479244,0,
00:00:02.6,-0.000718868686817586,-0.00111719558481127,0.00951046124100685,0,
00:00:02.604,-0.00462896982207894,-0.00490392977371812,-0.00834071543067694,0,
00:00:02.608,-0.0040070922113955,-0.0117397392168641,-0.0186839569360018,0,
00:00:02.612,0.00050149392336607,-0.00857457425445318,0.00937831308692694,0,
00:00:02.616,-0.00342288729734719,0.012822731398046,0.0167829599231482,0,
00:00:02.62,0.00406962679699063,0.00653351936489344,-0.0109459348022938,0,
00:00:02.624,0.00725735444575548,-0.0133209088817239,-0.00409411219879985,0,
00:00:02.628,-0.0099041536450386,-0.0115514630451798,0.0049884058535099,0,
00:00:02.632,-0.00718556391075253,0.00429588230326772,-0.00339472712948918,0,
00:00:02.636,0.00658922921866179,0.0125644933432341,0.00908179488033056,0,
00:00:02.64,0.0117992134764791,0.0146922906860709,-0.00599055318161845,0,
00:00:02.644,0.0118669765070081,-0.000617793935816735,-0.00117408647201955,0,
00:00:02.648,-0.0162308514118195,-0.00868135970085859,-0.0108038382604718,0,
00:00:02.652,-0.0156024228781462,-0.0109552359208465,0.00943700224161148,0,
00:00:02.656,-0.000562043918762356,-0.00471796374768019,0.00588677125051618,0,
00:00:02.66,0.0112469317391515,-0.000349908514181152,-0.0011665738420561,0,
00:00:02.664,-0.000527807511389256,0.0026198597624898,0.00180210988037288,0,
00:00:02.668,0.0109558766707778,0.00791359413415194,0.00297604687511921,0,
00:00:02.672,0.0136061124503613,0.00965664908289909,-0.0155171696096659,0,
00:00:02.676,-0.0315657071769238,-0.0051532331854105,-0.00664195651188493,0,
00:00:02.68,-0.0125760240480304,0.0024149517994374,0.0212167873978615,0,
00:00:02.684,0.0228978749364614,0.0105727091431618,-0.00250687962397933,0,
00:00:02.688,0.0145153803750873,-0.021306911483407,-0.0100014386698604,0,
00:00:02.692,-0.0118957972154021,-0.0190338995307684,-0.00877318065613508,0,
00:00:02.696,-0.0149230407550931,-0.00839791260659695,0.0185278244316578,0,
00:00:02.7,-0.000316564313834533,0.0205483213067055,0.017554285004735,0,
00:00:02.704,0.017693230882287,0.0371679402887821,-0.00371366553008556,0,
00:00:02.708,0.00388225284405053,0.00308785308152437,-0.026361895725131,0,
00:00:02.712,-0.0125384703278542,-0.0262645483016968,-0.0151065811514854,0,
00:00:02.716,-0.00441797962412238,-0.0268841255456209,0.0186187755316496,0,
00:00:02.72,0.0147511810064316,0.0157354790717363,0.00638429028913379,0,
00:00:02.724,-0.00310530047863722,0.00889573246240616,0.00364959076978266,0,
00:00:02.728,-0.00627420749515295,0.00695217121392488,-0.000180049377377145,0,
00:00:02.732,-0.00953953992575407,-0.0112004112452269,-0.00247120601125062,0,
00:00:02.736,0.01047642249614,-0.00179803825449198,-0.00479127559810877,0,
00:00:02.74,0.00339265796355903,0.0129108065739274,0.00241866824217141,0,
00:00:02.744,-0.00237750844098628,-0.00898200366646051,0.00149012973997742,0,
00:00:02.748,0.00456206081435084,-0.00266979145817459,-0.00482577038928866,0,
00:00:02.752,-0.00575902778655291,0.00688237883150578,-0.008030422963202,0,
00:00:02.756,-0.00797564815729856,-0.00839498918503523,0.00989224296063185,0,
00:00:02.76,0.0064553483389318,0.00243416265584528,0.0123994220048189,0,
00:00:02.764,0.0103510301560163,0.00542670814320445,0.0139863407239318,0,
00:00:02.768,-0.00447160424664617,-0.00706935720518231,-0.0310571510344744,0,
00:00:02.772,-0.00136502948589623,-0.000707825412973762,-0.0290834717452526,0,
00:00:02.776,-0.00391760701313615,0.00304119708016515,0.0235431287437677,0,
00:00:02.78,-0.00414516823366284,0.00543885491788387,0.0258303433656693,0,
00:00:02.784,0.00862412061542273,0.0100683178752661,0.00333758187480271,0,
00:00:02.788,-0.00872212648391724,-0.013905692845583,-0.0101833334192634,0,
00:00:02.792,-0.00118935585487634,-0.0078846663236618,-0.00989608094096184,0,
00:00:02.796,0.0146943740546703,0.00624315999448299,-0.000229684970690869,0,
00:00:02.8,0.00149667076766491,0.00264946860261261,-0.00518182804808021,0,
00:00:02.804,-0.0154770603403449,-0.0104095721617341,0.00208847783505917,0,
00:00:02.808,0.00833110138773918,0.0150087485089898,0.00871791318058968,0,
00:00:02.812,-0.00293603399768472,-0.00280328630469739,0.00583541765809059,0,
00:00:02.816,-0.00460429629310966,-0.0148937478661537,-0.0142415137961507,0,
00:00:02.82,0.00453274557366967,0.0126783205196261,0.00814199820160866,0,
00:00:02.824,0.00606754561886191,0.0160190556198359,0.00273434887640178,0,
00:00:02.828,0.000864416884724051,-0.0018217220203951,-0.0130032123997808,0,
00:00:02.832,-0.00525155290961266,-0.0172024704515934,-0.00266804313287139,0,
00:00:02.836,-0.00819871108978987,-0.0168662145733833,0.013323905877769,0,
00:00:02.84,-0.00101724721025676,0.00397870782762766,0.00299027166329324,0,
00:00:02.844,0.0129452524706721,0.0197665616869926,-0.0104867145419121,0,
00:00:02.848,0.00813661143183708,0.00147243239916861,0.00662169326096773,0,
00:00:02.852,-0.00689171021804214,0.001005326397717,0.0127055337652564,0,
00:00:02.856,-0.0229915659874678,-0.0147712891921401,-0.0155265759676695,0,
00:00:02.86,0.0180019568651915,0.00380422407761216,-0.0154309766367078,0,
00:00:02.864,0.00633191224187613,0.0148330209776759,0.0102088199928403,0,
00:00:02.868,-0.00820658728480339,0.00338417082093656,0.000222300615860149,0,
00:00:02.872,-0.0092835808172822,-0.0175412371754646,0.0089876763522625,0,
00:00:02.876,0.00698528625071049,-0.0040741553530097,0.00518705416470766,0,
00:00:02.88,0.0116973593831062,0.00389861036092043,0.00743185402825475,0,
00:00:02.884,-0.0013151231687516,-0.000756761408410966,-0.0122363846749067,0,
00:00:02.888,-0.00717098684981465,-0.00753271160647273,-0.00889263767749071,0,
00:00:02.892,0.00426893727853894,0.0206874404102564,-0.00507735041901469,0,
00:00:02.896,-0.0179814714938402,-0.0133565403521061,0.0141070643439889,0,
00:00:02.9,0.0079885246232152,0.0034725300502032,-0.00446246704086661,0,
00:00:02.904,0.0122505407780409,0.00945177581161261,-0.0130154602229595,0,
00:00:02.908,0.00612813653424382,0.00394204491749406,-0.000508034601807594,0,
00:00:02.912,-0.0138463536277413,-0.017312116920948,0.0196575727313757,0,
00:00:02.916,2.0562918507494E-05,0.00157976767513901,0.0149997305124998,0,
00:00:02.92,0.00174073758535087,0.00790007505565882,-0.0103906262665987,0,
00:00:02.924,-0.00188571342732757,-0.0090950233861804,-0.0127048278227448,0,
00:00:02.928,-0.0031535851303488,-0.000603782536927611,0.000184889111551456,0,
00:00:02.932,0.00459994748234749,0.00903293117880821,-0.00293316133320332,0,
00:00:02.936,-0.00308018177747726,0.00107955082785338,-0.00869398098438978,0,
00:00:02.94,0.0037570740096271,-0.0178517214953899,0.0122447740286589,0,
00:00:02.944,0.00700455671176314,-0.00234752777032554,0.00971429422497749,0,
00:00:02.948,0.000261031818808988,0.0194224864244461,-0.000766694778576493,0,
00:00:02.952,-0.00279357098042965,0.0216953884810209,-0.00666073244065046,0,
00:00:02.956,-0.0240507703274488,-0.0178025439381599,-0.00624327128753066,0,
00:00:02.96,0.00498027633875608,-0.0111001254990697,0.00382721819914877,0,
00:00:02.964,0.0190652869641781,-0.00666789663955569,0.00177307846024632,0,
00:00:02.968,0.00105130940210074,-0.00377338100224733,0.00710561359301209,0,
00:00:02.972,0.00523981405422091,0.0106652108952403,-0.0139547605067492,0,
00:00:02.976,-0.00392657984048128,0.0105103086680174,0.000727076956536621,0,
00:00:02.98,-0.0152301862835884,-0.0126428613439202,0.0179867967963219,0,
00:00:02.984,-0.00339787569828331,0.00302627799101174,0.000816930318251252,0,
00:00:02.988,0.015252472832799,0.0176217202097178,-0.0165932849049568,0,
00:00:02.992,0.00326801603659987,-0.00566315744072199,-0.00283434404991567,0,
00:00:02.996,-0.00752025190740824,-0.0213410966098309,-0.00603481661528349,0,
00:00:03,-0.0069660721346736,-0.00121321575716138,0.00467710196971893,0,
00:00:03.004,0.0105088958516717,0.0155386012047529,0.0144353630021214,0,
00:00:03.008,0.00105676194652915,0.00565659673884511,0.0103791132569313,0,
00:00:03.012,-0.00712027121335268,-0.00271620717830956,-0.0112510016188025,0,
00:00:03.016,-0.00946735870093107,-0.022346343845129,-0.0148774366825819,0,
00:00:03.02,0.00977039709687233,0.00519972434267402,-0.00145697908010334,0,
00:00:03.024,0.0192854590713978,0.0219529960304499,0.0163224004209042,0,
00:00:03.028,-0.0098701361566782,-0.00249317381531,0.0031254249624908,0,
00:00:03.032,-0.00740638561546803,-0.00739196501672268,-0.0124622881412506,0,
00:00:03.036,-0.0039471834897995,0.00179086765274405,-0.00379043607972562,0,
00:00:03.04,0.00152061134576797,0.00413815537467599,0.0113331070169806,0,
00:00:03.044,-0.00448956759646535,-0.012731964699924,0.0117301801219583,0,
00:00:03.048,-0.00373130454681814,-0.0250997245311737,-0.0106245381757617,0,
00:00:03.052,0.00856253132224083,0.020704597234726,-0.036076907068491,0,
00:00:03.056,0.0165470987558365,0.0407685562968254,0.0239306967705488,0,
00:00:03.06,-0.0049614873714745,0.00665640039369464,0.0101218726485968,0,
00:00:03.064,-0.0106147071346641,-0.0440225340425968,0.0183301474899054,0,
00:00:03.068,0.005441814661026,-0.0213681496679783,-0.009514469653368,0,
00:00:03.072,-0.00650069676339626,0.0101643269881606,-0.0152685698121786,0,
00:00:03.076,0.00222178781405091,0.0248545985668898,-0.00697040231898427,0,
00:00:03.08,-0.00480550434440374,-0.00364021584391594,0.00813662819564343,0,
00:00:03.084,-0.00313237588852644,-0.00302687473595142,0.00428068870678544,0,
00:00:03.088,0.00918035861104727,0.00615837005898356,0.00486972881481051,0,
00:00:03.092,0.00599112082272768,0.00376538815908134,-0.00723093096166849,0,
00:00:03.096,-0.00230261567048728,-0.00551839824765921,0.00133072445169091,0,
00:00:03.1,-0.00192813377361745,-0.00471864128485322,-0.00769487814977765,0,
00:00:03.104,-0.00453295838087797,-0.0139729231595993,0.00662462087348104,0,
00:00:03.108,-0.00624887412413955,-0.00398718472570181,-0.0200831759721041,0,
00:00:03.112,0.00264625647105277,0.0187539737671614,0.0255715567618608,0,
00:00:03.116,0.0115610165521502,0.0146896680817008,0.0146107766777277,0,
00:00:03.12,0.00413632486015558,0.00464857229962945,-0.00884554535150528,0,
00:00:03.124,-0.0140782548114657,-0.0230920147150755,-0.00161851302254945,0,
00:00:03.128,-0.00700091104954481,-0.0136265140026808,-0.0183987990021706,0,
00:00:03.132,0.013302561827004,0.00594204291701317,3.92578876926564E-05,0,
00:00:03.136,0.00574943609535694,0.0206643063575029,-0.0118016991764307,0,
00:00:03.14,0.000258928019320592,0.0113088563084602,0.0176163818687201,0,
00:00:03.144,-0.015334740281105,-0.027132598683238,0.0125320563092828,0,
00:00:03.148,0.00614666193723679,-0.01327770575881,0.00681928917765617,0,
00:00:03.152,-0.00331177562475204,0.0102198421955109,-0.0145327467471361,0,
00:00:03.156,0.00515098962932825,0.0185186117887497,-0.00785749033093452,0,
00:00:03.16,-0.00973295327275991,-0.00223595509305596,0.00812907610088587,0,
00:00:03.164,0.00869098491966724,-0.00195746379904449,-0.00190339831169695,0,
00:00:03.168,0.00698254304006696,-0.00958114117383957,-0.00857480242848396,0,
00:00:03.172,-0.00169454421848059,-0.00152675854042172,0.00163938477635384,0,
00:00:03.176,0.00420505274087191,0.0132818398997188,0.0311217792332172,0,
00:00:03.18,-0.023386238142848,-0.00835719145834446,-0.0163048449903727,0,
00:00:03.184,0.00230321451090276,-0.00830159988254309,-0.017730038613081,0,
00:00:03.188,0.0160154141485691,0.0131320497021079,0.00539228040724993,0,
00:00:03.192,0.00763603392988443,0.0048405104316771,-0.0105192894116044,0,
00:00:03.196,-0.00274636410176754,-0.00513570802286267,0.00453819520771503,0,
00:00:03.2,-0.0178406648337841,-0.0163700599223375,0.0269210152328014,0,
00:00:03.204,-0.00686289835721254,0.00081827468238771,-0.00782144069671631,0,
00:00:03.208,0.0177221540361643,0.0230189487338066,-0.00254625151865184,0,
00:00:03.212,0.00628343131393194,-0.00592732196673751,-0.00770786218345165,0,
00:00:03.216,-0.004107974935323,-0.00192287866957486,-6.08385289524449E-06,0,
00:00:03.22,-0.00521725602447987,-2.81205429928377E-05,-0.00546060828492045,0,
00:00:03.224,-0.00676558958366513,-0.0145638976246119,0.0121909948065877,0,
00:00:03.228,1.19372234621551E-05,-0.00144392752554268,-0.0117034800350666,0,
00:00:03.232,0.0151713099330664,0.0240970496088266,-0.000879628583788872,0,
00:00:03.236,0.00361461425200105,0.00118818890769035,0.00717767560854554,0,
00:00:03.24,-0.021713687106967,-0.0100230257958174,0.00763599248602986,0,
00:00:03.244,0.00847645383328199,-0.00990221183747053,0.015729334205389,0,
00:00:03.248,0.00836681667715311,-0.00199102540500462,-0.0238549802452326,0,
00:00:03.252,-0.00555999949574471,0.00823624804615974,-0.0167588833719492,0,
00:00:03.256,-0.00277690915390849,0.00165540375746787,0.00845401640981436,0,
00:00:03.26,-0.00454799178987741,0.00249804882332683,0.0046135182492435,0,
00:00:03.264,0.00902829319238663,0.00669886218383908,0.000514478655532002,0,
00:00:03.268,-0.00155582244042307,-0.00935027562081814,0.0138330068439245,0,
00:00:03.272,-0.00225018663331866,-0.0110723190009594,0.00912667438387871,0,
00:00:03.276,-0.00653547886759043,0.00360479415394366,-0.0132147036492825,0,
00:00:03.28,0.0174118503928185,0.0154271814972162,-0.00821320060640574,0,
00:00:03.284,0.000480375252664089,0.00092328927712515,-0.0162266120314598,0,
00:00:03.288,-0.0068412940017879,-0.00771329691633582,0.00148362398613244,0,
00:00:03.292,-0.0107929958030581,-0.00590421725064516,0.0344661176204681,0,
00:00:03.296,-0.00312194158323109,-0.0075000929646194,-0.00394474621862173,0,
00:00:03.3,0.00806725863367319,0.00596061861142516,-0.01429174374789,0,
00:00:03.304,0.00642775371670723,0.0182677023112774,-0.00146479345858097,0,
00:00:03.308,-0.00271308561787009,-0.00355897238478065,-0.000909435970243067,0,
00:00:03.312,-0.000293870689347386,-0.00622301222756505,0.00470242602750659,0,
00:00:03.316,0.0021346490830183,-0.0113658588379622,-0.0107903340831399,0,
00:00:03.32,-0.00220694695599377,-0.000404260645154864,0.00815739762037992,0,
00:00:03.324,-0.00209760037250817,0.0115533461794257,0.00716969883069396,0,
00:00:03.328,-0.00682617910206318,-0.00649685459211469,-0.00524825183674693,0,
00:00:03.332,0.00447896309196949,-0.000194078660570085,0.00460581155493855,0,
00:00:03.336,0.0120932916179299,0.0144339594990015,-0.00957611575722694,0,
00:00:03.34,-0.0113758938387036,0.00671291071921587,6.33401359664276E-05,0,
00:00:03.344,0.0148738780990243,-0.00382679281756282,0.00545552466064692,0,
00:00:03.348,-0.00198137783445418,-0.0171863827854395,0.00503495801240206,0,
00:00:03.352,-0.0149614112451673,-0.0206530336290598,-0.00880267564207315,0,
00:00:03.356,-0.0117859235033393,-0.00207545352168381,0.00394074944779277,0,
00:00:03.36,0.0102834748104215,0.031222615391016,0.00882400013506413,0,
00:00:03.364,0.00849268678575754,0.0248212274163961,-0.00918823108077049,0,
00:00:03.368,0.0119625721126795,-0.0117933414876461,-0.0204516034573317,0,
00:00:03.372,-0.0147519363090396,-0.0285634454339743,0.00840026140213013,0,
00:00:03.376,-0.00751958508044481,-0.00694824382662773,0.011235075071454,0,
00:00:03.38,-0.000749301805626601,0.0113484784960747,0.0218110699206591,0,
00:00:03.384,0.0137273129075766,0.00694399606436491,-0.00618895003572106,0,
00:00:03.388,0.00895169470459223,0.0144808311015368,-0.0285578742623329,0,
00:00:03.392,-0.00446648243814707,-0.00654491549357772,-0.000375976058421656,0,
00:00:03.396,-0.0127209760248661,-0.0050015770830214,0.0192034002393484,0,
00:00:03.4,-0.00225583906285465,-0.00230534095317125,-0.000183262032805942,0,
00:00:03.404,0.00168026320170611,-0.000462486204924062,-0.0115198008716106,0,
00:00:03.408,0.000307143141981214,-0.01220768596977,0.00427012518048286,0,
00:00:03.412,-0.00670704618096352,-0.0169964227825403,0.00030665987287648,0,
00:00:03.416,0.0101409638300538,0.0415805354714394,0.000380322890123352,0,
00:00:03.42,0.00823534559458494,0.00527303153648973,-0.00115503766573966,0,
00:00:03.424,0.00328235211782157,-0.0110473921522498,0.00491432333365083,0,
00:00:03.428,-0.00792942382395267,-0.0162508618086576,0.00622366648167372,0,
00:00:03.432,-0.004725007340312,0.0106185832992196,-0.00763533217832446,0,
00:00:03.436,0.000182086485438049,0.00497933989390731,-0.00234777783043683,0,
00:00:03.44,-0.0100157661363482,-0.00401185685768723,-0.00520602567121387,0,
00:00:03.444,0.00555642787367105,-0.0173193160444498,0.00762417959049344,0,
00:00:03.448,0.0305933188647032,0.00762243196368217,-0.00676255347207189,0,
00:00:03.452,-0.0301553402096033,0.0167323630303144,-0.00467359274625778,0,
00:00:03.456,-0.000357815268216655,0.00306099886074662,0.00745702721178532,0,
00:00:03.46,0.00536019401624799,-0.0183783564716578,0.00928432494401932,0,
00:00:03.464,-0.0097571425139904,-0.00213457574136555,0.00251740962266922,0,
00:00:03.468,0.00912035629153252,0.0151378009468317,-0.00341720855794847,0,
00:00:03.472,0.00768132694065571,0.00147457071579993,0.00502505898475647,0,
00:00:03.476,-0.00525200366973877,-0.0178828462958336,-0.0262571536004543,0,
00:00:03.48,-0.00402989750728011,0.00183944718446583,-0.0141508616507053,0,
00:00:03.484,0.00830322690308094,0.0109553337097168,0.0403615273535252,0,
00:00:03.488,0.000627615896519274,0.0048665557987988,0.00865321513265371,0,
00:00:03.492,-0.00401404546573758,-0.0043388856574893,-0.0123322233557701,0,
00:00:03.496,-0.00235084793530405,-0.00952123384922743,-0.0160578843206167,0,
00:00:03.5,-0.0167067777365446,-0.0112225478515029,0.00788245256990194,0,
00:00:03.504,0.00632410403341055,0.00711835129186511,-0.000355388794559985,0,
00:00:03.508,0.0258075036108494,0.0345996208488941,-0.00542838172987103,0,
00:00:03.512,-0.00683443294838071,-0.00373427802696824,-0.000107079998997506,0,
00:00:03.516,-0.0232466198503971,-0.039417527616024,0.0167656578123569,0,
00:00:03.52,0.0175418443977833,0.00831590965390205,-0.00287315738387406,0,
00:00:03.524,0.00772863486781716,0.021957341581583,-0.0174510627985001,0,
00:00:03.528,-0.00885678455233574,-0.0069162780418992,0.00758665427565575,0,
00:00:03.532,-0.0135143315419555,-0.0180013980716467,0.005861755926162,0,
00:00:03.536,0.0172762423753738,0.00648004515096545,0.00136436894536018,0,
00:00:03.54,0.000436957023339346,0.00283722090534866,0.000232738762861118,0,
00:00:03.544,-0.0133468238636851,0.00976353976875544,-0.00260023772716522,0,
00:00:03.548,0.0037590921856463,0.00353269721381366,-0.00753509299829602,0,
00:00:03.552,0.00543968100100756,-0.00730355083942413,-0.0147948833182454,0,
00:00:03.556,-5.41155968676321E-05,-0.00589813152328134,0.0230226833373308,0,
00:00:03.56,-0.00335501343943179,0.00492410687729716,0.00658180098980665,0,
00:00:03.564,-0.000935719406697899,0.0106182722374797,-0.00214056670665741,0,
00:00:03.568,0.00350384996272624,-0.0179570727050304,-0.00899960286915302,0,
00:00:03.572,0.0042069130577147,-0.0101946722716093,0.0083837453275919,0,
00:00:03.576,-0.0022778355050832,0.00324387615546584,7.03014593455009E-05,0,
00:00:03.58,0.000829529773909599,0.0141241475939751,-0.00960215646773577,0,
00:00:03.584,-0.0120330434292555,0.00281472946517169,-0.00997785851359367,0,
00:00:03.588,0.00469999900087714,0.0106177451089025,0.000349108799127862,0,
00:00:03.592,-0.000473733438411728,0.00435577053576708,0.00949404109269381,0,
00:00:03.596,0.016137108206749,-0.0144423535093665,0.0122619066387415,0,
00:00:03.6,-0.0106290457770228,-0.0255173798650503,0.000915166921913624,0,
00:00:03.604,-0.0047402074560523,0.00124938448425382,-0.0133266346529126,0,
00:00:03.608,-0.000278271414572373,0.0293798130005598,0.00219385116361082,0,
00:00:03.612,-0.00228110002353787,-0.00585083477199078,0.011533847078681,0,
00:00:03.616,0.00806109420955181,-0.00986392889171839,-0.0054929917678237,0,
00:00:03.62,0.000362266873707995,0.00716684479266405,-0.01241703517735,0,
00:00:03.624,0.00490487553179264,0.0160979721695185,0.00172069715335965,0,
00:00:03.628,-0.00892175454646349,0.000373042072169483,-0.0105592366307974,0,
00:00:03.632,0.00512543274089694,-0.0282057039439678,0.00772469211369753,0,
00:00:03.636,-0.0087188808247447,-0.0156748238950968,0.0257978197187185,0,
00:00:03.64,0.000361983489710838,0.0117853814736009,0.00314320693723857,0,
00:00:03.644,0.00122716196347028,0.02051349170506,-0.0294894129037857,0,
00:00:03.648,0.000577434548176825,0.0096873426809907,-0.0117387669160962,0,
00:00:03.652,0.0169602241367102,-0.000425183941842988,0.0189509447664022,0,
00:00:03.656,-0.00277379737235606,-0.00836584530770779,0.00996657926589251,0,
00:00:03.66,-0.0241740383207798,-0.0135507052764297,0.00304379547014833,0,
00:00:03.664,0.00199756119400263,-0.0118816392496228,0.00217655999585986,0,
00:00:03.668,0.0130748311057687,0.0128114400431514,-0.0186783690005541,0,
00:00:03.672,0.00455385819077492,0.00541285146027803,-0.0121393334120512,0,
00:00:03.676,-0.00585515005514026,0.00281300558708608,0.0170649606734514,0,
00:00:03.68,-0.00211054109968245,0.0115331616252661,0.0050484798848629,0,
00:00:03.684,0.00415056897327304,-0.00599341094493866,0.000933477596845478,0,
00:00:03.688,-0.00732225039973855,-0.0216513462364674,-0.0152688417583704,0,
00:00:03.692,-0.00484166201204062,-0.0101278834044933,0.00607116054743528,0,
00:00:03.696,0.0153969898819923,0.0316050760447979,0.0177900940179825,0,
00:00:03.7,-0.00318339047953486,0.0194984711706638,-0.00549252983182669,0,
00:00:03.704,0.00381269119679928,-0.00258480617776513,-0.022725023329258,0,
00:00:03.708,-0.00685468409210444,-0.044204905629158,0.00574738485738635,0,
00:00:03.712,-0.00482376012951136,-0.00826888810843229,0.00339597300626338,0,
00:00:03.716,-8.10536366770975E-05,0.0204481724649668,0.00629827380180359,0,
00:00:03.72,0.00908020604401827,0.01871657371521,0.00583300972357392,0,
00:00:03.724,0.00549855921417475,2.88089249806944E-05,-0.00397877721115947,0,
00:00:03.728,-0.0194192565977573,-0.0110972449183464,0.0146484961733222,0,
00:00:03.732,0.000801292189862579,-0.00875685457140207,-0.0212048180401325,0,
00:00:03.736,0.017680499702692,0.00213495991192758,-0.0161746479570866,0,
00:00:03.74,-0.00193541904445738,0.00558742880821228,0.00960504356771708,0,
00:00:03.744,-0.0125862918794155,0.00419848226010799,0.0122627159580588,0,
00:00:03.748,0.0101933665573597,0.0177391301840544,0.0141712678596377,0,
00:00:03.752,0.000778944930061698,-0.0212755426764488,-0.0150483809411526,0,
00:00:03.756,-0.0246957931667566,-0.0114296907559037,-0.013307168148458,0,
00:00:03.76,0.00950617995113134,3.8496516935993E-05,0.00577940186485648,0,
00:00:03.764,0.0247841607779264,0.0125260604545474,0.0164795722812414,0,
00:00:03.768,0.00345495715737343,0.00283970823511481,-0.00192446541041136,0,
00:00:03.772,-0.0195769034326077,-0.00118782441131771,-0.00933755468577147,0,
00:00:03.776,-0.00341482390649617,0.00213255453854799,-0.0179797671735287,0,
00:00:03.78,0.00359189580194652,-0.0053261867724359,0.0202836710959673,0,
00:00:03.784,-0.010428830049932,-0.00783806014806032,0.0157166868448257,0,
00:00:03.788,0.0113679599016905,0.0080339414998889,-0.0159269254654646,0,
00:00:03.792,0.0042382525280118,0.00568667566403747,-0.00804480258375406,0,
00:00:03.796,-0.00220662821084261,-0.00857969745993614,-0.000352130271494389,0,
00:00:03.8,0.00624514324590564,0.00210353103466332,0.00579139124602079,0,
00:00:03.804,-0.00623346539214253,-0.00555852521210909,0.0103900795802474,0,
00:00:03.808,-0.014100787229836,0.00426290649920702,-0.00520593067631125,0,
00:00:03.812,0.00645576696842909,0.00513915717601776,-0.00654029753059149,0,
00:00:03.816,0.00858555175364017,0.000125236081657931,-0.0109723648056388,0,
00:00:03.82,0.00586316920816898,0.00523762637749314,0.000734827131964266,0,
00:00:03.824,-0.00934928841888905,-0.00264843064360321,0.0152063127607107,0,
00:00:03.828,0.00913032237440348,0.00510744471102953,0.0158438142389059,0,
00:00:03.832,-0.0104398000985384,-0.013790937140584,-0.00391147146001458,0,
00:00:03.836,-0.00269687664695084,-0.0155086796730757,-0.00878564547747374,0,
00:00:03.84,0.00132085743825883,0.0104317469522357,-0.00870104413479567,0,
00:00:03.844,0.00660502165555954,0.0114837298169732,-0.0130160553380847,0,
00:00:03.848,-1.73665139300283E-05,0.0022946810349822,0.00376206007786095,0,
00:00:03.852,-0.006660430226475,-0.0124730868265033,0.0156489256769419,0,
00:00:03.856,-0.0023897651117295,0.00274491077288985,-0.00467005046084523,0,
00:00:03.86,0.00026122058625333,0.0143482200801373,0.00986085366457701,0,
00:00:03.864,0.0121820978820324,-0.0023325621150434,-0.00511804828420281,0,
00:00:03.868,-0.00142952066380531,-0.00458058388903737,-0.00737492134794593,0,
00:00:03.872,-0.0040881629101932,-0.0129036149010062,0.00887741986662149,0,
00:00:03.876,-0.00247127772308886,0.00735119869932532,-0.00467226374894381,0,
00:00:03.88,0.00182048557326198,0.000258715212112293,-0.00818385276943445,0,
00:00:03.884,0.00734591577202082,-0.00589627353474498,0.0142891900613904,0,
00:00:03.888,-0.00423136120662093,0.011502874083817,0.0125329187139869,0,
00:00:03.892,-0.0079925823956728,0.0149745028465986,-0.0271911863237619,0,
00:00:03.896,-0.00514646992087364,-0.00761436205357313,-0.00217397324740887,0,
00:00:03.9,-9.94807342067361E-05,-0.0271729733794928,0.00165733182802796,0,
00:00:03.904,0.0118815116584301,0.0100805843248963,0.00523084588348866,0,
00:00:03.908,0.00494067650288343,0.00256855948828161,0.00123881956096739,0,
00:00:03.912,-0.000783988449256867,-0.004502491094172,0.00486542796716094,0,
00:00:03.916,-0.00139591540209949,0.0141182336956263,0.015710823237896,0,
00:00:03.92,-0.0053415703587234,-0.00154515099711716,-0.003483742242679,0,
00:00:03.924,-0.00963468477129936,-0.0122712012380362,-0.0199735946953297,0,
00:00:03.928,0.00779542326927185,0.0163342729210854,-0.00623917207121849,0,
00:00:03.932,0.00480812881141901,0.00317316106520593,0.000530142162460834,0,
00:00:03.936,-0.0051163942553103,-0.016376119107008,0.00363509939052165,0,
00:00:03.94,0.0150173539295793,-0.00423477217555046,0.0166727509349585,0,
00:00:03.944,-0.00689837802201509,0.0114398151636124,-0.0128219109028578,0,
00:00:03.948,-0.00906172301620245,-0.000680391152855009,0.00184852338861674,0,
00:00:03.952,-0.0100389840081334,-0.00493841571733356,0.0212864559143782,0,
00:00:03.956,0.00950868427753448,-0.00142986362334341,-0.0114691890776157,0,
00:00:03.96,0.0131033081561327,0.0103551503270864,-0.0180481672286987,0,
00:00:03.964,-0.00978853739798069,-0.00276305945590138,-0.00150980416219682,0,
00:00:03.968,-0.00220988155342638,-0.00651827408000827,0.00799231231212616,0,
00:00:03.972,0.00174432108178735,0.0021033133380115,0.00446503143757582,0,
00:00:03.976,0.00863769091665745,0.00240927888080478,-0.00230293488129973,0,
00:00:03.98,0.00158591906074435,-0.00367501471191645,0.0121933864429593,0,
00:00:03.984,-0.0130801424384117,-0.00115809019189328,-0.00570446951314807,0,
00:00:03.988,0.00379970041103661,0.00392873445525765,-0.00954733975231647,0,
00:00:03.992,-0.0116138039156795,0.00698781991377473,0.00702087394893169,0,
00:00:03.996,0.00651178508996964,-0.00164739869069308,-0.00524006178602576,0,
00:00:04,0.0124391485005617,-0.00263919355347753,-0.00547435553744435,0,
00:00:04.004,-0.00025203634868376,-0.0119522046297789,-0.001039297436364,0,
00:00:04.008,-0.00434744078665972,0.00930554140359163,0.0174596104770899,0,
00:00:04.012,-0.00579300802201033,-0.0188950952142477,-0.00120325654279441,0,
00:00:04.016,-0.00154295354150236,0.00988029316067696,-0.00980456825345755,0,
00:00:04.02,0.00621625781059265,0.0182272046804428,0.0125367054715753,0,
00:00:04.024,-0.000839745684061199,0.011432615108788,-0.0093212490901351,0,
00:00:04.028,0.00299265258945525,-0.00823635887354612,-0.0102567495778203,0,
00:00:04.032,-0.00386244710534811,-0.00420929351821542,-0.0072722970508039,0,
00:00:04.036,0.00170698540750891,-0.0138926627114415,0.0199593976140022,0,
00:00:04.04,-0.00354370987042785,-0.0141244968399405,0.0225715208798647,0,
00:00:04.044,0.000711432949174196,-0.00762997288256884,-0.0239259824156761,0,
00:00:04.048,0.00152515363879502,0.0187512263655663,-0.0241883974522352,0,
00:00:04.052,0.00296785263344646,0.0328616201877594,0.0137032940983772,0,
00:00:04.056,0.00221784017048776,0.0120615251362324,0.0135626867413521,0,
00:00:04.06,-0.00812659692019224,-0.0346713252365589,0.00752562703564763,0,
00:00:04.064,-0.00407947367057204,-0.0326282046735287,0.00226726569235325,0,
00:00:04.068,0.00795559491962194,0.0125107802450657,-0.0128634870052338,0,
00:00:04.072,0.00262863608077168,0.0362468808889389,-0.0118924537673593,0,
00:00:04.076,-0.00723828421905637,0.00118076300714165,-0.00818875711411238,0,
00:00:04.08,0.00162417429964989,-0.0336486399173737,0.023827001452446,0,
00:00:04.084,0.00313701131381094,0.00335610471665859,0.00853484869003296,0,
00:00:04.088,-0.000499426969327033,0.0131045747548342,-0.0187880154699087,0,
00:00:04.092,0.00580213498324156,0.00248171295970678,-0.00127065961714834,0,
00:00:04.096,-0.00986380688846111,-0.00991968344897032,0.00232865870930254,0,
00:00:04.1,0.00151736114639789,0.00775497639551759,0.0265741851180792,0,
00:00:04.104,0.00512296240776777,0.0073862187564373,-0.0210269577801228,0,
00:00:04.108,0.00129310972988605,-0.00724146235734224,-0.019449595361948,0,
00:00:04.112,-0.00222470238804817,0.00592196686193347,0.00691808480769396,0,
00:00:04.116,-0.00728165730834007,-0.0112897576764226,0.00928351655602455,0,
00:00:04.12,0.00197358056902885,-0.019913712516427,0.0166589617729187,0,
00:00:04.124,-0.0010632888879627,0.0146502321586013,-0.0165155902504921,0,
00:00:04.128,-0.00291433837264776,0.0176330674439669,-0.0041895960457623,0,
00:00:04.132,0.0109463771805167,0.00542115559801459,0.00873905140906572,0,
00:00:04.136,0.0100920088589191,-0.017665384337306,0.00219812407158315,0,
00:00:04.14,-0.0120076406747103,-0.0135448276996613,-0.000241476882365532,0,
00:00:04.144,-0.00309836398810148,0.0295440703630447,0.000770579266827554,0,
00:00:04.148,-0.00476134708151221,0.0148825738579035,-0.0285443663597107,0,
00:00:04.152,0.0122143616899848,-0.0322002843022347,0.0164360888302326,0,
00:00:04.156,-0.0127210505306721,-0.0269537623971701,0.0142226405441761,0,
00:00:04.16,-0.00828006956726313,0.0139241935685277,-0.00281609361991286,0,
00:00:04.164,0.0187283623963594,0.0323287434875965,-0.00496563315391541,0,
00:00:04.168,0.00468730134889483,-0.00325802946463227,0.010206451639533,0,
00:00:04.172,-0.00271058571524918,-0.0144081749022007,-0.00723627489060164,0,
00:00:04.176,-0.0067443298175931,-0.00627862522378564,-0.0226048734039068,0,
00:00:04.18,0.000681754958350211,0.0130967227742076,0.00680047320201993,0,
00:00:04.184,-0.00137466401793063,0.013016170822084,0.0236480850726366,0,
00:00:04.188,0.00553885661065578,-0.00670180656015873,0.00672684656456113,0,
00:00:04.192,-0.00753444666042924,-0.032854113727808,-0.0173263195902109,0,
00:00:04.196,-0.00396669702604413,0.001247817883268,-0.00951504148542881,0,
00:00:04.2,-0.00218836567364633,0.0208202619105577,0.00626704515889287,0,
00:00:04.204,0.0211079157888889,0.0279807131737471,0.00138898810837418,0,
00:00:04.208,-0.00466243037953973,-0.0234712529927492,0.0110485954210162,0,
00:00:04.212,-0.0122526464983821,-0.0170616246759892,-0.0152853969484568,0,
00:00:04.216,0.00236856262199581,0.00667387712746859,-0.00157940573990345,0,
00:00:04.22,0.00646046409383416,0.014742105267942,0.00431822007521987,0,
00:00:04.224,0.00404974864795804,-0.00688364403322339,0.00664267456158996,0,
00:00:04.228,-0.00428817048668861,-0.00887426640838385,0.00643058679997921,0,
00:00:04.232,-0.0177269447594881,0.00515618687495589,-0.0141572961583734,0,
00:00:04.236,0.0133438920602202,0.0112759964540601,-0.00300214998424053,0,
00:00:04.24,-0.00410333275794983,-0.019421175122261,0.0220061745494604,0,
00:00:04.244,0.00975862052291632,0.0027746066916734,-0.0194392036646605,0,
00:00:04.248,0.00710958335548639,0.0163844786584377,-0.00403072917833924,0,
00:00:04.252,-0.00422623893246055,0.00761935487389565,0.00572034297510982,0,
00:00:04.256,-0.011499690823257,-0.0139924520626664,0.00310924020595849,0,
00:00:04.26,-0.00111538299825042,-0.0157103203237057,0.0035423906520009,0,
00:00:04.264,0.0042733489535749,-0.00260567339137197,-0.00176686397753656,0,
00:00:04.268,-0.00593662168830633,0.0157975777983665,-0.000160905008669943,0,
00:00:04.272,0.00344400713220239,0.00595112564042211,-0.0030162506736815,0,
00:00:04.276,0.0048729469999671,0.00595804490149021,-0.00565527053549886,0,
00:00:04.28,0.000506608572322875,-0.0130376340821385,0.00238094315864146,0,
00:00:04.284,-0.00238494202494621,-0.0122699253261089,0.0088025014847517,0,
00:00:04.288,0.0120713720098138,0.0131359398365021,0.00961808580905199,0,
00:00:04.292,-0.0126413917168975,0.00115640100557357,-0.00843350775539875,0,
00:00:04.296,-0.00231729005463421,0.0118071036413312,-0.0180368032306433,0,
00:00:04.3,0.00131004559807479,-0.00549025274813175,0.00363469053991139,0,
00:00:04.304,0.0058496450074017,-0.0130594978109002,0.0141179608181119,0,
00:00:04.308,-0.00510941306129098,-0.00132572581060231,-0.00530780851840973,0,
00:00:04.312,-0.00953081529587507,-0.00734695512801409,-0.0025948011316359,0,
00:00:04.316,0.0108982995152473,0.0152609627693892,0.00672538811340928,0,
00:00:04.32,0.0164276268333197,0.0081103416159749,-0.00406302558258176,0,
00:00:04.324,-0.00981278251856565,-0.004613540135324,-0.00543450657278299,0,
00:00:04.328,-0.0156649760901928,-0.00110072363168001,0.00610666535794735,0,
00:00:04.332,0.0015550828538835,0.00435137748718262,-0.0023044184781611,0,
00:00:04.336,0.00351381744258106,-0.0144949574023485,-0.00100266200024635,0,
00:00:04.34,0.00374770630151033,-0.00889851991087198,0.0035325565841049,0,
00:00:04.344,-0.00381850148551166,0.00994277745485306,0.00647556083276868,0,
00:00:04.348,0.00650232518091798,0.0144625771790743,4.98790795973036E-05,0,
00:00:04.352,0.00829138699918985,0.00418297247961164,-0.0130799394100904,0,
00:00:04.356,-0.0109277842566371,-0.0194960981607437,-0.00775272119790316,0,
00:00:04.36,-0.00300395418889821,-0.00234476197510958,0.0156992524862289,0,
00:00:04.364,0.0113015146926045,0.0220942199230194,0.0112869255244732,0,
00:00:04.368,-0.00586890475824475,-0.00566892419010401,-0.00598668120801449,0,
00:00:04.372,-0.0192177817225456,-0.0204356927424669,-0.0176707990467548,0,
00:00:04.376,0.013894459232688,0.0173134338110685,-0.00180030020419508,0,
00:00:04.38,0.0100331790745258,-0.00274279317818582,0.00192981143482029,0,
00:00:04.384,-0.00269640260376036,-0.0112335793673992,0.0191401336342096,0,
00:00:04.388,0.00600616820156574,0.00658166082575917,-0.00494506908580661,0,
00:00:04.392,-0.0119983293116093,0.000684851838741452,-0.00419463310390711,0,
00:00:04.396,-0.00170630437787622,0.0161406677216291,0.00485848030075431,0,
00:00:04.4,-0.00955478195101023,-0.0134643847122788,0.000909196038264781,0,
00:00:04.404,0.000376948621124029,-0.00366857438348234,-0.00556520605459809,0,
00:00:04.408,0.0144633091986179,-0.00131395400967449,-0.0107962433248758,0,
00:00:04.412,0.00922627653926611,0.0142383230850101,-0.00349031132645905,0,
00:00:04.416,0.00211698142811656,0.00350315286777914,0.0227911286056042,0,
00:00:04.42,-0.00554093392565846,-0.0361993499100208,0.00803501717746258,0,
00:00:04.424,-0.00993457902222872,0.00336332782171667,-0.0185236688703299,0,
00:00:04.428,-0.00555168138816953,0.0308355893939734,-0.0136924749240279,0,
00:00:04.432,0.000235335726756603,0.00742602068930864,0.0238852612674236,0,
00:00:04.436,-0.00671541085466743,-0.0217280890792608,-0.00990740209817886,0,
00:00:04.44,0.0139117827638984,-0.00543981418013573,-0.0102867390960455,0,
00:00:04.444,0.0230983421206474,0.0140193216502666,0.00728892721235752,0,
00:00:04.448,-0.00642697094008327,0.00830261036753654,0.0105247162282467,0,
00:00:04.452,-0.0211041662842035,-0.00813294015824795,0.00554155092686415,0,
00:00:04.456,-0.0213787537068129,-0.0306444074958563,-0.0155057329684496,0,
00:00:04.46,0.0243709366768599,0.0170551221817732,0.0109740914776921,0,
00:00:04.464,0.00928077287971973,0.00503958994522691,-0.0020585167221725,0,
00:00:04.468,-0.0149145778268576,0.00997500866651535,-0.00407812371850014,0,
00:00:04.472,0.0116038648411632,0.0140003431588411,-0.0229948069900274,0,
00:00:04.476,-0.00490639731287956,-0.012905609793961,0.00924733839929104,0,
00:00:04.48,0.00758056482300162,-0.0222466122359037,0.0189340710639954,0,
00:00:04.484,0.0169257968664169,0.0210529137402773,-0.0060811061412096,0,
00:00:04.488,-0.0240978468209505,-0.0191775839775801,0.0210562907159328,0,
00:00:04.492,-0.0158363468945026,-0.0024311279412359,-0.00679930485785007,0,
00:00:04.496,-0.000720175274182111,0.0103033659979701,-0.0205203723162413,0,
00:00:04.5,0.0128353731706738,0.0202600881457329,-0.00393179571256042,0,
00:00:04.504,0.00594587251543999,-0.00798952300101519,-0.00326185813173652,0,
00:00:04.508,0.00666757626459002,-0.00378294219262898,0.00200556730851531,0,
00:00:04.512,-0.0037616896443069,-0.0055235605686903,0.0159689206629992,0,
00:00:04.516,-0.0107962163165212,-0.00496313069015741,0.00622456800192595,0,
00:00:04.52,0.007929353043437,0.00432624341920018,-0.0105106383562088,0,
00:00:04.524,0.00324455695226789,0.00380026455968618,0.0020699487067759,0,
00:00:04.528,0.00277193496003747,-0.00956691708415747,0.00353239011019468,0,
00:00:04.532,-0.0134296640753746,0.0127307372167706,0.00475862808525562,0,
00:00:04.536,-0.00828646030277014,-0.00371713330969214,-0.00413359655067325,0,
00:00:04.54,0.0261084884405136,0.0149228712543845,-0.0375738814473152,0,
00:00:04.544,0.00182340596802533,-0.00948692299425602,0.00863331835716963,0,
00:00:04.548,-0.0262328386306763,-0.0328205078840256,0.0311320777982473,0,
00:00:04.552,0.00178999418858439,0.0101521834731102,0.0190150775015354,0,
00:00:04.556,0.00015188600809779,0.0116584030911326,-0.0398979000747204,0,
00:00:04.56,0.0136126456782222,0.0160402934998274,0.00611122325062752,0,
00:00:04.564,0.00962567701935768,0.0194983202964067,0.0158248301595449,0,
00:00:04.568,-0.00547125423327088,-0.0171056259423494,-0.0021827956661582,0,
00:00:04.572,-0.00584996631368995,-0.0142682688310742,-0.00489970482885838,0,
00:00:04.576,-0.00654607126489282,-0.0240179020911455,-0.000666378473397344,0,
00:00:04.58,-0.0144103411585093,-0.0160371605306864,-0.00651143165305257,0,
00:00:04.584,0.00981830153614283,0.0336105078458786,-0.00320227118209004,0,
00:00:04.588,0.0298462603241205,0.0358037427067757,-0.0068977396003902,0,
00:00:04.592,-0.00472355168312788,-0.00210013194009662,0.00751934666186571,0,
00:00:04.596,-0.019778061658144,-0.0190011486411095,0.0181554760783911,0,
00:00:04.6,0.00685275439172983,-0.0176927801221609,0.00175893167033792,0,
00:00:04.604,-0.0173595920205116,0.00900259241461754,-0.00643753353506327,0,
00:00:04.608,0.00131542573217303,-0.0216853767633438,-0.0135896690189838,0,
00:00:04.612,0.0135724991559982,0.000309778260998428,-0.0045402399264276,0,
00:00:04.616,0.00674233259633183,0.0146598946303129,0.0104604521766305,0,
00:00:04.62,0.00458317017182708,0.0465939976274967,0.00754920579493046,0,
00:00:04.624,-0.00918957777321339,-0.00733918370679021,-0.0055651250295341,0,
00:00:04.628,0.00735983066260815,-0.0354497320950031,-0.00199059513397515,0,
00:00:04.632,-0.0109678637236357,-0.0141923688352108,0.00447426410391927,0,
00:00:04.636,-0.00437573995441198,0.00773499393835664,-0.00704761128872633,0,
00:00:04.64,-0.00462765106931329,-0.00969659723341465,0.0221655312925577,0,
00:00:04.644,-0.00889514666050673,0.0300312265753746,-0.0146569404751062,0,
00:00:04.648,0.0194595698267221,-0.00611420068889856,-0.0229805912822485,0,
00:00:04.652,-0.00284687778912485,-0.014167538844049,0.00234440760686994,0,
00:00:04.656,0.012175184674561,0.0236210618168116,0.0223617497831583,0,
00:00:04.66,0.00921615306288004,-0.00276043219491839,0.00675488309934735,0,
00:00:04.664,-0.00625993963330984,-0.00546923838555813,-0.0141853056848049,0,
00:00:04.668,-0.0157442186027765,-0.0106807397678494,-0.00562812201678753,0,
00:00:04.672,-0.010961502790451,-0.00877240020781755,0.0210899189114571,0,
00:00:04.676,0.0191143937408924,0.0102411173284054,-0.01446842122823,0,
00:00:04.68,-0.0227285455912352,-0.0140934893861413,-0.0149698304012418,0,
00:00:04.684,0.0196753926575184,0.0360701344907284,0.0173778776079416,0,
00:00:04.688,-0.0031498447060585,-0.00930817425251007,0.00755457207560539,0,
00:00:04.692,-0.00279308715835214,-0.00861760322004557,-0.00143000308889896,0,
00:00:04.696,0.0143161611631513,0.0191910639405251,-0.0095778489485383,0,
00:00:04.7,-0.0100258337333798,-0.0315782502293587,0.00947078969329596,0,
00:00:04.704,0.00944702140986919,-0.00798595044761896,-0.0148921385407448,0,
00:00:04.708,-0.00458427658304572,0.0143612390384078,-0.00751099875196815,0,
00:00:04.712,-0.0199133362621069,0.0251938421279192,0.010335280559957,0,
00:00:04.716,0.00334995263256133,-0.0059945872053504,0.00757460203021765,0,
00:00:04.72,0.0221009757369757,-0.0194073971360922,0.0112465256825089,0,
00:00:04.724,0.00336650107055902,-0.0025885789655149,-0.0150501551106572,0,
00:00:04.728,-0.0181870982050896,-0.00247547193430364,-0.00961260031908751,0,
00:00:04.732,-0.0162242725491524,0.00398312928155065,0.00545216258615255,0,
00:00:04.736,0.0124415131285787,0.0153242638334632,0.0197672992944717,0,
00:00:04.74,0.0116322310641408,0.00585179356858134,-0.00622664671391249,0,
00:00:04.744,0.0051436317153275,-0.0231735948473215,-0.0124932778999209,0,
00:00:04.748,-0.00109250552486628,0.0113412290811539,0.00477732205763459,0,
00:00:04.752,0.00197920575737953,0.00619948375970125,-0.0078916447237134,0,
00:00:04.756,-0.0121986009180546,-0.00218228064477444,-0.00693418271839619,0,
00:00:04.76,-0.00733138434588909,-0.022644966840744,0.0160927660763264,0,
00:00:04.764,0.0195210110396147,0.00873369909822941,0.00779510149732232,0,
00:00:04.768,-0.00821021664887667,0.0155577873811126,-0.00975526589900255,0,
00:00:04.772,-0.011234175413847,-0.00372385233640671,0.00199875864200294,0,
00:00:04.776,-0.0186362881213427,-0.0160876326262951,-0.00924681127071381,0,
00:00:04.78,0.0357953235507011,0.0326706320047379,0.0102338176220655,0,
00:00:04.784,0.00652797194197774,-0.0246537029743195,-0.00897668395191431,0,
00:00:04.788,-0.00753606716170907,-0.0127537343651056,0.00300837121903896,0,
00:00:04.792,0.000925987318623811,0.0158266946673393,0.017389977350831,0,
00:00:04.796,-0.0108143389225006,0.00118013226892799,0.00302743632346392,0,
00:00:04.8,-0.00570427672937512,0.0122025413438678,-0.0285186432301998,0,
00:00:04.804,0.0120257474482059,0.00367245567031205,-0.000964145991019905,0,
00:00:04.808,-0.0128837898373604,-0.0347945354878902,0.00703776255249977,0,
00:00:04.812,0.00861846283078194,0.0102351643145084,-0.00444513605907559,0,
00:00:04.816,0.0245586298406124,0.0261187609285116,0.0016913233557716,0,
00:00:04.82,-0.0208233203738928,-0.0179670322686434,0.0193608533591032,0,
00:00:04.824,-0.0192485246807337,-0.0245756302028894,0.00307791261002421,0,
00:00:04.828,0.00662538269534707,0.0184456557035446,-0.00461148703470826,0,
00:00:04.832,0.0128899235278368,0.0261097550392151,-0.0188710298389196,0,
00:00:04.836,-0.00226922822184861,-0.013959139585495,-0.00331798242405057,0,
00:00:04.84,0.00423923134803772,-0.00711915269494057,0.0114916618913412,0,
00:00:04.844,0.00962152983993292,0.00629371032118797,0.00926493108272552,0,
00:00:04.848,-0.0164813101291656,-0.0111899627372622,-0.00437389314174652,0,
00:00:04.852,-0.00634967489168048,-0.00710859196260571,-0.0248981490731239,0,
00:00:04.856,0.00563642662018538,0.00983443669974804,0.022988174110651,0,
00:00:04.86,0.00492620188742876,0.0174257401376963,0.00942395534366369,0,
00:00:04.864,0.00106330751441419,0.00103864877019078,-0.00665239989757538,0,
00:00:04.868,-0.0141033194959164,-0.0254875551909208,-0.00971817597746849,0,
00:00:04.872,0.00962873548269272,0.00803676061332226,0.000843773421365768,0,
00:00:04.876,0.0105937756597996,0.0121044041588902,-0.00757667841389775,0,
00:00:04.88,-0.00928462948650122,-0.0308444444090128,0.0177136231213808,0,
00:00:04.884,0.00199768878519535,0.00927615538239479,0.00236029410734773,0,
00:00:04.888,-0.0049990494735539,0.0198735948652029,0.00561053166165948,0,
00:00:04.892,0.00233035441488028,0.0124268978834152,-0.0257399622350931,0,
00:00:04.896,0.00638744374737144,-0.0164342951029539,-0.0137260416522622,0,
00:00:04.9,-0.00576141942292452,-0.00901072658598423,0.0171428993344307,0,
00:00:04.904,-0.00447808532044292,-0.0018405431183055,0.0229108426719904,0,
00:00:04.908,0.00612934213131666,0.00870933476835489,0.00593078183010221,0,
00:00:04.912,-0.00945544149726629,-0.0106413690373302,-0.0127517553046346,0,
00:00:04.916,0.00603724084794521,0.0158782470971346,-0.0234506707638502,0,
00:00:04.92,0.0102577116340399,-0.00931979808956385,-0.00424465071409941,0,
00:00:04.924,-0.00661601033061743,-0.0038377633318305,0.0216621570289135,0,
00:00:04.928,-0.00364225264638662,0.00652261637151241,0.0106114475056529,0,
00:00:04.932,0.00365243852138519,0.0089704105630517,-0.00801489874720573,0,
00:00:04.936,0.00558673171326518,0.00666188122704625,0.000228605989832431,0,
00:00:04.94,-0.0138680599629879,-0.0117969550192356,-0.0125321457162499,0,
00:00:04.944,0.00200464087538421,-0.0261231176555157,-0.00677518872544169,0,
00:00:04.948,-0.0038254214450717,-0.00284234760329127,0.0270437821745873,0,
00:00:04.952,0.0142493564635515,0.0218043830245733,-0.0125374794006348,0,
00:00:04.956,-0.00603857450187206,0.0185579657554626,-0.00856498163193464,0,
00:00:04.96,0.00587215600535274,0.00944988615810871,-0.0014617353444919,0,
00:00:04.964,-0.00256078178063035,-0.00984247215092182,0.0180917009711266,0,
00:00:04.968,0.00224742549471557,-0.0134619772434235,0.00148803263437003,0,
00:00:04.972,-0.0164269004017115,-0.0460130833089352,0.00084786448860541,0,
00:00:04.976,0.000950635294429958,0.0170814767479897,-0.0198682025074959,0,
00:00:04.98,0.0135399885475636,0.0461495481431484,-0.00196194462478161,0,
00:00:04.984,0.00660803262144327,0.0184633899480104,0.0164353530853987,0,
00:00:04.988,-0.0147223165258765,-0.0277529992163181,-0.00328710628673434,0,
00:00:04.992,0.00550538813695312,-0.0175549406558275,-0.00271005812101066,0,
00:00:04.996,0.00441595772281289,-0.0117631442844868,-0.000909554422833025,0,
00:00:05,-0.00933204125612974,-0.00137899746187031,0.000467816891614348,0,
00:00:05.004,0.00183090707287192,0.0295171067118645,0.00302164885215461,0,
00:00:05.008,0.00706207007169724,0.0104430448263884,-0.0054057976230979,0,
00:00:05.012,-0.00716838845983148,-0.0117449089884758,0.00875673070549965,0,
00:00:05.016,-0.0125744072720408,-0.0220908913761377,-0.00924359820783138,0,
00:00:05.02,0.0114118540659547,0.00349853630177677,0.0059769912622869,0,
00:00:05.024,0.0171629972755909,0.0103030996397138,-0.000532616453710943,0,
00:00:05.028,0.00109206745401025,0.0176050644367933,-0.00803032051771879,0,
00:00:05.032,-0.00633400026708841,-0.00840433780103922,0.0174106769263744,0,
00:00:05.036,-0.0155142741277814,-0.00259947124868631,-0.00264421850442886,0,
00:00:05.04,-0.0194432698190212,-0.0168673880398273,-0.0229384526610374,0,
00:00:05.044,0.0210107322782278,-0.00544506218284369,-0.00460309907793999,0,
00:00:05.048,0.00942185427993536,0.0148336747661233,0.0284571591764688,0,
00:00:05.052,0.00894774962216616,0.0213311053812504,-0.000649066816549748,0,
00:00:05.056,0.0033691911958158,-0.0147261656820774,-0.00450391229242086,0,
00:00:05.06,-0.0153519753366709,-0.0135374814271927,-0.00176442950032651,0,
00:00:05.064,-0.0152855981141329,0.00375043600797653,0.00457743881270289,0,
00:00:05.068,-0.001577949966304,0.00582959782332182,-0.0136460484936833,0,
00:00:05.072,0.0166164357215166,-0.0119224172085524,-0.00188238208647817,0,
00:00:05.076,0.00624696351587772,0.00484668696299195,0.0167880300432444,0,
00:00:05.08,0.00580408331006765,0.0234992392361164,-0.00040965442894958,0,
00:00:05.084,-0.011316723190248,0.00420358404517174,-0.0169045589864254,0,
00:00:05.088,-0.00418604770675302,-0.00647418946027756,-0.0121860979124904,0,
00:00:05.092,-0.00269497674889863,-0.0364677496254444,0.0181719027459621,0,
00:00:05.096,-0.00327795767225325,-0.00653557106852531,0.0257367584854364,0,
00:00:05.1,0.0109943402931094,0.0253255739808083,-0.00881639029830694,0,
00:00:05.104,0.00624281307682395,0.00924746133387089,-0.00812234729528427,0,
00:00:05.108,-0.00136828201357275,0.0114263985306025,-0.00756465224549174,0,
00:00:05.112,-0.0135697703808546,-0.0165410917252302,-0.0170504450798035,0,
00:00:05.116,-0.00108148332219571,-0.011587155982852,-0.00335429958067834,0,
00:00:05.12,0.0105057479813695,0.0165286157280207,0.0342134647071362,0,
00:00:05.124,-0.00353181269019842,-0.00491601508110762,-0.00250919559039176,0,
00:00:05.128,-0.00280962395481765,-0.018339304253459,0.00204349681735039,0,
00:00:05.132,0.00288481125608087,0.00878014322370291,-0.00964818708598614,0,
00:00:05.136,0.00486134272068739,0.033284604549408,-0.00716195115819573,0,
00:00:05.14,0.00291145546361804,-0.00736034335568547,0.000877154758200049,0,
00:00:05.144,0.00378898438066244,-0.0214279759675264,0.01547244284302,0,
00:00:05.148,-0.0211622454226017,-0.0220559928566217,-0.0240738950669765,0,
00:00:05.152,-0.00509786326438189,0.0132053084671497,0.000623500440269709,0,
00:00:05.156,0.0165846962481737,0.0269658509641886,0.0202428475022316,0,
00:00:05.16,0.00347047788091004,-0.000126715356600471,0.00283695221878588,0,
00:00:05.164,-0.00388086214661598,-0.0221577119082212,-0.0112076308578253,0,
00:00:05.168,-0.00276937405578792,-0.000884728855453432,0.006256019230932,0,
00:00:05.172,-0.00214505917392671,0.00836231652647257,-0.00435303431004286,0,
00:00:05.176,0.00759202847257257,0.00974153261631727,-0.00674827303737402,0,
00:00:05.18,0.00331591838039458,-0.0077520520426333,-0.00773810315877199,0,
00:00:05.184,-0.0105800665915012,-0.0105553288012743,0.013106195256114,0,
00:00:05.188,0.00127698294818401,0.0261622872203588,0.015633886680007,0,
00:00:05.192,-0.00121259479783475,-0.0152723556384444,-0.00973509345203638,0,
00:00:05.196,0.00928286742419004,-0.0182065218687058,-0.00424933573231101,0,
00:00:05.2,0.000807093398179859,0.010618831962347,-0.0217832159250975,0,
00:00:05.204,-0.00410606432706118,0.00667682569473982,0.0158033259212971,0,
00:00:05.208,-0.00662593217566609,0.0047183046117425,0.0268571656197309,0,
00:00:05.212,-0.0107524693012238,-0.00853252317756414,-0.0217134598642588,0,
00:00:05.216,0.00969279650598764,0.00256719649769366,-0.030966367572546,0,
00:00:05.22,0.0142569150775671,0.0134073933586478,0.032857358455658,0,
00:00:05.224,-0.00656781531870365,-0.0219261255115271,0.012477895244956,0,
00:00:05.228,-0.00165081839077175,-4.97074252052698E-05,0.00179519946686924,0,
00:00:05.232,0.00406334782019258,0.0151455774903297,-0.0165028851479292,0,
00:00:05.236,0.00227173278108239,0.00596696231514215,-0.00468913605436683,0,
00:00:05.24,-0.00948456209152937,-0.0169754177331924,-0.00435824692249298,0,
00:00:05.244,-0.00153344811405987,-0.00899581797420979,0.00109052122570574,0,
00:00:05.248,-0.00518794637173414,0.00305782514624298,0.00461335899308324,0,
00:00:05.252,0.00523487525060773,0.0212187021970749,0.00257309735752642,0,
00:00:05.256,0.00787260103970766,0.0143470549955964,0.00235262559726834,0,
00:00:05.26,0.000551566248759627,-0.026872530579567,0.00977342948317528,0,
00:00:05.264,-0.000287569651845843,-0.0112997721880674,-0.0015894043026492,0,
00:00:05.268,-0.00858909729868174,0.00779352290555835,-0.0156027702614665,0,
00:00:05.272,0.00724003510549665,0.00970903877168894,-0.000938167504500598,0,
00:00:05.276,-0.007011947222054,-0.00807197298854589,0.00352683640085161,0,
00:00:05.28,-0.0053194984793663,-0.00607283320277929,-0.00927402079105377,0,
00:00:05.284,0.00673820218071342,0.00277042808011174,0.0318740494549274,0,
00:00:05.288,0.0192358568310738,0.00718968128785491,-0.0102313989773393,0,
00:00:05.292,-0.00530746299773455,0.012163408100605,-0.0209589395672083,0,
00:00:05.296,-0.0237211529165506,0.0125652011483908,-3.18110687658191E-06,0,
00:00:05.3,-0.00181789009366184,-0.01423679292202,0.00148334738332778,0,
00:00:05.304,0.0166735239326954,-0.0125978905707598,0.0191292036324739,0,
00:00:05.308,0.00926173664629459,-0.0100365234538913,-0.00230604130774736,0,
00:00:05.312,-0.00796035397797823,-0.0246806424111128,-0.00558205088600516,0,
00:00:05.316,-0.0138513315469027,0.0222204383462667,0.0200397968292236,0,
00:00:05.32,0.0141730206087232,0.0308083333075047,-0.0111147630959749,0,
00:00:05.324,0.00350365904159844,0.00419284356757998,-0.0450583808124065,0,
00:00:05.328,-0.00588282197713852,0.00154329708311707,0.0110135981813073,0,
00:00:05.332,-0.0118171805515885,-0.014518067240715,0.0277876351028681,0,
00:00:05.336,-0.00419314717873931,-0.0312815941870213,0.0173739418387413,0,
00:00:05.34,0.00395961338654161,-0.00762155512347817,0.00103640859015286,0,
00:00:05.344,0.0281199514865875,0.0283635221421719,-0.0137357860803604,0,
00:00:05.348,-0.00123550265561789,0.0101329274475574,-0.0284133069217205,0,
00:00:05.352,-0.0174589268863201,0.0144154187291861,0.00298385298810899,0,
00:00:05.356,-0.00162757700309157,-0.00745344022288919,0.0101953893899918,0,
00:00:05.36,-0.000757239118684083,-0.0168664250522852,0.0157233960926533,0,
00:00:05.364,0.00247911107726395,-0.0025734503287822,0.000824155053123832,0,
00:00:05.368,0.00334683363325894,0.0201385747641325,-0.0134592279791832,0,
00:00:05.372,-0.0084674283862114,-0.0347247309982777,0.0109332669526339,0,
00:00:05.376,-0.00693885888904333,-0.00422449642792344,0.00424344791099429,0,
00:00:05.38,0.0140528101474047,0.0257310196757317,-0.0241598226130009,0,
00:00:05.384,0.0116660511121154,0.0140597904101014,0.000765503500588238,0,
00:00:05.388,-0.00837561022490263,-0.00279340078122914,0.0105817746371031,0,
00:00:05.392,-0.0122032687067986,-0.0192309636622667,0.00703070824965835,0,
00:00:05.396,0.0101611455902457,0.00450159795582294,-0.00961047131568193,0,
00:00:05.4,0.00406354060396552,0.00531503558158875,-0.00577427772805095,0,
00:00:05.404,0.00192146294284612,-0.00585558637976646,0.0203590206801891,0,
00:00:05.408,-0.0126728536561131,-0.00535023398697376,0.012756172567606,0,
00:00:05.412,-0.008974464610219,0.00546704605221748,-0.0208471249789,0,
00:00:05.416,-0.000301567284623161,0.00331644248217344,-0.0142189534381032,0,
00:00:05.42,0.0161214452236891,0.0161426682025194,0.00619105715304613,0,
00:00:05.424,0.00746749946847558,-0.0158023983240128,-0.0164854135364294,0,
00:00:05.428,-0.000995372305624187,-0.0104071572422981,0.0149491867050529,0,
00:00:05.432,-0.0114417960867286,0.00337438122369349,0.0324126742780209,0,
00:00:05.436,0.00287373224273324,0.0053623728454113,-0.0101415896788239,0,
00:00:05.44,0.00651571108028293,0.000783044728450477,-0.0188605897128582,0,
00:00:05.444,-0.00907061714679003,-0.000110124048660509,-0.0090175298973918,0,
00:00:05.448,-0.00399198476225138,0.00415939651429653,0.0082139540463686,0,
00:00:05.452,0.00702137080952525,0.0127810370177031,0.00548149086534977,0,
00:00:05.456,-0.0132054267451167,-0.0252607632428408,0.00190671451855451,0,
00:00:05.46,-0.000395254988688976,-0.024272033944726,-0.00480300560593605,0,
00:00:05.464,0.0274556186050177,0.0228651221841574,0.00853912625461817,0,
00:00:05.468,-0.00410782499238849,0.0223497021943331,-0.00610478548333049,0,
00:00:05.472,-0.0035819006152451,0.0170642267912626,-0.00940781552344561,0,
00:00:05.476,-0.0135252503678203,-0.0224863793700933,0.00551394186913967,0,
00:00:05.48,-0.00302810431458056,-0.0173460729420185,0.00403882563114166,0,
00:00:05.484,0.00606725784018636,-0.00238982634618878,0.00609090132638812,0,
00:00:05.488,0.0120457913726568,-0.00109195127151906,-0.00393938226625323,0,
00:00:05.492,-0.00369458668865263,0.0102355796843767,-0.0106261484324932,0,
00:00:05.496,0.00445318967103958,0.0420739203691483,0.00632911920547485,0,
00:00:05.5,-0.0148871233686805,-0.0141628468409181,0.0058176601305604,0,
00:00:05.504,-0.0182641632854939,-0.0568341389298439,-0.00338403857313097,0,
00:00:05.508,0.0168111119419336,-0.0151699678972363,-0.00506797712296247,0,
00:00:05.512,0.0184757523238659,0.0362225212156773,0.0161762442439795,0,
00:00:05.516,0.00908336881548166,0.0366999506950378,-0.0149146961048245,0,
00:00:05.52,-0.0143937859684229,-0.00422687735408545,0.000485038559418172,0,
00:00:05.524,-0.0194408502429724,-0.0168512985110283,0.00234770239330828,0,
00:00:05.528,0.00174092082306743,-0.00901474803686142,0.000494629610329866,0,
00:00:05.532,0.0103073548525572,0.0044307610951364,-0.00511883711442351,0,
00:00:05.536,0.00874277669936419,0.00682331202551723,-0.0033959960564971,0,
00:00:05.54,-0.00130468851421028,-0.00732130371034145,-0.00160222942940891,0,
00:00:05.544,-0.00263607734814286,-7.65481454436667E-05,0.0238117426633835,0,
00:00:05.548,-0.0141195924952626,-0.01928118057549,-0.00837813224643469,0,
00:00:05.552,0.00282141054049134,0.0100645888596773,-0.0161571558564901,0,
00:00:05.556,0.0112118385732174,0.0175924208015203,0.0115556325763464,0,
00:00:05.56,0.00291766598820686,0.00242312182672322,0.00637354562059045,0,
00:00:05.564,-0.00853062886744738,-0.012872502207756,0.000991572742350399,0,
00:00:05.568,0.00423527183011174,0.0148213412612677,-0.0109930774196982,0,
00:00:05.572,-0.00386730278842151,-0.0127772409468889,0.00610597291961312,0,
00:00:05.576,5.24462811881676E-05,-0.00989133305847645,-0.00882468745112419,0,
00:00:05.58,0.0116673400625587,0.00618455419316888,-0.00484185712412,0,
00:00:05.584,-0.00884182937443256,0.0168612375855446,-0.00612173741683364,0,
00:00:05.588,-0.00583753595128655,-0.00159102748148143,0.0135784586891532,0,
00:00:05.592,-0.00938431639224291,-0.0343996398150921,0.0136289754882455,0,
00:00:05.596,0.001756158657372,-0.00118492112960666,0.00498394062742591,0,
00:00:05.6,0.0257811043411493,0.0284034796059132,-0.00968946889042854,0,
00:00:05.604,0.00356162386015058,0.0128999697044492,-0.00562091637402773,0,
00:00:05.608,-0.010592695325613,0.00677466858178377,-0.0143965501338243,0,
00:00:05.612,-0.0166199784725904,-0.0165626518428326,-0.000389875553082675,0,
00:00:05.616,-0.000612460891716182,-0.0213690605014563,0.0225946288555861,0,
00:00:05.62,0.00814404990524054,-0.00966532621532679,-0.00503907911479473,0,
00:00:05.624,0.00204941118136048,0.0243894699960947,0.00570026412606239,0,
00:00:05.628,0.00958974473178387,0.022085003554821,-0.0194342620670795,0,
00:00:05.632,0.00156409002374858,-0.0148089127615094,0.00504763470962644,0,
00:00:05.636,-0.0222303755581379,-0.0174418333917856,0.0180444829165936,0,
00:00:05.64,0.00240760389715433,-0.0026874728500843,-0.00904899369925261,0,
00:00:05.644,0.0146996350958943,0.00797230005264282,-0.0141246970742941,0,
00:00:05.648,0.00600069249048829,0.0116588082164526,-0.00296416063793004,0,
00:00:05.652,-0.0161980129778385,-0.00513791712000966,0.0125622684136033,0,
00:00:05.656,0.00224088900722563,0.00365514401346445,0.0109527865424752,0,
00:00:05.66,-0.000181020586751401,0.0104921832680702,-0.00116070127114654,0,
00:00:05.664,0.0110987313091755,-0.0177803505212069,-0.0144064966589212,0,
00:00:05.668,-0.0145612852647901,-0.0376785807311535,0.000301057501928881,0,
00:00:05.672,-0.00503831077367067,0.0214170124381781,-0.000109445099951699,0,
00:00:05.676,0.0148273473605514,0.0440024174749851,0.00885975174605846,0,
00:00:05.68,-0.000188208141480573,0.000715308240614831,0.00595200387760997,0,
00:00:05.684,-0.00273391767404974,-0.0142673458904028,-0.00840254779905081,0,
00:00:05.688,0.00493567483499646,-0.0238429177552462,-0.000469616468762979,0,
00:00:05.692,-0.00148469489067793,-0.00496332300826907,-0.00898098014295101,0,
00:00:05.696,-0.00179136055521667,0.014186043292284,0.0103983450680971,0,
00:00:05.7,-0.0112435109913349,-0.00971361994743347,0.0012159253237769,0,
00:00:05.704,0.00129011273384094,0.00720144482329488,-0.0153229478746653,0,
00:00:05.708,0.00761421211063862,0.01948575489223,0.00890425965189934,0,
00:00:05.712,0.00881087779998779,0.000576411723159254,0.00245177582837641,0,
00:00:05.716,-0.0100918393582106,-0.0174151733517647,0.00968554522842169,0,
00:00:05.72,0.00210043764673173,-0.0120577365159988,0.00147538271266967,0,
00:00:05.724,-0.0148105090484023,0.00733689870685339,-0.0182222444564104,0,
00:00:05.728,0.0252379290759563,0.019382843747735,-0.00580304767936468,0,
00:00:05.732,-0.00523535860702395,-0.00793562736362219,0.00494729587808251,0,
00:00:05.736,-0.0109500251710415,-0.00311029190197587,0.014673013240099,0,
00:00:05.74,0.000606737041380256,-0.00661651557311416,0.00842435099184513,0,
00:00:05.744,0.00776339555159211,0.00209577451460063,-0.000981476856395602,0,
00:00:05.748,-0.00139644183218479,-0.00981883052736521,-0.0170759130269289,0,
00:00:05.752,-0.00278765335679054,0.0148511081933975,-0.0181322488933802,0,
00:00:05.756,-0.00337111251428723,0.00534904422238469,0.021491814404726,0,
00:00:05.76,0.00649286853149533,-0.00152064370922744,0.00399018684402108,0,
00:00:05.764,0.000905299966689199,-0.00835673976689577,-0.00806040875613689,0,
00:00:05.768,-0.0102988947182894,-0.00586016289889812,0.00572265358641744,0,
00:00:05.772,0.00559419766068459,0.0139478975906968,0.0102535868063569,0,
00:00:05.776,0.00744726182892919,0.00396464113146067,-0.0108991833403707,0,
00:00:05.78,-0.00322585715912282,-0.00444645341485739,-0.00868657045066357,0,
00:00:05.784,-0.0062876814045012,-0.0171797294169664,0.00539812771603465,0,
00:00:05.788,0.00230363081209362,-0.00705401273444295,0.000571902259252965,0,
00:00:05.792,0.0024157075677067,0.0152666065841913,0.00454979855567217,0,
00:00:05.796,-0.00378942186944187,0.0106496252119541,-0.0133511116728187,0,
00:00:05.8,0.000797870452515781,0.00704595819115639,0.0138272643089294,0,
00:00:05.804,0.00604890007525682,0.0076926602050662,0.00242794491350651,0,
00:00:05.808,-0.00481674680486321,-0.0241096429526806,-0.00247811479493976,0,
00:00:05.812,0.000873700540978462,-0.0220795776695013,-0.00112238270230591,0,
00:00:05.816,-0.00339308241382241,0.0146472295746207,-0.00803488958626986,0,
00:00:05.82,0.00348135828971863,0.0113520193845034,0.00825923122465611,0,
00:00:05.824,-0.00190782104618847,0.00916033051908016,0.00417969608679414,0,
00:00:05.828,0.00351641955785453,0.00184512115083635,-0.01486486941576,0,
00:00:05.832,0.00350867211818695,-0.0206687729805708,0.0108887637034059,0,
00:00:05.836,-0.0116194291040301,-0.00685108173638582,-0.00625666463747621,0,
00:00:05.84,0.00180012790951878,0.0118165072053671,-0.00768810696899891,0,
00:00:05.844,0.00661235302686691,0.0121049378067255,0.0124797187745571,0,
00:00:05.848,0.00690307049080729,0.00662067765370011,0.00848457403481007,0,
00:00:05.852,-0.0117060160264373,-0.0234944354742765,-0.00456946901977062,0,
00:00:05.856,-0.00684643443673849,0.00364168710075319,-0.0121340593323112,0,
00:00:05.86,0.00376317068003118,0.0148778082802892,0.0113895498216152,0,
00:00:05.864,0.0123256491497159,-0.0141684031113982,-0.00883267633616924,0,
00:00:05.868,0.0103498166427016,0.00348922424018383,-0.00229522446170449,0,
00:00:05.872,-0.0163367129862309,-0.00541479419916868,0.0158484932035208,0,
00:00:05.876,-0.0122409434989095,0.000573612167499959,0.0116742243990302,0,
00:00:05.88,-0.000965181563515216,-0.00293833063915372,-0.0266666896641254,0,
00:00:05.884,0.0105743128806353,0.0131378127261996,-0.0136038837954402,0,
00:00:05.888,0.013935673981905,0.00857568718492985,0.00131050194613636,0,
00:00:05.892,-0.0108309546485543,-0.0173083636909723,0.0260953102260828,0,
00:00:05.896,-0.00831503886729479,-0.00114265142474324,0.00654306448996067,0,
00:00:05.9,-2.74685262411367E-05,-0.000770599872339517,-0.00485729100182652,0,
00:00:05.904,0.00910018105059862,0.0107633769512177,-0.00175512593705207,0,
00:00:05.908,0.0115357860922813,-0.0062846508808434,-0.0116478148847818,0,
00:00:05.912,-0.00451197987422347,0.00836583506315947,-0.0149099957197905,0,
00:00:05.916,-0.0109101198613644,-0.00843247398734093,0.00470800837501884,0,
00:00:05.92,1.69467202795204E-05,0.000424013967858627,0.0219949390739203,0,
00:00:05.924,-0.0119057167321444,-0.0115155698731542,0.00549299735575914,0,
00:00:05.928,0.000851281103678048,0.00114357646089047,-0.0153079256415367,0,
00:00:05.932,0.0126667730510235,0.0187665298581123,2.55245649896096E-05,0,
00:00:05.936,0.0129851568490267,0.0148142855614424,0.00681425631046295,0,
00:00:05.94,-0.00487582199275494,-0.00803459901362658,-0.0029411381110549,0,
00:00:05.944,-0.00334679312072694,-0.0209065563976765,-0.00408460339531302,0,
00:00:05.948,-0.00806521810591221,-0.0126794362440705,-0.00177310896106064,0,
00:00:05.952,-0.00135114986915141,0.00844711530953646,-0.00138341379351914,0,
00:00:05.956,0.00595854176208377,0.0149768097326159,0.0121537027880549,0,
00:00:05.96,0.000521014619152993,-0.00450194254517555,-0.0149215515702963,0,
00:00:05.964,-0.0057507143355906,0.00260986643843353,0.00639891671016812,0,
00:00:05.968,0.00455547077581286,-0.000665574625600129,0.0108417039737105,0,
00:00:05.972,-0.0115906754508615,-0.00336171197704971,-0.00285296910442412,0,
00:00:05.976,0.0172696001827717,0.0115050747990608,-0.0167646743357182,0,
00:00:05.98,-0.00122925406321883,-0.0188488904386759,0.00138783000875264,0,
00:00:05.984,-0.00662973895668983,-6.91509412718005E-05,0.0113778244704008,0,
00:00:05.988,0.00579817453399301,0.00250307284295559,0.00593274040147662,0,
00:00:05.992,9.38194352784194E-05,0.0118251005187631,0.000717900227755308,0,
00:00:05.996,-0.0113607607781887,0.00750982295721769,-0.0131912594661117,0,
00:00:06,0.004799191839993,-0.000277047860436141,0.00178578519262373,0,
00:00:06.004,0.00515526859089732,-0.0158550627529621,-0.0013269663322717,0,
00:00:06.008,-0.000953185197431594,0.00971572007983923,-0.00604418898001313,0,
00:00:06.012,3.101293623331E-05,-0.00814847089350224,0.00150052562821656,0,
00:00:06.016,0.00314503745175898,-0.0241211373358965,0.0274628065526485,0,
00:00:06.02,-0.0157973002642393,0.00642459280788898,-0.00710951024666429,0,
00:00:06.024,0.00143800489604473,0.0229458715766668,-0.0154307773336768,0,
00:00:06.028,0.00751242460682988,0.00699023623019457,-0.00345106376335025,0,
00:00:06.032,0.0124200154095888,0.0134730152785778,-0.00235850317403674,0,
00:00:06.036,-0.00179606582969427,-0.0117600662633777,0.000766400422435254,0,
00:00:06.04,-0.00425915606319904,-0.0153190577402711,0.007321213837713,0,
00:00:06.044,-0.00706668943166733,-0.0104775121435523,0.0121942451223731,0,
00:00:06.048,-0.00552014959976077,-0.0146022457629442,0.0103289755061269,0,
00:00:06.052,0.0131423147395253,0.0204640962183475,-0.0205832347273827,0,
00:00:06.056,-0.0197753272950649,0.0190405789762735,-0.0173208937048912,0,
00:00:06.06,0.00870220921933651,0.00579691398888826,0.00267859431914985,0,
00:00:06.064,0.0175145100802183,-0.00318375672213733,0.00331667927093804,0,
00:00:06.068,-0.00150612602010369,-0.00707065919414163,0.0180034674704075,0,
00:00:06.072,-0.0113996714353561,-0.0169701464474201,0.0143884690478444,0,
00:00:06.076,-0.0100947078317404,-0.00423556379973888,-0.0222006794065237,0,
00:00:06.08,0.0113634867593646,0.0112387975677848,-0.00643184734508395,0,
00:00:06.084,0.0123901683837175,0.00809654593467712,0.0179193168878555,0,
00:00:06.088,-0.00817387644201517,-0.00726974615827203,-0.0163806211203337,0,
00:00:06.092,-0.0127365989610553,-0.00176996865775436,-0.0209237206727266,0,
00:00:06.096,0.00754205649718642,0.00631573004648089,0.0333139933645725,0,
00:00:06.1,0.00389494234696031,-0.00716352695599198,-0.00388513482175767,0,
00:00:06.104,-0.00442285463213921,0.00647891638800502,0.0036526860203594,0,
00:00:06.108,-0.00242769182659686,0.00257889344356954,-0.00843531731516123,0,
00:00:06.112,0.00937905535101891,0.00974670611321926,-0.000296322075882927,0,
00:00:06.116,-0.00727534992620349,-0.0140602625906467,0.0037682072725147,0,
00:00:06.12,-0.00235741934739053,-0.0102993762120605,0.00741076096892357,0,
00:00:06.124,-0.000377301650587469,0.00170652312226593,-0.00748739019036293,0,
00:00:06.128,0.0090961130335927,0.0122558921575546,-0.0114682912826538,0,
00:00:06.132,0.00598614569753408,0.00537578063085675,-0.000247586955083534,0,
00:00:06.136,-0.0107032293453813,-0.0150968655943871,0.0117049124091864,0,
00:00:06.14,-0.00294921430759132,-0.000323895452311262,-0.00223703915253282,0,
00:00:06.144,0.00262745772488415,0.011052068322897,8.55097096064128E-05,0,
00:00:06.148,-0.00457634311169386,0.00241214851848781,-0.00104416057001799,0,
00:00:06.152,0.00357047212310135,-0.00952841155230999,0.00271511590108275,0,
00:00:06.156,-0.00257123564369977,-0.00904304068535566,-0.00253266887739301,0,
00:00:06.16,0.00913970917463303,0.0119122704491019,0.0221956595778465,0,
00:00:06.164,0.0143990172073245,0.0166770964860916,-0.014032936654985,0,
00:00:06.168,-0.0188814308494329,-0.0164330787956715,-0.0179935581982136,0,
00:00:06.172,-0.0265699792653322,-0.0206531658768654,-0.0119939967989922,0,
00:00:06.176,0.0173977222293615,0.0181226022541523,0.00504806451499462,0,
00:00:06.18,0.0201610177755356,0.0123640634119511,0.0201997887343168,0,
00:00:06.184,-0.000745125056710094,0.00286195171065629,0.0167613960802555,0,
00:00:06.188,-0.0153198167681694,-0.0290709957480431,0.00681102415546775,0,
00:00:06.192,0.00630874698981643,0.0213473960757256,-0.0183850824832916,0,
00:00:06.196,0.00468831416219473,0.0023957637604326,-0.0252190344035625,0,
00:00:06.2,0.000625899469014257,-0.016017435118556,-0.00222041737288237,0,
00:00:06.204,-0.010778141207993,0.00821798853576183,0.0120872026309371,0,
00:00:06.208,-0.00586261879652739,-0.000269287469564006,0.0198405962437391,0,
00:00:06.212,-0.00266446452587843,-0.00570196053013206,-0.00079494045348838,0,
00:00:06.216,0.0134303839877248,-0.00472040707245469,-0.0159659031778574,0,
00:00:06.22,0.0126439910382032,0.0119943590834737,-0.00277748145163059,0,
00:00:06.224,-0.00637613190338016,0.0101551627740264,0.0101028773933649,0,
00:00:06.228,-0.0171859115362167,-0.010459192097187,0.00511940661817789,0,
00:00:06.232,0.00127081654500216,0.00309074157848954,-0.00196424056775868,0,
00:00:06.236,0.00684418994933367,-0.0116303488612175,-0.013484874740243,0,
00:00:06.24,0.00737482169643044,0.0107817575335503,0.00980733521282673,0,
00:00:06.244,0.00990996789187193,0.0140890246257186,0.00119891960639507,0,
00:00:06.248,-0.0130048468708992,-0.0191868618130684,-0.0155207039788365,0,
00:00:06.252,-0.019264193251729,-0.0199954081326723,-0.00379353645257652,0,
00:00:06.256,0.00580475619062781,0.0081352237612009,0.0163102373480797,0,
00:00:06.26,0.0172084681689739,0.013790006749332,0.015640115365386,0,
00:00:06.264,0.00289491424337029,0.0126000558957458,0.00107273529283702,0,
00:00:06.268,-0.00415532756596804,-0.00512047344818711,-0.0154228182509542,0,
00:00:06.272,-0.0115222437307239,-0.00114317331463099,-0.0130991647019982,0,
00:00:06.276,0.000656429037917405,-0.00977730564773083,0.00658045336604118,0,
00:00:06.28,0.0147820729762316,0.00132140854839236,-0.00158860697411001,0,
00:00:06.284,-0.00638290634378791,-0.00649086851626635,0.0116959568113089,0,
00:00:06.288,-0.00920833181589842,-0.00247143651358783,-0.00775806838646531,0,
00:00:06.292,-0.00185404811054468,0.00713793700560927,-0.00840584468096495,0,
00:00:06.296,0.010372756049037,0.0139204524457455,0.018885463476181,0,
00:00:06.3,-0.000384220125852153,0.00183432607445866,0.00296492082998157,0,
00:00:06.304,0.00893136858940125,0.00686296261847019,-0.0114315515384078,0,
00:00:06.308,0.00037768590846099,-0.0229597669094801,0.0015370084438473,0,
00:00:06.312,-0.0173425395041704,-0.0144014256075025,0.00120231125038117,0,
00:00:06.316,-0.0104991151019931,0.00130923499818891,-0.00347561878152192,0,
00:00:06.32,0.00955433584749699,0.0144893703982234,-0.00455012870952487,0,
