,Elapsed Time,EMG
0,00:00:00,1.2143313288688713
1,00:00:00.004,-1.1846244931220955
2,00:00:00.008,-0.9350163936614933
3,00:00:00.012,-0.032936402130871345
4,00:00:00.016,0.43290570378303705
5,00:00:00.02,0.5731723904609671
6,00:00:00.024,0.3557971864938741
7,00:00:00.028,0.0701826959848405
8,00:00:00.032,-0.1262999698519709
9,00:00:00.036,-0.27224227786064215
10,00:00:00.04,-0.22357000410556785
11,00:00:00.044,-0.0417780429124833
12,00:00:00.048,0.0758378468453884
13,00:00:00.052,0.07245319150388208
14,00:00:00.056,0.038699232973158415
15,00:00:00.06,0.002364862710237496
16,00:00:00.064,0.0300911003723741
17,00:00:00.068,-0.044448988512158394
18,00:00:00.072,-0.035548131912946604
19,00:00:00.076,0.019827298820018813
20,00:00:00.08,0.01960215182043611
21,00:00:00.084,0.023189710511360342
22,00:00:00.088,-0.003694860177347441
23,00:00:00.092,-0.035476599819958196
24,00:00:00.096,-0.0295438133180142
25,00:00:00.1,-0.007349094375968
26,00:00:00.104,0.03699711896479131
27,00:00:00.108,0.0397387966513635
28,00:00:00.112,-0.019736592657864198
29,00:00:00.116,-0.002747504040598904
30,00:00:00.12,0.013352638110518525
31,00:00:00.124,-0.009021535224746916
32,00:00:00.128,-0.034320086240768405
33,00:00:00.132,-0.005511880852281999
34,00:00:00.136,-0.006716081872582488
35,00:00:00.14,0.02262356830760833
36,00:00:00.144,0.015326785854995285
37,00:00:00.148,0.016335124848410532
38,00:00:00.152,0.01343919755890966
39,00:00:00.156,-0.018453171243891123
40,00:00:00.16,-0.0227275732904673
41,00:00:00.164,-0.02081015799194576
42,00:00:00.168,-0.02320362575119369
43,00:00:00.172,0.0667789448052644
44,00:00:00.176,0.04168905084952706
45,00:00:00.18,-0.0966033955919558
46,00:00:00.184,-0.0076286718249320585
47,00:00:00.188,0.0698782382532954
48,00:00:00.192,-0.006918597035109989
49,00:00:00.196,0.015411002561449998
50,00:00:00.2,-0.0204047653824091
51,00:00:00.204,-0.0245981691405176
52,00:00:00.208,-0.016442569904029397
53,00:00:00.212,0.0226897613611072
54,00:00:00.216,0.0062313275411725
55,00:00:00.22,-0.01166654145345089
56,00:00:00.224,0.003226112574338927
57,00:00:00.228,0.025831901002675267
58,00:00:00.232,-0.02109862817451355
59,00:00:00.236,0.021205908793490408
60,00:00:00.24,0.00037110596895214426
61,00:00:00.244,-0.029145624488592103
62,00:00:00.248,0.012955669313669111
63,00:00:00.252,-0.017769603058695703
64,00:00:00.256,-0.01668934384360906
65,00:00:00.26,0.008364824578165958
66,00:00:00.264,0.04886924033053222
67,00:00:00.268,0.017932740709511605
68,00:00:00.272,-0.015469777514226731
69,00:00:00.276,-0.040035398676991456
70,00:00:00.28,-0.00025297608226540133
71,00:00:00.284,-0.00559631898067894
72,00:00:00.288,0.015760287642478894
73,00:00:00.292,-0.00630581309087574
74,00:00:00.296,-0.017228423152118918
75,00:00:00.3,0.018452669493854053
76,00:00:00.304,0.06044439598917967
77,00:00:00.308,-0.02661071589682249
78,00:00:00.312,-0.022505547851324005
79,00:00:00.316,-0.0207255054265261
80,00:00:00.32,-0.006950689479708297
81,00:00:00.324,0.0264352979138493
82,00:00:00.328,-0.004423150792718003
83,00:00:00.332,-0.0168664753437042
84,00:00:00.336,0.028409073594957604
85,00:00:00.34,0.011739052832126597
86,00:00:00.344,-0.022209751419723
87,00:00:00.348,-0.009453300386667252
88,00:00:00.352,0.02075834968127313
89,00:00:00.356,-0.0005069496110081412
90,00:00:00.36,-0.010530434432439499
91,00:00:00.364,-0.01768027478829024
92,00:00:00.368,-0.00749683426693082
93,00:00:00.372,0.048473943024873706
94,00:00:00.376,-0.0052105342037975805
95,00:00:00.38,-0.03083722281735386
96,00:00:00.384,0.010254377149976802
97,00:00:00.388,0.0154460594058037
98,00:00:00.392,-0.0210677850991488
99,00:00:00.396,0.021436040755361308
100,00:00:00.4,3.704288974407978e-05
101,00:00:00.404,-0.024710466153919686
102,00:00:00.408,-0.031138384714722703
103,00:00:00.412,0.04951046421774666
104,00:00:00.416,0.02525999024510389
105,00:00:00.42,-0.03979746298864488
106,00:00:00.424,0.02481122314929968
107,00:00:00.428,-0.020392839331179857
108,00:00:00.432,-0.009842811152339002
109,00:00:00.436,0.01921754842624063
110,00:00:00.44,0.007133447565138323
111,00:00:00.444,-0.015419656410813297
112,00:00:00.448,-0.02008802071213724
113,00:00:00.452,0.0089844344183802
114,00:00:00.456,0.013336289208382361
115,00:00:00.46,0.051053667441010406
116,00:00:00.464,-0.05146256741136308
117,00:00:00.468,-0.01997985295020044
118,00:00:00.472,0.027697514742612804
119,00:00:00.476,-0.005349597427993979
120,00:00:00.48,-0.010629766853526281
121,00:00:00.484,-0.024982584174722443
122,00:00:00.488,0.004161961842328279
123,00:00:00.492,0.08013768028467891
124,00:00:00.496,-0.006964057218283415
125,00:00:00.5,-0.03907168982550506
126,00:00:00.504,-0.02373509248718617
127,00:00:00.508,-0.00926494970917702
128,00:00:00.512,0.03452227683737875
129,00:00:00.516,0.007928054314106692
130,00:00:00.52,-0.005799505801405764
131,00:00:00.524,-0.0169318480184302
132,00:00:00.528,-0.003662338480353397
133,00:00:00.532,0.005646502831950801
134,00:00:00.536,0.024509060895070392
135,00:00:00.54,-0.002346973866224303
136,00:00:00.544,-0.03259297925978904
137,00:00:00.548,-0.014946422539651297
138,00:00:00.552,0.02642515581101183
139,00:00:00.556,0.0357064642012119
140,00:00:00.56,0.00876553542912006
141,00:00:00.564,-0.0272399019449949
142,00:00:00.568,-0.0225744750350714
143,00:00:00.572,-0.018824085826054267
144,00:00:00.576,0.0054597016423941006
145,00:00:00.58,0.011019550496712303
146,00:00:00.584,0.03812474198639391
147,00:00:00.588,0.0147308185696602
148,00:00:00.592,-0.021760970354080235
149,00:00:00.596,-0.024644794873893268
150,00:00:00.6,-0.0018217591568827733
151,00:00:00.604,-0.014671712182462202
152,00:00:00.608,-0.024433728307485556
153,00:00:00.612,0.03898967523127794
154,00:00:00.616,0.034748461097478894
155,00:00:00.62,0.011242922395467807
156,00:00:00.624,-0.01969941658899188
157,00:00:00.628,-0.022398606874048703
158,00:00:00.632,0.009152584476396452
159,00:00:00.636,-0.002559708897024459
160,00:00:00.64,-0.014198347926139797
161,00:00:00.644,0.012726564833428742
162,00:00:00.648,-0.000807410106062903
163,00:00:00.652,-0.02756267692893738
164,00:00:00.656,0.033659112872555824
165,00:00:00.66,0.003236211370676749
166,00:00:00.664,-0.031156498473137582
167,00:00:00.668,0.036988347768783555
168,00:00:00.672,0.04199169151252133
169,00:00:00.676,-0.0525804404169321
170,00:00:00.68,-0.012924080248922061
171,00:00:00.684,-0.01581428538793265
172,00:00:00.688,-0.01582123525440693
173,00:00:00.692,0.030893936520442356
174,00:00:00.696,0.0381590556353331
175,00:00:00.7,-0.005638161674141898
176,00:00:00.704,-0.00575526594184339
177,00:00:00.708,-0.00467665120959284
178,00:00:00.712,-0.0270980211207643
179,00:00:00.716,-0.03197275602724401
180,00:00:00.72,0.03756063338369131
181,00:00:00.724,0.05296583101153377
182,00:00:00.728,-0.03195089101791384
183,00:00:00.732,-0.03599052573554216
184,00:00:00.736,0.021620460785925378
185,00:00:00.74,0.02878113090991977
186,00:00:00.744,-0.03180338838137687
187,00:00:00.748,0.0114419534802437
188,00:00:00.752,-0.03946786141023039
189,00:00:00.756,0.016786817461252195
190,00:00:00.76,0.026807817397639183
191,00:00:00.764,0.03312295628711572
192,00:00:00.768,-0.017163800075650208
193,00:00:00.772,-0.05248926533386114
194,00:00:00.776,0.00460178731009365
195,00:00:00.78,0.026035562157630924
196,00:00:00.784,0.02680384740233423
197,00:00:00.788,-0.044808012433350114
198,00:00:00.792,-0.02174871927127239
199,00:00:00.796,0.05136925668921318
200,00:00:00.8,-0.01577913970686494
201,00:00:00.804,0.01348214130848643
202,00:00:00.808,-0.008204761135857552
203,00:00:00.812,-0.0441421400755643
204,00:00:00.816,0.057712887413799804
205,00:00:00.82,0.012807007879018738
206,00:00:00.824,-0.03879105875967072
207,00:00:00.828,-0.0022589061409234897
208,00:00:00.832,0.011116881854832103
209,00:00:00.836,-0.02171216323040424
210,00:00:00.84,0.023497551796026507
211,00:00:00.844,0.036919552832842
212,00:00:00.848,-0.04630159633234136
213,00:00:00.852,-0.0191263470333069
214,00:00:00.856,0.02622530900407582
215,00:00:00.86,0.004265230847522634
216,00:00:00.864,-0.0152202360332012
217,00:00:00.868,0.029672764241695404
218,00:00:00.872,-0.0337731395848095
219,00:00:00.876,0.0131539786234498
220,00:00:00.88,0.029261826537549548
221,00:00:00.884,-0.025756518356502077
222,00:00:00.888,-0.029640672262758065
223,00:00:00.892,-0.008720556274056497
224,00:00:00.896,0.0376318330963841
225,00:00:00.9,0.0505122691392899
226,00:00:00.904,-0.03311008121818302
227,00:00:00.908,-0.03685222670901564
228,00:00:00.912,0.00968229724094271
229,00:00:00.916,-0.0029729092493653297
230,00:00:00.92,0.0076489499770105406
231,00:00:00.924,0.0003595975576900171
232,00:00:00.928,0.0017297965241596118
233,00:00:00.932,0.0196362249553204
234,00:00:00.936,-0.01765930489636959
235,00:00:00.94,-0.01083522196859123
236,00:00:00.944,0.01923889014869933
237,00:00:00.948,0.01597680477425455
238,00:00:00.952,-0.0441478891298175
239,00:00:00.956,-0.02657424286007887
240,00:00:00.96,0.05552593001630155
241,00:00:00.964,0.0014893887564539007
242,00:00:00.968,0.01657880167476829
243,00:00:00.972,-0.011096714064478888
244,00:00:00.976,-0.03865358885377646
245,00:00:00.98,0.0121575817465782
246,00:00:00.984,-0.014407902024686286
247,00:00:00.988,0.018949811346828938
248,00:00:00.992,0.028060979675501564
249,00:00:00.996,-0.0006746584549546901
250,00:00:01,-0.03011260752100495
251,00:00:01.004,-0.0015394100919365883
252,00:00:01.008,0.025251106359064593
253,00:00:01.012,-4.9671158194560146e-05
254,00:00:01.016,-0.03762077912688258
255,00:00:01.02,0.015641754493117402
256,00:00:01.024,-0.01827772380784157
257,00:00:01.028,0.0350959207862616
258,00:00:01.032,-0.008027516305446548
259,00:00:01.036,-0.0040335273370147185
260,00:00:01.04,0.01355640171095736
261,00:00:01.044,0.02014369657263162
262,00:00:01.048,-0.05015384638682011
263,00:00:01.052,-0.008301814988953988
264,00:00:01.056,0.016691063530743087
265,00:00:01.06,0.01381248049438
266,00:00:01.064,0.008039577864110501
267,00:00:01.068,0.0051815446931869
268,00:00:01.072,-0.01634158205706623
269,00:00:01.076,0.0008941581472753993
270,00:00:01.08,0.0017123976722359484
271,00:00:01.084,-0.013683584518730599
272,00:00:01.088,0.0028049405664206002
273,00:00:01.092,-0.03633077722042804
274,00:00:01.096,0.019498382229358027
275,00:00:01.1,0.07348642149008808
276,00:00:01.104,0.011093290522694612
277,00:00:01.108,-0.07597619201987982
278,00:00:01.112,-0.0090374378487468
279,00:00:01.116,0.008330595213919892
280,00:00:01.12,0.0267720650881528
281,00:00:01.124,0.015444803982973104
282,00:00:01.128,-0.0494029266410508
283,00:00:01.132,0.002299946732819101
284,00:00:01.136,0.023304661270230998
285,00:00:01.14,-0.0034148134291171993
286,00:00:01.144,0.0310402056202292
287,00:00:01.148,-0.03466742124874149
288,00:00:01.152,-0.005224283318966629
289,00:00:01.156,0.0342939514666796
290,00:00:01.16,-0.04890466295182706
291,00:00:01.164,0.015656238363590064
292,00:00:01.168,-0.010172088048420838
293,00:00:01.172,0.01341207139194011
294,00:00:01.176,0.031685415306128534
295,00:00:01.18,0.007347833365201921
296,00:00:01.184,-0.019018191378563643
297,00:00:01.188,-0.02531251963227988
298,00:00:01.192,-0.02354884380474684
299,00:00:01.196,0.01574722002260387
300,00:00:01.2,0.02096321340650316
301,00:00:01.204,0.01337600906845186
302,00:00:01.208,0.0021360070677474098
303,00:00:01.212,-0.00593150407075885
304,00:00:01.216,-0.02913645713124428
305,00:00:01.22,0.015500699868425739
306,00:00:01.224,-0.0004630670882761496
307,00:00:01.228,-0.0037710405886173803
308,00:00:01.232,0.03400272782891988
309,00:00:01.236,-0.0586569167207927
310,00:00:01.24,-0.002999277319759089
311,00:00:01.244,0.05841492023319007
312,00:00:01.248,-0.018602258525788784
313,00:00:01.252,0.0029134977376088595
314,00:00:01.256,0.0095266371499747
315,00:00:01.26,-0.014326335804071357
316,00:00:01.264,-0.025556585751473935
317,00:00:01.268,0.01224313070997593
318,00:00:01.272,0.02647207211703064
319,00:00:01.276,-0.009267539659049362
320,00:00:01.28,-0.034036842174828094
321,00:00:01.284,0.020418830914422863
322,00:00:01.288,0.041882748249918264
323,00:00:01.292,-0.012514391448348799
324,00:00:01.296,-0.02004155889153483
325,00:00:01.3,-0.08133233501575887
326,00:00:01.304,0.03352168295532462
327,00:00:01.308,0.04459390474949039
328,00:00:01.312,0.04956301022320987
329,00:00:01.316,0.021042555570602396
330,00:00:01.32,-0.09658272977685559
331,00:00:01.324,0.016345148906111703
332,00:00:01.328,0.007498721824958889
333,00:00:01.332,-0.018356933549512136
334,00:00:01.336,0.017685270868241818
335,00:00:01.34,0.0197806404903531
336,00:00:01.344,-0.013631890411488748
337,00:00:01.348,-0.0211151428520679
338,00:00:01.352,0.005382124742027419
339,00:00:01.356,0.005506722140125918
340,00:00:01.36,0.024004984647035627
341,00:00:01.364,-0.00587336253374815
342,00:00:01.368,0.003403013339266271
343,00:00:01.372,0.03169396147131927
344,00:00:01.376,-0.11516481451690194
345,00:00:01.38,0.00392029481008644
346,00:00:01.384,0.05974532896652819
347,00:00:01.388,0.04993956466205414
348,00:00:01.392,0.0021871197968721407
349,00:00:01.396,-0.018433400429785224
350,00:00:01.4,-0.04379216488450764
351,00:00:01.404,-0.027405591681599693
352,00:00:01.408,0.013958841562271129
353,00:00:01.412,0.04515524697490041
354,00:00:01.416,-0.004936118610203252
355,00:00:01.42,0.02296655019745234
356,00:00:01.424,-0.05152403097599747
357,00:00:01.428,-0.012344734976068134
358,00:00:01.432,0.0093496395274997
359,00:00:01.436,0.008928293769713491
360,00:00:01.44,0.043861504294909565
361,00:00:01.444,0.022145168157294344
362,00:00:01.448,-0.07118236436508599
363,00:00:01.452,-0.012299899477511622
364,00:00:01.456,0.009518603328615378
365,00:00:01.46,0.012600535992532969
366,00:00:01.464,0.0038774968124926576
367,00:00:01.468,0.024939254391938448
368,00:00:01.472,-0.013875285163521742
369,00:00:01.476,-0.014858328737318599
370,00:00:01.48,0.012046675663441458
371,00:00:01.484,-0.009841328486800239
372,00:00:01.488,0.012204213533550463
373,00:00:01.492,-0.03059995872899884
374,00:00:01.496,0.02595032984390857
375,00:00:01.5,-0.004186728969216258
376,00:00:01.504,0.0052620455389841975
377,00:00:01.508,-0.009070692118257251
378,00:00:01.512,-0.00797980464994903
379,00:00:01.516,0.019559485615900443
380,00:00:01.52,0.001305303536355511
381,00:00:01.524,0.01349461101926868
382,00:00:01.528,-0.06634744862094524
383,00:00:01.532,0.030733291991055012
384,00:00:01.536,0.0606128508225083
385,00:00:01.54,-0.044256799854338204
386,00:00:01.544,-0.013824157533235822
387,00:00:01.548,-0.021746311802417033
388,00:00:01.552,0.031716363504529
389,00:00:01.556,0.0294543642085046
390,00:00:01.56,0.00540663441643119
391,00:00:01.564,-0.030024442472495187
392,00:00:01.568,-0.038059480662923285
393,00:00:01.572,0.01090201269835237
394,00:00:01.576,0.032936507021076956
395,00:00:01.58,-0.007498739287257177
396,00:00:01.584,-0.010586000047624103
397,00:00:01.588,0.006083121290430429
398,00:00:01.592,0.015526023227721415
399,00:00:01.596,-0.03651457140222186
400,00:00:01.6,0.02523279702290897
401,00:00:01.604,0.06593672756571331
402,00:00:01.608,-0.0748738013207913
403,00:00:01.612,-0.01984945731237535
404,00:00:01.616,-0.006021103414241233
405,00:00:01.62,0.015079832170158604
406,00:00:01.624,0.003094983287155701
407,00:00:01.628,0.040817745728418245
408,00:00:01.632,0.019925981294363748
409,00:00:01.636,-0.01731910579837858
410,00:00:01.64,-0.01988806994631888
411,00:00:01.644,-0.031837045215070206
412,00:00:01.648,-0.03230563539545987
413,00:00:01.652,0.026924624573439332
414,00:00:01.656,0.03631456382572656
415,00:00:01.66,0.0161669650115073
416,00:00:01.664,0.0019325173925608362
417,00:00:01.668,-0.01340369042009116
418,00:00:01.672,-0.02314758428838104
419,00:00:01.676,0.009867012500762941
420,00:00:01.68,-0.024701490998268162
421,00:00:01.684,0.029049977660179194
422,00:00:01.688,-0.00047456193715340184
423,00:00:01.692,0.03698946721851828
424,00:00:01.696,-0.07173986465204499
425,00:00:01.7,-0.022075795568525708
426,00:00:01.704,0.0681711053475738
427,00:00:01.708,0.02381141670048244
428,00:00:01.712,-0.01818265207111831
429,00:00:01.716,-0.024854025337845122
430,00:00:01.72,-0.026450146222487078
431,00:00:01.724,0.03650650588679125
432,00:00:01.728,0.00680532352998853
433,00:00:01.732,-0.01467396738007665
434,00:00:01.736,-0.0022417843574657993
435,00:00:01.74,0.002193999243900179
436,00:00:01.744,0.010775894188554977
437,00:00:01.748,-0.01292607095092534
438,00:00:01.752,0.003430222161114306
439,00:00:01.756,0.007839390542358188
440,00:00:01.76,-0.010095538571476902
441,00:00:01.764,-0.0162016162648797
442,00:00:01.768,0.02430115267634393
443,00:00:01.772,0.025019654072821126
444,00:00:01.776,-0.04014304466545578
445,00:00:01.78,-0.015827706083655295
446,00:00:01.784,0.03505630418658255
447,00:00:01.788,-0.01262337062507878
448,00:00:01.792,-0.0020361375063657787
449,00:00:01.796,0.01122835062415111
450,00:00:01.8,0.0350905368104577
451,00:00:01.804,-0.05459661409258845
452,00:00:01.808,-0.00965177710168065
453,00:00:01.812,0.02373110083863137
454,00:00:01.816,0.021123631100635944
455,00:00:01.82,-0.0008006785064935702
456,00:00:01.824,-0.010327293421141819
457,00:00:01.828,-0.07062583463266488
458,00:00:01.832,0.02455071778967977
459,00:00:01.836,0.05407270882278688
460,00:00:01.84,0.00749297486618161
461,00:00:01.844,0.00031380867585534267
462,00:00:01.848,0.0010087890550494211
463,00:00:01.852,-0.043360483366996
464,00:00:01.856,-0.02084199013188483
465,00:00:01.86,0.046219198033213595
466,00:00:01.864,-0.006862933747470296
467,00:00:01.868,-0.02052319119684399
468,00:00:01.872,0.019887590780854197
469,00:00:01.876,0.021413791459053796
470,00:00:01.88,-0.00791922491043806
471,00:00:01.884,-0.016640163958072676
472,00:00:01.888,-0.02819749782793228
473,00:00:01.892,0.032372640445828424
474,00:00:01.896,0.00870692636817694
475,00:00:01.9,0.015143952332437049
476,00:00:01.904,-0.05145866004750137
477,00:00:01.908,-0.00827876478433609
478,00:00:01.912,0.051156307803466944
479,00:00:01.916,0.0009746984578669123
480,00:00:01.92,-0.01927161961793896
481,00:00:01.924,-0.0001541776582598582
482,00:00:01.928,-0.004007756593637169
483,00:00:01.932,0.0038523965049535097
484,00:00:01.936,0.017689724918454913
485,00:00:01.94,-0.02586977137252687
486,00:00:01.944,-0.011453662067651731
487,00:00:01.948,0.02921569533646102
488,00:00:01.952,0.016853938403073702
489,00:00:01.956,-0.02484078425914052
490,00:00:01.96,-0.028496407321654222
491,00:00:01.964,0.00087111711036414
492,00:00:01.968,0.038840248249471195
493,00:00:01.972,0.03402071958407765
494,00:00:01.976,-0.0389291159808636
495,00:00:01.98,-0.016639750450849502
496,00:00:01.984,-0.007305989071028293
497,00:00:01.988,0.009802650660276406
498,00:00:01.992,0.002808796241879418
499,00:00:01.996,-0.0033715448807925116
500,00:00:02,-0.0013716309331357514
501,00:00:02.004,0.0188373755663633
502,00:00:02.008,0.002816483611240931
503,00:00:02.012,-0.004645033739507202
504,00:00:02.016,0.006444853381253779
505,00:00:02.02,0.0027979533188044695
506,00:00:02.024,-0.03920498304069038
507,00:00:02.028,0.013603945903014407
508,00:00:02.032,-0.012753893155604601
509,00:00:02.036,0.0028824259061366307
510,00:00:02.04,0.026519081788137604
511,00:00:02.044,0.016484407708048775
512,00:00:02.048,-0.006989556364715065
513,00:00:02.052,0.01098016789183018
514,00:00:02.056,-0.0486391013255343
515,00:00:02.06,-0.0174784632399678
516,00:00:02.064,0.01762456400319938
517,00:00:02.068,0.0267148150596768
518,00:00:02.072,0.008763466496020552
519,00:00:02.076,0.00559761747717856
520,00:00:02.08,-0.02553219185210763
521,00:00:02.084,0.01753329648636277
522,00:00:02.088,-0.019699015654623474
523,00:00:02.092,-0.00825147097930312
524,00:00:02.096,-0.0009040944278240195
525,00:00:02.1,0.02468432439491154
526,00:00:02.104,0.002698934404179412
527,00:00:02.108,-0.010494673246284942
528,00:00:02.112,-0.013262380845844711
529,00:00:02.116,0.0014025513082743003
530,00:00:02.12,0.03949039359577005
531,00:00:02.124,-0.02824800554662947
532,00:00:02.128,-0.01981154852546754
533,00:00:02.132,0.03593173669651147
534,00:00:02.136,-0.027227816637605463
535,00:00:02.14,-0.01126249926164743
536,00:00:02.144,0.03496740851551297
537,00:00:02.148,0.008212687913328411
538,00:00:02.152,-0.013366680825129068
539,00:00:02.156,-0.019890638999640997
540,00:00:02.16,-0.020531261805444997
541,00:00:02.164,0.03700836095958951
542,00:00:02.168,0.006408734952856255
543,00:00:02.172,0.012476296164095402
544,00:00:02.176,-0.02931481669656931
545,00:00:02.18,-0.00400618789717554
546,00:00:02.184,0.006960466038435699
547,00:00:02.188,0.01366258831694722
548,00:00:02.192,-0.0110928546637297
549,00:00:02.196,-0.02115462673828009
550,00:00:02.2,0.02008370991097763
551,00:00:02.204,0.021880127023905536
552,00:00:02.208,-0.001034916756907476
553,00:00:02.212,-0.05297939304728059
554,00:00:02.216,0.01787495939061046
555,00:00:02.22,0.02256016153842213
556,00:00:02.224,0.00518583599478006
557,00:00:02.228,0.010791905107907951
558,00:00:02.232,-0.02196564973564817
559,00:00:02.236,-0.0264197941869497
560,00:00:02.24,0.01900834683328865
561,00:00:02.244,0.012942255736561475
562,00:00:02.248,0.0027830176986754114
563,00:00:02.252,-0.00808739522472024
564,00:00:02.256,-0.0016137140337377804
565,00:00:02.26,0.0016841234173625794
566,00:00:02.264,-0.008575625717639996
567,00:00:02.268,0.00196783361025148
568,00:00:02.272,0.010976690333336541
569,00:00:02.276,-0.0005260915495456098
570,00:00:02.28,-0.008246499812230471
571,00:00:02.284,-0.009669444290921089
572,00:00:02.288,0.01013063080608844
573,00:00:02.292,0.015571223571896569
574,00:00:02.296,0.0005303701618686336
575,00:00:02.3,-0.0183925591409207
576,00:00:02.304,-0.011196278966963291
577,00:00:02.308,0.009305307168688104
578,00:00:02.312,0.02729696081951255
579,00:00:02.316,-0.009077501948922873
580,00:00:02.32,-0.0206744596362115
581,00:00:02.324,-0.01172508287709206
582,00:00:02.328,0.011666357517242404
583,00:00:02.332,0.045041671488434076
584,00:00:02.336,-0.0290856456849724
585,00:00:02.34,-0.030150589125696597
586,00:00:02.344,0.010984926484525183
587,00:00:02.348,0.02443413948640224
588,00:00:02.352,0.0017547607421875
589,00:00:02.356,-0.003933350491024613
590,00:00:02.36,-0.003996102663222703
591,00:00:02.364,-0.03807397827040399
592,00:00:02.368,0.03607707843184471
593,00:00:02.372,-0.01426804577931761
594,00:00:02.376,0.007912678644061096
595,00:00:02.38,-0.00730246072635054
596,00:00:02.384,-0.0018549528904259864
597,00:00:02.388,0.0696144197136164
598,00:00:02.392,-0.006046027992852067
599,00:00:02.396,-0.055982318706810495
600,00:00:02.4,-0.04052192438393834
601,00:00:02.404,-0.02908326545730228
602,00:00:02.408,0.04678010428324339
603,00:00:02.412,0.0627816962078214
604,00:00:02.416,-0.004038091283291559
605,00:00:02.42,0.016167732886970078
606,00:00:02.424,-0.030649819411337396
607,00:00:02.428,-0.0334106255322695
608,00:00:02.432,-0.015411975095048583
609,00:00:02.436,0.005930553073994789
610,00:00:02.44,0.005973170511424548
611,00:00:02.444,0.03932035528123385
612,00:00:02.448,0.022241801023483276
613,00:00:02.452,-0.004284942406229602
614,00:00:02.456,-0.1048695994541046
615,00:00:02.46,0.039865852799266535
616,00:00:02.464,0.017357455566525397
617,00:00:02.468,0.038399911019951084
618,00:00:02.472,-0.0017186838667839679
619,00:00:02.476,-0.0119430655613542
620,00:00:02.48,-0.035054288571700475
621,00:00:02.484,0.01436676923185582
622,00:00:02.488,0.02882682904601093
623,00:00:02.492,-0.026479463225769027
624,00:00:02.496,0.008161302801454436
625,00:00:02.5,-0.03424473013728862
626,00:00:02.504,-0.00590363738592716
627,00:00:02.508,0.058775260113179705
628,00:00:02.512,0.009988956153392781
629,00:00:02.516,-0.029778145719319672
630,00:00:02.52,-0.022250510752201087
631,00:00:02.524,0.013494883663952401
632,00:00:02.528,0.02532653789967301
633,00:00:02.532,-0.003070653416216351
634,00:00:02.536,-0.04775018838699904
635,00:00:02.54,0.00891491863876577
636,00:00:02.544,0.013286513276398229
637,00:00:02.548,0.02988540451042348
638,00:00:02.552,-0.006036687875166539
639,00:00:02.556,-0.014594677370041609
640,00:00:02.56,0.01946282168501059
641,00:00:02.564,-0.02909362222999333
642,00:00:02.568,0.003950216341763719
643,00:00:02.572,-0.0021292692981660106
644,00:00:02.576,0.006627449765801438
645,00:00:02.58,0.003661369555629809
646,00:00:02.584,-0.0234988443553448
647,00:00:02.588,0.014936770719941705
648,00:00:02.592,0.007367599755525599
649,00:00:02.596,0.01853157486766579
650,00:00:02.6,-0.0002679013414308403
651,00:00:02.604,-0.02050323970615863
652,00:00:02.608,-0.023824081639759263
653,00:00:02.612,0.02367561601568014
654,00:00:02.616,0.00579206959810109
655,00:00:02.62,-0.020696856081485693
656,00:00:02.624,0.03294800687581303
657,00:00:02.628,-0.007143859198549756
658,00:00:02.632,-0.021696852287277548
659,00:00:02.636,0.01590097084408626
660,00:00:02.64,0.0065581062808632885
661,00:00:02.644,-0.04641882982105015
662,00:00:02.648,0.02437956491485237
663,00:00:02.652,0.011847418267279891
664,00:00:02.656,0.0231381468474865
665,00:00:02.66,-0.00943394750356671
666,00:00:02.664,-0.012289004400372502
667,00:00:02.668,-0.00578375044278801
668,00:00:02.672,0.0003579630283638787
669,00:00:02.676,0.011315659387037165
670,00:00:02.68,-0.00944848696235568
671,00:00:02.684,-0.03292621998116369
672,00:00:02.688,0.02518783044070005
673,00:00:02.692,0.028626665472984297
674,00:00:02.696,0.008487318176776192
675,00:00:02.7,-0.03412866650614885
676,00:00:02.704,-0.01664019655436275
677,00:00:02.708,0.02126433420926337
678,00:00:02.712,0.01524748420342804
679,00:00:02.716,0.006376231787726279
680,00:00:02.72,-0.02940477756783369
681,00:00:02.724,0.0035788468085229397
682,00:00:02.728,-0.00195554923266171
683,00:00:02.732,-0.01161072868853807
684,00:00:02.736,0.01762731932103633
685,00:00:02.74,0.009823663509450851
686,00:00:02.744,-0.002488173544406891
687,00:00:02.748,0.0025102850049733977
688,00:00:02.752,-0.022274054586887398
689,00:00:02.756,0.025389739777892828
690,00:00:02.76,-0.00016183685511350285
691,00:00:02.764,-0.0005034534260630261
692,00:00:02.768,-0.01114667241927236
693,00:00:02.772,-0.01707238052040333
694,00:00:02.776,-0.014813808724284137
695,00:00:02.78,0.01942896610125896
696,00:00:02.784,0.053115968592464924
697,00:00:02.788,-0.02558285766281192
698,00:00:02.792,-0.014759883400984063
699,00:00:02.796,0.0019154343754053775
700,00:00:02.8,0.002020928077399729
701,00:00:02.804,-0.01587123610079292
702,00:00:02.808,-0.003729454940184949
703,00:00:02.812,8.747016545384992e-05
704,00:00:02.816,0.01304564159363508
705,00:00:02.82,0.01120292861014605
706,00:00:02.824,0.005707623669877649
707,00:00:02.828,0.0074813282117247295
708,00:00:02.832,-0.015124883648240967
709,00:00:02.836,-0.03969429910648622
710,00:00:02.84,0.05958986189216371
711,00:00:02.844,-0.0480590742081404
712,00:00:02.848,0.003527998458594077
713,00:00:02.852,0.004364901687949942
714,00:00:02.856,0.02964534680359062
715,00:00:02.86,0.009880568715743731
716,00:00:02.864,-0.010652565397322181
717,00:00:02.868,-0.02154918061569337
718,00:00:02.872,-0.028997379587963182
719,00:00:02.876,0.04123133234679702
720,00:00:02.88,0.02899671485647556
721,00:00:02.884,-0.0260147568769753
722,00:00:02.888,-0.014568732585758002
723,00:00:02.892,-0.03317083255387841
724,00:00:02.896,0.013591859780717601
725,00:00:02.9,0.02491548715624957
726,00:00:02.904,0.012346601113677
727,00:00:02.908,0.00893496070057154
728,00:00:02.912,-0.0033386154100299176
729,00:00:02.916,0.018372762016952
730,00:00:02.92,-0.017276012105867294
731,00:00:02.924,-0.07716717850416895
732,00:00:02.928,-0.0221763970330357
733,00:00:02.932,0.07038370333611978
734,00:00:02.936,0.05633751570712777
735,00:00:02.94,0.0221708919852972
736,00:00:02.944,-0.03149235784076149
737,00:00:02.948,-0.0580755919218064
738,00:00:02.952,-0.03234872862230988
739,00:00:02.956,0.02144258050248027
740,00:00:02.96,0.02692031266633416
741,00:00:02.964,0.016669308766722596
742,00:00:02.968,0.02843469963409009
743,00:00:02.972,-0.010261899617034874
744,00:00:02.976,-0.0410596244037151
745,00:00:02.98,-0.03269800683483481
746,00:00:02.984,0.042538131121546016
747,00:00:02.988,0.03562680725008251
748,00:00:02.992,-0.03800050879362973
749,00:00:02.996,-0.018684999027755094
750,00:00:03,0.010397543665021658
751,00:00:03.004,0.017136000213213248
752,00:00:03.008,0.02916887262836099
753,00:00:03.012,-0.02141317795030768
754,00:00:03.016,-0.00043974630534650283
755,00:00:03.02,-0.08412469783797857
756,00:00:03.024,0.0362296011298895
757,00:00:03.028,0.0759443365968764
758,00:00:03.032,0.0023144111037253987
759,00:00:03.036,-0.04381278227083377
760,00:00:03.04,0.020840242039412323
761,00:00:03.044,-0.0280355364084244
762,00:00:03.048,-0.012077288614818845
763,00:00:03.052,0.003304767888039401
764,00:00:03.056,0.0271664457395673
765,00:00:03.06,-0.003940016031265321
766,00:00:03.064,-0.024868435226380874
767,00:00:03.068,0.01865282771177586
768,00:00:03.072,-0.005680633534211756
769,00:00:03.076,0.0056465906091034395
770,00:00:03.08,0.01914057228714228
771,00:00:03.084,-0.0009269106667488796
772,00:00:03.088,-0.005000223172828559
773,00:00:03.092,-0.012984478846192388
774,00:00:03.096,-0.024785259971395104
775,00:00:03.1,0.0025667858135420933
776,00:00:03.104,0.020647988189011823
777,00:00:03.108,0.0115814730525017
778,00:00:03.112,-0.0007305238395929302
779,00:00:03.116,0.01167284604161975
780,00:00:03.12,-0.0618111689109355
781,00:00:03.124,0.03453520033508542
782,00:00:03.128,0.05888846935704358
783,00:00:03.132,-0.05307784420438112
784,00:00:03.136,-0.01803665165789427
785,00:00:03.14,0.01930971024557944
786,00:00:03.144,-0.001420507440343511
787,00:00:03.148,-0.016536458395421443
788,00:00:03.152,-0.005470041185617423
789,00:00:03.156,0.019749191123992198
790,00:00:03.16,0.02117081673350182
791,00:00:03.164,0.00696575012989345
792,00:00:03.168,0.005979816429316991
793,00:00:03.172,-0.026055905036628257
794,00:00:03.176,-0.049269157461822
795,00:00:03.18,0.0089501314796507
796,00:00:03.184,0.046386427013203474
797,00:00:03.188,0.030959723168052757
798,00:00:03.192,-0.027207398845348504
799,00:00:03.196,-0.05065150326117872
800,00:00:03.2,0.016366343363188186
801,00:00:03.204,0.03709982009604568
802,00:00:03.208,-0.0068035295698791794
803,00:00:03.212,0.00778579525649541
804,00:00:03.216,-0.0442851595580578
805,00:00:03.22,-0.003169838339090368
806,00:00:03.224,0.04054291476495571
807,00:00:03.228,-0.0007599364034831298
808,00:00:03.232,-0.01683066063560542
809,00:00:03.236,0.03642764664255084
810,00:00:03.24,-0.029015001869993267
811,00:00:03.244,0.0015580158215016612
812,00:00:03.248,-0.012287864694371792
813,00:00:03.252,-0.022326774895191113
814,00:00:03.256,0.008922472130507262
815,00:00:03.26,0.03089618496596819
816,00:00:03.264,0.031003023032098977
817,00:00:03.268,-0.022916227695532164
818,00:00:03.272,-0.010466402396559701
819,00:00:03.276,-0.023392147384583905
820,00:00:03.28,-0.00498540373519066
821,00:00:03.284,0.017320641316473432
822,00:00:03.288,-0.0054756505414843785
823,00:00:03.292,0.032866170629859
824,00:00:03.296,-0.0038691544905303937
825,00:00:03.3,-0.025204451754689283
826,00:00:03.304,-0.020141449756920303
827,00:00:03.308,0.0227176900953055
828,00:00:03.312,0.01460084167774762
829,00:00:03.316,-0.005691345781087799
830,00:00:03.32,0.021317549049854348
831,00:00:03.324,-0.012146282941102995
832,00:00:03.328,-0.03938182489946486
833,00:00:03.332,0.01102495635859676
834,00:00:03.336,0.0018500844016671736
835,00:00:03.34,0.03522502933628852
836,00:00:03.344,-0.0212294887751341
837,00:00:03.348,-0.01703321258537473
838,00:00:03.352,0.014921037247404487
839,00:00:03.356,0.005398186855018129
840,00:00:03.36,-0.012425228487700229
841,00:00:03.364,0.038721304794307784
842,00:00:03.368,-0.01801093935500831
843,00:00:03.372,-0.037687281146645504
844,00:00:03.376,-0.00586554547771811
845,00:00:03.38,0.0319782742299139
846,00:00:03.384,0.01390261319465941
847,00:00:03.388,-0.0009849167836364398
848,00:00:03.392,-0.0039054518565535498
849,00:00:03.396,-0.028579782792803637
850,00:00:03.4,0.0270043953787535
851,00:00:03.404,0.00954154133796688
852,00:00:03.408,-0.047887603519484366
853,00:00:03.412,-0.005666495766490618
854,00:00:03.416,0.036909828893840244
855,00:00:03.42,-0.00042617041617632
856,00:00:03.424,0.05133867717813699
857,00:00:03.428,-0.02426235727034505
858,00:00:03.432,-0.04565850150538605
859,00:00:03.436,0.0017638688441365712
860,00:00:03.44,0.010067625902593153
861,00:00:03.444,-0.0027016684762202377
862,00:00:03.448,-0.010456691728904791
863,00:00:03.452,0.01403508745715954
864,00:00:03.456,0.015507864300161621
865,00:00:03.46,-0.008136710152029998
866,00:00:03.464,0.00864480063319207
867,00:00:03.468,-0.01099041383713481
868,00:00:03.472,0.007127126911655103
869,00:00:03.476,0.0011610439978540395
870,00:00:03.48,-0.018410277552902712
871,00:00:03.484,-0.020371461228933182
872,00:00:03.488,0.054422329179942566
873,00:00:03.492,-0.02331880615383848
874,00:00:03.496,-0.012059411499649321
875,00:00:03.5,-0.00914175296202302
876,00:00:03.504,0.02789171255426486
877,00:00:03.508,-0.0008954731747508604
878,00:00:03.512,0.026337255869293582
879,00:00:03.516,-0.021011678501963612
880,00:00:03.52,-0.02326895762234927
881,00:00:03.524,-0.011073348112404352
882,00:00:03.528,0.008568478049710391
883,00:00:03.532,0.03288553003221751
884,00:00:03.536,-0.005913399858400259
885,00:00:03.54,-0.04998815851286049
886,00:00:03.544,0.026508476410526824
887,00:00:03.548,0.01909057749435301
888,00:00:03.552,-0.0003090053796768119
889,00:00:03.556,0.024742531590163687
890,00:00:03.56,-0.05146972462534903
891,00:00:03.564,-0.004300247645005653
892,00:00:03.568,0.0223566349595785
893,00:00:03.572,0.0164126113522798
894,00:00:03.576,-0.002067960071144643
895,00:00:03.58,-0.020557084120810004
896,00:00:03.584,0.0027343544643372306
897,00:00:03.588,-0.024665674660354853
898,00:00:03.592,0.03864282323047519
899,00:00:03.596,0.01941475720377641
900,00:00:03.6,-0.02407704293727879
901,00:00:03.604,-0.03498719446361058
902,00:00:03.608,0.0242951279506087
903,00:00:03.612,0.009778348467079912
904,00:00:03.616,-0.0011784648522734694
905,00:00:03.62,-0.01756476145237679
906,00:00:03.624,0.03914341982454064
907,00:00:03.628,-0.028755242448823964
908,00:00:03.632,0.004872078541666262
909,00:00:03.636,0.00247115700040012
910,00:00:03.64,0.0078747152001597
911,00:00:03.644,-0.016110457276226904
912,00:00:03.648,-0.03583324293140315
913,00:00:03.652,-0.017134742112830247
914,00:00:03.656,0.05877162283286451
915,00:00:03.66,0.07621137984097
916,00:00:03.664,-0.010640803724527359
917,00:00:03.668,-0.06825286429375421
918,00:00:03.672,-0.047561200335621875
919,00:00:03.676,0.018224788596853628
920,00:00:03.68,0.0023499995004385398
921,00:00:03.684,0.03227991005405786
922,00:00:03.688,0.01589155010879037
923,00:00:03.692,0.011978195165283988
924,00:00:03.696,-0.03583117062225935
925,00:00:03.7,-0.004242918919771882
926,00:00:03.704,0.018914616201072938
927,00:00:03.708,-0.02249370701611042
928,00:00:03.712,0.0055927524808794225
929,00:00:03.716,0.00389384431764483
930,00:00:03.72,0.01079728873446586
931,00:00:03.724,-0.0047016721218824595
932,00:00:03.728,0.006005548173561699
933,00:00:03.732,-0.05205872654914854
934,00:00:03.736,0.01420313632115722
935,00:00:03.74,0.05141311977058643
936,00:00:03.744,-0.0018082214519381601
937,00:00:03.748,0.010906647774390885
938,00:00:03.752,-0.03353277454152705
939,00:00:03.756,-0.013929819688200923
940,00:00:03.76,0.03161942306905981
941,00:00:03.764,-0.0368862142786383
942,00:00:03.768,0.005027232691645692
943,00:00:03.772,0.017626093700528152
944,00:00:03.776,-0.016557700932025993
945,00:00:03.78,0.010911247460171535
946,00:00:03.784,0.00992959807626903
947,00:00:03.788,0.009876494295895107
948,00:00:03.792,-0.00809730403125291
949,00:00:03.796,-0.00768654956482348
950,00:00:03.8,0.001437077065929741
951,00:00:03.804,-0.0009144187206402473
952,00:00:03.808,-0.005316325929015871
953,00:00:03.812,0.005385505035519586
954,00:00:03.816,-0.04027915978804225
955,00:00:03.82,0.02600515075027942
956,00:00:03.824,0.04933709325268865
957,00:00:03.828,-0.02057484863325955
958,00:00:03.832,-0.013952218112535799
959,00:00:03.836,-0.015703868586570028
960,00:00:03.84,-0.00415670033544298
961,00:00:03.844,0.010125353932380711
962,00:00:03.848,0.0428557405248284
963,00:00:03.852,-0.017154699191451003
964,00:00:03.856,-0.03502433467656369
965,00:00:03.86,-0.012101219268515699
966,00:00:03.864,0.0351839065551758
967,00:00:03.868,0.01524261431768539
968,00:00:03.872,-0.013525412417948246
969,00:00:03.876,-0.02250466332770889
970,00:00:03.88,-0.009742579888552452
971,00:00:03.884,0.02135681547224527
972,00:00:03.888,0.02718140569049865
973,00:00:03.892,-0.002846436458639849
974,00:00:03.896,-0.025444935075938698
975,00:00:03.9,-0.0035138530656695097
976,00:00:03.904,-0.007655673427507283
977,00:00:03.908,0.010695426724851121
978,00:00:03.912,0.005473095690831591
979,00:00:03.916,-0.0036361191887408113
980,00:00:03.92,-0.012303406372666331
981,00:00:03.924,0.040414766059257076
982,00:00:03.928,-0.006060658954083899
983,00:00:03.932,-0.02334553960827173
984,00:00:03.936,0.029796282760798876
985,00:00:03.94,-0.051336505217477665
986,00:00:03.944,0.0010128474677912917
987,00:00:03.948,0.004694063682109069
988,00:00:03.952,0.03008347423747182
989,00:00:03.956,0.02109008189290766
990,00:00:03.96,-0.02734906855039303
991,00:00:03.964,-0.0075955274514854215
992,00:00:03.968,0.00376141397282485
993,00:00:03.972,0.007896934635937242
994,00:00:03.976,-0.009699620306491909
995,00:00:03.98,-0.007636268623173258
996,00:00:03.984,-0.017003262590151256
997,00:00:03.988,0.02457601018249984
998,00:00:03.992,0.0022319924319162947
999,00:00:03.996,0.00928317382931709
1000,00:00:04,0.0114636523649096
1001,00:00:04.004,-0.022090455517172848
1002,00:00:04.008,-0.013726795092225106
1003,00:00:04.012,0.0161636332049966
1004,00:00:04.016,0.004309063777327522
1005,00:00:04.02,0.01689236797392368
1006,00:00:04.024,-0.010774000547826276
1007,00:00:04.028,-0.045711048413068035
1008,00:00:04.032,0.009435477666556842
1009,00:00:04.036,0.03266551950946449
1010,00:00:04.04,0.013110553845763229
1011,00:00:04.044,-0.017829560674726963
1012,00:00:04.048,0.007238906575366862
1013,00:00:04.052,-0.03563536237925287
1014,00:00:04.056,0.008011551399249573
1015,00:00:04.06,0.01532726653385904
1016,00:00:04.064,0.01894167787395418
1017,00:00:04.068,-0.0013020341211813535
1018,00:00:04.072,-0.005858093500137298
1019,00:00:04.076,-0.00510231789667159
1020,00:00:04.08,-0.0156299080699682
1021,00:00:04.084,-0.041561464546248275
1022,00:00:04.088,0.04006922151893379
1023,00:00:04.092,0.04950566723709926
1024,00:00:04.096,-0.011156080639921134
1025,00:00:04.1,-0.019084445666521788
1026,00:00:04.104,-0.02452631946653129
1027,00:00:04.108,0.00910178222693502
1028,00:00:04.112,0.01921617958578284
1029,00:00:04.116,-0.01483633043244477
1030,00:00:04.12,-0.0056127876450773285
1031,00:00:04.124,0.019286215305328376
1032,00:00:04.128,-0.0016596394998487172
1033,00:00:04.132,-0.03720712754875419
1034,00:00:04.136,0.00909617030993104
1035,00:00:04.14,0.03350319573655725
1036,00:00:04.144,0.04789014300331472
1037,00:00:04.148,-0.06575901154428719
1038,00:00:04.152,-0.04220386873930693
1039,00:00:04.156,0.026207662653177942
1040,00:00:04.16,0.0404429552145302
1041,00:00:04.164,-0.008470571716316053
1042,00:00:04.168,-0.02218359918333587
1043,00:00:04.172,0.027414269745349898
1044,00:00:04.176,-0.010426456574350616
1045,00:00:04.18,-0.015438344329595496
1046,00:00:04.184,0.0036475269007496544
1047,00:00:04.188,0.0013041130732744897
1048,00:00:04.192,-0.006450122222304329
1049,00:00:04.196,0.014181969687342618
1050,00:00:04.2,0.0186365200206638
1051,00:00:04.204,-0.011845773085951819
1052,00:00:04.208,-0.03834028542041779
1053,00:00:04.212,0.0016629514284431865
1054,00:00:04.216,0.0332373837009073
1055,00:00:04.22,0.019975128991063643
1056,00:00:04.224,-0.02017668413463981
1057,00:00:04.228,-0.004589509451761901
1058,00:00:04.232,0.0016485811211167933
1059,00:00:04.236,-0.008663325104862358
1060,00:00:04.24,-0.005110143683850803
1061,00:00:04.244,-0.005072017200291205
1062,00:00:04.248,-0.0017459860537201444
1063,00:00:04.252,0.0195137541741133
1064,00:00:04.256,0.01913416804745801
1065,00:00:04.26,-0.0140503038419411
1066,00:00:04.264,-0.00908353342674675
1067,00:00:04.268,-0.0010850627731997641
1068,00:00:04.272,0.030055085720959985
1069,00:00:04.276,-0.0351041252724826
1070,00:00:04.28,-0.00859555730130524
1071,00:00:04.284,-0.006097491830587401
1072,00:00:04.288,0.019659490397316376
1073,00:00:04.292,0.03279146947897972
1074,00:00:04.296,-0.03079958073794837
1075,00:00:04.3,-0.040874318103305954
1076,00:00:04.304,0.0292805444914848
1077,00:00:04.308,0.03626651014201338
1078,00:00:04.312,-0.0034147817641496476
1079,00:00:04.316,-0.01436063623987139
1080,00:00:04.32,0.001393728598486629
1081,00:00:04.324,-0.003052699845284209
1082,00:00:04.328,-0.03206144164869322
1083,00:00:04.332,0.007278626784682302
1084,00:00:04.336,0.02156901150010529
1085,00:00:04.34,0.022698248736560317
1086,00:00:04.344,0.006307547446340277
1087,00:00:04.348,-0.0420278823003173
1088,00:00:04.352,-0.045423019677400506
1089,00:00:04.356,0.03612714074552058
1090,00:00:04.36,0.05752229131758215
1091,00:00:04.364,-0.003625967074185662
1092,00:00:04.368,-0.023076433222740906
1093,00:00:04.372,-0.006568241398781569
1094,00:00:04.376,-0.02703134156763555
1095,00:00:04.38,-0.006881754379719539
1096,00:00:04.384,0.01490683830343181
1097,00:00:04.388,0.031227436847984742
1098,00:00:04.392,0.022231192677281814
1099,00:00:04.396,-0.0222396636381746
1100,00:00:04.4,-0.03496913984417916
1101,00:00:04.404,-0.013235827907919853
1102,00:00:04.408,0.023192172404378677
1103,00:00:04.412,0.034996894653886626
1104,00:00:04.416,-0.03490087251702788
1105,00:00:04.42,0.01056441187392919
1106,00:00:04.424,0.0272178342565894
1107,00:00:04.428,-0.02260590763762597
1108,00:00:04.432,-0.029603179202240437
1109,00:00:04.436,0.0029772107372991784
1110,00:00:04.44,0.020667363191023507
1111,00:00:04.444,0.010438252240419381
1112,00:00:04.448,-0.004228196747135385
1113,00:00:04.452,0.008650691714137841
1114,00:00:04.456,-0.02924434165470305
1115,00:00:04.46,0.004587467759847601
1116,00:00:04.464,0.02076545869931579
1117,00:00:04.468,-0.0023890235897851587
1118,00:00:04.472,-0.01701683551073077
1119,00:00:04.476,-0.012737708166241701
1120,00:00:04.48,0.05046455282717946
1121,00:00:04.484,-0.05223099933937196
1122,00:00:04.488,0.008220802061259788
1123,00:00:04.492,0.017199077643454058
1124,00:00:04.496,0.00578919867984953
1125,00:00:04.5,0.0017947671003639702
1126,00:00:04.504,0.021994896233081818
1127,00:00:04.508,-0.026562947314232623
1128,00:00:04.512,-0.02785436389967795
1129,00:00:04.516,0.012991426454391278
1130,00:00:04.52,0.0023386301472783392
1131,00:00:04.524,-6.949435919529484e-05
1132,00:00:04.528,-0.0030713854357600203
1133,00:00:04.532,-0.00604430492967368
1134,00:00:04.536,0.03235320583917205
1135,00:00:04.54,0.0044339168816805025
1136,00:00:04.544,0.00536749558523293
1137,00:00:04.548,-0.01465259213000533
1138,00:00:04.552,-0.0178575115278363
1139,00:00:04.556,-0.03503734339028591
1140,00:00:04.56,-0.003309241496026509
1141,00:00:04.564,0.051937021198682536
1142,00:00:04.568,0.0438279388472438
1143,00:00:04.572,-0.0246132717002183
1144,00:00:04.576,-0.04647463257424537
1145,00:00:04.58,0.0024969584774226002
1146,00:00:04.584,0.011711091268807618
1147,00:00:04.588,0.009101136587560201
1148,00:00:04.592,0.00514693465083832
1149,00:00:04.596,0.006766597274690846
1150,00:00:04.6,-0.00041881576180450436
1151,00:00:04.604,-0.04370428249239927
1152,00:00:04.608,0.011350319720804698
1153,00:00:04.612,0.01326659438200296
1154,00:00:04.616,-0.0008853222243487592
1155,00:00:04.62,0.013297602068632848
1156,00:00:04.624,0.006618317216634827
1157,00:00:04.628,-0.009222522843629125
1158,00:00:04.632,0.0126527566462755
1159,00:00:04.636,-0.011790693737566502
1160,00:00:04.64,-0.03270966163836423
1161,00:00:04.644,-0.0030352231115102594
1162,00:00:04.648,0.04105943767353897
1163,00:00:04.652,0.01376093691214919
1164,00:00:04.656,-0.01436580024892464
1165,00:00:04.66,-0.02432108530774717
1166,00:00:04.664,0.0027577101718634367
1167,00:00:04.668,-0.004124920582398778
1168,00:00:04.672,0.012924709706567231
1169,00:00:04.676,0.024902032688260124
1170,00:00:04.68,-0.017901585553772748
1171,00:00:04.684,-0.017907467670738704
1172,00:00:04.688,0.005768611328676341
1173,00:00:04.692,0.023360520397545742
1174,00:00:04.696,-0.022170140407979492
1175,00:00:04.7,0.005616141483187648
1176,00:00:04.704,0.009657698002911271
1177,00:00:04.708,-0.0296659054001793
1178,00:00:04.712,0.022168870083987706
1179,00:00:04.716,-0.013529363553971059
1180,00:00:04.72,0.02529214974492782
1181,00:00:04.724,0.017023319378495244
1182,00:00:04.728,-0.03144470788538461
1183,00:00:04.732,-0.05135976376186596
1184,00:00:04.736,0.04157820902764799
1185,00:00:04.74,0.02214289782568811
1186,00:00:04.744,0.005386274235206657
1187,00:00:04.748,0.011622069345321513
1188,00:00:04.752,-0.0137031506747008
1189,00:00:04.756,-0.023266824893653407
1190,00:00:04.76,-0.011961297423113151
1191,00:00:04.764,-0.0001285932958126068
1192,00:00:04.768,0.00744206447416218
1193,00:00:04.772,0.013337482232600499
1194,00:00:04.776,0.00470929965376853
1195,00:00:04.78,0.00752786546945571
1196,00:00:04.784,-0.00455547636374834
1197,00:00:04.788,-0.012964553199708455
1198,00:00:04.792,0.001634121872484677
1199,00:00:04.796,0.0205938173457981
1200,00:00:04.8,-0.0139609273755923
1201,00:00:04.804,-0.013722390867769708
1202,00:00:04.808,0.001047725469106803
1203,00:00:04.812,-0.00282177794724707
1204,00:00:04.816,0.04358925647102296
1205,00:00:04.82,-0.05442005791701379
1206,00:00:04.824,-0.007281488273292797
1207,00:00:04.828,0.04091264028102161
1208,00:00:04.832,-0.0009228247654392216
1209,00:00:04.836,0.03424245398491619
1210,00:00:04.84,-0.04049235954880707
1211,00:00:04.844,-0.02757427655160428
1212,00:00:04.848,0.01179694617167111
1213,00:00:04.852,0.026304123457521242
1214,00:00:04.856,-0.040135429240763194
1215,00:00:04.86,0.0005210877279750942
1216,00:00:04.864,0.04627328924834725
1217,00:00:04.868,-0.01369337027426806
1218,00:00:04.872,0.010737323202192797
1219,00:00:04.876,-0.012133884592913091
1220,00:00:04.88,0.0008350178723049509
1221,00:00:04.884,-0.015555792488157711
1222,00:00:04.888,0.007584231905639161
1223,00:00:04.892,0.01945195067673921
1224,00:00:04.896,-0.0611327625811101
1225,00:00:04.9,0.021297748200595348
1226,00:00:04.904,0.02928790613077581
1227,00:00:04.908,0.02849498193245383
1228,00:00:04.912,-0.05389005318284038
1229,00:00:04.916,0.008773702196776801
1230,00:00:04.92,0.029800120741128956
1231,00:00:04.924,0.005192506127059449
1232,00:00:04.928,-0.01783327851444484
1233,00:00:04.932,-0.01562848244793715
1234,00:00:04.936,-0.01563574367901307
1235,00:00:04.94,-0.0033506308682262897
1236,00:00:04.944,0.018281566910445704
1237,00:00:04.948,-0.008072650991380277
1238,00:00:04.952,0.046792213339358554
1239,00:00:04.956,0.023749258369207306
1240,00:00:04.96,-0.04833284998312588
1241,00:00:04.964,-0.0116605972871185
1242,00:00:04.968,-0.04076548106968402
1243,00:00:04.972,0.01327131758444008
1244,00:00:04.976,0.028930448926985312
1245,00:00:04.98,0.04182103741914035
1246,00:00:04.984,-0.02244216529652481
1247,00:00:04.988,0.001681952911894765
1248,00:00:04.992,-0.03009716235101224
1249,00:00:04.996,-0.011011489666998362
1250,00:00:05,0.02261741459369657
1251,00:00:05.004,0.028309038025327048
1252,00:00:05.008,-0.01323031447827815
1253,00:00:05.012,-0.02272928226739166
1254,00:00:05.016,-0.032080215867608744
1255,00:00:05.02,0.05132836801931257
1256,00:00:05.024,0.009106281213462342
1257,00:00:05.028,-0.02533813798800115
1258,00:00:05.032,0.0006207426195032931
1259,00:00:05.036,0.008865291078109292
1260,00:00:05.04,0.03127990965731444
1261,00:00:05.044,-0.03146331850439309
1262,00:00:05.048,-0.036325741559267086
1263,00:00:05.052,0.00477071152999999
1264,00:00:05.056,0.03963629249483349
1265,00:00:05.06,0.023215197623358143
1266,00:00:05.064,-0.0356134911999106
1267,00:00:05.068,-0.027201268996577724
1268,00:00:05.072,0.022818645229563103
1269,00:00:05.076,0.024402493378147497
1270,00:00:05.08,-0.02108954265713688
1271,00:00:05.084,0.02255076356232171
1272,00:00:05.088,-0.006816550157964191
1273,00:00:05.092,-0.021241029724478798
1274,00:00:05.096,-0.0146852461621165
1275,00:00:05.1,-0.009641702985391023
1276,00:00:05.104,0.04139355709776279
1277,00:00:05.108,0.0045964794699102605
1278,00:00:05.112,0.006446689134463682
1279,00:00:05.116,-0.017648817971348794
1280,00:00:05.12,-0.0062880609184503625
1281,00:00:05.124,0.007457556203007726
1282,00:00:05.128,-0.0106343505904078
1283,00:00:05.132,0.0034010098315775004
1284,00:00:05.136,-0.004148127511143702
1285,00:00:05.14,0.004997227108105949
1286,00:00:05.144,0.007407222874462609
1287,00:00:05.148,0.006427148822694989
1288,00:00:05.152,-0.012627159478142861
1289,00:00:05.156,-0.00558003224432468
1290,00:00:05.16,-0.006953699514269818
1291,00:00:05.164,0.024746797047555495
1292,00:00:05.168,-0.0035540275275707037
1293,00:00:05.172,0.0005574189126491894
1294,00:00:05.176,-0.003170576877892099
1295,00:00:05.18,-0.019788066914770763
1296,00:00:05.184,-0.008880753070116123
1297,00:00:05.188,0.0447608213871718
1298,00:00:05.192,0.0037202807143330227
1299,00:00:05.196,-0.031419252976775155
1300,00:00:05.2,0.0044209025800228206
1301,00:00:05.204,-0.006636473000980939
1302,00:00:05.208,-0.0032186647877097112
1303,00:00:05.212,0.01322626508772374
1304,00:00:05.216,0.01686701737344271
1305,00:00:05.22,-0.02881818939931695
1306,00:00:05.224,0.00785888754762709
1307,00:00:05.228,-0.008627717470517363
1308,00:00:05.232,0.02611427289957651
1309,00:00:05.236,0.01497748424299064
1310,00:00:05.24,-0.04596043119090615
1311,00:00:05.244,-0.008827156882034613
1312,00:00:05.248,0.03125661943340675
1313,00:00:05.252,0.02159231062978502
1314,00:00:05.256,-0.024571935791755095
1315,00:00:05.26,-0.00013346376363188896
1316,00:00:05.264,0.012094491161405999
1317,00:00:05.268,-0.04271641373634337
1318,00:00:05.272,-0.01738578733056786
1319,00:00:05.276,0.03801184974145149
1320,00:00:05.28,0.033352938015013905
1321,00:00:05.284,0.002786581258988016
1322,00:00:05.288,-0.01538646116387099
1323,00:00:05.292,-0.01555858878418808
1324,00:00:05.296,-0.0057431776076554975
1325,00:00:05.3,0.0003338078968226901
1326,00:00:05.304,0.011492811143398306
1327,00:00:05.308,-0.002351492410525711
1328,00:00:05.312,-0.008360389620065642
1329,00:00:05.316,0.02106340322643523
1330,00:00:05.32,-0.03199182590469719
1331,00:00:05.324,-0.027526830788701766
1332,00:00:05.328,0.0595578346401453
1333,00:00:05.332,0.02657171664759521
1334,00:00:05.336,-0.026921634351310748
1335,00:00:05.34,-0.01442054111976177
1336,00:00:05.344,0.00600793492048978
1337,00:00:05.348,-0.0023036161437630666
1338,00:00:05.352,-0.015219075488857942
1339,00:00:05.356,-0.01825637556612488
1340,00:00:05.36,0.02540447702631355
1341,00:00:05.364,-0.0006700144149362815
1342,00:00:05.368,0.008058219682425271
1343,00:00:05.372,0.0005821152590215189
1344,00:00:05.376,0.026072741253301487
1345,00:00:05.38,-0.0471363349352032
1346,00:00:05.384,0.05409499956294892
1347,00:00:05.388,-0.04152583749964832
1348,00:00:05.392,-0.0008231131359934876
1349,00:00:05.396,-0.003293904243037101
1350,00:00:05.4,0.00912431371398274
1351,00:00:05.404,0.004671621136367311
1352,00:00:05.408,-0.02423506113700567
1353,00:00:05.412,0.005371926934458329
1354,00:00:05.416,0.01657778886146843
1355,00:00:05.42,0.01278939616167922
1356,00:00:05.424,-0.0031678386731073286
1357,00:00:05.428,0.0009014547104015599
1358,00:00:05.432,0.0072018568753265295
1359,00:00:05.436,-0.028434842082788247
1360,00:00:05.44,-0.016417306847870322
1361,00:00:05.444,-0.0006512897089123795
1362,00:00:05.448,0.02023662207648155
1363,00:00:05.452,0.03355089481920003
1364,00:00:05.456,-0.006333610508590909
1365,00:00:05.46,-0.01940776919946072
1366,00:00:05.464,-0.014881733717629653
1367,00:00:05.468,-0.006188174185808747
1368,00:00:05.472,0.006609078474866696
1369,00:00:05.476,0.024149979886715328
1370,00:00:05.48,0.01158037688583138
1371,00:00:05.484,-0.00646871537901461
1372,00:00:05.488,-0.03315967321395883
1373,00:00:05.492,-0.010689438204281077
1374,00:00:05.496,0.022211626172065773
1375,00:00:05.5,-0.001423409441486001
1376,00:00:05.504,0.0289817415177821
1377,00:00:05.508,0.00604645349085328
1378,00:00:05.512,-0.02427341230213643
1379,00:00:05.516,-0.02553921792423354
1380,00:00:05.52,-0.008769111824221907
1381,00:00:05.524,0.023816933622583768
1382,00:00:05.528,0.019089824869297473
1383,00:00:05.532,0.010421554034110195
1384,00:00:05.536,-0.01893122284673159
1385,00:00:05.54,-0.012960000894963741
1386,00:00:05.544,0.0035816342569887586
1387,00:00:05.548,0.01502128504216671
1388,00:00:05.552,-0.01253554737195373
1389,00:00:05.556,-0.030152725754305706
1390,00:00:05.56,0.020347662735730434
1391,00:00:05.564,0.031458304816624115
1392,00:00:05.568,0.0050209903747600055
1393,00:00:05.572,-0.02983891032636172
1394,00:00:05.576,0.007611442415509378
1395,00:00:05.58,0.008060889784246742
1396,00:00:05.584,-0.0007572847534902151
1397,00:00:05.588,-0.035573863424360766
1398,00:00:05.592,-0.024654089473187903
1399,00:00:05.596,0.07148596690967679
1400,00:00:05.6,0.002193521941080699
1401,00:00:05.604,-0.011000458383932729
1402,00:00:05.608,0.0035457536578178492
1403,00:00:05.612,-0.015461693052202451
1404,00:00:05.616,-0.015961518540279905
1405,00:00:05.62,0.0041560779791325105
1406,00:00:05.624,0.00873999332543462
1407,00:00:05.628,0.012250108644366257
1408,00:00:05.632,-0.00018088822253050849
1409,00:00:05.636,-0.04155072057619694
1410,00:00:05.64,0.0357470742892474
1411,00:00:05.644,0.00684397900477049
1412,00:00:05.648,0.0008005723357200605
1413,00:00:05.652,0.012097215279936792
1414,00:00:05.656,-0.03001708327792581
1415,00:00:05.66,-0.027996086049824995
1416,00:00:05.664,0.03220728063024578
1417,00:00:05.668,0.011501069180667407
1418,00:00:05.672,0.010636411607265597
1419,00:00:05.676,0.004582520108669989
1420,00:00:05.68,-0.049036739394068794
1421,00:00:05.684,-0.021123332902789102
1422,00:00:05.688,0.059610079042613506
1423,00:00:05.692,0.01617312524467711
1424,00:00:05.696,-0.00785095395985989
1425,00:00:05.7,-0.02550735883414747
1426,00:00:05.704,-0.03298436966724698
1427,00:00:05.708,0.02718754261150021
1428,00:00:05.712,0.04147074912907551
1429,00:00:05.716,-0.022862874495331205
1430,00:00:05.72,-0.0228683294262737
1431,00:00:05.724,-0.00492747512180363
1432,00:00:05.728,0.019054321746807577
1433,00:00:05.732,-0.00621618516743184
1434,00:00:05.736,0.05304190330207349
1435,00:00:05.74,-0.044935490703210276
1436,00:00:05.744,-0.037275275215506526
1437,00:00:05.748,0.007212117314338698
1438,00:00:05.752,0.0371308512985707
1439,00:00:05.756,0.031223832396790416
1440,00:00:05.76,-0.03746823128312826
1441,00:00:05.764,-0.008592717902502043
1442,00:00:05.768,-0.003779546939767896
1443,00:00:05.772,0.005792418960481887
1444,00:00:05.776,0.0087337156292051
1445,00:00:05.78,-0.025740771321579786
1446,00:00:05.784,0.019248214201070347
1447,00:00:05.788,0.0161039326339961
1448,00:00:05.792,-0.021678764664102394
1449,00:00:05.796,0.012884209398180281
1450,00:00:05.8,0.01618771476205437
1451,00:00:05.804,-0.0324876131489873
1452,00:00:05.808,-0.00454632751643658
1453,00:00:05.812,0.03035516105592254
1454,00:00:05.816,-0.015120337251573801
1455,00:00:05.82,-0.019734404049813758
1456,00:00:05.824,0.013850103830918673
1457,00:00:05.828,-0.0009296387434005286
1458,00:00:05.832,0.011031377827748648
1459,00:00:05.836,-0.009998608613386788
1460,00:00:05.84,0.052136168407741865
1461,00:00:05.844,-0.017567368689924517
1462,00:00:05.848,-0.05825330084189774
1463,00:00:05.852,-0.001269007101654989
1464,00:00:05.856,0.011427626945078505
1465,00:00:05.86,0.019843145273625844
1466,00:00:05.864,0.0013679098337889013
1467,00:00:05.868,0.0023488770239055504
1468,00:00:05.872,0.0142375258728862
1469,00:00:05.876,-0.0016140639781951909
1470,00:00:05.88,-0.019567864714190412
1471,00:00:05.884,-0.0013698894763365397
1472,00:00:05.888,-0.00934379547834396
1473,00:00:05.892,-0.0026539622340351395
1474,00:00:05.896,0.025732440641149906
1475,00:00:05.9,-0.009729957208037397
1476,00:00:05.904,0.010709031950682391
1477,00:00:05.908,-0.018539248034358018
1478,00:00:05.912,0.010178619588259602
1479,00:00:05.916,0.010685301618650538
1480,00:00:05.92,-0.043911843444220694
1481,00:00:05.924,0.01494448189623654
1482,00:00:05.928,0.07076575560495255
1483,00:00:05.932,-0.047032105736434446
1484,00:00:05.936,-0.05974403629079455
1485,00:00:05.94,0.05500978592317554
1486,00:00:05.944,0.006385233253240582
1487,00:00:05.948,0.00198447820730507
1488,00:00:05.952,-0.019059641170315507
1489,00:00:05.956,-0.00342872552573684
1490,00:00:05.96,0.014261857839301229
1491,00:00:05.964,0.022430332668591284
1492,00:00:05.968,-0.02200969145633283
1493,00:00:05.972,-0.02081558376085013
1494,00:00:05.976,-0.0030352642061188748
1495,00:00:05.98,0.01609708019532263
1496,00:00:05.984,0.021023231558501748
1497,00:00:05.988,-0.006975191150559109
1498,00:00:05.992,-0.008876850246451773
1499,00:00:05.996,-0.0034614240867085807
1500,00:00:06,-0.0031186910346150502
1501,00:00:06.004,0.01264180452562871
1502,00:00:06.008,0.0010390060488134605
1503,00:00:06.012,-0.041821611637715264
1504,00:00:06.016,0.0036767409183085104
1505,00:00:06.02,0.04426632332615547
1506,00:00:06.024,0.02613406907767057
1507,00:00:06.028,-0.00923335691913961
1508,00:00:06.032,-0.055728911422192995
1509,00:00:06.036,0.01088045770302412
1510,00:00:06.04,-0.012360286898911041
1511,00:00:06.044,0.0243452196009457
1512,00:00:06.048,0.01998461573384705
1513,00:00:06.052,-0.0025515395682305002
1514,00:00:06.056,-0.01720609702169893
1515,00:00:06.06,-0.007735625782515847
1516,00:00:06.064,-0.0053899289341643505
1517,00:00:06.068,0.029519731644541032
1518,00:00:06.072,0.00018325448036194932
1519,00:00:06.076,-0.021904048742726404
1520,00:00:06.08,-0.02347427047789094
1521,00:00:06.084,0.01134777138940991
1522,00:00:06.088,0.04724078252911572
1523,00:00:06.092,-0.006040208041667871
1524,00:00:06.096,0.0018484662286937193
1525,00:00:06.1,-0.024348124396055902
1526,00:00:06.104,-0.051771177444607
1527,00:00:06.108,0.026144877308979683
1528,00:00:06.112,0.03620200138539077
1529,00:00:06.116,-0.0009200256317854032
1530,00:00:06.12,-0.02675638534128662
1531,00:00:06.124,0.07348318584263332
1532,00:00:06.128,-0.02156596397981043
1533,00:00:06.132,-0.055025422014296
1534,00:00:06.136,-0.01197442942066118
1535,00:00:06.14,0.006674906588159499
1536,00:00:06.144,0.018346485681831837
1537,00:00:06.148,0.01278471644036472
1538,00:00:06.152,-0.0028784108581021463
1539,00:00:06.156,0.02554883901029825
1540,00:00:06.16,-0.0012020324356853997
1541,00:00:06.164,-0.045150291640311535
1542,00:00:06.168,-0.0221593419555575
1543,00:00:06.172,0.045915951021015665
1544,00:00:06.176,0.006287557538598779
1545,00:00:06.18,-0.004201240837574002
1546,00:00:06.184,-0.008326835464686138
1547,00:00:06.188,-6.657245103269989e-05
1548,00:00:06.192,-0.005521527171367856
1549,00:00:06.196,0.0056838935124687955
1550,00:00:06.2,0.033235626295209
1551,00:00:06.204,-0.0504893213510514
1552,00:00:06.208,-0.03906535729765887
1553,00:00:06.212,0.05483190016821027
1554,00:00:06.216,0.03452127170749005
1555,00:00:06.22,0.01223171874880791
1556,00:00:06.224,-0.029918385669588998
1557,00:00:06.228,-0.03703721752390265
1558,00:00:06.232,-0.0012083337642252098
1559,00:00:06.236,0.009582747879903767
1560,00:00:06.24,-0.0011092025088145809
1561,00:00:06.244,0.01307110663037751
1562,00:00:06.248,0.03855052264407273
1563,00:00:06.252,-0.01988952420651913
1564,00:00:06.256,-0.0204145722091198
1565,00:00:06.26,-0.039016002672724474
1566,00:00:06.264,0.03252623765729368
1567,00:00:06.268,0.0421003932133317
1568,00:00:06.272,-0.007734941318631219
1569,00:00:06.276,-0.03581149829551583
1570,00:00:06.28,-0.005542672588489991
1571,00:00:06.284,-0.019265815615653978
1572,00:00:06.288,0.055834728293120806
1573,00:00:06.292,0.02776294341310864
1574,00:00:06.296,-0.03747704019770019
1575,00:00:06.3,-0.04431286966428157
1576,00:00:06.304,0.02791315619833771
1577,00:00:06.308,-0.018734198063612005
1578,00:00:06.312,0.027858126908540802
1579,00:00:06.316,0.01753113209269939
1580,00:00:06.32,-0.01089844945818185
1581,00:00:06.324,0.0007880269549787079
1582,00:00:06.328,-0.013931677793152589
1583,00:00:06.332,0.01106964796781541
1584,00:00:06.336,-0.007735962775768702
1585,00:00:06.34,-0.034784022020176136
1586,00:00:06.344,0.026144741568714353
1587,00:00:06.348,0.031229247921146463
1588,00:00:06.352,-0.02283559157513083
1589,00:00:06.356,0.02038062200881545
1590,00:00:06.36,-0.030127611011266656
1591,00:00:06.364,0.00331703835399822
1592,00:00:06.368,0.008584533818066118
1593,00:00:06.372,-0.00025108223780986004
1594,00:00:06.376,0.0026921002427116106
1595,00:00:06.38,-0.00434922147542239
1596,00:00:06.384,0.00763951032422483
1597,00:00:06.388,-0.0053381618636194565
1598,00:00:06.392,-0.018383608432486653
1599,00:00:06.396,0.018164845416322378
1600,00:00:06.4,-0.004691838286817102
1601,00:00:06.404,-0.0276867151260376
1602,00:00:06.408,0.06819914537481962
1603,00:00:06.412,0.004035886260680813
1604,00:00:06.416,-0.06780997570604086
1605,00:00:06.42,0.02484059031121434
1606,00:00:06.424,-0.014792300527915359
1607,00:00:06.428,0.003209709189832259
1608,00:00:06.432,0.008214258588850502
1609,00:00:06.436,0.012675576726905967
1610,00:00:06.44,0.004916049074381588
1611,00:00:06.444,0.009335063281469045
1612,00:00:06.448,-0.0184602346271277
1613,00:00:06.452,-0.029996072873473133
1614,00:00:06.456,0.014501025900244801
1615,00:00:06.46,0.009079275187104968
1616,00:00:06.464,0.02066961093805727
1617,00:00:06.468,-0.00475362641736863
1618,00:00:06.472,-0.0177024567965418
1619,00:00:06.476,-0.00630195671692491
1620,00:00:06.48,0.00495089881587773
1621,00:00:06.484,0.006447321036830539
1622,00:00:06.488,0.02017035370226952
1623,00:00:06.492,-0.02812750404700638
1624,00:00:06.496,-0.0031902454793453112
1625,00:00:06.5,0.02491479797754441
1626,00:00:06.504,-0.017571752890944523
1627,00:00:06.508,-0.0267036613076925
1628,00:00:06.512,0.012108645401895018
1629,00:00:06.516,0.0361982770264149
1630,00:00:06.52,0.0208120038732886
1631,00:00:06.524,-0.01312339771538977
1632,00:00:06.528,-0.02602996933273971
1633,00:00:06.532,-0.025934763252735152
1634,00:00:06.536,-0.003661366645246751
1635,00:00:06.54,0.01124866190366448
1636,00:00:06.544,0.021223522955551702
1637,00:00:06.548,0.023306843359023378
1638,00:00:06.552,-0.0007460442138835796
1639,00:00:06.556,-0.029329504788620373
1640,00:00:06.56,0.00032850098796192995
1641,00:00:06.564,-0.0008557315450161591
1642,00:00:06.568,0.0017768942634575032
1643,00:00:06.572,-0.02387746423482897
1644,00:00:06.576,0.0259836892364547
1645,00:00:06.58,0.0198253905400635
1646,00:00:06.584,-0.01993548497557639
1647,00:00:06.588,-0.001980489585548717
1648,00:00:06.592,0.013613996561616666
1649,00:00:06.596,0.025780218653380798
1650,00:00:06.6,-0.0812068292871119
1651,00:00:06.604,0.012968734139576582
1652,00:00:06.608,0.018068159930407994
1653,00:00:06.612,0.041676737717352794
1654,00:00:06.616,0.029342000372707802
1655,00:00:06.62,-0.05404481897130611
1656,00:00:06.624,-0.020348595920950188
1657,00:00:06.628,0.002675048162927852
1658,00:00:06.632,-0.00319329695776103
1659,00:00:06.636,0.00878802384249868
1660,00:00:06.64,-0.00455718394368887
1661,00:00:06.644,0.015219994587823749
1662,00:00:06.648,0.03441183688119056
1663,00:00:06.652,-0.022463490488007692
1664,00:00:06.656,-0.028383767756167765
1665,00:00:06.66,0.004001227207481859
1666,00:00:06.664,0.00930428458377722
1667,00:00:06.668,0.0028177575441077313
1668,00:00:06.672,-0.010723643004894198
1669,00:00:06.676,0.004506557714194111
1670,00:00:06.68,0.009203594177961311
1671,00:00:06.684,-0.004436506424099252
1672,00:00:06.688,0.026642379118129573
1673,00:00:06.692,-0.009526591602480039
1674,00:00:06.696,-0.01306939730420701
1675,00:00:06.7,-0.07082628039643164
1676,00:00:06.704,0.015408929437398897
1677,00:00:06.708,0.0886896874580998
1678,00:00:06.712,0.01241247262805696
1679,00:00:06.716,-0.029355976730585126
1680,00:00:06.72,-0.02393156662583342
1681,00:00:06.724,-0.00937526878260542
1682,00:00:06.728,-0.00803433195687831
1683,00:00:06.732,0.00670815119519824
1684,00:00:06.736,0.02227842109277843
1685,00:00:06.74,0.001243050863195096
1686,00:00:06.744,-0.00519398832693696
1687,00:00:06.748,-0.006759477997547946
1688,00:00:06.752,0.00621378794312473
1689,00:00:06.756,-0.0018834490329027193
1690,00:00:06.76,-0.005376991350203699
1691,00:00:06.764,-0.0017932844348252201
1692,00:00:06.768,0.01224111075862307
1693,00:00:06.772,-0.0025668242014945195
1694,00:00:06.776,-0.003589104628190399
1695,00:00:06.78,-0.003189186565577918
1696,00:00:06.784,-0.003542658872902391
1697,00:00:06.788,0.00652567704673857
1698,00:00:06.792,0.03032393241301183
1699,00:00:06.796,-0.051892912946641424
1700,00:00:06.8,-0.050710142124444246
1701,00:00:06.804,0.047781057422980625
1702,00:00:06.808,0.0781747912988067
1703,00:00:06.812,0.0164524563588202
1704,00:00:06.816,-0.0496104918420315
1705,00:00:06.82,-0.03138137850328351
1706,00:00:06.824,-0.02430089889094232
1707,00:00:06.828,-0.0018270674627274101
1708,00:00:06.832,0.01884162682108578
1709,00:00:06.836,0.02707849070429799
1710,00:00:06.84,0.0038535743951797533
1711,00:00:06.844,0.0020648173231165826
1712,00:00:06.848,-0.011146819393616178
1713,00:00:06.852,-0.0022772052325308306
1714,00:00:06.856,0.00036735180765390006
1715,00:00:06.86,-0.012350129662081603
1716,00:00:06.864,-0.0034549026750028047
1717,00:00:06.868,0.012105021596653406
1718,00:00:06.872,0.029750569025054567
1719,00:00:06.876,-0.028855878394097038
1720,00:00:06.88,-0.025096377357840496
1721,00:00:06.884,0.040029331110417794
1722,00:00:06.888,-0.01036965567618614
1723,00:00:06.892,0.0033646477386354984
1724,00:00:06.896,-0.026566689135506718
1725,00:00:06.9,-0.013803137466311503
1726,00:00:06.904,0.0329571070615202
1727,00:00:06.908,0.02188298059627414
1728,00:00:06.912,0.01833885000087325
1729,00:00:06.916,-0.03533160500228401
1730,00:00:06.92,-0.02486627362668516
1731,00:00:06.924,0.011074319947510989
1732,00:00:06.928,-0.0030924044549465192
1733,00:00:06.932,0.01451119035482401
1734,00:00:06.936,0.005843998864293099
1735,00:00:06.94,-0.0144820224959403
1736,00:00:06.944,-0.0016818097792566204
1737,00:00:06.948,0.007207486662082371
1738,00:00:06.952,0.01613935828208923
1739,00:00:06.956,-0.01906359847635031
1740,00:00:06.96,0.009738167282193889
1741,00:00:06.964,0.01691895374096926
1742,00:00:06.968,-0.0376843260601162
1743,00:00:06.972,-0.01726821227930484
1744,00:00:06.976,0.023156490526162057
1745,00:00:06.98,0.01638766541145742
1746,00:00:06.984,0.00727943412493915
1747,00:00:06.988,-0.011485195718705639
1748,00:00:06.992,0.00812798785045743
1749,00:00:06.996,0.01435524132102726
1750,00:00:07,-0.06608636921737346
1751,00:00:07.004,-0.00655784597620368
1752,00:00:07.008,0.05409651156514882
1753,00:00:07.012,0.029850425198674202
1754,00:00:07.016,-0.01623552571982141
1755,00:00:07.02,-0.013907337561249698
1756,00:00:07.024,0.0114199998788536
1757,00:00:07.028,-0.061037142761051696
1758,00:00:07.032,-0.0032731913961470994
1759,00:00:07.036,0.0479786098003387
1760,00:00:07.04,0.03221238497644661
1761,00:00:07.044,-0.0148305129259825
1762,00:00:07.048,-0.008144278865074742
1763,00:00:07.052,-0.014073050275328566
1764,00:00:07.056,-0.02759710827376696
1765,00:00:07.06,0.0023342869244515896
1766,00:00:07.064,0.035291729494929355
1767,00:00:07.068,0.01919129351153966
1768,00:00:07.072,-0.007773325778543949
1769,00:00:07.076,-0.023962814360857048
1770,00:00:07.08,0.002585430163890138
1771,00:00:07.084,-0.004846094176173204
1772,00:00:07.088,-0.0012776921503245588
1773,00:00:07.092,0.009410853846929981
1774,00:00:07.096,-0.0032596485689282105
1775,00:00:07.1,-0.02437140431720759
1776,00:00:07.104,0.02588638623274158
1777,00:00:07.108,0.0360009046271443
1778,00:00:07.112,-0.005027711857110338
1779,00:00:07.116,-0.0303073246031999
1780,00:00:07.12,-0.025985818356275517
1781,00:00:07.124,0.01467367517761886
1782,00:00:07.128,0.0008958992548286776
1783,00:00:07.132,0.008286653290269898
1784,00:00:07.136,0.007393809966742999
1785,00:00:07.14,-0.0013480503112077713
1786,00:00:07.144,0.01904760417528447
1787,00:00:07.148,-0.014003760647028721
1788,00:00:07.152,-0.022203853179235056
1789,00:00:07.156,0.003693905659019902
1790,00:00:07.16,-0.00029224646277727084
1791,00:00:07.164,0.006129741203039891
1792,00:00:07.168,0.014756907214177741
1793,00:00:07.172,-0.012913477024994789
1794,00:00:07.176,0.007249735295772572
1795,00:00:07.18,0.0016304661985486713
1796,00:00:07.184,0.002849518088623878
1797,00:00:07.188,-0.018854010850191047
1798,00:00:07.192,-0.0020319763571024843
1799,00:00:07.196,0.03257763851434
1800,00:00:07.2,-0.03806312114465982
1801,00:00:07.204,-0.02290863497182727
1802,00:00:07.208,0.030253784265369166
1803,00:00:07.212,0.04725896706804627
1804,00:00:07.216,0.015716905705630828
1805,00:00:07.22,-0.06759788037743415
1806,00:00:07.224,-0.011949851177632798
1807,00:00:07.228,0.014762922131922067
1808,00:00:07.232,0.015970478765666603
1809,00:00:07.236,-0.005303894169628641
1810,00:00:07.24,-0.010547766927629706
1811,00:00:07.244,0.02362395543605085
1812,00:00:07.248,-0.0007084622047841514
1813,00:00:07.252,-0.0068488915421767195
1814,00:00:07.256,-0.034366734325885794
1815,00:00:07.26,0.019507814489770684
1816,00:00:07.264,0.023262238828465297
1817,00:00:07.268,0.00441501475870609
1818,00:00:07.272,-0.0015565527137369195
1819,00:00:07.276,-0.01852102263364939
1820,00:00:07.28,-0.01807399885728954
1821,00:00:07.284,0.026426485943375197
1822,00:00:07.288,-0.014049065764993398
1823,00:00:07.292,-0.02687952434644102
1824,00:00:07.296,0.05614602658897641
1825,00:00:07.3,-0.0035645606694743384
1826,00:00:07.304,-0.0364821106195449
1827,00:00:07.308,0.01459405850619073
1828,00:00:07.312,0.02463082782924176
1829,00:00:07.316,-0.00657692481763662
1830,00:00:07.32,-0.009401401737704929
1831,00:00:07.324,-0.00640035048127175
1832,00:00:07.328,-0.01248765017953705
1833,00:00:07.332,0.01708249282091861
1834,00:00:07.336,-0.008052036631852392
1835,00:00:07.34,-0.004989579785615211
1836,00:00:07.344,0.00924100587144494
1837,00:00:07.348,-0.0032642832957208196
1838,00:00:07.352,0.0004348957445472496
1839,00:00:07.356,0.018942073686048395
1840,00:00:07.36,0.0010164187406189774
1841,00:00:07.364,-0.021656193479429972
1842,00:00:07.368,-0.0024077758425846696
1843,00:00:07.372,0.01457295520231127
1844,00:00:07.376,-0.01600522024091333
1845,00:00:07.38,-0.008838793160975912
1846,00:00:07.384,0.035547047853469904
1847,00:00:07.388,0.012378060142509618
1848,00:00:07.392,-0.040771578438579995
1849,00:00:07.396,-0.0005328433544490863
1850,00:00:07.4,-0.012329049408435839
1851,00:00:07.404,0.02107498981058595
1852,00:00:07.408,0.027237908914685242
1853,00:00:07.412,-0.007128659635782259
1854,00:00:07.416,-0.013442807015962949
1855,00:00:07.42,-0.03530967689584941
1856,00:00:07.424,0.009691108949482403
1857,00:00:07.428,0.0358647778630257
1858,00:00:07.432,0.01730405678972604
1859,00:00:07.436,-0.01837737532332539
1860,00:00:07.44,-0.01989500457420945
1861,00:00:07.444,-0.002240512752905489
1862,00:00:07.448,-0.009514284785836921
1863,00:00:07.452,0.000551746692508473
1864,00:00:07.456,0.0236717532388866
1865,00:00:07.46,0.007111096754670148
1866,00:00:07.464,0.01624397560954095
1867,00:00:07.468,-0.02779892506077884
1868,00:00:07.472,-0.017989252344705168
1869,00:00:07.476,0.009517875092569742
1870,00:00:07.48,-0.01070111640729006
1871,00:00:07.484,0.016560031101107577
1872,00:00:07.488,0.021931055467575768
1873,00:00:07.492,-0.0014302084455266604
1874,00:00:07.496,0.00010534585453568848
1875,00:00:07.5,-0.03821703442372383
1876,00:00:07.504,-0.013983818003907779
1877,00:00:07.508,0.00464992364868526
1878,00:00:07.512,0.04480348853394387
1879,00:00:07.516,0.021255968138575543
1880,00:00:07.52,-0.023119222372770275
1881,00:00:07.524,-0.0209258005488664
1882,00:00:07.528,-0.004082347732037271
1883,00:00:07.532,0.00513861491344869
1884,00:00:07.536,-0.005663004703819771
1885,00:00:07.54,0.005482170265167959
1886,00:00:07.544,0.007535899523645641
1887,00:00:07.548,0.02098969742655753
1888,00:00:07.552,-0.02189520187675955
1889,00:00:07.556,-0.011909096036106273
1890,00:00:07.56,0.014756344957277179
1891,00:00:07.564,0.003204287146218109
1892,00:00:07.568,-0.02912513958290221
1893,00:00:07.572,0.013977711088955447
1894,00:00:07.576,0.01848900088953088
1895,00:00:07.58,-0.006930232048034629
1896,00:00:07.584,0.010114690521731938
1897,00:00:07.588,0.012896343017928285
1898,00:00:07.592,-0.018751441966742263
1899,00:00:07.596,-0.0616390695795417
1900,00:00:07.6,-0.0061624587397090536
1901,00:00:07.604,0.09076007641851899
1902,00:00:07.608,-2.9197894036729968e-05
1903,00:00:07.612,0.012515799142420302
1904,00:00:07.616,-0.035333046223968274
1905,00:00:07.62,-0.03267357841832562
1906,00:00:07.624,0.02870201715268194
1907,00:00:07.628,-0.00996072217822075
1908,00:00:07.632,-0.025678156176581993
1909,00:00:07.636,0.009112835861742597
1910,00:00:07.64,0.02947782172122972
1911,00:00:07.644,0.012363670102786273
1912,00:00:07.648,0.008530553837772407
1913,00:00:07.652,-0.029099803541612353
1914,00:00:07.656,-0.0010264366865158098
1915,00:00:07.66,0.004645147069822996
1916,00:00:07.664,-0.004183469063718798
1917,00:00:07.668,-0.00786866643466056
1918,00:00:07.672,0.0015839680563658493
1919,00:00:07.676,0.011776220751926306
1920,00:00:07.68,-0.01138599589467049
1921,00:00:07.684,0.01330927794333547
1922,00:00:07.688,0.00949589587980882
1923,00:00:07.692,-0.005142156034708017
1924,00:00:07.696,-0.045170466881245354
1925,00:00:07.7,0.026410188642330468
1926,00:00:07.704,0.019926845096051735
1927,00:00:07.708,0.00525302044115961
1928,00:00:07.712,-0.0034798089182005026
1929,00:00:07.716,-0.012992231175303412
1930,00:00:07.72,-0.006263289367780091
1931,00:00:07.724,0.011836313948151662
1932,00:00:07.728,-0.005063035292550921
1933,00:00:07.732,-0.00214839307591319
1934,00:00:07.736,-0.01612647203728563
1935,00:00:07.74,-0.005535720847547071
1936,00:00:07.744,0.027726778294891077
1937,00:00:07.748,0.0006856326945126091
1938,00:00:07.752,0.010403236316051329
1939,00:00:07.756,-0.0031965207308531484
1940,00:00:07.76,0.012692715041339432
1941,00:00:07.764,-0.028564115520566737
1942,00:00:07.768,-0.02348544821143148
1943,00:00:07.772,0.004474816843867302
1944,00:00:07.776,0.026324480772018412
1945,00:00:07.78,0.035218232776969685
1946,00:00:07.784,-0.046553206979297074
1947,00:00:07.788,-0.02812359598465268
1948,00:00:07.792,0.023161607328802337
1949,00:00:07.796,0.03534552734345199
1950,00:00:07.8,0.01801957597490396
1951,00:00:07.804,-0.03749847458675499
1952,00:00:07.808,-0.01481755159329623
1953,00:00:07.812,-0.001661845017224578
1954,00:00:07.816,-0.0036749420687556297
1955,00:00:07.82,0.009634809568524378
1956,00:00:07.824,0.012624786118976761
1957,00:00:07.828,0.0033829240128397707
1958,00:00:07.832,-0.02075468655675649
1959,00:00:07.836,0.02213840244803576
1960,00:00:07.84,0.01398185431025924
1961,00:00:07.844,-0.03089437563903633
1962,00:00:07.848,0.016126474365591968
1963,00:00:07.852,-0.00790580210741617
1964,00:00:07.856,-0.011712237261235712
1965,00:00:07.86,-0.009350541629828511
1966,00:00:07.864,0.0024115862324833896
1967,00:00:07.868,0.01819005468860261
1968,00:00:07.872,0.006287029944360239
1969,00:00:07.876,0.007403706200420855
1970,00:00:07.88,0.00919830054044723
1971,00:00:07.884,-0.01095236185938123
1972,00:00:07.888,-0.02610786951845517
1973,00:00:07.892,-0.01047889236360785
1974,00:00:07.896,0.006460486212745269
1975,00:00:07.9,0.00939631328219544
1976,00:00:07.904,0.03372403001412751
1977,00:00:07.908,-0.004064448410645124
1978,00:00:07.912,-0.020345326222013717
1979,00:00:07.916,-0.011115481611341241
1980,00:00:07.92,0.01330918306484813
1981,00:00:07.924,-0.0050130295567214385
1982,00:00:07.928,-0.024193201810703665
1983,00:00:07.932,-0.001461832667700948
1984,00:00:07.936,0.048344008333515445
1985,00:00:07.94,0.0024949735961854497
1986,00:00:07.944,-0.0009312070906161984
1987,00:00:07.948,-0.007923725992441179
1988,00:00:07.952,-0.058369465172290705
1989,00:00:07.956,-0.00016229075845332038
1990,00:00:07.96,0.06373035814613107
1991,00:00:07.964,0.0094127883203328
1992,00:00:07.968,-0.01580932596698404
1993,00:00:07.972,-0.00398509157821535
1994,00:00:07.976,-0.015361025929450975
1995,00:00:07.98,-0.03150775755057113
1996,00:00:07.984,0.03536737209651619
1997,00:00:07.988,0.019345127744600135
1998,00:00:07.992,-0.012854579370468851
1999,00:00:07.996,-0.01145700574852526
2000,00:00:08,0.002382989507168539
2001,00:00:08.004,0.009225777350366102
2002,00:00:08.008,-0.0031415410339832497
2003,00:00:08.012,0.004855552921071628
2004,00:00:08.016,-0.014727082569152079
2005,00:00:08.02,0.004960244521498701
2006,00:00:08.024,0.006209271959960402
2007,00:00:08.028,0.014254473615437791
2008,00:00:08.032,-0.03038727259263394
2009,00:00:08.036,0.01326805260032412
2010,00:00:08.04,-0.01653565361630171
2011,00:00:08.044,0.02190306177362793
2012,00:00:08.048,0.0004455884918570033
2013,00:00:08.052,-0.00014303158968681506
2014,00:00:08.056,-0.0129351038485765
2015,00:00:08.06,0.0023683665785938605
2016,00:00:08.064,0.011898211290827024
2017,00:00:08.068,0.00368076539598405
2018,00:00:08.072,-0.01704522781074043
2019,00:00:08.076,0.0088188294321299
2020,00:00:08.08,0.00510415609460323
2021,00:00:08.084,-0.015457059955224351
2022,00:00:08.088,-0.0070088375359773775
2023,00:00:08.092,0.00033791574969658025
2024,00:00:08.096,0.019516636384651107
2025,00:00:08.1,0.0193005790933966
2026,00:00:08.104,-0.003526047104969586
2027,00:00:08.108,-0.027544168449594543
2028,00:00:08.112,-0.008334614569321318
2029,00:00:08.116,-0.0007034784648567499
2030,00:00:08.12,0.011504243273520884
2031,00:00:08.124,0.009511911426670851
2032,00:00:08.128,0.0009186589741148007
2033,00:00:08.132,0.00383578892797232
2034,00:00:08.136,-0.01489228836726395
2035,00:00:08.14,-0.0194217124953867
2036,00:00:08.144,0.036192531581036705
2037,00:00:08.148,0.0250975145027041
2038,00:00:08.152,-0.03678768454119566
2039,00:00:08.156,-0.040885287337005145
2040,00:00:08.16,0.042468640021979795
2041,00:00:08.164,-0.006796009372919864
2042,00:00:08.168,0.02186793927103283
2043,00:00:08.172,-0.001637723296880722
2044,00:00:08.176,-0.01717649330385025
2045,00:00:08.18,-0.01623843377456068
2046,00:00:08.184,0.021196828223764848
2047,00:00:08.188,0.004057213198393551
2048,00:00:08.192,-0.01833944814279675
2049,00:00:08.196,0.004821281880140303
2050,00:00:08.2,0.012899839784950025
2051,00:00:08.204,-0.00356691796332596
2052,00:00:08.208,0.004183038603514442
2053,00:00:08.212,0.00799025595188136
2054,00:00:08.216,-0.01450864074286073
2055,00:00:08.22,-0.02408685628324743
2056,00:00:08.224,0.00799284083768728
2057,00:00:08.228,0.00473964028060432
2058,00:00:08.232,0.03617338510230188
2059,00:00:08.236,-0.00408596755005416
2060,00:00:08.24,-0.02459438052028422
2061,00:00:08.244,-0.013098363677272573
2062,00:00:08.248,0.0188097143545747
2063,00:00:08.252,-0.01002175873145461
2064,00:00:08.256,0.0042428942397237275
2065,00:00:08.26,0.020757755730301176
2066,00:00:08.264,0.009856813587248325
2067,00:00:08.268,-0.0466136801987887
2068,00:00:08.272,-0.006620067171752451
2069,00:00:08.276,0.02745215641334655
2070,00:00:08.28,-0.0067088010255247875
2071,00:00:08.284,0.013458915113005787
2072,00:00:08.288,0.00415490940213204
2073,00:00:08.292,-0.0147627962287515
2074,00:00:08.296,-0.01402359784697186
2075,00:00:08.3,0.026927868369966777
2076,00:00:08.304,0.008691629976965511
2077,00:00:08.308,-0.02006232063286009
2078,00:00:08.312,-0.01965714083053168
2079,00:00:08.316,0.014470166061073535
2080,00:00:08.32,0.01786607713438575
2081,00:00:08.324,0.005510242935997674
2082,00:00:08.328,-0.028465628653066226
2083,00:00:08.332,-0.0044893478043377295
2084,00:00:08.336,0.014053750375751413
2085,00:00:08.34,0.003678908105939691
2086,00:00:08.344,0.006796948611736291
2087,00:00:08.348,-0.01032646745443344
2088,00:00:08.352,0.013023869134485697
2089,00:00:08.356,-0.0013635652139783044
2090,00:00:08.36,-0.03990672715008252
2091,00:00:08.364,0.021575382619630608
2092,00:00:08.368,0.031881456263363424
2093,00:00:08.372,-0.01793116633780298
2094,00:00:08.376,-0.029721157115091074
2095,00:00:08.38,0.025385665707290096
2096,00:00:08.384,-0.006974239717237679
2097,00:00:08.388,0.01355108828283848
2098,00:00:08.392,0.01248500298243013
2099,00:00:08.396,-0.010259489761665463
2100,00:00:08.4,-0.0241857832297683
2101,00:00:08.404,-0.0019041064660996203
2102,00:00:08.408,0.014366959221661089
2103,00:00:08.412,0.004984315950423477
2104,00:00:08.416,-0.00417716125957668
2105,00:00:08.42,0.0020586200989782806
2106,00:00:08.424,-0.01099098008126021
2107,00:00:08.428,0.009209697600454092
2108,00:00:08.432,0.012208008789457384
2109,00:00:08.436,0.009552570758387492
2110,00:00:08.44,-0.021248901146464036
2111,00:00:08.444,-0.023719720076769632
2112,00:00:08.448,0.019248904660344106
2113,00:00:08.452,-0.009495959966443479
2114,00:00:08.456,0.022745076566934537
2115,00:00:08.46,0.00753689114935698
2116,00:00:08.464,-0.011508397292345852
2117,00:00:08.468,-0.012180650839582152
2118,00:00:08.472,0.013677757466211922
2119,00:00:08.476,-0.0010610953904687786
2120,00:00:08.48,-0.01877399720251561
2121,00:00:08.484,0.00486464984714985
2122,00:00:08.488,0.00039546468178742024
2123,00:00:08.492,0.018816224008332945
2124,00:00:08.496,-0.00157399149611585
2125,00:00:08.5,-0.01122562121599914
2126,00:00:08.504,-0.00957662286236882
2127,00:00:08.508,0.0035765372449531926
2128,00:00:08.512,0.02261547744274138
2129,00:00:08.516,-0.0015649800188839201
2130,00:00:08.52,-0.0262686184141785
2131,00:00:08.524,0.026495763740967924
2132,00:00:08.528,-0.028170144185423802
2133,00:00:08.532,-0.002303852234035758
2134,00:00:08.536,0.04229367803782218
2135,00:00:08.54,-0.015608495566993931
2136,00:00:08.544,-0.0020966347801732056
2137,00:00:08.548,-0.02103123581036926
2138,00:00:08.552,-0.0051061983685940695
2139,00:00:08.556,0.0037810050998814413
2140,00:00:08.56,0.036258182022720534
2141,00:00:08.564,-0.002419346943497649
2142,00:00:08.568,-0.016210285131819577
2143,00:00:08.572,-0.0008771796710789481
2144,00:00:08.576,-0.02012403588742017
2145,00:00:08.58,-7.689511403445072e-05
2146,00:00:08.584,0.005142414709553121
2147,00:00:08.588,0.02825745660811665
2148,00:00:08.592,0.015712729538790892
2149,00:00:08.596,-0.026203444926068187
2150,00:00:08.6,-0.0051358230412006396
2151,00:00:08.604,0.008950207236921453
2152,00:00:08.608,-0.0072337232995778305
2153,00:00:08.612,-0.036021435167640545
2154,00:00:08.616,-0.00504093081690371
2155,00:00:08.62,0.04087630601134149
2156,00:00:08.624,0.01181278517469767
2157,00:00:08.628,0.03896949539193887
2158,00:00:08.632,-0.021376765856985072
2159,00:00:08.636,-0.034897487610578565
2160,00:00:08.64,-0.017707101185806123
2161,00:00:08.644,0.0019934278825530743
2162,00:00:08.648,0.00182683160528542
2163,00:00:08.652,0.01364476513117555
2164,00:00:08.656,0.02640088065527382
2165,00:00:08.66,-0.02593047230038795
2166,00:00:08.664,0.010408255911897868
2167,00:00:08.668,0.0007561888778582302
2168,00:00:08.672,-0.014401191612705578
2169,00:00:08.676,-0.0006516680587083097
2170,00:00:08.68,0.01610702183097605
2171,00:00:08.684,0.014523014076985415
2172,00:00:08.688,-0.027591267906245824
2173,00:00:08.692,-0.0103798862546682
2174,00:00:08.696,0.0055850221542641494
2175,00:00:08.7,0.00705694360658526
2176,00:00:08.704,0.01836261339485641
2177,00:00:08.708,-0.027768556377850435
2178,00:00:08.712,0.01164688309654592
2179,00:00:08.716,0.0323934697080403
2180,00:00:08.72,-0.01868149149231618
2181,00:00:08.724,-0.02703749667853116
2182,00:00:08.728,-0.028300594305619604
2183,00:00:08.732,0.04144448135048144
2184,00:00:08.736,0.0249129738658666
2185,00:00:08.74,-0.031428767601028085
2186,00:00:08.744,0.006846994627267178
2187,00:00:08.748,0.02989981556311248
2188,00:00:08.752,-0.03528180811554192
2189,00:00:08.756,-0.007827870547771398
2190,00:00:08.76,0.007090976621839266
2191,00:00:08.764,0.0015508132055401629
2192,00:00:08.768,0.02600175351835789
2193,00:00:08.772,-0.02604655915638433
2194,00:00:08.776,-0.009629310574382531
2195,00:00:08.78,0.021403012331575117
2196,00:00:08.784,-0.0058182277716696505
2197,00:00:08.788,0.006831077858805629
2198,00:00:08.792,-0.0008681369945407226
2199,00:00:08.796,-0.01965466747060414
2200,00:00:08.8,0.006889277137815921
2201,00:00:08.804,0.0030656992457806682
2202,00:00:08.808,0.00946361152455214
2203,00:00:08.812,0.013414317974820728
2204,00:00:08.816,-0.015445718890987349
2205,00:00:08.82,-0.024434861494228233
2206,00:00:08.824,0.01255454169586306
2207,00:00:08.828,0.01120152557268743
2208,00:00:08.832,-0.00688363891094923
2209,00:00:08.836,0.023976714481250386
2210,00:00:08.84,-0.045264596294146
2211,00:00:08.844,-0.0005119896959513408
2212,00:00:08.848,0.0625459023285658
2213,00:00:08.852,-0.007074073888361499
2214,00:00:08.856,-0.05562604125589124
2215,00:00:08.86,0.01243984303437173
2216,00:00:08.864,0.03735797642730181
2217,00:00:08.868,-0.02634419617243106
2218,00:00:08.872,-0.03305810503661634
2219,00:00:08.876,0.027078619226813316
2220,00:00:08.88,0.01194193784613164
2221,00:00:08.884,-0.0021410128101706804
2222,00:00:08.888,0.019918181293178384
2223,00:00:08.892,0.006930328963790087
2224,00:00:08.896,-0.04026716854423282
2225,00:00:08.9,-0.01918291812762619
2226,00:00:08.904,0.02106279088184242
2227,00:00:08.908,0.021147145889699452
2228,00:00:08.912,-0.009334074333310141
2229,00:00:08.916,-0.0037737311795353902
2230,00:00:08.92,0.01077940291725102
2231,00:00:08.924,0.004412396461702859
2232,00:00:08.928,-0.010462841542903337
2233,00:00:08.932,-0.020627559628337618
2234,00:00:08.936,-0.006419619603548195
2235,00:00:08.94,0.01399827236309648
2236,00:00:08.944,0.04026594408787791
2237,00:00:08.948,-0.003729813965037449
2238,00:00:08.952,-0.057548550423234736
2239,00:00:08.956,0.036969203967601026
2240,00:00:08.96,-0.03407897520810369
2241,00:00:08.964,0.03137164283543818
2242,00:00:08.968,0.005772622302174582
2243,00:00:08.972,0.026300885714590598
2244,00:00:08.976,-0.02320923772640528
2245,00:00:08.98,-0.04162631696090103
2246,00:00:08.984,0.01258628722280266
2247,00:00:08.988,0.010248770937323574
2248,00:00:08.992,-0.006792243570089389
2249,00:00:08.996,0.01782841980457305
2250,00:00:09,0.009724024479510287
2251,00:00:09.004,-0.00297533685807139
2252,00:00:09.008,0.0012187435058876816
2253,00:00:09.012,-0.0012932519894093297
2254,00:00:09.016,-0.012653805315494513
2255,00:00:09.02,-0.01596537115983665
2256,00:00:09.024,-0.0022670461330562873
2257,00:00:09.028,0.002575759146566274
2258,00:00:09.032,0.0297626024112106
2259,00:00:09.036,0.006731356028467409
2260,00:00:09.04,-0.009653038869146266
2261,00:00:09.044,-0.013374238274991488
2262,00:00:09.048,-0.02072385186329484
2263,00:00:09.052,0.009030790068209102
2264,00:00:09.056,0.03294364269822831
2265,00:00:09.06,0.011485411319881678
2266,00:00:09.064,-0.02320192847400904
2267,00:00:09.068,-0.03579002188052977
2268,00:00:09.072,0.017660866491496528
2269,00:00:09.076,0.02222983527462922
2270,00:00:09.08,0.004665894986828786
2271,00:00:09.084,-0.01077779522165662
2272,00:00:09.088,-0.01975440257228914
2273,00:00:09.092,0.009170031175017362
2274,00:00:09.096,0.01705891871824867
2275,00:00:09.1,-0.002210577862570058
2276,00:00:09.104,-0.011640275886747998
2277,00:00:09.108,-0.009708189521916209
2278,00:00:09.112,0.01003139396198094
2279,00:00:09.116,0.008854134473949699
2280,00:00:09.12,-0.00017484946874901826
2281,00:00:09.124,0.0007648860337212699
2282,00:00:09.128,0.0033441525883972697
2283,00:00:09.132,-0.01661913888528943
2284,00:00:09.136,-0.02089825412258503
2285,00:00:09.14,0.01730203256011006
2286,00:00:09.144,0.02727518579922613
2287,00:00:09.148,-0.0005383945535868398
2288,00:00:09.152,-0.010138832265511204
2289,00:00:09.156,-0.013168553181458261
2290,00:00:09.16,0.002216740511357781
2291,00:00:09.164,0.006401822436600951
2292,00:00:09.168,-0.010316716041415899
2293,00:00:09.172,0.007909055799245793
2294,00:00:09.176,-0.0015964063350111203
2295,00:00:09.18,0.006460413336753901
2296,00:00:09.184,0.013341691344976349
2297,00:00:09.188,-0.03252736292779444
2298,00:00:09.192,-0.0008293483406304793
2299,00:00:09.196,0.05534328753128648
2300,00:00:09.2,-0.0285588386468589
2301,00:00:09.204,-0.02809759484080132
2302,00:00:09.208,0.003168046590872109
2303,00:00:09.212,-0.00460654566995799
2304,00:00:09.216,0.012172238028142632
2305,00:00:09.22,0.008459839969873428
2306,00:00:09.224,0.01787406357470895
2307,00:00:09.228,0.0021016513928770993
2308,00:00:09.232,-0.021522936876863262
2309,00:00:09.236,-0.00810174224898217
2310,00:00:09.24,-0.0004977639764547404
2311,00:00:09.244,-0.009442439419217389
2312,00:00:09.248,0.02373711875407029
2313,00:00:09.252,0.00441791815683245
2314,00:00:09.256,-0.006703381892293691
2315,00:00:09.26,-0.010354893864132471
2316,00:00:09.264,0.0018452156218700126
2317,00:00:09.268,0.008721357677131884
2318,00:00:09.272,0.0010195770300924813
2319,00:00:09.276,-0.002863946632714946
2320,00:00:09.28,-0.0198453972116113
2321,00:00:09.284,0.01824316894635566
2322,00:00:09.288,-0.0052588006947189595
2323,00:00:09.292,0.02765994332730769
2324,00:00:09.296,0.002276099752634788
2325,00:00:09.3,-0.0278889504261315
2326,00:00:09.304,-0.05143962707370522
2327,00:00:09.308,0.0520759872160852
2328,00:00:09.312,0.00907785422168677
2329,00:00:09.316,0.008577255648560798
2330,00:00:09.32,0.0006271458696573418
2331,00:00:09.324,-0.0225704652257264
2332,00:00:09.328,0.0017188871279358899
2333,00:00:09.332,0.01539124920964232
2334,00:00:09.336,-0.01013888372108339
2335,00:00:09.34,-0.01573788141831756
2336,00:00:09.344,-0.01835360261611637
2337,00:00:09.348,0.045779760228469926
2338,00:00:09.352,0.029416824690997573
2339,00:00:09.356,-0.025968550413381312
2340,00:00:09.36,-0.03177256812341505
2341,00:00:09.364,-0.0064930127700790815
2342,00:00:09.368,0.00649508496280762
2343,00:00:09.372,0.022504687149194028
2344,00:00:09.376,-0.006200445350259549
2345,00:00:09.38,-0.006697154894936799
2346,00:00:09.384,0.008227425045333813
2347,00:00:09.388,0.02344861254096028
2348,00:00:09.392,-0.010984596970956745
2349,00:00:09.396,-0.006474261637777092
2350,00:00:09.4,-0.0152066508308053
2351,00:00:09.404,-0.02052864478901029
2352,00:00:09.408,0.00517093529924751
2353,00:00:09.412,0.008294807747006399
2354,00:00:09.416,0.022468197625130443
2355,00:00:09.42,0.029192539397627112
2356,00:00:09.424,-0.021441632881760597
2357,00:00:09.428,-0.002319952473044399
2358,00:00:09.432,-0.022182356216944712
2359,00:00:09.436,-0.020270662847906348
2360,00:00:09.44,0.016947288997471367
2361,00:00:09.444,0.025937170721590568
2362,00:00:09.448,-0.013856873847544238
2363,00:00:09.452,-0.01663419208489358
2364,00:00:09.456,0.02819266868755222
2365,00:00:09.46,0.018082683905959098
2366,00:00:09.464,-0.03645385242998598
2367,00:00:09.468,-0.0048472061753272
2368,00:00:09.472,-0.005004919832572339
2369,00:00:09.476,0.023817427456378937
2370,00:00:09.48,0.000891271978616659
2371,00:00:09.484,-0.020409330143593245
2372,00:00:09.488,-0.0013195602223277196
2373,00:00:09.492,0.02622036356478924
2374,00:00:09.496,0.006841091206297279
2375,00:00:09.5,-0.009790418233023963
2376,00:00:09.504,-0.01611640548799188
2377,00:00:09.508,-0.011005104635842138
2378,00:00:09.512,0.01310936908703297
2379,00:00:09.516,0.01296772138448429
2380,00:00:09.52,-0.022752271965146016
2381,00:00:09.524,0.0159451337531209
2382,00:00:09.528,0.01863777637481695
2383,00:00:09.532,-0.01069987961091105
2384,00:00:09.536,-0.01793864509090784
2385,00:00:09.54,-0.008706830558367039
2386,00:00:09.544,0.01475676405243576
2387,00:00:09.548,0.00042437133379279917
2388,00:00:09.552,0.021134585142135606
2389,00:00:09.556,-0.019524900184478652
2390,00:00:09.56,-0.020333601161837578
2391,00:00:09.564,0.03569946018978952
2392,00:00:09.568,0.0011823342065326835
2393,00:00:09.572,-0.028924703539814724
2394,00:00:09.576,0.00447166524827483
2395,00:00:09.58,0.0026109607424587
2396,00:00:09.584,0.003385811578482391
2397,00:00:09.588,0.007358504808507871
2398,00:00:09.592,-0.010466525942320015
2399,00:00:09.596,-0.024383869720622897
2400,00:00:09.6,0.03691444452852009
2401,00:00:09.604,0.04286609077826141
2402,00:00:09.608,-0.010337168816476979
2403,00:00:09.612,-0.0472727371379733
2404,00:00:09.616,-0.02213002578355375
2405,00:00:09.62,-0.015589009039103999
2406,00:00:09.624,0.00018457137048240313
2407,00:00:09.628,0.07196947140619148
2408,00:00:09.632,-0.0158091289922596
2409,00:00:09.636,0.013702803989872338
2410,00:00:09.64,0.007608496583998191
2411,00:00:09.644,-0.01074130844790488
2412,00:00:09.648,-0.041894307243637734
2413,00:00:09.652,-0.020368503406643902
2414,00:00:09.656,0.021879713051021037
2415,00:00:09.66,0.02398221718613059
2416,00:00:09.664,0.015013088006526211
2417,00:00:09.668,-0.008146124891936718
2418,00:00:09.672,-0.003544505278114232
2419,00:00:09.676,-0.010653422679752132
2420,00:00:09.68,-0.01949342922307555
2421,00:00:09.684,0.0008239834569394593
2422,00:00:09.688,0.01934274239465594
2423,00:00:09.692,0.015951267909258642
2424,00:00:09.696,0.004412497510202237
2425,00:00:09.7,-0.013617366610560561
2426,00:00:09.704,-0.011556318495422558
2427,00:00:09.708,0.0006846290780231305
2428,00:00:09.712,0.00314771744888271
2429,00:00:09.716,-0.01451683137565856
2430,00:00:09.72,0.03710032068192964
2431,00:00:09.724,-0.023592610843479606
2432,00:00:09.728,-0.010111409821547582
2433,00:00:09.732,0.022544037317857167
2434,00:00:09.736,-0.002134438167558977
2435,00:00:09.74,-0.00295539759099479
2436,00:00:09.744,-0.003909606952220215
2437,00:00:09.748,-0.013431240571662739
2438,00:00:09.752,0.0025661792606115306
2439,00:00:09.756,0.02109681034926325
2440,00:00:09.76,-0.0005669896781910188
2441,00:00:09.764,-0.01133134867995975
2442,00:00:09.768,0.016835849499329942
2443,00:00:09.772,-0.022593372501432903
2444,00:00:09.776,-0.013427319179754725
2445,00:00:09.78,0.00593927950831132
2446,00:00:09.784,0.00869820057414468
2447,00:00:09.788,0.026332651032134877
2448,00:00:09.792,0.01112221856601536
2449,00:00:09.796,-0.034223133232444525
2450,00:00:09.8,-0.017158623857540117
2451,00:00:09.804,-0.0021692570298910002
2452,00:00:09.808,0.05496294749900705
2453,00:00:09.812,-0.02311207633465523
2454,00:00:09.816,-0.04422149085439746
2455,00:00:09.82,0.03056353388819844
2456,00:00:09.824,0.017018107377225564
2457,00:00:09.828,-0.009397545829415398
2458,00:00:09.832,0.0019772392697632313
2459,00:00:09.836,-0.0025630295276642054
2460,00:00:09.84,-0.01018259953707456
2461,00:00:09.844,-0.00920132757164531
2462,00:00:09.848,0.022549790330231204
2463,00:00:09.852,-0.0005380781367421792
2464,00:00:09.856,0.01378068653866648
2465,00:00:09.86,-0.016274371067993353
2466,00:00:09.864,-0.02889531943947081
2467,00:00:09.868,0.0023960913531482497
2468,00:00:09.872,0.04150298098102208
2469,00:00:09.876,0.006165298458654488
2470,00:00:09.88,-0.026994180167093852
2471,00:00:09.884,-0.017885586828924688
2472,00:00:09.888,0.01659114332869652
2473,00:00:09.892,0.013856756035238551
2474,00:00:09.896,-0.00015832670032973895
2475,00:00:09.9,-0.02088763192296028
2476,00:00:09.904,0.01805733225774015
2477,00:00:09.908,-0.0012175377923995196
2478,00:00:09.912,-0.0022554853931069374
2479,00:00:09.916,-0.01455932599492373
2480,00:00:09.92,-0.018620679154992104
2481,00:00:09.924,0.01820489097735845
2482,00:00:09.928,0.052188200410455486
2483,00:00:09.932,-0.024386822478845736
2484,00:00:09.936,-0.01728499156888571
2485,00:00:09.94,-0.0164034636691213
2486,00:00:09.944,0.013796672224998498
2487,00:00:09.948,0.00664390553720292
2488,00:00:09.952,-0.0036777793429791598
2489,00:00:09.956,0.005639573937514801
2490,00:00:09.96,-0.01565658161416649
2491,00:00:09.964,-0.0026188872288912496
2492,00:00:09.968,0.02836847538128497
2493,00:00:09.972,-0.001954185601789505
2494,00:00:09.976,-0.00849611172452569
2495,00:00:09.98,0.0004341667518019312
2496,00:00:09.984,-0.019863951252773432
2497,00:00:09.988,-0.00636363285593685
2498,00:00:09.992,0.0125537134008482
2499,00:00:09.996,0.015608550391334602
2500,00:00:10,0.006487764883786441
2501,00:00:10.004,-0.0027218250656914997
2502,00:00:10.008,-0.00904055219143626
2503,00:00:10.012,-0.002181542338803369
2504,00:00:10.016,-0.0011807773262262206
2505,00:00:10.02,-0.0009644853416830215
2506,00:00:10.024,-0.004468926694244091
2507,00:00:10.028,0.004440309479832705
2508,00:00:10.032,0.00012090452946724242
2509,00:00:10.036,-0.013375882059335702
2510,00:00:10.04,0.030411258980166223
2511,00:00:10.044,-0.0028188608630443915
2512,00:00:10.048,-0.016220853663980975
2513,00:00:10.052,0.007900256663560859
2514,00:00:10.056,0.006635537836700697
2515,00:00:10.06,0.003327205777168279
2516,00:00:10.064,-0.01992193562909956
2517,00:00:10.068,-0.01995081733912229
2518,00:00:10.072,0.0037816890981048727
2519,00:00:10.076,0.02431411622092126
2520,00:00:10.08,0.013246630551293501
2521,00:00:10.084,-0.007909418316558
2522,00:00:10.088,0.00698821514379233
2523,00:00:10.092,0.0028325932216830612
2524,00:00:10.096,-0.02330461749807
2525,00:00:10.1,-0.02776269614696501
2526,00:00:10.104,0.028864864958450205
2527,00:00:10.108,0.03353028139099484
2528,00:00:10.112,-0.021815531086758756
2529,00:00:10.116,-0.013776624575257298
2530,00:00:10.12,-0.017500445246696496
2531,00:00:10.124,0.02201140904799104
2532,00:00:10.128,0.015443155076354749
2533,00:00:10.132,-0.012482432415708941
2534,00:00:10.136,0.015333865303546194
2535,00:00:10.14,0.005462804809212702
2536,00:00:10.144,-0.024700474925339208
2537,00:00:10.148,-0.02418253966607151
2538,00:00:10.152,0.02104631019756195
2539,00:00:10.156,-0.00504807045217603
2540,00:00:10.16,0.02033493015915153
2541,00:00:10.164,0.006254106061533102
2542,00:00:10.168,-0.01890823151916267
2543,00:00:10.172,-0.0004621738044079367
2544,00:00:10.176,0.01326036313548681
2545,00:00:10.18,0.02069870545528827
2546,00:00:10.184,-0.0421687990892679
2547,00:00:10.188,-0.0019725203746929765
2548,00:00:10.192,0.007119335234165229
2549,00:00:10.196,-0.0008977677207440081
2550,00:00:10.2,0.01811908651143313
2551,00:00:10.204,-0.0010684209410101522
2552,00:00:10.208,-0.020593712790287072
2553,00:00:10.212,0.009367319755256152
2554,00:00:10.216,0.018607011297717697
2555,00:00:10.22,-0.005489641800522791
2556,00:00:10.224,-0.00641300401184709
2557,00:00:10.228,-0.018761167419143
2558,00:00:10.232,0.0019238600507378526
2559,00:00:10.236,0.021745283971540633
2560,00:00:10.24,-0.003972127044107769
2561,00:00:10.244,-0.00684680882841349
2562,00:00:10.248,0.001748762093484395
2563,00:00:10.252,0.0019180055242031804
2564,00:00:10.256,-0.0041261770529672495
2565,00:00:10.26,-0.005563142127357422
2566,00:00:10.264,0.009929148145602062
2567,00:00:10.268,0.010497643059352448
2568,00:00:10.272,-0.013048211571003821
2569,00:00:10.276,-0.004348298898548816
2570,00:00:10.28,0.00127347488887608
2571,00:00:10.284,0.00525277442648074
2572,00:00:10.288,-0.005724476824980257
2573,00:00:10.292,0.02375991153530781
2574,00:00:10.296,-0.00119394692592323
2575,00:00:10.3,-0.05137709248811005
2576,00:00:10.304,0.007637242903001564
2577,00:00:10.308,0.05223649542313065
2578,00:00:10.312,0.0009980386821553302
2579,00:00:10.316,-0.058589418418705796
2580,00:00:10.32,0.019727015867829302
2581,00:00:10.324,0.019749230705201605
2582,00:00:10.328,-0.004488803213462228
2583,00:00:10.332,0.002490970306098409
2584,00:00:10.336,0.005467025563120804
2585,00:00:10.34,-0.0036535747349261925
2586,00:00:10.344,-0.021240273956209418
2587,00:00:10.348,-0.00584462191909556
2588,00:00:10.352,0.01319043379044164
2589,00:00:10.356,0.002963606646517278
2590,00:00:10.36,-0.005468989722430712
2591,00:00:10.364,0.017262948444113142
2592,00:00:10.368,0.014879266265779779
2593,00:00:10.372,-0.012212785193696611
2594,00:00:10.376,-0.01120850653387606
2595,00:00:10.38,-0.01185497967526317
2596,00:00:10.384,-0.013079318217933154
2597,00:00:10.388,0.00863872491754591
2598,00:00:10.392,0.02360605797730382
2599,00:00:10.396,0.01754380250349638
2600,00:00:10.4,-0.013589546142611618
2601,00:00:10.404,-0.009603433310985496
2602,00:00:10.408,-0.0027060993015765693
2603,00:00:10.412,-0.0381629224866628
2604,00:00:10.416,0.014496782794594796
2605,00:00:10.42,0.06384203932248057
2606,00:00:10.424,0.003993364982306978
2607,00:00:10.428,-0.05567114346195008
2608,00:00:10.432,-0.013150177604984544
2609,00:00:10.436,-0.006488493178039723
2610,00:00:10.44,0.02496546879410746
2611,00:00:10.444,0.02276710793375972
2612,00:00:10.448,0.00768865644931796
2613,00:00:10.452,-0.0120216803625226
2614,00:00:10.456,-0.02010801993310448
2615,00:00:10.46,0.0026521333493292297
2616,00:00:10.464,-0.0032396693713963092
2617,00:00:10.468,0.005465618334710589
2618,00:00:10.472,0.009430817095562821
2619,00:00:10.476,-0.00816300208680332
2620,00:00:10.48,0.0017492241458967389
2621,00:00:10.484,0.0045191352255642405
2622,00:00:10.488,-0.005745198344811801
2623,00:00:10.492,0.0010338777210563508
2624,00:00:10.496,0.011853269243147238
2625,00:00:10.5,-0.01385106088127941
2626,00:00:10.504,-0.00504676782293241
2627,00:00:10.508,-0.0026738964952528494
2628,00:00:10.512,0.02255609765416009
2629,00:00:10.516,-0.01119395252317193
2630,00:00:10.52,-0.0223093593958765
2631,00:00:10.524,0.02820763550698755
2632,00:00:10.528,0.012412565818522129
2633,00:00:10.532,-0.01759893726557491
2634,00:00:10.536,0.00553745683282619
2635,00:00:10.54,-0.054034942295402226
2636,00:00:10.544,0.03392563108354804
2637,00:00:10.548,0.04488991480320691
2638,00:00:10.552,-0.003160845488309869
2639,00:00:10.556,-0.0222796536982059
2640,00:00:10.56,-0.02161429729312656
2641,00:00:10.564,0.0029058814980089456
2642,00:00:10.568,0.01213878905400636
2643,00:00:10.572,-0.00276818976271898
2644,00:00:10.576,-7.394934073094023e-05
2645,00:00:10.58,-0.025377660524100107
2646,00:00:10.584,0.025343760149553387
2647,00:00:10.588,0.02630860172212121
2648,00:00:10.592,0.01435101428069174
2649,00:00:10.596,-0.022871680557727838
2650,00:00:10.6,-0.026973192929290228
2651,00:00:10.604,-0.02404456655494872
2652,00:00:10.608,0.018004639074206432
2653,00:00:10.612,0.013253690674900977
2654,00:00:10.616,0.0015600995393469687
2655,00:00:10.62,0.031327261589467546
2656,00:00:10.624,-0.0033557070419192696
2657,00:00:10.628,-0.03188401227816937
2658,00:00:10.632,0.0046155326999724
2659,00:00:10.636,-0.011225182330235839
2660,00:00:10.64,-0.004105378407984899
2661,00:00:10.644,0.030453733168542343
2662,00:00:10.648,0.006581415422260768
2663,00:00:10.652,-0.033963088877499145
2664,00:00:10.656,-0.0012764986604452003
2665,00:00:10.66,0.02163753332570198
2666,00:00:10.664,0.00470206781756133
2667,00:00:10.668,-0.010140269994735801
2668,00:00:10.672,-0.0061059765284881
2669,00:00:10.676,0.011150153441121816
2670,00:00:10.68,0.0068504746304824905
2671,00:00:10.684,0.010811802931129969
2672,00:00:10.688,-0.0432152999565005
2673,00:00:10.692,-0.0028299838304519194
2674,00:00:10.696,0.004550050362013283
2675,00:00:10.7,0.01665947772562503
2676,00:00:10.704,0.01884240307845178
2677,00:00:10.708,0.007694733329117331
2678,00:00:10.712,-0.023112168477382497
2679,00:00:10.716,-0.017828884010668802
2680,00:00:10.72,0.01788967289030549
2681,00:00:10.724,-0.005661091301590199
2682,00:00:10.728,0.0005943553987890495
2683,00:00:10.732,0.00930729042738676
2684,00:00:10.736,0.004957802593708101
2685,00:00:10.74,-0.02238223282620306
2686,00:00:10.744,-3.179465420543974e-05
2687,00:00:10.748,0.010599263012409203
2688,00:00:10.752,0.02436223626136778
2689,00:00:10.756,-0.0019839177839457503
2690,00:00:10.76,-0.02195437275804576
2691,00:00:10.764,-0.03402990661561493
2692,00:00:10.768,-0.007046636193990721
2693,00:00:10.772,0.04793100943788886
2694,00:00:10.776,0.0355301406234503
2695,00:00:10.78,-0.03313761297613371
2696,00:00:10.784,-0.016007144004106518
2697,00:00:10.788,0.024822685867547864
2698,00:00:10.792,-0.008400272286962716
2699,00:00:10.796,-0.03994949534535415
2700,00:00:10.8,0.009139531990513199
2701,00:00:10.804,0.022260783254750983
2702,00:00:10.808,0.015220129513181704
2703,00:00:10.812,-0.0036383832339197
2704,00:00:10.816,-0.01927083652117292
2705,00:00:10.82,0.01149262185208499
2706,00:00:10.824,0.00851600617170334
2707,00:00:10.828,-0.026625092199537875
2708,00:00:10.832,0.00980725954286754
2709,00:00:10.836,-0.00045131519436840926
2710,00:00:10.84,-0.003577234456315659
2711,00:00:10.844,0.0046832393854856404
2712,00:00:10.848,0.01868863124400382
2713,00:00:10.852,-0.0021442864090204187
2714,00:00:10.856,-0.01599537360016257
2715,00:00:10.86,-0.01065792798181065
2716,00:00:10.864,-0.0027376419166103014
2717,00:00:10.868,0.028773928526788988
2718,00:00:10.872,0.02246135461609814
2719,00:00:10.876,-0.018103180860634862
2720,00:00:10.88,-0.05142553988844149
2721,00:00:10.884,-0.029151032911613556
2722,00:00:10.888,0.069774119183421
2723,00:00:10.892,0.0383661147207022
2724,00:00:10.896,-0.0265173818916082
2725,00:00:10.9,-0.020880388095974912
2726,00:00:10.904,-0.0063131423667072036
2727,00:00:10.908,0.00595238688401876
2728,00:00:10.912,0.00889869662933055
2729,00:00:10.916,-0.0032282092142849796
2730,00:00:10.92,-0.011286095250397869
2731,00:00:10.924,-0.006842270959168671
2732,00:00:10.928,0.030058371135965004
2733,00:00:10.932,-0.004808704950846733
2734,00:00:10.936,-0.01925999461673196
2735,00:00:10.94,0.0021275165490806116
2736,00:00:10.944,0.007200786727480589
2737,00:00:10.948,0.0005466091679409107
2738,00:00:10.952,0.006588648597244173
2739,00:00:10.956,0.0033129900693893407
2740,00:00:10.96,-0.00586908322293311
2741,00:00:10.964,0.0014896867796777898
2742,00:00:10.968,-0.02800570358522239
2743,00:00:10.972,0.003361850045621402
2744,00:00:10.976,0.03134441981092091
2745,00:00:10.98,-0.0014590399805455984
2746,00:00:10.984,-0.01911188196390868
2747,00:00:10.988,0.022909255232661973
2748,00:00:10.992,-0.016551969922147695
2749,00:00:10.996,-0.005753708072006675
2750,00:00:11,-0.00652606110088534
2751,00:00:11.004,0.008246656740084329
2752,00:00:11.008,0.022438100539147857
2753,00:00:11.012,0.016046021366491907
2754,00:00:11.016,-0.028130854014307278
2755,00:00:11.02,-0.016735613287892186
2756,00:00:11.024,-0.00400645594345406
2757,00:00:11.028,-0.00565860897768288
2758,00:00:11.032,0.005079662660136813
2759,00:00:11.036,0.01989604899426922
2760,00:00:11.04,0.017120468022767454
2761,00:00:11.044,-0.0010066757095046333
2762,00:00:11.048,-0.006241051945835349
2763,00:00:11.052,-0.01260892557911577
2764,00:00:11.056,-0.00492079858668148
2765,00:00:11.06,-0.012365290196612451
2766,00:00:11.064,-0.004552044672891499
2767,00:00:11.068,0.025790412095375432
2768,00:00:11.072,0.0002912227064371109
2769,00:00:11.076,0.0072087515145540584
2770,00:00:11.08,-0.006506733596325101
2771,00:00:11.084,-0.011091547843534492
2772,00:00:11.088,0.017699781805276805
2773,00:00:11.092,-0.02823562128469342
2774,00:00:11.096,0.009681986644864101
2775,00:00:11.1,0.00826642091851677
2776,00:00:11.104,0.0058140503242611954
2777,00:00:11.108,0.01212971424683932
2778,00:00:11.112,-0.00972965793334879
2779,00:00:11.116,-0.02843100321479147
2780,00:00:11.12,-0.00875922432169319
2781,00:00:11.124,0.02105978270992636
2782,00:00:11.128,0.021700780518585813
2783,00:00:11.132,-0.00574870756827295
2784,00:00:11.136,-0.0008998960838653084
2785,00:00:11.14,0.00011735875159499948
2786,00:00:11.144,-0.019988241096143656
2787,00:00:11.148,-0.01619772531557833
2788,00:00:11.152,0.03290596418082715
2789,00:00:11.156,0.00685401889495553
2790,00:00:11.16,0.0015141594922170164
2791,00:00:11.164,-0.014854647219181043
2792,00:00:11.168,-0.0072778034955264005
2793,00:00:11.172,-0.01217590295709671
2794,00:00:11.176,0.022307997569441823
2795,00:00:11.18,0.016639687586575757
2796,00:00:11.184,-0.01349469285923988
2797,00:00:11.188,-0.03092807624489071
2798,00:00:11.192,0.017250598408281803
2799,00:00:11.196,0.04218498035334046
2800,00:00:11.2,-0.009298378834500909
2801,00:00:11.204,-0.033505098428577226
2802,00:00:11.208,-0.008315730839967728
2803,00:00:11.212,0.0007082406700646975
2804,00:00:11.216,0.02913927682675425
2805,00:00:11.22,-0.01428678212687373
2806,00:00:11.224,-0.01485914293880337
2807,00:00:11.228,0.012354932609014229
2808,00:00:11.232,0.008598591899499308
2809,00:00:11.236,0.005870876688277346
2810,00:00:11.24,-0.002566130831837648
2811,00:00:11.244,0.0014863087853882486
2812,00:00:11.248,-0.003298308234661821
2813,00:00:11.252,-0.010198845993727536
2814,00:00:11.256,0.01782106980681423
2815,00:00:11.26,-0.022215847857296443
2816,00:00:11.264,-0.017374347895383904
2817,00:00:11.268,0.010235315305180851
2818,00:00:11.272,0.010402953950688212
2819,00:00:11.276,0.01877425704151392
2820,00:00:11.28,0.006759889423847242
2821,00:00:11.284,-0.009787781629711351
2822,00:00:11.288,0.005729710683226591
2823,00:00:11.292,-0.019313789438456318
2824,00:00:11.296,0.001533947419375183
2825,00:00:11.3,-0.02193894953234118
2826,00:00:11.304,0.006945306609850375
2827,00:00:11.308,-0.0038963500410318236
2828,00:00:11.312,0.01998090930283066
2829,00:00:11.316,0.03774623991921546
2830,00:00:11.32,-0.0028843878535553917
2831,00:00:11.324,-0.0260694334283471
2832,00:00:11.328,-0.014957665931433422
2833,00:00:11.332,-0.014761570579139481
2834,00:00:11.336,-0.00610042084008457
2835,00:00:11.34,0.02510296087712046
2836,00:00:11.344,0.01156044332310557
2837,00:00:11.348,-0.010852862149476998
2838,00:00:11.352,0.00805876252707094
2839,00:00:11.356,0.01732659479603172
2840,00:00:11.36,-0.022577285533770912
2841,00:00:11.364,-0.01230262476019561
2842,00:00:11.368,0.006044146139174701
2843,00:00:11.372,0.002637967467308079
2844,00:00:11.376,0.012527863495051928
2845,00:00:11.38,-0.0019082762300967927
2846,00:00:11.384,-0.02571439184248449
2847,00:00:11.388,-0.00026384368538859976
2848,00:00:11.392,0.02914669545134529
2849,00:00:11.396,0.01956340484321119
2850,00:00:11.4,-0.03118654154241083
2851,00:00:11.404,-0.016876053065061597
2852,00:00:11.408,0.02188455965369939
2853,00:00:11.412,-0.002961924350529437
2854,00:00:11.416,-0.018107657379005108
2855,00:00:11.42,0.022997464053332778
2856,00:00:11.424,-0.01607530866749583
2857,00:00:11.428,-0.00810769223608077
2858,00:00:11.432,0.03545386716723441
2859,00:00:11.436,0.020055369357578408
2860,00:00:11.44,-0.03051986265927554
2861,00:00:11.444,-0.012524440826382474
2862,00:00:11.448,-0.020693817175924813
2863,00:00:11.452,0.0081276344135403
2864,00:00:11.456,0.03029941837303343
2865,00:00:11.46,0.01802291208878165
2866,00:00:11.464,-0.0409393282607198
2867,00:00:11.468,-0.0030827185255475342
2868,00:00:11.472,0.00862233014777302
2869,00:00:11.476,0.0013884827494621103
2870,00:00:11.48,0.01692769560031596
2871,00:00:11.484,-0.027155250776559142
2872,00:00:11.488,0.008635020814836018
2873,00:00:11.492,0.02264231862500317
2874,00:00:11.496,-0.009606090374290874
2875,00:00:11.5,-0.0033042209688574093
2876,00:00:11.504,-0.01193661754950881
2877,00:00:11.508,-0.0101809692569077
2878,00:00:11.512,0.03302210965193808
2879,00:00:11.516,-0.0013907356187701217
2880,00:00:11.52,-0.02231966517865658
2881,00:00:11.524,0.004778204951435251
2882,00:00:11.528,0.008095110883004991
2883,00:00:11.532,-0.011574891497730274
2884,00:00:11.536,-0.02363856090232728
2885,00:00:11.54,0.026345035294070816
2886,00:00:11.544,0.03133352240547541
2887,00:00:11.548,0.000765733770094798
2888,00:00:11.552,-0.028263399144634622
2889,00:00:11.556,0.0011823667446151298
2890,00:00:11.56,-0.027929441072046802
2891,00:00:11.564,0.020109778270125403
2892,00:00:11.568,0.01009693267405969
2893,00:00:11.572,0.011454517021775204
2894,00:00:11.576,-0.0027056885883211985
2895,00:00:11.58,-0.0193111301632598
2896,00:00:11.584,-0.0020312625565566097
2897,00:00:11.588,-0.00335594289936127
2898,00:00:11.592,0.0174016002565622
2899,00:00:11.596,-0.0028873188421130198
2900,00:00:11.6,0.00949598522856827
2901,00:00:11.604,-0.002688625943846999
2902,00:00:11.608,-0.008865528390742838
2903,00:00:11.612,-0.0012464271858334463
2904,00:00:11.616,-0.010336698440369182
2905,00:00:11.62,0.01190334465354686
2906,00:00:11.624,0.01247620268259197
2907,00:00:11.628,-0.03335185849573463
2908,00:00:11.632,0.04392532742349422
2909,00:00:11.636,-0.012691901298239803
2910,00:00:11.64,-0.04330345662310715
2911,00:00:11.644,0.02740418887697158
2912,00:00:11.648,0.030916988383978578
2913,00:00:11.652,-0.0359597653150559
2914,00:00:11.656,0.014861555770039593
2915,00:00:11.66,0.0010109245777130405
2916,00:00:11.664,0.004764842276927084
2917,00:00:11.668,-0.015177965047769281
2918,00:00:11.672,-0.003668240737169969
2919,00:00:11.676,0.009505180642008792
2920,00:00:11.68,-0.013261949643492666
2921,00:00:11.684,0.025032769655808793
2922,00:00:11.688,-0.009787157177925098
2923,00:00:11.692,-0.0030532148666679794
2924,00:00:11.696,0.012346842559054428
2925,00:00:11.7,-0.01325209671631453
2926,00:00:11.704,-0.00947034906130284
2927,00:00:11.708,0.00676810147706417
2928,00:00:11.712,0.0047808294766583034
2929,00:00:11.716,0.006193156645167619
2930,00:00:11.72,0.01249924628064034
2931,00:00:11.724,-0.04730277229100471
2932,00:00:11.728,0.015074671711772698
2933,00:00:11.732,0.019024291308596772
2934,00:00:11.736,0.005759931867942212
2935,00:00:11.74,-0.01144350180402395
2936,00:00:11.744,0.003760310821235173
2937,00:00:11.748,0.0017198292916873483
2938,00:00:11.752,-0.008963562548160608
2939,00:00:11.756,0.0016026521334424702
2940,00:00:11.76,-0.008418591838562856
2941,00:00:11.764,-0.004602681379765232
2942,00:00:11.768,0.010587219672743222
2943,00:00:11.772,0.0628057010471821
2944,00:00:11.776,-0.03241851716302343
2945,00:00:11.78,-0.05279539478942746
2946,00:00:11.784,-0.021448092767968732
2947,00:00:11.788,0.01136466930620368
2948,00:00:11.792,0.0381964687258005
2949,00:00:11.796,0.020495320088230115
2950,00:00:11.8,0.01241019275039437
2951,00:00:11.804,-0.012997991871088788
2952,00:00:11.808,-0.02394485846161843
2953,00:00:11.812,-0.0014913777122274336
2954,00:00:11.816,-0.006046226248145102
2955,00:00:11.82,-0.018358973087742973
2956,00:00:11.824,0.0066522854613140225
2957,00:00:11.828,0.0449811629951
2958,00:00:11.832,-0.01878850115463139
2959,00:00:11.836,0.01498896279372279
2960,00:00:11.84,-0.0290715657174588
2961,00:00:11.844,-0.001915757078677409
2962,00:00:11.848,0.018154258374124824
2963,00:00:11.852,0.018070772290229797
2964,00:00:11.856,-0.02315189666114748
2965,00:00:11.86,-0.022658453322947
2966,00:00:11.864,0.010051879333332226
2967,00:00:11.868,0.0086152134463191
2968,00:00:11.872,-0.0030915902752895047
2969,00:00:11.876,0.009406297467648959
2970,00:00:11.88,0.0033939715940505214
2971,00:00:11.884,-0.0056225135922432
2972,00:00:11.888,0.01075667038094255
2973,00:00:11.892,-0.0035577124217525207
2974,00:00:11.896,-0.0257179453037679
2975,00:00:11.9,0.002468679973389948
2976,00:00:11.904,0.01085959316696972
2977,00:00:11.908,0.018801490659825504
2978,00:00:11.912,-0.009382492513395879
2979,00:00:11.916,-0.01661454746499654
2980,00:00:11.92,0.01105888630263507
2981,00:00:11.924,0.0019207727164029902
2982,00:00:11.928,-0.0012128518428653496
2983,00:00:11.932,0.01104601990664378
2984,00:00:11.936,-0.031138988211750922
2985,00:00:11.94,0.016381955705583127
2986,00:00:11.944,7.318239659079989e-05
2987,00:00:11.948,0.006432310678064851
2988,00:00:11.952,0.017504754476249197
2989,00:00:11.956,-0.011302696540951708
2990,00:00:11.96,-0.01508087322872598
2991,00:00:11.964,-0.02421017223969106
2992,00:00:11.968,0.01477796141989529
2993,00:00:11.972,0.01680657966062424
2994,00:00:11.976,0.013085109880194042
2995,00:00:11.98,-0.0018544449703767874
2996,00:00:11.984,-0.012542875760118519
2997,00:00:11.988,-0.008024722570553412
2998,00:00:11.992,0.00971677922643726
2999,00:00:11.996,0.00643174885772169
3000,00:00:12,-0.009348672349005981
3001,00:00:12.004,-0.018184621178079445
3002,00:00:12.008,-0.00382341071963313
3003,00:00:12.012,0.017498609144240663
3004,00:00:12.016,0.02158551139291372
3005,00:00:12.02,0.005162600544281311
3006,00:00:12.024,-0.00045530044008045977
3007,00:00:12.028,-0.03529572009574623
3008,00:00:12.032,-0.0017632432281971568
3009,00:00:12.036,0.0250710167456418
3010,00:00:12.04,-0.0414547082036733
3011,00:00:12.044,0.01748167019104585
3012,00:00:12.048,0.04482605587691075
3013,00:00:12.052,0.00312898447737098
3014,00:00:12.056,-0.0383314313367009
3015,00:00:12.06,-0.028675553505308947
3016,00:00:12.064,0.01670806226320566
3017,00:00:12.068,0.02342238277196886
3018,00:00:12.072,0.006043570116162401
3019,00:00:12.076,-0.00975875672884285
3020,00:00:12.08,0.009915090049616958
3021,00:00:12.084,-0.0015875836834310965
3022,00:00:12.088,-0.019566035363823182
3023,00:00:12.092,-0.009429956029634926
3024,00:00:12.096,0.00794501299969852
3025,00:00:12.1,0.0060876102652400385
3026,00:00:12.104,0.0117169325239956
3027,00:00:12.108,0.00986817304510625
3028,00:00:12.112,-0.01217963814269756
3029,00:00:12.116,-0.01192401442676782
3030,00:00:12.12,-0.012420689105056198
3031,00:00:12.124,0.00437173759564757
3032,00:00:12.128,0.01995373144745824
3033,00:00:12.132,0.01844569941749792
3034,00:00:12.136,-0.01881959289312365
3035,00:00:12.14,-0.015970461303368207
3036,00:00:12.144,0.007525635854108294
3037,00:00:12.148,-0.0034612023737281596
3038,00:00:12.152,0.012623110931599507
3039,00:00:12.156,-0.0012923297472298909
3040,00:00:12.16,-0.008837631001370028
3041,00:00:12.164,0.017443415592424606
3042,00:00:12.168,-0.04407546273432672
3043,00:00:12.172,0.03483088547363881
3044,00:00:12.176,0.007502086220483739
3045,00:00:12.18,-0.0046117423335089915
3046,00:00:12.184,-0.02134363877121355
3047,00:00:12.188,0.011724176583811637
3048,00:00:12.192,0.02136582322418692
3049,00:00:12.196,-0.02090575546026228
3050,00:00:12.2,-0.009992886334657593
3051,00:00:12.204,0.010374594305176286
3052,00:00:12.208,0.01425771578215063
3053,00:00:12.212,0.0008801447402220219
3054,00:00:12.216,-0.025402305880561492
3055,00:00:12.22,-0.004425502964295451
3056,00:00:12.224,0.017849603202194014
3057,00:00:12.228,-0.010566073469817631
3058,00:00:12.232,-0.00481761561241004
3059,00:00:12.236,0.0365957436151802
3060,00:00:12.24,-0.001510291302110992
3061,00:00:12.244,-0.012675721198320338
3062,00:00:12.248,-0.016748470021411742
3063,00:00:12.252,-0.012810626998543698
3064,00:00:12.256,0.01149299717508253
3065,00:00:12.26,0.0190948583185672
3066,00:00:12.264,0.0039007407613097893
3067,00:00:12.268,-0.018574667628854465
3068,00:00:12.272,-0.0048202695325016975
3069,00:00:12.276,0.0061923919711262005
3070,00:00:12.28,0.008590933866798869
3071,00:00:12.284,0.0027911415090784396
3072,00:00:12.288,-0.012928509619086969
3073,00:00:12.292,0.026177592575550013
3074,00:00:12.296,-0.014923859736882192
3075,00:00:12.3,-0.02284184552263464
3076,00:00:12.304,0.0008064822759479597
3077,00:00:12.308,-0.0004632493310054936
3078,00:00:12.312,0.02317412616685037
3079,00:00:12.316,0.01459778461139648
3080,00:00:12.32,-0.02155152882914994
3081,00:00:12.324,0.0011316088493913395
3082,00:00:12.328,-0.0077402526512742
3083,00:00:12.332,0.0068670769687742
3084,00:00:12.336,0.005060571013018489
3085,00:00:12.34,-0.00018381030531600812
3086,00:00:12.344,0.0070742135867476515
3087,00:00:12.348,-0.01947938534431161
3088,00:00:12.352,-0.014301042072475002
3089,00:00:12.356,0.01836936175823216
3090,00:00:12.36,0.020809039473533603
3091,00:00:12.364,-0.010210846434347368
3092,00:00:12.368,-0.02430352428928016
3093,00:00:12.372,0.03478040941990911
3094,00:00:12.376,-0.008891520905308429
3095,00:00:12.38,-0.023139030672609768
3096,00:00:12.384,-0.03174441034207118
3097,00:00:12.388,0.030404235221794845
3098,00:00:12.392,0.06229662522673604
3099,00:00:12.396,-0.010378740262240192
3100,00:00:12.4,-0.02499598357826469
3101,00:00:12.404,-0.014331647194922007
3102,00:00:12.408,-0.01624987565446643
3103,00:00:12.412,-0.00017215963453060673
3104,00:00:12.416,0.0029719502199441403
3105,00:00:12.42,0.014259479008615
3106,00:00:12.424,0.01120998326223344
3107,00:00:12.428,0.00735072931274772
3108,00:00:12.432,-0.0031264690915122602
3109,00:00:12.436,-0.017200832371600007
3110,00:00:12.44,-0.006518426642287561
3111,00:00:12.444,0.012837931688409302
3112,00:00:12.448,0.006573757156729731
3113,00:00:12.452,-0.01716589136049156
3114,00:00:12.456,0.0009973270352929761
