,Elapsed Time,EMG
0,00:00:00,1.7644130513071976
1,00:00:00.004,-1.687327057123182
2,00:00:00.008,-1.3919867873191847
3,00:00:00.012,-0.14411542005836916
4,00:00:00.016,0.7201161570847001
5,00:00:00.02,0.8839331679046146
6,00:00:00.024,0.5361989289522189
7,00:00:00.028,0.0403018454089757
8,00:00:00.032,-0.256315594539046
9,00:00:00.036,-0.34593510814011147
10,00:00:00.04,-0.24446993041783488
11,00:00:00.044,-0.08817325066775106
12,00:00:00.048,0.032725926488638
13,00:00:00.052,0.0920048984698955
14,00:00:00.056,0.10799617040902418
15,00:00:00.06,0.057845599949359484
16,00:00:00.064,-0.01066044322215021
17,00:00:00.068,-0.04146028310060505
18,00:00:00.072,-0.034253082121722386
19,00:00:00.076,0.0006177059840411572
20,00:00:00.08,-0.006124087725766
21,00:00:00.084,0.00026456324849277344
22,00:00:00.088,0.00020873500034212025
23,00:00:00.092,0.013749252364505117
24,00:00:00.096,0.014262424781918508
25,00:00:00.1,-0.012585852295160297
26,00:00:00.104,0.006424291059374879
27,00:00:00.108,2.1751038730160113e-05
28,00:00:00.112,-0.002755575114861089
29,00:00:00.116,-0.015606869746989105
30,00:00:00.12,-0.0069649937795475195
31,00:00:00.124,0.01854585669934754
32,00:00:00.128,0.016135104116983743
33,00:00:00.132,-0.01487989537417889
34,00:00:00.136,-0.013632431859150529
35,00:00:00.14,0.017966713407076926
36,00:00:00.144,-0.0058266404084861105
37,00:00:00.148,-0.003914547560270872
38,00:00:00.152,0.010262771160341815
39,00:00:00.156,0.004700860532466317
40,00:00:00.16,-0.01364402961917222
41,00:00:00.164,-0.019757747882977142
42,00:00:00.168,0.00981802027672529
43,00:00:00.172,0.009917813848005608
44,00:00:00.176,0.009328114334493879
45,00:00:00.18,-0.00340555864386261
46,00:00:00.184,0.00099295296240597
47,00:00:00.188,-0.006458825082518152
48,00:00:00.192,0.01426047040149568
49,00:00:00.196,0.0008166220504790579
50,00:00:00.2,-0.02147324453108012
51,00:00:00.204,0.0018069955112878329
52,00:00:00.208,-0.00988281425088644
53,00:00:00.212,0.011413432832341655
54,00:00:00.216,0.006382905179634689
55,00:00:00.22,0.0006891961675137507
56,00:00:00.224,0.008190625580027701
57,00:00:00.228,-0.0038339825405273595
58,00:00:00.232,-0.0024823397397994995
59,00:00:00.236,-0.00416019838303327
60,00:00:00.24,-0.01840710116084662
61,00:00:00.244,0.010035358369350437
62,00:00:00.248,0.01416604709811506
63,00:00:00.252,-0.0012441757135093282
64,00:00:00.256,0.00031855970155448025
65,00:00:00.26,-0.0038995789363980606
66,00:00:00.264,-0.005186145543120793
67,00:00:00.268,-0.0030279981874627966
68,00:00:00.272,0.006483437027782219
69,00:00:00.276,0.00908587803132837
70,00:00:00.28,-0.005394848325522594
71,00:00:00.284,-0.007782931032124908
72,00:00:00.288,0.0044006088282912996
73,00:00:00.292,-0.0028267040615901316
74,00:00:00.296,0.01393801649101082
75,00:00:00.3,-0.01159389922395349
76,00:00:00.304,-0.008619548112619663
77,00:00:00.308,0.008747783955186612
78,00:00:00.312,0.01250848046038296
79,00:00:00.316,-0.02269196324050422
80,00:00:00.32,-0.001342781353741879
81,00:00:00.324,0.016541711403988302
82,00:00:00.328,0.01695484801894056
83,00:00:00.332,-0.024935313500463973
84,00:00:00.336,-0.01106301625259222
85,00:00:00.34,0.00529108726186678
86,00:00:00.344,0.03853184776380662
87,00:00:00.348,-0.01714466884732248
88,00:00:00.352,-0.03406476182863116
89,00:00:00.356,0.003705525305122139
90,00:00:00.36,0.012401977059198536
91,00:00:00.364,0.008713811868801689
92,00:00:00.368,0.004468348750378938
93,00:00:00.372,0.0064713864121586
94,00:00:00.376,0.0039838093798607605
95,00:00:00.38,-0.013864398410078145
96,00:00:00.384,-0.022958892790484277
97,00:00:00.388,0.01190800627227874
98,00:00:00.392,-0.011119951843284034
99,00:00:00.396,0.0242586485110223
100,00:00:00.4,0.01401166943833233
101,00:00:00.404,-0.02209499129094185
102,00:00:00.408,0.00957707827910781
103,00:00:00.412,-0.01702620438300073
104,00:00:00.416,-0.0010718735284172068
105,00:00:00.42,0.01050505600869655
106,00:00:00.424,0.0006064441986381989
107,00:00:00.428,0.0019795414991676877
108,00:00:00.432,0.007147103984607382
109,00:00:00.436,-0.01067240536212921
110,00:00:00.44,-0.002419021941022949
111,00:00:00.444,0.02003268618136645
112,00:00:00.448,-0.01362019916996355
113,00:00:00.452,-0.019615694996900843
114,00:00:00.456,-0.007405408890917898
115,00:00:00.46,0.02634581830352547
116,00:00:00.464,0.01253563188947737
117,00:00:00.468,-0.00529890577308834
118,00:00:00.472,-0.008201468037441331
119,00:00:00.476,-0.00070125353522599
120,00:00:00.48,0.0016447873786091909
121,00:00:00.484,-0.005210222036112098
122,00:00:00.488,-0.0069433119497262
123,00:00:00.492,0.00505587516818196
124,00:00:00.496,0.00639657047577202
125,00:00:00.5,0.0011200047738384408
126,00:00:00.504,-0.0004651211784221232
127,00:00:00.508,0.003399391716811805
128,00:00:00.512,0.00370242190547284
129,00:00:00.516,-0.01787036051973701
130,00:00:00.52,0.00496360007673506
131,00:00:00.524,-0.006364420056343099
132,00:00:00.528,0.004866840812610467
133,00:00:00.532,0.02377645298838616
134,00:00:00.536,-0.00533331604674459
135,00:00:00.54,-0.0168573094997555
136,00:00:00.544,-0.004669044225011018
137,00:00:00.548,-0.0065781942103058195
138,00:00:00.552,0.01169801945798099
139,00:00:00.556,0.0035076247295364733
140,00:00:00.56,0.010168455890379848
141,00:00:00.564,-0.00467297725845129
142,00:00:00.568,-0.008414098992943719
143,00:00:00.572,0.0030171045214046916
144,00:00:00.576,0.004227196448482574
145,00:00:00.58,-0.00079029914923012
146,00:00:00.584,-0.008011537342099511
147,00:00:00.588,-0.003741879016160959
148,00:00:00.592,-0.00446321233175695
149,00:00:00.596,0.0061152962007327075
150,00:00:00.6,0.010570873389951888
151,00:00:00.604,0.00531501596560702
152,00:00:00.608,0.015472561412025266
153,00:00:00.612,-0.01629655528813601
154,00:00:00.616,-0.02797552593983707
155,00:00:00.62,0.0007225413573905782
156,00:00:00.624,0.0216102210106328
157,00:00:00.628,-0.00586864806246013
158,00:00:00.632,0.002245196315925561
159,00:00:00.636,-0.011369981046300425
160,00:00:00.64,0.02533472172217447
161,00:00:00.644,0.01101692928932605
162,00:00:00.648,-0.02705874596722422
163,00:00:00.652,-0.017033678013831342
164,00:00:00.656,0.007774026191327722
165,00:00:00.66,0.01844675792381171
166,00:00:00.664,0.0033245400700252494
167,00:00:00.668,-0.004308828385546779
168,00:00:00.672,-0.001539480756036941
169,00:00:00.676,-0.0054242538753897
170,00:00:00.68,-0.0037816802505403705
171,00:00:00.684,-0.0066963422577828
172,00:00:00.688,0.003737315535545349
173,00:00:00.692,0.01566827995702624
174,00:00:00.696,-0.0002878208179026907
175,00:00:00.7,0.003419739659875631
176,00:00:00.704,-0.01183426077477634
177,00:00:00.708,-0.022449182812124442
178,00:00:00.712,0.02004062128253282
179,00:00:00.716,0.012490160530433059
180,00:00:00.72,-0.0003474028781056786
181,00:00:00.724,-0.00923067016992718
182,00:00:00.728,0.0033960820292122666
183,00:00:00.732,0.001283099758438759
184,00:00:00.736,-0.017030602379236336
185,00:00:00.74,0.008139737416058791
186,00:00:00.744,0.007081268355250358
187,00:00:00.748,0.00470121786929667
188,00:00:00.752,-0.011407010257244141
189,00:00:00.756,0.01395972352474933
190,00:00:00.76,-0.00784736871719362
191,00:00:00.764,-0.00358675210736692
192,00:00:00.768,0.002924576401710512
193,00:00:00.772,-0.0161394057795406
194,00:00:00.776,0.00544776697643101
195,00:00:00.78,0.018735758028924514
196,00:00:00.784,-0.00750219216570254
197,00:00:00.788,0.004256032898410921
198,00:00:00.792,0.0011894493363797613
199,00:00:00.796,-0.00543627189472318
200,00:00:00.8,-0.00485679926350713
201,00:00:00.804,-0.005793299991637461
202,00:00:00.808,0.0009711519815027692
203,00:00:00.812,0.01580235874280334
204,00:00:00.816,-0.00029768321110168364
205,00:00:00.82,-0.0053580187959596575
206,00:00:00.824,-0.00649367389269173
207,00:00:00.828,0.0025560483336448704
208,00:00:00.832,0.00266372307669371
209,00:00:00.836,-0.0015509186778217502
210,00:00:00.84,-0.00937941554002464
211,00:00:00.844,0.018603812903165838
212,00:00:00.848,-0.012606389092979979
213,00:00:00.852,0.0095821525901556
214,00:00:00.856,-0.0015598614700138508
215,00:00:00.86,-0.0020202914602123158
216,00:00:00.864,0.005816274031531069
217,00:00:00.868,-0.01590823242440819
218,00:00:00.872,-0.007309989188797781
219,00:00:00.876,0.0025364900939166602
220,00:00:00.88,0.017900718841701718
221,00:00:00.884,0.011765012051910169
222,00:00:00.888,-0.00799844134598971
223,00:00:00.892,-0.007774126250296831
224,00:00:00.896,-0.01302684983238578
225,00:00:00.9,0.01303909532725811
226,00:00:00.904,0.0041567368898540805
227,00:00:00.908,-0.00806336756795642
228,00:00:00.912,0.0001995945349335896
229,00:00:00.916,0.012643683498026798
230,00:00:00.92,-0.012461513804737485
231,00:00:00.924,-0.0040037210565060394
232,00:00:00.928,0.00178329949267209
233,00:00:00.932,0.0037631407612934704
234,00:00:00.936,-0.0053709071362391045
235,00:00:00.94,0.015126599697396128
236,00:00:00.944,-4.462326614891382e-06
237,00:00:00.948,-0.009733462095027763
238,00:00:00.952,-0.003235295182093975
239,00:00:00.956,0.011380196898244328
240,00:00:00.96,-0.011557883291970893
241,00:00:00.964,-0.0002175519475713381
242,00:00:00.968,0.011489841286675092
243,00:00:00.972,-0.007363284996245051
244,00:00:00.976,-0.01205943478271365
245,00:00:00.98,0.008256766479462389
246,00:00:00.984,0.01316767674870789
247,00:00:00.988,-0.009155454565188844
248,00:00:00.992,0.004482212942093649
249,00:00:00.996,0.018653149425517768
250,00:00:01,-0.02253515948541462
251,00:00:01.004,-0.030136196501871333
252,00:00:01.008,0.022839770768769127
253,00:00:01.012,0.0012452007686079066
254,00:00:01.016,0.01252467563608661
255,00:00:01.02,0.016140280844410923
256,00:00:01.024,-0.0169487230014056
257,00:00:01.028,-0.019520519534125952
258,00:00:01.032,0.002209723927080633
259,00:00:01.036,0.004334480036050059
260,00:00:01.04,0.01252487266901881
261,00:00:01.044,0.0012143563944846392
262,00:00:01.048,-0.005025478429161011
263,00:00:01.052,0.002925786116975357
264,00:00:01.056,0.006246777018532112
265,00:00:01.06,-0.004987966822227471
266,00:00:01.064,-0.01669576158747072
267,00:00:01.068,-0.014282950432971132
268,00:00:01.072,0.0320557869272307
269,00:00:01.076,-0.013847663845808732
270,00:00:01.08,0.011558137950487449
271,00:00:01.084,0.0034902858315035683
272,00:00:01.088,-0.012587986726430278
273,00:00:01.092,0.005638631613692273
274,00:00:01.096,0.00895833654794842
275,00:00:01.1,-0.0023438880452886206
276,00:00:01.104,-0.00485215941444039
277,00:00:01.108,-0.007658457259822126
278,00:00:01.112,-0.00561294042563532
279,00:00:01.116,-0.0008801608346402697
280,00:00:01.12,0.01356046961154787
281,00:00:01.124,-0.00927331333514304
282,00:00:01.128,0.01004983531311155
283,00:00:01.132,0.004800263792276381
284,00:00:01.136,0.0009637494804337603
285,00:00:01.14,0.0001418120227754012
286,00:00:01.144,-0.01773400371894239
287,00:00:01.148,-0.005328760249540209
288,00:00:01.152,0.005124643095769
289,00:00:01.156,0.01679615955799819
290,00:00:01.16,0.0023746662773191903
291,00:00:01.164,0.005625888705253599
292,00:00:01.168,-0.01567067345604301
293,00:00:01.172,-0.01582996814977378
294,00:00:01.176,0.0005252175033092581
295,00:00:01.18,0.004774399800226089
296,00:00:01.184,0.021323622670024626
297,00:00:01.188,1.719594001769846e-05
298,00:00:01.192,-0.004435101640410718
299,00:00:01.196,-0.009666990838013579
300,00:00:01.2,0.004254256666172345
301,00:00:01.204,-0.0018629028927534801
302,00:00:01.208,0.004202367912512272
303,00:00:01.212,-0.012420086422935133
304,00:00:01.216,0.004240901209413978
305,00:00:01.22,0.0018831095949280998
306,00:00:01.224,0.00238141650334001
307,00:00:01.228,-0.00609114533290267
308,00:00:01.232,0.01934010488912464
309,00:00:01.236,0.004707166342996067
310,00:00:01.24,-0.024830396287143248
311,00:00:01.244,0.00829700531903654
312,00:00:01.248,0.005742333363741639
313,00:00:01.252,-0.01526376022957262
314,00:00:01.256,-0.01755030592903494
315,00:00:01.26,0.01216933340765536
316,00:00:01.264,0.03002191521227358
317,00:00:01.268,-0.0016996028134599302
318,00:00:01.272,0.00287613715045154
319,00:00:01.276,-0.01890906854532659
320,00:00:01.28,-0.005722235218854617
321,00:00:01.284,-0.0055574359721504134
322,00:00:01.288,0.00889072322752327
323,00:00:01.292,0.009853733470663418
324,00:00:01.296,-0.00186110124923289
325,00:00:01.3,-0.0038935719057917595
326,00:00:01.304,0.004067176487296809
327,00:00:01.308,-0.014236578019335878
328,00:00:01.312,-0.008317720610648388
329,00:00:01.316,0.02533246204257015
330,00:00:01.32,0.00156523007899524
331,00:00:01.324,0.018340768292546224
332,00:00:01.328,-0.01497378473868596
333,00:00:01.332,-0.03542638989165422
334,00:00:01.336,0.00651974161155522
335,00:00:01.34,0.00634977384470403
336,00:00:01.344,0.020918770227581228
337,00:00:01.348,-0.0026701184688135964
338,00:00:01.352,-0.00875085801817477
339,00:00:01.356,0.0025241137482225904
340,00:00:01.36,-0.00016245886217803023
341,00:00:01.364,-0.0010981751256622372
342,00:00:01.368,-0.000898775295354471
343,00:00:01.372,-0.002353715113713401
344,00:00:01.376,0.006375049706548451
345,00:00:01.38,-0.0018469898495823102
346,00:00:01.384,-0.013096570619381962
347,00:00:01.388,0.008857981854816906
348,00:00:01.392,0.01922329561784868
349,00:00:01.396,-0.00562369078397751
350,00:00:01.4,-0.0216630874201655
351,00:00:01.404,0.00476708321366461
352,00:00:01.408,0.0032922788523137496
353,00:00:01.412,-0.005790915805846418
354,00:00:01.416,0.011490393982967338
355,00:00:01.42,0.01124140969477594
356,00:00:01.424,0.0010509905405342388
357,00:00:01.428,-0.02955612959340208
358,00:00:01.432,0.0029261773743201073
359,00:00:01.436,0.007877587107941508
360,00:00:01.44,0.00616474286653102
361,00:00:01.444,0.0022247521264944182
362,00:00:01.448,-0.0030943260062485886
363,00:00:01.452,-0.00457392365206033
364,00:00:01.456,0.01594086131080985
365,00:00:01.46,-0.00937965314369648
366,00:00:01.464,-0.016455985081847802
367,00:00:01.468,-0.0012822011194657565
368,00:00:01.472,0.009940704796463251
369,00:00:01.476,0.013159108348190781
370,00:00:01.48,0.009810093848500411
371,00:00:01.484,-0.01487648327019997
372,00:00:01.488,-0.018795994110405462
373,00:00:01.492,0.011446926757344066
374,00:00:01.496,-0.0005328966071829304
375,00:00:01.5,0.01489655941259116
376,00:00:01.504,-0.015194716979749515
377,00:00:01.508,0.0017880467130453308
378,00:00:01.512,-0.00021750328596681313
379,00:00:01.516,-0.005134596663992854
380,00:00:01.52,0.018192162795458013
381,00:00:01.524,-0.0035027902486035574
382,00:00:01.528,0.0009971205145120395
383,00:00:01.532,-0.01188396802172065
384,00:00:01.536,-0.008482246194034811
385,00:00:01.54,0.01198151032440364
386,00:00:01.544,-0.006628487986745312
387,00:00:01.548,0.007025843340670699
388,00:00:01.552,0.012182359452708597
389,00:00:01.556,-0.00928040128201244
390,00:00:01.56,0.0022869606036692892
391,00:00:01.564,-0.015283252811059349
392,00:00:01.568,0.001283389792661173
393,00:00:01.572,0.01510680688079451
394,00:00:01.576,0.010094261495396488
395,00:00:01.58,-0.02488758252002297
396,00:00:01.584,-0.01432851492427292
397,00:00:01.588,0.01409289590083063
398,00:00:01.592,0.03445561295666264
399,00:00:01.596,-0.0027511967637110397
400,00:00:01.6,-0.027120842714794022
401,00:00:01.604,-0.0025498135946691
402,00:00:01.608,-0.00555341085419059
403,00:00:01.612,-0.0005523836007341799
404,00:00:01.616,0.01274869008921091
405,00:00:01.62,0.01066759589593861
406,00:00:01.624,0.004897505044937141
407,00:00:01.628,-0.01409803726710379
408,00:00:01.632,-0.022927388548851
409,00:00:01.636,0.008413644274696708
410,00:00:01.64,0.01664932817220685
411,00:00:01.644,0.01913164532743398
412,00:00:01.648,-0.01508554269094024
413,00:00:01.652,-0.01062697521410879
414,00:00:01.656,-0.00611629639752209
415,00:00:01.66,-0.0010514409514144132
416,00:00:01.664,0.01108576520346106
417,00:00:01.668,0.0046520481118932306
418,00:00:01.672,0.001549016742501407
419,00:00:01.676,-0.004885797039605672
420,00:00:01.68,-0.012756610987707931
421,00:00:01.684,0.0166799183934927
422,00:00:01.688,-0.004486650155740787
423,00:00:01.692,-0.01811248809099198
424,00:00:01.696,0.01702945376746354
425,00:00:01.7,0.02309559495188293
426,00:00:01.704,-0.012167294975370169
427,00:00:01.708,-0.016462713945657
428,00:00:01.712,-0.01624192204326392
429,00:00:01.716,0.00524729478638619
430,00:00:01.72,0.01070176588837057
431,00:00:01.724,0.016247002757154412
432,00:00:01.728,0.01358702237484977
433,00:00:01.732,-0.02969764731824399
434,00:00:01.736,0.01055317169812042
435,00:00:01.74,-0.002377376775257289
436,00:00:01.744,-0.018195568409282697
437,00:00:01.748,0.004184100078418851
438,00:00:01.752,0.0014691843753098684
439,00:00:01.756,0.02081918716430667
440,00:00:01.76,0.010321550740627572
441,00:00:01.764,-0.01867906632833188
442,00:00:01.768,-0.02249386999756093
443,00:00:01.772,0.02064615581184625
444,00:00:01.776,0.0013210158795118488
445,00:00:01.78,0.00558579247444871
446,00:00:01.784,-0.009238770027877766
447,00:00:01.788,-0.00806398876011371
448,00:00:01.792,0.00884575664531435
449,00:00:01.796,-0.006129282061010559
450,00:00:01.8,0.01587852148804812
451,00:00:01.804,-0.006324384739855354
452,00:00:01.808,0.003734214638825507
453,00:00:01.812,-0.008987191162304977
454,00:00:01.816,-0.013644269434735179
455,00:00:01.82,0.01311602623900399
456,00:00:01.824,0.007108922349289019
457,00:00:01.828,0.0016703870496712647
458,00:00:01.832,0.004463472869247191
459,00:00:01.836,-0.01085616213094908
460,00:00:01.84,-0.0010266793979098957
461,00:00:01.844,0.00455788196995854
462,00:00:01.848,0.0021452173823490704
463,00:00:01.852,-0.013753058621659861
464,00:00:01.856,-0.00973924435675143
465,00:00:01.86,0.02514070784673097
466,00:00:01.864,-0.01010846649296581
467,00:00:01.868,-0.00847011199221015
468,00:00:01.872,0.020145281989243778
469,00:00:01.876,-0.0020971274352632376
470,00:00:01.88,-0.003103924391325568
471,00:00:01.884,0.0019275425001978896
472,00:00:01.888,0.009523070883005861
473,00:00:01.892,-0.01110495277680457
474,00:00:01.896,-0.02383941435255113
475,00:00:01.9,0.007878737640567124
476,00:00:01.904,0.01689041801728306
477,00:00:01.908,0.0028966958634555405
478,00:00:01.912,-0.015871123061515433
479,00:00:01.916,0.00962110003456473
480,00:00:01.92,0.005389989470131688
481,00:00:01.924,-0.011175697844009853
482,00:00:01.928,0.014162444625981149
483,00:00:01.932,-0.0035021066432818727
484,00:00:01.936,-0.017802599031710983
485,00:00:01.94,0.00329406233504415
486,00:00:01.944,0.005870085209608077
487,00:00:01.948,0.01117101032286882
488,00:00:01.952,-0.0037649321602657403
489,00:00:01.956,-0.00752121105324477
490,00:00:01.96,0.003647015604656189
491,00:00:01.964,0.002375688869506116
492,00:00:01.968,-0.0010124609107151636
493,00:00:01.972,-0.006757019902579483
494,00:00:01.976,0.00393274208181537
495,00:00:01.98,-0.011740929912775751
496,00:00:01.984,0.0154475274030119
497,00:00:01.988,0.007415101514197879
498,00:00:01.992,-0.01673908019438388
499,00:00:01.996,0.0009758006781339708
500,00:00:02,0.013762777321971955
501,00:00:02.004,-0.00013404432684181906
502,00:00:02.008,-0.016427604306954856
503,00:00:02.012,7.029221160335768e-05
504,00:00:02.016,0.022255601128563264
505,00:00:02.02,-0.010968545917421581
506,00:00:02.024,-0.011421046918258121
507,00:00:02.028,-0.0003191456198692391
508,00:00:02.032,-0.0035861586511600724
509,00:00:02.036,0.01273512993066106
510,00:00:02.04,0.01111215306445957
511,00:00:02.044,0.0027701093349605803
512,00:00:02.048,-0.01680990401655432
513,00:00:02.052,-0.01175984973087906
514,00:00:02.056,0.01587873324751854
515,00:00:02.06,0.009530829847790299
516,00:00:02.064,-0.02501327888603559
517,00:00:02.068,0.01990996149834246
518,00:00:02.072,-0.0011911544133909068
519,00:00:02.076,-0.0018144147470593106
520,00:00:02.08,-0.00963581097312272
521,00:00:02.084,-0.005419487992185165
522,00:00:02.088,0.0033072480000555706
523,00:00:02.092,0.013607125438284122
524,00:00:02.096,0.006355272431392172
525,00:00:02.1,0.0037127443356439406
526,00:00:02.104,-0.02710110438056292
527,00:00:02.108,0.0051781546790152806
528,00:00:02.112,0.010694970260374258
529,00:00:02.116,-0.009323416103143255
530,00:00:02.12,0.002036885998677463
531,00:00:02.124,0.006196811984409575
532,00:00:02.128,-0.003912883577868349
533,00:00:02.132,0.00415092299226672
534,00:00:02.136,-0.006695300689898428
535,00:00:02.14,0.01212671073153612
536,00:00:02.144,-0.006808235659264012
537,00:00:02.148,-0.002626209054142237
538,00:00:02.152,-0.0011521548149175985
539,00:00:02.156,-0.012750165304169071
540,00:00:02.16,0.008058790175709877
541,00:00:02.164,0.014525627426337449
542,00:00:02.168,-0.0032159845577552906
543,00:00:02.172,-0.006674210817436706
544,00:00:02.176,0.021238001761958017
545,00:00:02.18,0.007775843143463119
546,00:00:02.184,-0.036289657466113484
547,00:00:02.188,-0.02134194551035758
548,00:00:02.192,-0.004728165222331886
549,00:00:02.196,0.02926465217024083
550,00:00:02.2,0.023521211929619312
551,00:00:02.204,0.012074350292095934
552,00:00:02.208,-0.01582534890621903
553,00:00:02.212,-0.023498345632106028
554,00:00:02.216,0.0060451931785792
555,00:00:02.22,0.004325476707890609
556,00:00:02.224,-0.01027270057238638
557,00:00:02.228,0.005800270300824199
558,00:00:02.232,0.010556169436313182
559,00:00:02.236,-0.005970123223960399
560,00:00:02.24,-0.002946714637801059
561,00:00:02.244,7.594644557719354e-07
562,00:00:02.248,-0.004784095683135096
563,00:00:02.252,-0.0030174737330526096
564,00:00:02.256,0.02377672214061016
565,00:00:02.26,0.002775350119918589
566,00:00:02.264,-0.008700932259671392
567,00:00:02.268,-0.014312244951724958
568,00:00:02.272,-0.005948149831965599
569,00:00:02.276,0.009078291011974219
570,00:00:02.28,0.0008163949241861697
571,00:00:02.284,0.0008646280589346121
572,00:00:02.288,0.00815395102836192
573,00:00:02.292,-0.010355963080655775
574,00:00:02.296,0.0100052421912551
575,00:00:02.3,0.00224289740435779
576,00:00:02.304,-0.018858251627534676
577,00:00:02.308,0.012099256273359092
578,00:00:02.312,-0.006470606895163659
579,00:00:02.316,0.001305103418417285
580,00:00:02.32,0.00993481068871915
581,00:00:02.324,-0.003239864279748879
582,00:00:02.328,-0.0023032960307318726
583,00:00:02.332,-0.0036040674895048107
584,00:00:02.336,0.005471081822179261
585,00:00:02.34,-0.004288506868761058
586,00:00:02.344,-0.0006199833005666715
587,00:00:02.348,0.003080798895098265
588,00:00:02.352,-0.011153825442306652
589,00:00:02.356,0.008922041684854776
590,00:00:02.36,0.02055320341605692
591,00:00:02.364,-0.0187525504734367
592,00:00:02.368,-0.0034683437552303
593,00:00:02.372,0.00290061230771244
594,00:00:02.376,-0.007125441741663961
595,00:00:02.38,0.00265113171190024
596,00:00:02.384,0.0005225720815360598
597,00:00:02.388,0.004760891621117482
598,00:00:02.392,0.00765079585835338
599,00:00:02.396,-0.001340031158179049
600,00:00:02.4,-0.009028180851601059
601,00:00:02.404,-0.0002869595773518103
602,00:00:02.408,0.0056810926180332596
603,00:00:02.412,-0.00925237382762134
604,00:00:02.416,0.006836695480160419
605,00:00:02.42,0.002315565827302641
606,00:00:02.424,-0.00545715307816865
607,00:00:02.428,-0.00264817895367742
608,00:00:02.432,0.005537922406801959
609,00:00:02.436,-0.00495982087159064
610,00:00:02.44,0.017727042035403404
611,00:00:02.444,-0.016296240035444498
612,00:00:02.448,-0.00836715393234044
613,00:00:02.452,0.008716389012988657
614,00:00:02.456,0.011952632572501929
615,00:00:02.46,-0.0021982442558510264
616,00:00:02.464,-0.0019889760296791697
617,00:00:02.468,-0.01880621653981511
618,00:00:02.472,0.009589722263626754
619,00:00:02.476,0.009422393050044772
620,00:00:02.48,-0.00866269809193909
621,00:00:02.484,0.0018662813599803496
622,00:00:02.488,-0.0031735278316773526
623,00:00:02.492,0.006952641269890588
624,00:00:02.496,0.018536118586780535
625,00:00:02.5,-0.01700465078465641
626,00:00:02.504,-0.021598285529762527
627,00:00:02.508,0.0006649754941463516
628,00:00:02.512,0.01294089853763581
629,00:00:02.516,0.004395811323774977
630,00:00:02.52,0.023822636110708163
631,00:00:02.524,-0.00738189811818301
632,00:00:02.528,-0.02197358536068347
633,00:00:02.532,-0.00920220767147839
634,00:00:02.536,0.014783786609768848
635,00:00:02.54,-0.00842924974858761
636,00:00:02.544,0.00101703917607665
637,00:00:02.548,0.003402211586944757
638,00:00:02.552,0.011084242461947745
639,00:00:02.556,-0.00033751490991562063
640,00:00:02.56,-0.004047602415084841
641,00:00:02.564,-0.00152048852760345
642,00:00:02.568,-0.009838090947596351
643,00:00:02.572,0.01481381524354224
644,00:00:02.576,-0.0020112180500291266
645,00:00:02.58,-0.009840220678597657
646,00:00:02.584,0.0068128823477309145
647,00:00:02.588,-0.0046577784232794996
648,00:00:02.592,-0.006689803907647729
649,00:00:02.596,0.009804827626794582
650,00:00:02.6,0.00503020898759133
651,00:00:02.604,-0.00822400802280749
652,00:00:02.608,0.007351383042987431
653,00:00:02.612,-0.00866547145415097
654,00:00:02.616,0.015583123720716727
655,00:00:02.62,-0.0013307644985616216
656,00:00:02.624,-0.010114034404978151
657,00:00:02.628,-0.011159960471559318
658,00:00:02.632,0.003053537453524771
659,00:00:02.636,0.00246447743847965
660,00:00:02.64,0.01278188545256856
661,00:00:02.644,0.00889583257958293
662,00:00:02.648,-0.02039934205822649
663,00:00:02.652,-0.011129553196951749
664,00:00:02.656,0.01174770306806745
665,00:00:02.66,0.023277959597180604
666,00:00:02.664,-0.006961444392800371
667,00:00:02.668,-0.017414462752640247
668,00:00:02.672,-0.016562447999604008
669,00:00:02.676,0.014544462086632851
670,00:00:02.68,0.01437572063878176
671,00:00:02.684,-0.008006603282410655
672,00:00:02.688,0.003895922098308781
673,00:00:02.692,0.00922616897150878
674,00:00:02.696,0.0014899142552167212
675,00:00:02.7,-0.009838054713327405
676,00:00:02.704,-0.028645098384004128
677,00:00:02.708,0.00921269002719783
678,00:00:02.712,0.00976520334370435
679,00:00:02.716,0.010978522361256172
680,00:00:02.72,0.013407542544882772
681,00:00:02.724,-0.002934827643912281
682,00:00:02.728,-0.01094668230507521
683,00:00:02.732,-0.014200207660906048
684,00:00:02.736,-0.0005333528388291597
685,00:00:02.74,-0.008026799827348446
686,00:00:02.744,0.012234960217028856
687,00:00:02.748,0.01016155513934791
688,00:00:02.752,0.006600905675441033
689,00:00:02.756,0.0075117341475561495
690,00:00:02.76,-0.002885435998905451
691,00:00:02.764,-0.02214612648822365
692,00:00:02.768,-0.02673827135004108
693,00:00:02.772,0.013907745364122061
694,00:00:02.776,0.031725746288429967
695,00:00:02.78,0.01721533760428429
696,00:00:02.784,-0.03367468423675746
697,00:00:02.788,-0.0029658289568033026
698,00:00:02.792,0.0112683880142868
699,00:00:02.796,-0.0021465993486344827
700,00:00:02.8,0.008099383208900652
701,00:00:02.804,-0.03459748812019822
702,00:00:02.808,-0.001767306341207587
703,00:00:02.812,0.023129587294533818
704,00:00:02.816,0.051557460799813326
705,00:00:02.82,-0.03345412621274594
706,00:00:02.824,-0.020608031656593036
707,00:00:02.828,-0.015955452807247646
708,00:00:02.832,0.01797469705343241
709,00:00:02.836,0.0005162400193512197
710,00:00:02.84,-0.00237876316532493
711,00:00:02.844,0.0020385780371725507
712,00:00:02.848,0.008669771952554549
713,00:00:02.852,0.01622683589812364
714,00:00:02.856,-0.02026040933560584
715,00:00:02.86,-0.008826484263408933
716,00:00:02.864,0.0017291717231273374
717,00:00:02.868,0.003884984645992509
718,00:00:02.872,0.00468648807145655
719,00:00:02.876,-0.00957073969766497
720,00:00:02.88,0.003636827197624371
721,00:00:02.884,0.009550209403641974
722,00:00:02.888,-0.0035444255918264393
723,00:00:02.892,-0.0020619225688278814
724,00:00:02.896,0.003070667793508625
725,00:00:02.9,0.0019051211420446587
726,00:00:02.904,-0.007051230641081926
727,00:00:02.908,-0.006975281517952679
728,00:00:02.912,-0.004366541166746173
729,00:00:02.916,0.008513440086971975
730,00:00:02.92,0.0064214333542622366
731,00:00:02.924,0.0012029934441670797
732,00:00:02.928,0.00410088617354631
733,00:00:02.932,-0.00444254896137862
734,00:00:02.936,0.0042004411225207115
735,00:00:02.94,0.00323043344542385
736,00:00:02.944,-0.015514044556766722
737,00:00:02.948,-0.011023488827049729
738,00:00:02.952,0.0038160311523824895
739,00:00:02.956,0.01763122854754329
740,00:00:02.96,-0.00032848937553353597
741,00:00:02.964,-0.0037990652490407202
742,00:00:02.968,-0.00426299776881934
743,00:00:02.972,0.01021650480106473
744,00:00:02.976,-0.00528701778966934
745,00:00:02.98,-0.01379977259784937
746,00:00:02.984,0.02116202702745796
747,00:00:02.988,0.00516048539429902
748,00:00:02.992,-0.02605182537809013
749,00:00:02.996,-0.000902377534657715
750,00:00:03,0.007944776443764569
751,00:00:03.004,0.007251398172229529
752,00:00:03.008,0.00917295902036135
753,00:00:03.012,-0.008988341665826755
754,00:00:03.016,-0.009920888638589531
755,00:00:03.02,0.006606680995901114
756,00:00:03.024,0.00280670449137687
757,00:00:03.028,-0.0088462009443901
758,00:00:03.032,-0.00020790216512978077
759,00:00:03.036,0.01511726796161384
760,00:00:03.04,-0.011230422882363231
761,00:00:03.044,0.014504271675832544
762,00:00:03.048,-0.004174716072157019
763,00:00:03.052,-0.01283053436782213
764,00:00:03.056,-0.011992857762379579
765,00:00:03.06,0.006343266635667558
766,00:00:03.064,0.021440838230773807
767,00:00:03.068,0.0017086293864849676
768,00:00:03.072,-0.004537668457487598
769,00:00:03.076,-0.00895566213876008
770,00:00:03.08,-0.00732220592908564
771,00:00:03.084,-0.00020402665541041295
772,00:00:03.088,0.00043092225678264965
773,00:00:03.092,0.015390593151096248
774,00:00:03.096,0.004551764577627189
775,00:00:03.1,-0.01865832880139356
776,00:00:03.104,0.01312541076913476
777,00:00:03.108,0.0005121096037327792
778,00:00:03.112,-0.0030353358015418
779,00:00:03.116,-0.01104021456558257
780,00:00:03.12,-0.005897271446883668
781,00:00:03.124,0.00996292661875486
782,00:00:03.128,-0.001878452312666928
783,00:00:03.132,0.009930394298862662
784,00:00:03.136,0.011615227675065402
785,00:00:03.14,-0.01388502726331353
786,00:00:03.144,-0.00652922666631639
787,00:00:03.148,-0.0007784126428305137
788,00:00:03.152,0.00426457729190588
789,00:00:03.156,-0.00349002995062619
790,00:00:03.16,0.00600511417724192
791,00:00:03.164,0.001410212018527087
792,00:00:03.168,0.003066695411689584
793,00:00:03.172,0.0005395873449742785
794,00:00:03.176,-0.012533380882814488
795,00:00:03.18,0.004607609997037802
796,00:00:03.184,-0.011051004403270791
797,00:00:03.188,0.010893776314333083
798,00:00:03.192,-0.0018947981297969914
799,00:00:03.196,0.004165262216702103
800,00:00:03.2,0.0033188248053193097
801,00:00:03.204,-0.0017145418096333733
802,00:00:03.208,0.0063386331312358405
803,00:00:03.212,-0.006719219265505621
804,00:00:03.216,-0.00438299251254649
805,00:00:03.22,0.00858263553527649
806,00:00:03.224,-0.02195450034923855
807,00:00:03.228,0.0051772349397651825
808,00:00:03.232,0.0105901239439845
809,00:00:03.236,0.0021522715687751805
810,00:00:03.24,0.008452062727883462
811,00:00:03.244,-0.012258944101631641
812,00:00:03.248,-0.007176061160862451
813,00:00:03.252,0.01005720061948523
814,00:00:03.256,0.006506785168312471
815,00:00:03.26,0.015714046967332283
816,00:00:03.264,-0.029103264678269597
817,00:00:03.268,-0.012137760219047777
818,00:00:03.272,-0.00133806909434497
819,00:00:03.276,0.017607043264433752
820,00:00:03.28,-0.00034659274388105
821,00:00:03.284,0.01723170839250092
822,00:00:03.288,-0.002006150083616381
823,00:00:03.292,-0.017678398871794378
824,00:00:03.296,0.00176877214107663
825,00:00:03.3,0.007434831641148797
826,00:00:03.304,-0.00367212318815291
827,00:00:03.308,-0.01957924431189895
828,00:00:03.312,-0.0007732261437922699
829,00:00:03.316,0.022321540716802712
830,00:00:03.32,0.01985673466697336
831,00:00:03.324,-0.0026154136285185797
832,00:00:03.328,-0.0243621659465134
833,00:00:03.332,-0.01380690035875887
834,00:00:03.336,0.005699410801753399
835,00:00:03.34,0.01423490280285478
836,00:00:03.344,0.004839226021431389
837,00:00:03.348,0.00242723524570465
838,00:00:03.352,-0.016387004987336678
839,00:00:03.356,-0.0029130862094461493
840,00:00:03.36,0.00471833534538744
841,00:00:03.364,0.014343506423756501
842,00:00:03.368,-0.00849137804470956
843,00:00:03.372,0.0017796486354200221
844,00:00:03.376,0.00497698376420885
845,00:00:03.38,-0.0016156603815033997
846,00:00:03.384,-0.0182685505133122
847,00:00:03.388,0.00450259866192939
848,00:00:03.392,-0.0005652736872434408
849,00:00:03.396,0.007604680373333394
850,00:00:03.4,0.010092452168464688
851,00:00:03.404,-0.00474696175660938
852,00:00:03.408,0.0005464354762807402
853,00:00:03.412,-0.012303369701839989
854,00:00:03.416,0.00818804814480245
855,00:00:03.42,0.00727268448099494
856,00:00:03.424,-0.01818502496462313
857,00:00:03.428,-0.00732980796601624
858,00:00:03.432,0.02101502986624837
859,00:00:03.436,0.0164512952324003
860,00:00:03.44,-0.010422729945275938
861,00:00:03.444,-0.03216565540060399
862,00:00:03.448,0.01323206583037972
863,00:00:03.452,0.013751864433288557
864,00:00:03.456,0.0028369759675115408
865,00:00:03.46,-0.00492784613743424
866,00:00:03.464,-7.433549035340808e-05
867,00:00:03.468,-0.00312200339976697
868,00:00:03.472,-0.006335945567116137
869,00:00:03.476,0.012044300849083816
870,00:00:03.48,-0.001380310859531159
871,00:00:03.484,-0.006723253522068311
872,00:00:03.488,0.0011044016573578197
873,00:00:03.492,-0.00670298817567528
874,00:00:03.496,-0.004236981738358708
875,00:00:03.5,0.02202214559656566
876,00:00:03.504,0.003932174877263607
877,00:00:03.508,-0.0017254791455343403
878,00:00:03.512,-0.02827600960154083
879,00:00:03.516,0.01808662619441749
880,00:00:03.52,-0.008226849837228661
881,00:00:03.524,0.006819041591370482
882,00:00:03.528,0.015858590893913036
883,00:00:03.532,-0.0221057096496224
884,00:00:03.536,0.0025059739127755304
885,00:00:03.54,0.0033873869106173307
886,00:00:03.544,0.0016205974970944208
887,00:00:03.548,-0.002199109469074762
888,00:00:03.552,-0.005168997566215701
889,00:00:03.556,0.0046630051219835825
890,00:00:03.56,0.00883467087987811
891,00:00:03.564,0.014056909130886239
892,00:00:03.568,-0.0329670086503029
893,00:00:03.572,-0.0020137222018093096
894,00:00:03.576,0.01038254448212683
895,00:00:03.58,0.00355800415854901
896,00:00:03.584,-0.011144501972012229
897,00:00:03.588,0.016371502541005622
898,00:00:03.592,0.005659115151502191
899,00:00:03.596,0.005463358238557705
900,00:00:03.6,-0.02024278830504041
901,00:00:03.604,0.0005632657557726427
902,00:00:03.608,0.0004506238037720292
903,00:00:03.612,-0.008369427116122095
904,00:00:03.616,0.007966040633618828
905,00:00:03.62,0.0008740057237446343
906,00:00:03.624,0.011647355509921941
907,00:00:03.628,-0.0015530050732195403
908,00:00:03.632,-0.01461931830272083
909,00:00:03.636,-0.016011789062758897
910,00:00:03.64,0.0245907980133779
911,00:00:03.644,0.02918789535760881
912,00:00:03.648,-0.021015184931457088
913,00:00:03.652,-0.01733414246700704
914,00:00:03.656,-0.0062629776075482394
915,00:00:03.66,-0.001189882139442532
916,00:00:03.664,0.006605201953789224
917,00:00:03.668,0.01517951861023906
918,00:00:03.672,0.01051886728964746
919,00:00:03.676,-0.02599512832239271
920,00:00:03.68,0.011037794523872428
921,00:00:03.684,0.00614223442971706
922,00:00:03.688,-0.00456293229945004
923,00:00:03.692,-0.012751458329148601
924,00:00:03.696,-0.008136275282595307
925,00:00:03.7,0.014894793639541607
926,00:00:03.704,0.0112099372781813
927,00:00:03.708,-0.005006106221117072
928,00:00:03.712,-0.003644652431830769
929,00:00:03.716,0.008564234129153189
930,00:00:03.72,-0.01227420615032315
931,00:00:03.724,-0.003668603720143361
932,00:00:03.728,0.007742180427158024
933,00:00:03.732,-0.0130251101218164
934,00:00:03.736,0.005548745160922371
935,00:00:03.74,0.01491122203879056
936,00:00:03.744,-0.0033410709584131802
937,00:00:03.748,-0.013719934475375322
938,00:00:03.752,0.02842598862480377
939,00:00:03.756,-0.00203629466705024
940,00:00:03.76,-0.03568409007857557
941,00:00:03.764,-0.0017050326132448355
942,00:00:03.768,0.015377837233245338
943,00:00:03.772,0.004911889409413556
944,00:00:03.776,0.007937208749353879
945,00:00:03.78,-0.01581961335614324
946,00:00:03.784,0.012916678795591007
947,00:00:03.788,-0.00941813038662077
948,00:00:03.792,0.01407163555268198
949,00:00:03.796,-0.003913286840543151
950,00:00:03.8,-0.0180935370735824
951,00:00:03.804,0.01145604252815247
952,00:00:03.808,0.002057324803899974
953,00:00:03.812,-0.003542026621289548
954,00:00:03.816,0.002377395518124111
955,00:00:03.82,-0.0009599875775166342
956,00:00:03.824,-0.007311639841645949
957,00:00:03.828,0.007799569968483392
958,00:00:03.832,0.00346952537074685
959,00:00:03.836,0.0037535526789724896
960,00:00:03.84,-0.016545224774745255
961,00:00:03.844,0.01070196554064748
962,00:00:03.848,-0.0011713865678757394
963,00:00:03.852,0.0018139327876269904
964,00:00:03.856,0.0018949669320136014
965,00:00:03.86,-0.012163916602730748
966,00:00:03.864,-0.0019237271044403297
967,00:00:03.868,0.019706612976733588
968,00:00:03.872,-0.0011453032493591404
969,00:00:03.876,-0.01363548170775173
970,00:00:03.88,-0.00807310943491761
971,00:00:03.884,0.0050856069428846075
972,00:00:03.888,0.014768138760700822
973,00:00:03.892,0.01428740890696644
974,00:00:03.896,-0.013649034488480503
975,00:00:03.9,-0.020553875016048547
976,00:00:03.904,0.00264940364286307
977,00:00:03.908,0.009964132914319641
978,00:00:03.912,-0.0008297946769743811
979,00:00:03.916,-0.004893096163868902
980,00:00:03.92,0.00725588982459161
981,00:00:03.924,0.007383157033473271
982,00:00:03.928,-0.0019594593904912454
983,00:00:03.932,0.003240144578739999
984,00:00:03.936,-0.02022084267809987
985,00:00:03.94,0.006152755115181201
986,00:00:03.944,-0.0013313048984855292
987,00:00:03.948,-0.0033222174970433203
988,00:00:03.952,0.01557830243837092
989,00:00:03.956,-0.0011865748092532089
990,00:00:03.96,-0.0024098993744701095
991,00:00:03.964,0.00364821159746499
992,00:00:03.968,-0.01182608935050666
993,00:00:03.972,-0.0077637203503400296
994,00:00:03.976,0.00904980092309416
995,00:00:03.98,0.023103073239326463
996,00:00:03.984,-0.017452332423999947
997,00:00:03.988,-0.01415086502674967
998,00:00:03.992,0.0034357425756752487
999,00:00:03.996,0.012251426698639992
1000,00:00:04,0.012069572228938289
1001,00:00:04.004,-0.005744273075833899
1002,00:00:04.008,-0.01863518159370865
1003,00:00:04.012,-0.0031558121554553435
1004,00:00:04.016,0.02177378232590849
1005,00:00:04.02,-0.017381145153194666
1006,00:00:04.024,0.0031582067313138387
1007,00:00:04.028,-0.006339560728520191
1008,00:00:04.032,0.006246043602004639
1009,00:00:04.036,0.016775667303590987
1010,00:00:04.04,-0.001198901154566558
1011,00:00:04.044,0.0014298636669991568
1012,00:00:04.048,-0.01369618379976602
1013,00:00:04.052,-0.011002219282090641
1014,00:00:04.056,0.00811676052398981
1015,00:00:04.06,-0.0009998059831559606
1016,00:00:04.064,-0.0030445845331996194
1017,00:00:04.068,0.0075561337143881255
1018,00:00:04.072,0.03168899309821427
1019,00:00:04.076,-0.015604934378643529
1020,00:00:04.08,-0.02381865214556456
1021,00:00:04.084,-0.010779782765894204
1022,00:00:04.088,0.0033290653373114765
1023,00:00:04.092,0.01009149337187409
1024,00:00:04.096,-0.0011370378779247394
1025,00:00:04.1,0.00801817315050357
1026,00:00:04.104,0.021824622119311285
1027,00:00:04.108,0.0048855916829779805
1028,00:00:04.112,-0.01961363124428316
1029,00:00:04.116,-0.02277515945024784
1030,00:00:04.12,-0.01995851719402712
1031,00:00:04.124,0.024514029268175398
1032,00:00:04.128,0.011538648279383779
1033,00:00:04.132,0.00946020614355802
1034,00:00:04.136,0.009556532371789227
1035,00:00:04.14,-0.0045025240397080744
1036,00:00:04.144,-0.02094140590634192
1037,00:00:04.148,-0.022144563205074557
1038,00:00:04.152,0.013336765201529448
1039,00:00:04.156,0.02117530629038812
1040,00:00:04.16,-0.006136186071671551
1041,00:00:04.164,0.001221339451149106
1042,00:00:04.168,0.012009301222860841
1043,00:00:04.172,-0.01430015149526293
1044,00:00:04.176,0.012626124080270522
1045,00:00:04.18,-0.01951858354732393
1046,00:00:04.184,-0.01788495224900545
1047,00:00:04.188,0.011075842659920449
1048,00:00:04.192,0.02001119381748135
1049,00:00:04.196,0.025774059351533693
1050,00:00:04.2,-0.02493409148883079
1051,00:00:04.204,-0.02830002037808304
1052,00:00:04.208,0.02001566288527104
1053,00:00:04.212,0.0017184388998430248
1054,00:00:04.216,-0.006537090870551767
1055,00:00:04.22,-0.0054710380209144135
1056,00:00:04.224,0.01199665211606771
1057,00:00:04.228,0.008551397128030679
1058,00:00:04.232,0.01068344546365551
1059,00:00:04.236,-0.01697131339460611
1060,00:00:04.24,-0.01611686393152925
1061,00:00:04.244,-0.0007504213135689497
1062,00:00:04.248,0.00930925388820467
1063,00:00:04.252,0.005923899821937091
1064,00:00:04.256,0.0069028558209538494
1065,00:00:04.26,0.00023307072115130208
1066,00:00:04.264,-0.0109026936115697
1067,00:00:04.268,-0.0036108224885538194
1068,00:00:04.272,-0.0046488139778375695
1069,00:00:04.276,0.01970305887516588
1070,00:00:04.28,0.003940811031498048
1071,00:00:04.284,-0.0251510806847364
1072,00:00:04.288,0.00914564495906237
1073,00:00:04.292,0.01572701125405729
1074,00:00:04.296,-0.013130448467563843
1075,00:00:04.3,-0.012181820580735801
1076,00:00:04.304,-0.0021232496947050095
1077,00:00:04.308,0.02650011767400425
1078,00:00:04.312,-0.003579515934688973
1079,00:00:04.316,0.0019248315365985034
1080,00:00:04.32,-0.0037383972667157602
1081,00:00:04.324,-0.025796273606829352
1082,00:00:04.328,0.009992065490223469
1083,00:00:04.332,0.00045119260903447433
1084,00:00:04.336,0.00019325502216819765
1085,00:00:04.34,0.031537725211819675
1086,00:00:04.344,-0.0010661233682185307
1087,00:00:04.348,-0.02696530008688565
1088,00:00:04.352,0.00874295679386701
1089,00:00:04.356,-0.0038387132808566198
1090,00:00:04.36,-0.007560158148407919
1091,00:00:04.364,-0.004251793725416061
1092,00:00:04.368,-0.00309156348521356
1093,00:00:04.372,0.00023982362472452202
1094,00:00:04.376,0.02253602514974773
1095,00:00:04.38,0.01480097533203657
1096,00:00:04.384,0.0018611417617648803
1097,00:00:04.388,-0.01622526440769432
1098,00:00:04.392,-0.01767135993577538
1099,00:00:04.396,-0.01718613691627979
1100,00:00:04.4,0.013463407987728732
1101,00:00:04.404,0.01432885567191987
1102,00:00:04.408,0.014192099450156101
1103,00:00:04.412,-0.0032042833045125008
1104,00:00:04.416,-0.000430265674367549
1105,00:00:04.42,-0.016898817848414183
1106,00:00:04.424,-0.015365403511168529
1107,00:00:04.428,0.01426533178891989
1108,00:00:04.432,-0.0013119990326231382
1109,00:00:04.436,0.00898450426757336
1110,00:00:04.44,0.031929550238601216
1111,00:00:04.444,-0.022548968467162894
1112,00:00:04.448,-0.020990127057302774
1113,00:00:04.452,-0.0025751898065209293
1114,00:00:04.456,-0.000918091405765153
1115,00:00:04.46,0.010165882762521521
1116,00:00:04.464,0.008733274531550697
1117,00:00:04.468,0.0008623502217233198
1118,00:00:04.472,-1.5958736184990517e-05
1119,00:00:04.476,-0.006505240511614828
1120,00:00:04.48,0.0049108437378890795
1121,00:00:04.484,-0.0050705744652077885
1122,00:00:04.488,0.006617578445002436
1123,00:00:04.492,-0.01184643642045558
1124,00:00:04.496,-0.01615906972438097
1125,00:00:04.5,0.021549136727117023
1126,00:00:04.504,0.016019215458072732
1127,00:00:04.508,-0.0013525270624086295
1128,00:00:04.512,-0.015361507801571823
1129,00:00:04.516,-0.00474844209384173
1130,00:00:04.52,0.00501932925544679
1131,00:00:04.524,0.000958484597504139
1132,00:00:04.528,-0.00897373200859874
1133,00:00:04.532,-0.0010640084510669138
1134,00:00:04.536,0.01858875050675125
1135,00:00:04.54,0.0038282391033135385
1136,00:00:04.544,-0.01566670625470579
1137,00:00:04.548,0.01290633378084751
1138,00:00:04.552,-0.018888507271185555
1139,00:00:04.556,0.007807011017575861
1140,00:00:04.56,-0.011786219198256731
1141,00:00:04.564,0.011424645897932361
1142,00:00:04.568,0.02049317036289726
1143,00:00:04.572,0.00030741479713469874
1144,00:00:04.576,-0.03492632415145637
1145,00:00:04.58,0.0005430089659057562
1146,00:00:04.584,0.01938970340415833
1147,00:00:04.588,-0.007332589419092969
1148,00:00:04.592,0.00411099451594054
1149,00:00:04.596,0.00796485808677972
1150,00:00:04.6,-0.009925858306814916
1151,00:00:04.604,-0.003834333270788191
1152,00:00:04.608,-0.004640039987862079
1153,00:00:04.612,0.02195465844124555
1154,00:00:04.616,0.00615752337034792
1155,00:00:04.62,-0.018493704847060158
1156,00:00:04.624,0.005929996681516066
1157,00:00:04.628,-0.014138094615191228
1158,00:00:04.632,-0.01364762894809251
1159,00:00:04.636,0.007234515855088831
1160,00:00:04.64,0.02188473881687965
1161,00:00:04.644,-0.0105250548804179
1162,00:00:04.648,0.0016372928657801787
1163,00:00:04.652,0.03060645051300522
1164,00:00:04.656,0.0008185976039385471
1165,00:00:04.66,-0.03957200550939884
1166,00:00:04.664,-0.017319069826044108
1167,00:00:04.668,0.007031944973277865
1168,00:00:04.672,0.011080141761340201
1169,00:00:04.676,0.015935367438942197
1170,00:00:04.68,0.022093124222010423
1171,00:00:04.684,-0.00748721195850517
1172,00:00:04.688,-0.036715021531563204
1173,00:00:04.692,-0.00678904284723108
1174,00:00:04.696,0.02003766922280196
1175,00:00:04.7,0.0092014035908505
1176,00:00:04.704,-0.008155444628442907
1177,00:00:04.708,0.01198059564922005
1178,00:00:04.712,-0.01192351325880736
1179,00:00:04.716,-0.010491170629393311
1180,00:00:04.72,0.01714584766887128
1181,00:00:04.724,-0.0021302483510226003
1182,00:00:04.728,-0.005217145546339461
1183,00:00:04.732,-0.00026934989728033586
1184,00:00:04.736,0.0009809997864067485
1185,00:00:04.74,-0.00752337148878723
1186,00:00:04.744,0.004016419174149641
1187,00:00:04.748,0.01665935409255321
1188,00:00:04.752,-0.006273351376876219
1189,00:00:04.756,-0.004111713729798821
1190,00:00:04.76,-0.007195762940682468
1191,00:00:04.764,0.0002613533288240398
1192,00:00:04.768,0.0072457579080946735
1193,00:00:04.772,-0.00318268116097898
1194,00:00:04.776,-3.0466122552749893e-05
1195,00:00:04.78,-0.00932343397289515
1196,00:00:04.784,0.01695347334680263
1197,00:00:04.788,0.006627278344240073
1198,00:00:04.792,-0.004182598320767286
1199,00:00:04.796,-0.01250818721018734
1200,00:00:04.8,-0.006662137107923629
1201,00:00:04.804,-0.007209284522105015
1202,00:00:04.808,0.004872867139056326
1203,00:00:04.812,0.0363001194782555
1204,00:00:04.816,0.0004210308543406479
1205,00:00:04.82,-0.02594429720193148
1206,00:00:04.824,-0.01785549498163163
1207,00:00:04.828,0.008833917265292254
1208,00:00:04.832,0.01817137002944947
1209,00:00:04.836,-0.004132990492507808
1210,00:00:04.84,-0.007761172804748646
1211,00:00:04.844,0.0006173265865072599
1212,00:00:04.848,0.0057807503035292
1213,00:00:04.852,0.00517585966736078
1214,00:00:04.856,0.003536099568009381
1215,00:00:04.86,-0.0061508145881817005
1216,00:00:04.864,-0.019975011411588653
1217,00:00:04.868,-0.0025936460588127297
1218,00:00:04.872,0.0116681403014809
1219,00:00:04.876,0.026313277427107137
1220,00:00:04.88,0.0018740223022177798
1221,00:00:04.884,-0.0185472876764834
1222,00:00:04.888,-0.020315847359597676
1223,00:00:04.892,0.007152848062105469
1224,00:00:04.896,0.00409790419507772
1225,00:00:04.9,0.006675860029645261
1226,00:00:04.904,0.012323436676524555
1227,00:00:04.908,-0.009697123430669311
1228,00:00:04.912,-0.0025885661598295004
1229,00:00:04.916,-0.0015126927755773098
1230,00:00:04.92,-0.013768526725471051
1231,00:00:04.924,0.007046682294458149
1232,00:00:04.928,0.01819253759458662
1233,00:00:04.932,-0.007044629193842381
1234,00:00:04.936,-0.005322024924680641
1235,00:00:04.94,-0.00952961342409254
1236,00:00:04.944,0.011434930056566359
1237,00:00:04.948,0.03358667929614964
1238,00:00:04.952,-0.029593969346024082
1239,00:00:04.956,-0.0292463945224881
1240,00:00:04.96,0.015219824810628823
1241,00:00:04.964,0.011796423001214867
1242,00:00:04.968,-0.006248278077691798
1243,00:00:04.972,0.00614372023846955
1244,00:00:04.976,0.0043334534857422105
1245,00:00:04.98,-0.0026537170633673646
1246,00:00:04.984,-0.0036357233766466392
1247,00:00:04.988,-0.00620550126768646
1248,00:00:04.992,0.0017167982878163908
1249,00:00:04.996,0.02282949442451349
1250,00:00:05,-0.016820891178213074
1251,00:00:05.004,-0.018296371679753103
1252,00:00:05.008,0.006987362867221233
1253,00:00:05.012,0.0152370936702937
1254,00:00:05.016,0.0020899741211906093
1255,00:00:05.02,-0.009678557049483059
1256,00:00:05.024,0.01223657792434095
1257,00:00:05.028,-0.01975337730254982
1258,00:00:05.032,0.00803166441619395
1259,00:00:05.036,0.015939439181238392
1260,00:00:05.04,-0.01373995188623664
1261,00:00:05.044,-0.009176627616398071
1262,00:00:05.048,0.0013164900010451705
1263,00:00:05.052,0.002596908248960969
1264,00:00:05.056,-0.00870341353584081
1265,00:00:05.06,0.023218861781060647
1266,00:00:05.064,0.0011006148997694202
1267,00:00:05.068,-0.0040701585821807384
1268,00:00:05.072,0.002721710829064251
1269,00:00:05.076,-0.009882612968795
1270,00:00:05.08,-0.00782808824442326
1271,00:00:05.084,-0.009698285022750502
1272,00:00:05.088,0.007218593091238287
1273,00:00:05.092,0.0236734747886658
1274,00:00:05.096,-0.01079981273505837
1275,00:00:05.1,-0.00482827809173614
1276,00:00:05.104,0.019270126475021243
1277,00:00:05.108,-0.01924812048673628
1278,00:00:05.112,-0.004622612410457798
1279,00:00:05.116,0.00640722998650744
1280,00:00:05.12,-0.0001111652236431759
1281,00:00:05.124,0.0034954733564518396
1282,00:00:05.128,-0.003619404509663581
1283,00:00:05.132,-0.00855523231439293
1284,00:00:05.136,0.008497549220919609
1285,00:00:05.14,0.0049616291653365
1286,00:00:05.144,0.0007500412175431891
1287,00:00:05.148,0.010552405146881941
1288,00:00:05.152,-0.02682142822595781
1289,00:00:05.156,-0.0017903381958603798
1290,00:00:05.16,0.01860160368960351
1291,00:00:05.164,0.00241890409961343
1292,00:00:05.168,-0.023022706460324078
1293,00:00:05.172,0.02337331348098819
1294,00:00:05.176,0.004616867052391142
1295,00:00:05.18,-0.008332498720847042
1296,00:00:05.184,-0.010479007079993614
1297,00:00:05.188,0.002719259064178916
1298,00:00:05.192,-0.009242570959031578
1299,00:00:05.196,0.002169785439036828
1300,00:00:05.2,0.010444494197145101
1301,00:00:05.204,0.022263018880039502
1302,00:00:05.208,-0.008082307234872105
1303,00:00:05.212,-0.020612079417333028
1304,00:00:05.216,-0.007140102534322065
1305,00:00:05.22,0.007854412076994818
1306,00:00:05.224,0.01002448564395309
1307,00:00:05.228,-0.005107646808028181
1308,00:00:05.232,0.00722130772192031
1309,00:00:05.236,-0.004279693785065319
1310,00:00:05.24,-0.0045494837686419504
1311,00:00:05.244,-0.011720283073373139
1312,00:00:05.248,0.01743593520950529
1313,00:00:05.252,0.021093308576382717
1314,00:00:05.256,-0.02446230879286302
1315,00:00:05.26,-0.019801638496574014
1316,00:00:05.264,0.012473687034798793
1317,00:00:05.268,0.008966842950030694
1318,00:00:05.272,0.01218231697566808
1319,00:00:05.276,-0.010330100310966369
1320,00:00:05.28,-0.01123873097822071
1321,00:00:05.284,0.010582983144558964
1322,00:00:05.288,-0.006749215011950593
1323,00:00:05.292,-0.001310185354668651
1324,00:00:05.296,0.00290106562897563
1325,00:00:05.3,0.005832737715536496
1326,00:00:05.304,0.01269555045291783
1327,00:00:05.308,-0.01343141426332293
1328,00:00:05.312,-0.0072737543378025606
1329,00:00:05.316,-0.0038298666477203404
1330,00:00:05.32,-0.002477858215570481
1331,00:00:05.324,0.00843444280326366
1332,00:00:05.328,0.007347247505094897
1333,00:00:05.332,0.008460072742309418
1334,00:00:05.336,-0.012110332958400201
1335,00:00:05.34,0.0016137799684656756
1336,00:00:05.344,-0.001950173231307417
1337,00:00:05.348,-0.00510192045476288
1338,00:00:05.352,-0.012304684554692358
1339,00:00:05.356,0.0052869718056171786
1340,00:00:05.36,0.0193783545400947
1341,00:00:05.364,0.010622302768752031
1342,00:00:05.368,-0.016478198114782572
1343,00:00:05.372,-0.007714956533163779
1344,00:00:05.376,0.003699351567775032
1345,00:00:05.38,0.00334351602941751
1346,00:00:05.384,-0.00383120146580041
1347,00:00:05.388,0.006510816863738
1348,00:00:05.392,-0.00861475476995111
1349,00:00:05.396,0.0001365670468658249
1350,00:00:05.4,0.005138855427503591
1351,00:00:05.404,-0.001474559714552019
1352,00:00:05.408,0.0053623416461050614
1353,00:00:05.412,-0.0030549203511327557
1354,00:00:05.416,0.004869169555604449
1355,00:00:05.42,0.0013083540834486398
1356,00:00:05.424,-0.02599059185013173
1357,00:00:05.428,0.00460946001112463
1358,00:00:05.432,0.007874911243561652
1359,00:00:05.436,0.016193846007809043
1360,00:00:05.44,0.007014560163952369
1361,00:00:05.444,-0.02443279558792706
1362,00:00:05.448,-0.0035906551638618103
1363,00:00:05.452,0.01194003131240607
1364,00:00:05.456,0.00895445817150175
1365,00:00:05.46,-0.013619756908155988
1366,00:00:05.464,-0.01174207730218769
1367,00:00:05.468,0.018920996342785646
1368,00:00:05.472,0.011184254195541142
1369,00:00:05.476,-0.006877983338199554
1370,00:00:05.48,-0.014185517888108732
1371,00:00:05.484,0.0044001664500683095
1372,00:00:05.488,-0.013229996897280216
1373,00:00:05.492,-0.005958223715424531
1374,00:00:05.496,0.03823065059259531
1375,00:00:05.5,0.01192919048480689
1376,00:00:05.504,-0.02606321056373419
1377,00:00:05.508,-0.013524290610803326
1378,00:00:05.512,-0.01068886206485331
1379,00:00:05.516,0.0038836684543639612
1380,00:00:05.52,0.012188838707516012
1381,00:00:05.524,0.01538372389040891
1382,00:00:05.528,0.011433191015385103
1383,00:00:05.532,-0.010418659891001889
1384,00:00:05.536,-0.02158831502310933
1385,00:00:05.54,0.00264538940973581
1386,00:00:05.544,0.01268876664107663
1387,00:00:05.548,-0.004779160022735589
1388,00:00:05.552,0.0008139461278915351
1389,00:00:05.556,-0.00901159597560763
1390,00:00:05.56,-0.00876245542895044
1391,00:00:05.564,0.01652088621631267
1392,00:00:05.568,0.009609173750504837
1393,00:00:05.572,0.00019224802963434956
1394,00:00:05.576,-0.0011480106040835433
1395,00:00:05.58,-0.02434767945669592
1396,00:00:05.584,0.00509608443826437
1397,00:00:05.588,0.02322173863649372
1398,00:00:05.592,-0.003551609755959361
1399,00:00:05.596,-0.01794170890934765
1400,00:00:05.6,0.0018186203669756599
1401,00:00:05.604,0.010175459843594607
1402,00:00:05.608,-0.00437990063801409
1403,00:00:05.612,0.005133674014359669
1404,00:00:05.616,-0.01313497824594379
1405,00:00:05.62,0.00038792565464973103
1406,00:00:05.624,0.01504952192772181
1407,00:00:05.628,0.012932213023304984
1408,00:00:05.632,-0.013725023483857499
1409,00:00:05.636,-0.021526351847569507
1410,00:00:05.64,0.014230393251637
1411,00:00:05.644,-0.0038431575521826805
1412,00:00:05.648,-0.005526019769604317
1413,00:00:05.652,0.018030957435257733
1414,00:00:05.656,0.00901887950021777
1415,00:00:05.66,-0.01855264208279555
1416,00:00:05.664,-0.0024141311878338404
1417,00:00:05.668,0.0069221621379256595
1418,00:00:05.672,-0.0012298686197027182
1419,00:00:05.676,0.006043516099452961
1420,00:00:05.68,-0.006606405324873769
1421,00:00:05.684,-0.009930964559316592
1422,00:00:05.688,0.000867243856191636
1423,00:00:05.692,0.0016475571319460904
1424,00:00:05.696,0.0011044612620025882
1425,00:00:05.7,0.02612357027828694
1426,00:00:05.704,0.0069849672727286295
1427,00:00:05.708,-0.035234607290476644
1428,00:00:05.712,-0.006622675224207382
1429,00:00:05.716,0.009762709960341471
1430,00:00:05.72,-0.0004448770778253709
1431,00:00:05.724,0.003399346605874597
1432,00:00:05.728,0.010066048358567099
1433,00:00:05.732,-0.01010885625146325
1434,00:00:05.736,0.0029117523226887014
1435,00:00:05.74,-0.007428603246808071
1436,00:00:05.744,0.013776764040812881
1437,00:00:05.748,0.003995964303612716
1438,00:00:05.752,-0.00677815312519669
1439,00:00:05.756,-0.01778947003185748
1440,00:00:05.76,0.004341651801951232
1441,00:00:05.764,0.00884298142045736
1442,00:00:05.768,0.005394004954723646
1443,00:00:05.772,0.012956468504853548
1444,00:00:05.776,-0.020638625021092538
1445,00:00:05.78,-0.007037001603748653
1446,00:00:05.784,-0.0022635192726738803
1447,00:00:05.788,0.027833503962028792
1448,00:00:05.792,-0.01633347407914701
1449,00:00:05.796,-0.010837110516149561
1450,00:00:05.8,0.0029750482644885995
1451,00:00:05.804,0.013760168571025133
1452,00:00:05.808,0.01222671614959839
1453,00:00:05.812,-0.01107376464642584
1454,00:00:05.816,-0.02444878453388808
1455,00:00:05.82,0.0009030345827341097
1456,00:00:05.824,0.02414993720594792
1457,00:00:05.828,0.00107298791408539
1458,00:00:05.832,-0.005142623762367296
1459,00:00:05.836,3.9287027902900305e-05
1460,00:00:05.84,-0.0010915650054812414
1461,00:00:05.844,0.0018297182396054008
1462,00:00:05.848,-0.01844302192330361
1463,00:00:05.852,0.0036593588301911993
1464,00:00:05.856,0.02435727172996851
1465,00:00:05.86,-0.0026546382578089894
1466,00:00:05.864,-0.01387010584585369
1467,00:00:05.868,-0.0028701624833047095
1468,00:00:05.872,0.001927378587424752
1469,00:00:05.876,-0.0054202650208026205
1470,00:00:05.88,0.00983739306684587
1471,00:00:05.884,0.01541359885595741
1472,00:00:05.888,-0.0014189629582688282
1473,00:00:05.892,-0.02288422966375946
1474,00:00:05.896,-0.02311879489570852
1475,00:00:05.9,0.016560856864089188
1476,00:00:05.904,0.046329678036272484
1477,00:00:05.908,-0.0067217871546745595
1478,00:00:05.912,-0.02082264062482867
1479,00:00:05.916,-0.02111281221732501
1480,00:00:05.92,-0.0058777569793164695
1481,00:00:05.924,0.01351374998921524
1482,00:00:05.928,0.02265371874091219
1483,00:00:05.932,0.005165030946955081
1484,00:00:05.936,-0.007340906769968569
1485,00:00:05.94,-0.025210521067492643
1486,00:00:05.944,0.012756259700836384
1487,00:00:05.948,0.003864885547955057
1488,00:00:05.952,-0.00735141267068681
1489,00:00:05.956,-0.004724580794572809
1490,00:00:05.96,0.007281988859176629
1491,00:00:05.964,0.023584423586726168
1492,00:00:05.968,-0.015573246113490317
1493,00:00:05.972,-0.02127482485957441
1494,00:00:05.976,0.0088251814013347
1495,00:00:05.98,0.0025305601302534303
1496,00:00:05.984,-0.0028325049206614408
1497,00:00:05.988,0.024153181351721252
1498,00:00:05.992,0.011918649863218876
1499,00:00:05.996,-0.03299927443731571
1500,00:00:06,-0.01215390651486814
1501,00:00:06.004,0.004662671679398048
1502,00:00:06.008,0.008698035919223909
1503,00:00:06.012,0.0019892561249434514
1504,00:00:06.016,0.01613713975530118
1505,00:00:06.02,-0.016311337705701617
1506,00:00:06.024,-0.017054950205420076
1507,00:00:06.028,0.022001574281603112
1508,00:00:06.032,0.011773166363127531
1509,00:00:06.036,-0.023451119690435042
1510,00:00:06.04,0.014089094125665724
1511,00:00:06.044,-0.0025888364762067808
1512,00:00:06.048,-0.01378740859217942
1513,00:00:06.052,0.025926216505467923
1514,00:00:06.056,-0.01671460689976809
1515,00:00:06.06,-0.015631714952178268
1516,00:00:06.064,0.010487143532373008
1517,00:00:06.068,0.002643222571350635
1518,00:00:06.072,0.01135766382503789
1519,00:00:06.076,-0.0024760107044130494
1520,00:00:06.08,0.012061018729582476
1521,00:00:06.084,-0.01824142027180646
1522,00:00:06.088,-0.009042082238011069
1523,00:00:06.092,-7.126131094989906e-05
1524,00:00:06.096,-0.013883875173632994
1525,00:00:06.1,0.01891324378084391
1526,00:00:06.104,0.03638690989464524
1527,00:00:06.108,-0.0043657741043716695
1528,00:00:06.112,-0.04480254556983703
1529,00:00:06.116,0.0086725363507867
1530,00:00:06.12,0.0069670781667809925
1531,00:00:06.124,-0.007121122209355209
1532,00:00:06.128,0.008100213715806638
1533,00:00:06.132,0.01741109485737974
1534,00:00:06.136,0.0018019815906881904
1535,00:00:06.14,-0.031479591387324056
1536,00:00:06.144,-0.0054262874764390255
1537,00:00:06.148,0.00861668045399713
1538,00:00:06.152,0.02145826537162063
1539,00:00:06.156,-0.003152263583615431
1540,00:00:06.16,-0.00115799694322049
1541,00:00:06.164,-0.0141235650517046
1542,00:00:06.168,0.005274085327982899
1543,00:00:06.172,0.007264099956955767
1544,00:00:06.176,-0.0078081262545310875
1545,00:00:06.18,-0.010931906697805971
1546,00:00:06.184,0.01773506088647995
1547,00:00:06.188,0.00995688792318106
1548,00:00:06.192,-0.019793925341218703
1549,00:00:06.196,-0.008279829286038829
1550,00:00:06.2,0.01249643065966665
1551,00:00:06.204,0.01989704975858331
1552,00:00:06.208,-0.021418983786134004
1553,00:00:06.212,-0.007379240298178048
1554,00:00:06.216,0.01749848946928973
1555,00:00:06.22,-0.0031568091362714733
1556,00:00:06.224,-0.00220838747918605
1557,00:00:06.228,-0.01103140157647432
1558,00:00:06.232,0.003681620815768834
1559,00:00:06.236,0.00994041305966675
1560,00:00:06.24,-0.0009868129272945247
1561,00:00:06.244,-0.011844663531519473
1562,00:00:06.248,0.001454166340408845
1563,00:00:06.252,0.00818249798612669
1564,00:00:06.256,0.01532383053563539
1565,00:00:06.26,-0.00796877779066563
1566,00:00:06.264,-0.007198889506980769
1567,00:00:06.268,-0.014066247385926562
1568,00:00:06.272,-0.0009737829677760601
1569,00:00:06.276,-0.0014288432430475924
1570,00:00:06.28,0.0261726645985618
1571,00:00:06.284,-0.011166834039613528
1572,00:00:06.288,0.01511447547818534
1573,00:00:06.292,-0.01291295420378445
1574,00:00:06.296,-0.004198871087282901
1575,00:00:06.3,-0.0026581243146211004
1576,00:00:06.304,0.01095243520103396
1577,00:00:06.308,-0.007466848473995918
1578,00:00:06.312,0.00244581326842311
1579,00:00:06.316,-0.0055305068381130695
1580,00:00:06.32,-0.01066323206759989
1581,00:00:06.324,0.014074020087718919
1582,00:00:06.328,0.004379364196211129
1583,00:00:06.332,0.00657096086069942
1584,00:00:06.336,-0.01125062885694206
1585,00:00:06.34,0.02039555995725095
1586,00:00:06.344,-0.020118644886679225
1587,00:00:06.348,-0.022018435993231784
1588,00:00:06.352,0.0073157928418368
1589,00:00:06.356,0.020505299558863037
1590,00:00:06.36,0.00149528356269003
1591,00:00:06.364,-0.01362518628593537
1592,00:00:06.368,0.023856884567066992
1593,00:00:06.372,-0.0022952641829760956
1594,00:00:06.376,-0.02005885180551556
1595,00:00:06.38,-0.006021409528329971
1596,00:00:06.384,0.0009904621401801703
1597,00:00:06.388,0.01433263835497205
1598,00:00:06.392,-0.0015204818919301029
1599,00:00:06.396,-0.005110736703500157
1600,00:00:06.4,0.0034155996982007993
1601,00:00:06.404,0.00710502313449979
1602,00:00:06.408,-0.0017628769855946311
1603,00:00:06.412,-0.002972610818687822
1604,00:00:06.416,-0.01641477458178996
1605,00:00:06.42,0.01312741090077911
1606,00:00:06.424,0.007285927305929366
1607,00:00:06.428,-0.005099321162560951
1608,00:00:06.432,-0.015583182626869564
1609,00:00:06.436,0.006352879689075056
1610,00:00:06.44,0.005628060898743571
1611,00:00:06.444,0.0049126655067084374
1612,00:00:06.448,0.015023269224911932
1613,00:00:06.452,-0.009995677828555921
1614,00:00:06.456,-0.0076779421069659674
1615,00:00:06.46,-0.0007401171606034075
1616,00:00:06.464,-0.0013257812242954917
1617,00:00:06.468,-0.010195438233495223
1618,00:00:06.472,-0.00555586130940355
1619,00:00:06.476,0.00230576924514025
1620,00:00:06.48,0.029986673966050127
1621,00:00:06.484,0.010581856826320301
1622,00:00:06.488,-0.016487022570800015
1623,00:00:06.492,-0.01349605713039633
1624,00:00:06.496,-0.0033275922760367307
1625,00:00:06.5,0.005822869250550864
1626,00:00:06.504,-0.006938824546523389
1627,00:00:06.508,-0.007082383381202812
1628,00:00:06.512,0.0219485571142286
1629,00:00:06.516,-8.6926869244058e-05
1630,00:00:06.52,0.006664069718681299
1631,00:00:06.524,0.0028558716876432256
1632,00:00:06.528,-0.013533613062463711
1633,00:00:06.532,-0.01322594657540322
1634,00:00:06.536,-0.0008089318725978904
1635,00:00:06.54,-0.000717633287422352
1636,00:00:06.544,0.010135505930520549
1637,00:00:06.548,0.01904035115148872
1638,00:00:06.552,-0.009181175846606493
1639,00:00:06.556,-0.01263751788064839
1640,00:00:06.56,0.0004348523798398587
1641,00:00:06.564,0.00824804324656725
1642,00:00:06.568,0.007415230647893616
1643,00:00:06.572,-0.016679465654306138
1644,00:00:06.576,-0.00198724190704525
1645,00:00:06.58,0.00022851058747619044
1646,00:00:06.584,0.01501038880087434
1647,00:00:06.588,-0.00016889441758394068
1648,00:00:06.592,-0.00679360586218535
1649,00:00:06.596,-0.012269183062016971
1650,00:00:06.6,0.01433242508210237
1651,00:00:06.604,0.015525626600719962
1652,00:00:06.608,-0.00537573359906678
1653,00:00:06.612,-0.020549285982269773
1654,00:00:06.616,-0.01155263953842224
1655,00:00:06.62,-0.0003707208088599189
1656,00:00:06.624,0.032132541295140954
1657,00:00:06.628,0.0020477820071391224
1658,00:00:06.632,-0.00393667561002072
1659,00:00:06.636,-0.01778154011117298
1660,00:00:06.64,-0.0027411547489464205
1661,00:00:06.644,0.01755761494860053
1662,00:00:06.648,-0.0035177557729184714
1663,00:00:06.652,-0.01443706057034432
1664,00:00:06.656,0.011762687005102666
1665,00:00:06.66,-0.00627433019690215
1666,00:00:06.664,-0.010061310371384032
1667,00:00:06.668,0.03733937488868834
1668,00:00:06.672,0.020057624031323936
1669,00:00:06.676,-0.040958696976304054
1670,00:00:06.68,-0.02802733751013874
1671,00:00:06.684,-0.006485159799922251
1672,00:00:06.688,0.01817771408241242
1673,00:00:06.692,0.02226427337154746
1674,00:00:06.696,0.01697032514493912
1675,00:00:06.7,-0.01400073117110878
1676,00:00:06.704,-0.011695446126395838
1677,00:00:06.708,0.01632750104181469
1678,00:00:06.712,-0.01424977998249233
1679,00:00:06.716,-0.018825357779860462
1680,00:00:06.72,0.00615018815733492
1681,00:00:06.724,0.015288655413314698
1682,00:00:06.728,-0.0032423147931694915
1683,00:00:06.732,0.0015520385932177292
1684,00:00:06.736,-0.0025301454588770884
1685,00:00:06.74,-0.002212498802691699
1686,00:00:06.744,0.00799658219330013
1687,00:00:06.748,0.01619526790454984
1688,00:00:06.752,-0.009936800895957274
1689,00:00:06.756,-0.020800939295440912
1690,00:00:06.76,0.003917989030014717
1691,00:00:06.764,0.00114064663648609
1692,00:00:06.768,-0.007391923980321732
1693,00:00:06.772,-0.00313461385667324
1694,00:00:06.776,0.009645757090765988
1695,00:00:06.78,0.013370330212637779
1696,00:00:06.784,0.00814302713843062
1697,00:00:06.788,-0.002060932223685091
1698,00:00:06.792,-0.005876433715457086
1699,00:00:06.796,-0.018161106156185238
1700,00:00:06.8,0.012452776427380761
1701,00:00:06.804,-0.00141555920708925
1702,00:00:06.808,0.0043202445958741035
1703,00:00:06.812,-0.00962073681876063
1704,00:00:06.816,-0.01588095654733479
1705,00:00:06.82,0.00536183826625348
1706,00:00:06.824,0.01137813972309232
1707,00:00:06.828,0.02095455792732534
1708,00:00:06.832,0.01372318970970809
1709,00:00:06.836,-0.02096865093335511
1710,00:00:06.84,-0.024268934037536383
1711,00:00:06.844,0.0010372219257988018
1712,00:00:06.848,-0.00252767535857857
1713,00:00:06.852,0.011972422653343574
1714,00:00:06.856,0.01865654336870651
1715,00:00:06.86,-0.0046310235047713
1716,00:00:06.864,-0.0030102722812443894
1717,00:00:06.868,-0.01367670437321066
1718,00:00:06.872,-0.00364186242222787
1719,00:00:06.876,-0.00062219449318945
1720,00:00:06.88,0.007582904072478412
1721,00:00:06.884,0.013554370671045035
1722,00:00:06.888,-0.0028148845303803726
1723,00:00:06.892,0.0001942156231962076
1724,00:00:06.896,-0.0014170350041240501
1725,00:00:06.9,-0.013475018553435792
1726,00:00:06.904,0.00043970067054035014
1727,00:00:06.908,-0.00655224034562707
1728,00:00:06.912,0.00032114931673278037
1729,00:00:06.916,0.01691988459788263
1730,00:00:06.92,0.0143520247656852
1731,00:00:06.924,0.01388035761192441
1732,00:00:06.928,-0.038774672895669896
1733,00:00:06.932,-0.02126083825714889
1734,00:00:06.936,0.00569800822995604
1735,00:00:06.94,0.04772397037595517
1736,00:00:06.944,-0.01144918147474527
1737,00:00:06.948,-0.021060585182567544
1738,00:00:06.952,0.0020826905965805097
1739,00:00:06.956,-0.0074756260728463505
1740,00:00:06.96,0.007395685417577618
1741,00:00:06.964,0.006335501093417392
1742,00:00:06.968,0.00776332104578615
1743,00:00:06.972,0.0027016696985810995
1744,00:00:06.976,-0.00893256650306284
1745,00:00:06.98,-0.0014270128449425101
1746,00:00:06.984,-0.01651629649859391
1747,00:00:06.988,0.00711855525150895
1748,00:00:06.992,0.00977252901066094
1749,00:00:06.996,-0.0037521763006225298
1750,00:00:07,0.006969236885197457
1751,00:00:07.004,0.00713769719004632
1752,00:00:07.008,-0.014892404549755156
1753,00:00:07.012,-0.00241627811919898
1754,00:00:07.016,0.006388433743268239
1755,00:00:07.02,0.004943991079926489
1756,00:00:07.024,0.0025831304956227593
1757,00:00:07.028,-0.023407116648741053
1758,00:00:07.032,-0.014389194548130035
1759,00:00:07.036,0.02538515825290236
1760,00:00:07.04,0.028709132398944313
1761,00:00:07.044,0.005952986510237674
1762,00:00:07.048,-0.035531101282685995
1763,00:00:07.052,-0.01895825820975001
1764,00:00:07.056,0.00880206978763454
1765,00:00:07.06,0.01605919701978568
1766,00:00:07.064,0.01690801326185465
1767,00:00:07.068,-0.0021660210331901904
1768,00:00:07.072,-0.03455040953122085
1769,00:00:07.076,0.00245311873732135
1770,00:00:07.08,0.016995228826999657
1771,00:00:07.084,0.00769798282999545
1772,00:00:07.088,-0.0069882406969554705
1773,00:00:07.092,0.0010882467613555409
1774,00:00:07.096,0.010582148941466585
1775,00:00:07.1,-0.01794615248218179
1776,00:00:07.104,-0.012963557615876219
1777,00:00:07.108,0.00425617850851268
1778,00:00:07.112,0.006780275783967225
1779,00:00:07.116,0.01902747107669709
1780,00:00:07.12,0.02322209918611403
1781,00:00:07.124,-0.02632317226380101
1782,00:00:07.128,-0.020421962079126423
1783,00:00:07.132,-0.017126075108535598
1784,00:00:07.136,0.014165966349537481
1785,00:00:07.14,0.008607529453001916
1786,00:00:07.144,0.024421377282124013
1787,00:00:07.148,-0.0023081231629475908
1788,00:00:07.152,-0.01992804231122136
1789,00:00:07.156,-0.001988377232919449
1790,00:00:07.16,-0.0056040688650682595
1791,00:00:07.164,0.014258294657338414
1792,00:00:07.168,0.0073839868418872304
1793,00:00:07.172,-0.01733419927768411
1794,00:00:07.176,0.002227019402198491
1795,00:00:07.18,0.0050994207849725925
1796,00:00:07.184,0.004263316863216461
1797,00:00:07.188,-0.007012896821834169
1798,00:00:07.192,-0.00399010231194552
1799,00:00:07.196,0.001179901475552476
1800,00:00:07.2,0.0016414701967732974
1801,00:00:07.204,0.013521161497919815
1802,00:00:07.208,-0.0008630745578557305
1803,00:00:07.212,-0.006859998684376473
1804,00:00:07.216,-0.014553721295669717
1805,00:00:07.22,0.00942801800556481
1806,00:00:07.224,0.00349921372253447
1807,00:00:07.228,-0.00822602165862918
1808,00:00:07.232,0.002604598412290212
1809,00:00:07.236,0.011603353836107957
1810,00:00:07.24,0.00584665313363075
1811,00:00:07.244,-0.010425046086311288
1812,00:00:07.248,-0.006780703086405989
1813,00:00:07.252,-0.016551499371416888
1814,00:00:07.256,0.0090975477360189
1815,00:00:07.26,0.028580734389834148
1816,00:00:07.264,-0.003481249907054013
1817,00:00:07.268,-0.000654045026749369
1818,00:00:07.272,-0.01735466555692253
1819,00:00:07.276,-0.01177108287811281
1820,00:00:07.28,0.00987419177545234
1821,00:00:07.284,-0.006875062419567254
1822,00:00:07.288,0.025155298295430867
1823,00:00:07.292,-0.00333749048877507
1824,00:00:07.296,-0.010028014643467014
1825,00:00:07.3,0.01242077257484198
1826,00:00:07.304,-0.0014515686052618535
1827,00:00:07.308,-0.014574606961104996
1828,00:00:07.312,-0.01406628824770451
1829,00:00:07.316,0.013940667326096457
1830,00:00:07.32,0.00588643027003855
1831,00:00:07.324,-0.0019470200641080512
1832,00:00:07.328,0.006233305146452043
1833,00:00:07.332,0.00459386734291912
1834,00:00:07.336,-0.01474781334400176
1835,00:00:07.34,0.0059031257405877105
1836,00:00:07.344,0.00881538540124894
1837,00:00:07.348,-0.01741378486622121
1838,00:00:07.352,-0.007981477654539059
1839,00:00:07.356,0.0176918643992394
1840,00:00:07.36,0.015396242437418549
1841,00:00:07.364,-0.007074787383317013
1842,00:00:07.368,-0.013424248521914652
1843,00:00:07.372,-0.006826743250712751
1844,00:00:07.376,0.0011019582161679795
1845,00:00:07.38,0.005258587189018729
1846,00:00:07.384,0.0010167306318180592
1847,00:00:07.388,0.01699222158640626
1848,00:00:07.392,-0.004611994139850151
1849,00:00:07.396,-0.02403390221297739
1850,00:00:07.4,0.005637368885800248
1851,00:00:07.404,0.018830003216862682
1852,00:00:07.408,-0.014918680710252397
1853,00:00:07.412,0.00876048416830598
1854,00:00:07.416,0.009594240342266906
1855,00:00:07.42,-0.00855888100340962
1856,00:00:07.424,-0.009777209954336286
1857,00:00:07.428,-0.008289531804621216
1858,00:00:07.432,0.001370222773402971
1859,00:00:07.436,0.007399697322398421
1860,00:00:07.44,0.01158681558445095
1861,00:00:07.444,0.010193627822445702
1862,00:00:07.448,-0.011456708423793323
1863,00:00:07.452,-0.01339295180514452
1864,00:00:07.456,-0.01233779266476631
1865,00:00:07.46,0.016072924423497125
1866,00:00:07.464,0.017615795950405303
1867,00:00:07.468,-0.007636105699930345
1868,00:00:07.472,0.0034785079769789895
1869,00:00:07.476,-0.019038262544199838
1870,00:00:07.48,0.0023470565938623596
1871,00:00:07.484,0.00831109157297752
1872,00:00:07.488,0.0056503913365304505
1873,00:00:07.492,-0.011844292050227499
1874,00:00:07.496,-0.00148959318175911
1875,00:00:07.5,0.0034080371260643543
1876,00:00:07.504,-0.004438539035618302
1877,00:00:07.508,0.02031365209404615
1878,00:00:07.512,-0.0013223208952695175
1879,00:00:07.516,-0.01913433615118266
1880,00:00:07.52,0.0004772375104948911
1881,00:00:07.524,0.009675787412561442
1882,00:00:07.528,0.01244663808029145
1883,00:00:07.532,-0.014341422938741744
1884,00:00:07.536,-0.02195948152802887
1885,00:00:07.54,0.006503010401502279
1886,00:00:07.544,0.01807152898982171
1887,00:00:07.548,0.01182276918552811
1888,00:00:07.552,-0.007313666515983639
1889,00:00:07.556,-0.00686647975817323
1890,00:00:07.56,4.8540532589000374e-05
1891,00:00:07.564,-0.009063782228622582
1892,00:00:07.568,0.00807155342772603
1893,00:00:07.572,-0.0011188233038410627
1894,00:00:07.576,-0.005574102164246149
1895,00:00:07.58,0.00645482144318521
1896,00:00:07.584,-0.0054350930731743505
1897,00:00:07.588,0.00390100944787263
1898,00:00:07.592,0.02586138015612957
1899,00:00:07.596,-0.017434951383620508
1900,00:00:07.6,-0.006924487417563774
1901,00:00:07.604,0.00028461167676141496
1902,00:00:07.608,-0.014089730102568861
1903,00:00:07.612,-0.00967409729491922
1904,00:00:07.616,0.00934418383985761
1905,00:00:07.62,0.02797213080339137
1906,00:00:07.624,0.01154035190120339
1907,00:00:07.628,-0.019294316181912977
1908,00:00:07.632,-0.02143915160559113
1909,00:00:07.636,0.01357262919191271
1910,00:00:07.64,0.025762783363461488
1911,00:00:07.644,-0.017596379388123796
1912,00:00:07.648,-0.020232252543792097
1913,00:00:07.652,-0.0010432063136249703
1914,00:00:07.656,0.0034355437383055713
1915,00:00:07.66,0.01620309191639535
1916,00:00:07.664,0.00587716943118721
1917,00:00:07.668,-0.02328150346875188
1918,00:00:07.672,0.009757410734891891
1919,00:00:07.676,0.013436972338240597
1920,00:00:07.68,0.00716911628842355
1921,00:00:07.684,-0.01596876815892755
1922,00:00:07.688,-0.009700419381260882
1923,00:00:07.692,0.0009260918013751515
1924,00:00:07.696,-0.001978661515749945
1925,00:00:07.7,0.02196651970734816
1926,00:00:07.704,0.00705096963793039
1927,00:00:07.708,-0.02145724440924824
1928,00:00:07.712,-0.02496079355478283
1929,00:00:07.716,0.00969649653416128
1930,00:00:07.72,0.02320784563198686
1931,00:00:07.724,0.0025962471263483206
1932,00:00:07.728,-0.005794157157652079
1933,00:00:07.732,0.00438301230315115
1934,00:00:07.736,-0.0021326801506802405
1935,00:00:07.74,-0.013165039126761258
1936,00:00:07.744,0.006062523229047588
1937,00:00:07.748,0.0032830713316798193
1938,00:00:07.752,-0.006157742929644884
1939,00:00:07.756,-0.00387994246557357
1940,00:00:07.76,0.01139141945168373
1941,00:00:07.764,0.02522976789623501
1942,00:00:07.768,-0.0317226090701297
1943,00:00:07.772,-0.01691726897843182
1944,00:00:07.776,0.008801273244898735
1945,00:00:07.78,0.018967376789078172
1946,00:00:07.784,0.011507345363497741
1947,00:00:07.788,-0.016778566467110068
1948,00:00:07.792,-0.02319930191151793
1949,00:00:07.796,0.0023420403595082427
1950,00:00:07.8,0.04326095245778566
1951,00:00:07.804,0.0019343735184519893
1952,00:00:07.808,-0.03346359916031366
1953,00:00:07.812,-0.021962432772852432
1954,00:00:07.816,0.01868928200565276
1955,00:00:07.82,0.014931107754819088
1956,00:00:07.824,0.02282519883010534
1957,00:00:07.828,-0.01927566691301763
1958,00:00:07.832,-0.02040712826419621
1959,00:00:07.836,-0.004937461155350323
1960,00:00:07.84,0.021838676126208136
1961,00:00:07.844,0.01133794127963484
1962,00:00:07.848,-0.007794723846018307
1963,00:00:07.852,-0.01911110896617174
1964,00:00:07.856,-0.00011334195733073496
1965,00:00:07.86,-0.0058379746042192295
1966,00:00:07.864,0.01583899243269116
1967,00:00:07.868,0.018639553803950517
1968,00:00:07.872,0.0003046388737856804
1969,00:00:07.876,-0.02469579386524858
1970,00:00:07.88,0.002866421622456974
1971,00:00:07.884,0.005548438755795361
1972,00:00:07.888,0.0033292065782006986
1973,00:00:07.892,1.9476283341691297e-05
1974,00:00:07.896,-0.02703728177584712
1975,00:00:07.9,0.010804556659422822
1976,00:00:07.904,0.02583856973797085
1977,00:00:07.908,-0.013039059005677691
1978,00:00:07.912,-0.00416220701299608
1979,00:00:07.916,0.007298550568521063
1980,00:00:07.92,0.0007083636592142284
1981,00:00:07.924,-0.007303702470380813
1982,00:00:07.928,-0.0058552009286359005
1983,00:00:07.932,0.011430163925979276
1984,00:00:07.936,0.003480170737020667
1985,00:00:07.94,-0.013391177286393989
1986,00:00:07.944,-0.0012921342859044602
1987,00:00:07.948,-0.0037503689527511493
1988,00:00:07.952,0.03358025301713493
1989,00:00:07.956,-0.01904053770704198
1990,00:00:07.96,-0.0039770256262272995
1991,00:00:07.964,0.008023299218621101
1992,00:00:07.968,-0.0038633559888694496
1993,00:00:07.972,-0.02537117106840018
1994,00:00:07.976,0.005538120691198851
1995,00:00:07.98,0.01247756404336543
1996,00:00:07.984,0.03338029657606967
1997,00:00:07.988,-0.01750734273809938
1998,00:00:07.992,-0.011503768619149951
1999,00:00:07.996,-0.014587401477911002
2000,00:00:08,0.0022736491810064793
2001,00:00:08.004,0.00822233007056635
2002,00:00:08.008,0.002756062473054045
2003,00:00:08.012,0.008732068512472317
2004,00:00:08.016,-0.01011618634220213
2005,00:00:08.02,0.020315246772952402
2006,00:00:08.024,-0.014240520977182331
2007,00:00:08.028,-0.0009236208716174549
2008,00:00:08.032,-0.010330880875699219
2009,00:00:08.036,-0.0021413948852568795
2010,00:00:08.04,-0.000812869053333998
2011,00:00:08.044,-0.009834318654611708
2012,00:00:08.048,0.024628805927932217
2013,00:00:08.052,0.02876837342046206
2014,00:00:08.056,-0.016853297482157407
2015,00:00:08.06,-0.0212746781762689
2016,00:00:08.064,-0.014030192753125418
2017,00:00:08.068,0.02253000752534722
2018,00:00:08.072,-0.01093668155954222
2019,00:00:08.076,-0.003573672089260065
2020,00:00:08.08,0.00738925859332084
2021,00:00:08.084,0.01642133458517495
2022,00:00:08.088,0.00829301611520351
2023,00:00:08.092,-0.011156532724271523
2024,00:00:08.096,-0.01794813899323344
2025,00:00:08.1,0.004715719493106039
2026,00:00:08.104,-0.021075345110148195
2027,00:00:08.108,-0.004232602354022671
2028,00:00:08.112,0.04242676263675093
2029,00:00:08.116,0.009090414736419949
2030,00:00:08.12,-0.00401072885142639
2031,00:00:08.124,-0.018189543741755222
2032,00:00:08.128,-0.013816089194733594
2033,00:00:08.132,0.009168367105303353
2034,00:00:08.136,-0.0026898591313511103
2035,00:00:08.14,0.0003255893825552941
2036,00:00:08.144,0.01046252972446382
2037,00:00:08.148,0.0029893179744249192
2038,00:00:08.152,-8.27967887744134e-05
2039,00:00:08.156,-0.007910757092759034
2040,00:00:08.16,-0.008863270864822019
2041,00:00:08.164,0.004259138135239471
2042,00:00:08.168,0.020945634692907278
2043,00:00:08.172,0.004257872118614621
2044,00:00:08.176,-0.03781060827895995
2045,00:00:08.18,0.0011112258071080301
2046,00:00:08.184,0.012291044928133479
2047,00:00:08.188,0.005439741304144222
2048,00:00:08.192,0.0130356823792681
2049,00:00:08.196,-0.009134190157055851
2050,00:00:08.2,-0.008944888832047582
2051,00:00:08.204,-0.01277391251642257
2052,00:00:08.208,0.0229606460779905
2053,00:00:08.212,0.00871718162670728
2054,00:00:08.216,-3.6831130273640156e-05
2055,00:00:08.22,-0.03177148057147859
2056,00:00:08.224,0.003133671358227725
2057,00:00:08.228,0.018091394216753577
2058,00:00:08.232,0.0022807819768786795
2059,00:00:08.236,-0.005406689015217125
2060,00:00:08.24,-0.0056845191284082795
2061,00:00:08.244,0.00809500995092094
2062,00:00:08.248,0.005914459703490129
2063,00:00:08.252,-0.029363544192165112
2064,00:00:08.256,0.02529963664710521
2065,00:00:08.26,0.00982932152692229
2066,00:00:08.264,-0.014927950469427723
2067,00:00:08.268,0.0019653566414490403
2068,00:00:08.272,-0.009787865303223956
2069,00:00:08.276,-0.01173438038676977
2070,00:00:08.28,0.009948682185495258
2071,00:00:08.284,0.02577070920960981
2072,00:00:08.288,-0.00041246414184572915
2073,00:00:08.292,-0.00991865620017052
2074,00:00:08.296,0.0013721103314310607
2075,00:00:08.3,-0.013774270686553812
2076,00:00:08.304,-0.00523624138440937
2077,00:00:08.308,-0.005810526083223516
2078,00:00:08.312,0.00754136033356189
2079,00:00:08.316,0.009335730923339725
2080,00:00:08.32,0.015907279623206746
2081,00:00:08.324,0.013752651982940699
2082,00:00:08.328,-0.017648916691541706
2083,00:00:08.332,-0.02535487835393728
2084,00:00:08.336,-0.012841119430959221
2085,00:00:08.34,0.01930485130287707
2086,00:00:08.344,0.010391641408205022
2087,00:00:08.348,-0.00022007084771758726
2088,00:00:08.352,0.020039427326992182
2089,00:00:08.356,-0.01315487176179886
2090,00:00:08.36,-0.023879679327364983
2091,00:00:08.364,0.005552529124543069
2092,00:00:08.368,0.0237413032446057
2093,00:00:08.372,-0.024214336997829333
2094,00:00:08.376,-0.0028067094972357163
2095,00:00:08.38,0.0027230789419263606
2096,00:00:08.384,0.007356779591646045
2097,00:00:08.388,0.004819401947315784
2098,00:00:08.392,0.02373202319722623
2099,00:00:08.396,-0.0129879234591499
2100,00:00:08.4,-0.007313935377169405
2101,00:00:08.404,-0.02294531348161399
2102,00:00:08.408,-0.011529426439665239
2103,00:00:08.412,0.016706856433302202
2104,00:00:08.416,0.011481605244625822
2105,00:00:08.42,0.01788548543117944
2106,00:00:08.424,0.00101927970536053
2107,00:00:08.428,-0.015766529671964236
2108,00:00:08.432,-0.009236280107870675
2109,00:00:08.436,0.0023340298794209888
2110,00:00:08.44,-0.0031329989142250296
2111,00:00:08.444,0.017345390049740693
2112,00:00:08.448,-0.0033999378792941796
2113,00:00:08.452,-0.01468449877575036
2114,00:00:08.456,-0.0015302950050681786
2115,00:00:08.46,-0.00386682827956974
2116,00:00:08.464,0.02121969079598785
2117,00:00:08.468,-0.00472158123739064
2118,00:00:08.472,0.0023924420456751154
2119,00:00:08.476,-0.012882250710390519
2120,00:00:08.48,0.008384278451558206
2121,00:00:08.484,-0.0022728167241439245
2122,00:00:08.488,-0.0035071582533419193
2123,00:00:08.492,0.015637434727977923
2124,00:00:08.496,0.0003204287495464
2125,00:00:08.5,-0.0181346160825342
2126,00:00:08.504,-0.00013047934044152325
2127,00:00:08.508,-0.0018881065770984095
2128,00:00:08.512,0.007050641812384129
2129,00:00:08.516,0.0015238548221532299
2130,00:00:08.52,0.017736457753926523
2131,00:00:08.524,-0.00845295144245025
2132,00:00:08.528,-0.01650536747183649
2133,00:00:08.532,-0.0170186153845862
2134,00:00:08.536,0.032256186939775944
2135,00:00:08.54,-0.001566072372952472
2136,00:00:08.544,-0.01563769020140169
2137,00:00:08.548,0.006634880061028517
2138,00:00:08.552,0.0161614555690903
2139,00:00:08.556,-0.016053676634328478
2140,00:00:08.56,-0.0035051323939114896
2141,00:00:08.564,0.03000766364857551
2142,00:00:08.568,-0.023569801414851092
2143,00:00:08.572,-0.014918007509550076
2144,00:00:08.576,-0.0005707331147277767
2145,00:00:08.58,0.01636798097752035
2146,00:00:08.584,-0.0009746388532221109
2147,00:00:08.588,0.0005117882974446097
2148,00:00:08.592,0.0032708607614040305
2149,00:00:08.596,0.0028394665569066793
2150,00:00:08.6,-0.0017548709874972493
2151,00:00:08.604,-0.00840827845968304
2152,00:00:08.608,-0.0018214760348201102
2153,00:00:08.612,0.0017050397582352129
2154,00:00:08.616,0.01295415405184034
2155,00:00:08.62,-0.01428712217602882
2156,00:00:08.624,0.00034399834839859945
2157,00:00:08.628,-0.004585809103446086
2158,00:00:08.632,0.01860385108739138
2159,00:00:08.636,-0.003189888084307299
2160,00:00:08.64,-0.021598299499601133
2161,00:00:08.644,0.01415754272602501
2162,00:00:08.648,0.02024263655766846
2163,00:00:08.652,-0.021847371361218365
2164,00:00:08.656,0.0024633789435028978
2165,00:00:08.66,-0.005090653721708808
2166,00:00:08.664,0.0005637501599267134
2167,00:00:08.668,0.004956100812705704
2168,00:00:08.672,-0.0014211059315130089
2169,00:00:08.676,0.0015270593867171551
2170,00:00:08.68,0.0053974509501131295
2171,00:00:08.684,-0.00597563793417067
2172,00:00:08.688,-4.1650608181951045e-05
2173,00:00:08.692,-0.001663614530116389
2174,00:00:08.696,-0.01079312770161778
2175,00:00:08.7,0.019073760602623238
2176,00:00:08.704,0.014061652298551058
2177,00:00:08.708,-0.01662765233777459
2178,00:00:08.712,-0.02285543107427655
2179,00:00:08.716,-0.005625845631584521
2180,00:00:08.72,0.01986062542709992
2181,00:00:08.724,0.02289586514234542
2182,00:00:08.728,0.01100427319761365
2183,00:00:08.732,-0.01995385740883651
2184,00:00:08.736,-0.029235273832455243
2185,00:00:08.74,0.01152149785775691
2186,00:00:08.744,0.012641004839679226
2187,00:00:08.748,-0.013497890962753431
2188,00:00:08.752,0.00344916642643512
2189,00:00:08.756,0.00293510919436812
2190,00:00:08.76,0.012343131296802319
2191,00:00:08.764,0.007747703857603482
2192,00:00:08.768,-0.013323806226253499
2193,00:00:08.772,-0.02398764784447847
2194,00:00:08.776,0.013052659574896132
2195,00:00:08.78,0.009653089800849555
2196,00:00:08.784,0.01400699000805617
2197,00:00:08.788,-0.013079480035230549
2198,00:00:08.792,-0.021846277872100466
2199,00:00:08.796,0.013937658746726814
2200,00:00:08.8,0.021419375436380485
2201,00:00:08.804,-0.017923727311426805
2202,00:00:08.808,-0.0042608195926731665
2203,00:00:08.812,-0.002307718386873601
2204,00:00:08.816,0.00703343632631003
2205,00:00:08.82,0.011456612846814094
2206,00:00:08.824,-0.0011098968680016742
2207,00:00:08.828,-0.015491230878978931
2208,00:00:08.832,0.0011835575569421111
2209,00:00:08.836,0.0015937380958348096
2210,00:00:08.84,-0.0005111603531986497
2211,00:00:08.844,-0.003092205035500227
2212,00:00:08.848,0.006077444413676861
2213,00:00:08.852,0.0030039091361686683
2214,00:00:08.856,0.00713814725168048
2215,00:00:08.86,-0.00027885187591891606
2216,00:00:08.864,-0.012168040557298811
2217,00:00:08.868,-0.010918633663095489
2218,00:00:08.872,0.00926600769162175
2219,00:00:08.876,0.01507572643458842
2220,00:00:08.88,-0.01595941820414734
2221,00:00:08.884,0.00220069603528827
2222,00:00:08.888,0.007113384286640216
2223,00:00:08.892,0.0022726787719875704
2224,00:00:08.896,-0.004622525069862609
2225,00:00:08.9,-0.002151198103092604
2226,00:00:08.904,0.0028729575569741437
2227,00:00:08.908,-0.004448019317351284
2228,00:00:08.912,-0.009249819733668087
2229,00:00:08.916,7.932237349450935e-05
2230,00:00:08.92,0.011264268774539237
2231,00:00:08.924,0.01212430582381788
2232,00:00:08.928,-0.0008582524969824501
2233,00:00:08.932,-0.01320946565829217
2234,00:00:08.936,-0.0050195506773888995
2235,00:00:08.94,0.005551574053242759
2236,00:00:08.944,0.006242595613002768
2237,00:00:08.948,-0.01830759597942233
2238,00:00:08.952,0.014127880567684773
2239,00:00:08.956,0.004538171589956654
2240,00:00:08.96,0.017947533866390572
2241,00:00:08.964,-0.02870624302886423
2242,00:00:08.968,-0.01128712343052027
2243,00:00:08.972,0.01828618417493998
2244,00:00:08.976,0.0022848335793241824
2245,00:00:08.98,-0.01121685095131398
2246,00:00:08.984,0.00729144248180091
2247,00:00:08.988,0.003837900294456633
2248,00:00:08.992,-0.010493561916518922
2249,00:00:08.996,-0.0006235912442207302
2250,00:00:09,0.0325469980016351
2251,00:00:09.004,-0.015626410371623933
2252,00:00:09.008,-0.02048326260410249
2253,00:00:09.012,-0.0042353643220849335
2254,00:00:09.016,0.00838598143309355
2255,00:00:09.02,0.017236549407243743
2256,00:00:09.024,0.0005633920663967798
2257,00:00:09.028,-0.02139695826917894
2258,00:00:09.032,-0.003423856513109059
2259,00:00:09.036,0.01603584294207396
2260,00:00:09.04,0.01195882586762304
2261,00:00:09.044,0.001327756792306907
2262,00:00:09.048,-0.008383662439882757
2263,00:00:09.052,-0.024827725370414597
2264,00:00:09.056,-0.00689101498574018
2265,00:00:09.06,0.02902883756905791
2266,00:00:09.064,0.001937559223733838
2267,00:00:09.068,-0.00595132587477565
2268,00:00:09.072,0.01824040361680086
2269,00:00:09.076,-0.01625529327429831
2270,00:00:09.08,-0.01368203479796648
2271,00:00:09.084,0.008665133093018085
2272,00:00:09.088,-0.013687308819498863
2273,00:00:09.092,0.024242661660537138
2274,00:00:09.096,-0.0016577336937189605
2275,00:00:09.1,0.0044531682506204085
2276,00:00:09.104,-0.00026665767654776313
2277,00:00:09.108,-0.021540490910410902
2278,00:00:09.112,-0.006717201322317151
2279,00:00:09.116,0.014739549835212582
2280,00:00:09.12,0.0070630160626024
2281,00:00:09.124,0.011886555235832982
2282,00:00:09.128,-0.01360690197907386
2283,00:00:09.132,-0.019194188498659094
2284,00:00:09.136,0.0024172938428818486
2285,00:00:09.14,0.03016712045064201
2286,00:00:09.144,-0.01608211267739535
2287,00:00:09.148,0.01140087749809024
2288,00:00:09.152,-0.0005448971933219625
2289,00:00:09.156,-0.0137604985357029
2290,00:00:09.16,-0.00369046465493735
2291,00:00:09.164,0.005477835016790778
2292,00:00:09.168,-0.02173811802640558
2293,00:00:09.172,-0.018328788341022983
2294,00:00:09.176,0.09859872004017232
2295,00:00:09.18,0.01249451632611454
2296,00:00:09.184,-0.07407260569743813
2297,00:00:09.188,-0.04536232852842663
2298,00:00:09.192,0.002934525895398112
2299,00:00:09.196,0.032031875802204
2300,00:00:09.2,0.03446980053558941
2301,00:00:09.204,0.00950245209969581
2302,00:00:09.208,-0.015193052357062701
2303,00:00:09.212,-0.01549138152040542
2304,00:00:09.216,0.00952487137692515
2305,00:00:09.22,-0.008687817957252271
2306,00:00:09.224,-0.008095263037830591
2307,00:00:09.228,-0.0035433187731541667
2308,00:00:09.232,0.0016754639800638004
2309,00:00:09.236,0.00684378668665886
2310,00:00:09.24,0.00299914856441319
2311,00:00:09.244,0.013998209661167492
2312,00:00:09.248,0.009602281264960759
2313,00:00:09.252,-0.02750055934302506
2314,00:00:09.256,-0.01986814523115752
2315,00:00:09.26,0.019773803884163457
2316,00:00:09.264,0.01487563527189195
2317,00:00:09.268,-0.0012660320207942216
2318,00:00:09.272,0.02130948146805165
2319,00:00:09.276,-0.01971062063239512
2320,00:00:09.28,-0.03275334578938781
2321,00:00:09.284,-0.007721608737483621
2322,00:00:09.288,0.02212775615043937
2323,00:00:09.292,-0.0008481272816425173
2324,00:00:09.296,0.028431702638044953
2325,00:00:09.3,-0.01942980181775054
2326,00:00:09.304,0.012198136886581779
2327,00:00:09.308,-0.00612861895933748
2328,00:00:09.312,-0.010375369340181321
2329,00:00:09.316,-0.012392873177304859
2330,00:00:09.32,0.012231533415615538
2331,00:00:09.324,0.02811426506377755
2332,00:00:09.328,-0.02101212553679938
2333,00:00:09.332,-0.01719428569776935
2334,00:00:09.336,0.013487315911334005
2335,00:00:09.34,0.005940226488746705
2336,00:00:09.344,-0.000525842304341492
2337,00:00:09.348,-0.003352145577082412
2338,00:00:09.352,-0.0009503973997198058
2339,00:00:09.356,-0.00526962894946337
2340,00:00:09.36,-0.003294343361631041
2341,00:00:09.364,0.0005794147873530151
2342,00:00:09.368,-0.0008952349890023904
2343,00:00:09.372,0.024276251439005123
2344,00:00:09.376,-0.0017069382884074048
2345,00:00:09.38,0.0008338168263434982
2346,00:00:09.384,-0.01962698262650516
2347,00:00:09.388,-0.006831997307017488
2348,00:00:09.392,0.00227345008170232
2349,00:00:09.396,0.0017732640262693193
2350,00:00:09.4,0.019517584471032048
2351,00:00:09.404,-4.758744034915989e-05
2352,00:00:09.408,-0.014198785589542205
2353,00:00:09.412,-0.011883459868840868
2354,00:00:09.416,0.009580676325640523
2355,00:00:09.42,0.0034232251346111315
2356,00:00:09.424,0.01099909562617541
2357,00:00:09.428,-0.0016983661334962208
2358,00:00:09.432,-0.018168466631323127
2359,00:00:09.436,0.019734352361410898
2360,00:00:09.44,0.015062874241266427
2361,00:00:09.444,-0.029862726922147042
2362,00:00:09.448,-0.035791607107967104
2363,00:00:09.452,0.0344639383256435
2364,00:00:09.456,0.02398419158998873
2365,00:00:09.46,-0.011433395835410917
2366,00:00:09.464,-0.006853903410956266
2367,00:00:09.468,-0.005738820123951879
2368,00:00:09.472,0.005370089464122427
2369,00:00:09.476,0.0322429909965649
2370,00:00:09.48,-0.03046312811784448
2371,00:00:09.484,-0.017190296202898008
2372,00:00:09.488,-0.006479394622147081
2373,00:00:09.492,0.017292273929342652
2374,00:00:09.496,0.019234075152780902
2375,00:00:09.5,0.0005926522426307201
2376,00:00:09.504,-0.00529722007922828
2377,00:00:09.508,-0.011624566221144047
2378,00:00:09.512,-0.011972841672104545
2379,00:00:09.516,0.00719251274131238
2380,00:00:09.52,0.038765433244407205
2381,00:00:09.524,-0.022632865177001783
2382,00:00:09.528,-0.02544739260338246
2383,00:00:09.532,-0.00804204982705414
2384,00:00:09.536,0.013809169526211897
2385,00:00:09.54,0.028243401087820495
2386,00:00:09.544,-0.00788542034570128
2387,00:00:09.548,-0.008563980314647782
2388,00:00:09.552,0.000654967734590171
2389,00:00:09.556,0.015528790812822987
2390,00:00:09.56,-0.014499476761557125
2391,00:00:09.564,-0.02967603900469837
2392,00:00:09.568,0.02987528033554557
2393,00:00:09.572,0.004901810083538291
2394,00:00:09.576,-0.014398944331333019
2395,00:00:09.58,0.009518368635326624
2396,00:00:09.584,-0.005975976018817162
2397,00:00:09.588,0.003983420785516549
2398,00:00:09.592,0.00567612238228319
2399,00:00:09.596,-0.00371467496734113
2400,00:00:09.6,0.002446625454467724
2401,00:00:09.604,-0.0008362627122551198
2402,00:00:09.608,0.0005057969283370801
2403,00:00:09.612,-0.01162646315060553
2404,00:00:09.616,-0.0049658573698252405
2405,00:00:09.62,-0.0007073890883475598
2406,00:00:09.624,0.008912320190574977
2407,00:00:09.628,0.0026738462038338228
2408,00:00:09.632,0.018223847961053204
2409,00:00:09.636,-0.01657456730026749
2410,00:00:09.64,0.03304029908031234
2411,00:00:09.644,-0.0331912372494116
2412,00:00:09.648,-0.013436115812510259
2413,00:00:09.652,-0.01100901886820788
2414,00:00:09.656,0.017541862092912242
2415,00:00:09.66,0.0127025691326708
2416,00:00:09.664,-0.0027541921590454868
2417,00:00:09.668,-0.0034830539952963586
2418,00:00:09.672,-0.004811863880604501
2419,00:00:09.676,0.007261226652190089
2420,00:00:09.68,0.008918997831642657
2421,00:00:09.684,0.018195902463048662
2422,00:00:09.688,-0.04134012293070553
2423,00:00:09.692,-0.0166855612769723
2424,00:00:09.696,0.01973551395349204
2425,00:00:09.7,0.007354219560511399
2426,00:00:09.704,0.01884694432374094
2427,00:00:09.708,-0.011270165501628078
2428,00:00:09.712,-0.015202517155557874
2429,00:00:09.716,0.011697785870637746
2430,00:00:09.72,0.005373199004679961
2431,00:00:09.724,-0.00019157706992700783
2432,00:00:09.728,-0.01158869173377752
2433,00:00:09.732,-0.0020395231986185536
2434,00:00:09.736,-0.004449104657396681
2435,00:00:09.74,0.004282630397938189
2436,00:00:09.744,0.0023665595217607846
2437,00:00:09.748,0.01865672925487161
2438,00:00:09.752,-0.001645399825065397
2439,00:00:09.756,-0.01983813685365024
2440,00:00:09.76,-0.0004861466295551491
2441,00:00:09.764,-0.00764219905249775
2442,00:00:09.768,0.023905930400360417
2443,00:00:09.772,0.007154161809012309
2444,00:00:09.776,-0.00830545951612293
2445,00:00:09.78,-0.02085690759122373
2446,00:00:09.784,-0.0021429772023111595
2447,00:00:09.788,0.003750123083591459
2448,00:00:09.792,0.02338816784322255
2449,00:00:09.796,0.0005553847295232081
2450,00:00:09.8,-0.007585211540572339
2451,00:00:09.804,-0.015360629651695532
2452,00:00:09.808,-0.007684838841669261
2453,00:00:09.812,0.043905337864998735
2454,00:00:09.816,0.001735039055347401
2455,00:00:09.82,-0.033557471586391364
2456,00:00:09.824,-0.02826616773381833
2457,00:00:09.828,0.018163491971790777
2458,00:00:09.832,0.01711389380216137
2459,00:00:09.836,0.0067386227310635115
2460,00:00:09.84,0.004368748515844338
2461,00:00:09.844,-0.009069601073861122
2462,00:00:09.848,-0.006999187637120481
2463,00:00:09.852,0.00904965901281684
2464,00:00:09.856,-0.01360745925921946
2465,00:00:09.86,0.005147142801433841
2466,00:00:09.864,0.006243839045055214
2467,00:00:09.868,-0.00230143161024899
2468,00:00:09.872,0.0020597958937287404
2469,00:00:09.876,0.006438330281525841
2470,00:00:09.88,-0.005683064460754389
2471,00:00:09.884,-0.013281346880830838
2472,00:00:09.888,-0.005744743903051134
2473,00:00:09.892,0.015702548378612884
2474,00:00:09.896,0.001965402479982005
2475,00:00:09.9,0.0014200899749994191
2476,00:00:09.904,0.0019529303535819101
2477,00:00:09.908,-0.0095239426009357
2478,00:00:09.912,0.000580234074732285
2479,00:00:09.916,0.007615983020514249
2480,00:00:09.92,0.013050138019025331
2481,00:00:09.924,-0.018799533834680908
2482,00:00:09.928,-0.015146186458878216
2483,00:00:09.932,0.0190347544848919
2484,00:00:09.936,0.0006400467245839499
2485,00:00:09.94,-0.0016067178803496028
2486,00:00:09.944,-3.6687182728199416e-05
2487,00:00:09.948,-0.013652091380208778
2488,00:00:09.952,0.0018979504820890742
2489,00:00:09.956,0.01053282897919416
2490,00:00:09.96,0.0032511043827980184
2491,00:00:09.964,0.009225101894116957
2492,00:00:09.968,-0.004009160213172458
2493,00:00:09.972,0.0008631765667814768
2494,00:00:09.976,-0.01519457623362537
2495,00:00:09.98,-0.01008083764463663
2496,00:00:09.984,0.020993608923163244
2497,00:00:09.988,-0.02100907871499658
2498,00:00:09.992,0.01412577554583546
2499,00:00:09.996,0.018958125001518042
2500,00:00:10,-0.010537280089920388
2501,00:00:10.004,0.007136464701034099
2502,00:00:10.008,-0.03395620407536632
2503,00:00:10.012,-0.0021064504690002624
2504,00:00:10.016,0.021605244837701362
2505,00:00:10.02,0.006096818018704641
2506,00:00:10.024,0.01288370537804441
2507,00:00:10.028,-0.0070957462303340366
2508,00:00:10.032,-0.015580716542899602
2509,00:00:10.036,-0.007492944103432816
2510,00:00:10.04,0.00402352004311979
2511,00:00:10.044,0.014937113272026181
2512,00:00:10.048,-0.0076095929107395915
2513,00:00:10.052,0.0004762439493788401
2514,00:00:10.056,0.007466332288458919
2515,00:00:10.06,-0.01841348176822066
2516,00:00:10.064,0.0017996984533965492
2517,00:00:10.068,0.01016694912686945
2518,00:00:10.072,0.0021206509554758703
2519,00:00:10.076,-0.0022454354912043104
2520,00:00:10.08,0.022046301513910273
2521,00:00:10.084,-0.010581984533928342
2522,00:00:10.088,-0.02072543720714747
2523,00:00:10.092,-0.01164588425308465
2524,00:00:10.096,0.00728516199160367
2525,00:00:10.1,-0.00751177594065665
2526,00:00:10.104,0.03331288276240229
2527,00:00:10.108,0.014578688191249967
2528,00:00:10.112,-0.015495531260967248
2529,00:00:10.116,-0.02115840022452171
2530,00:00:10.12,-0.003629468264989553
2531,00:00:10.124,0.011263259919360275
2532,00:00:10.128,0.006938471138710155
2533,00:00:10.132,-0.012812810542527586
2534,00:00:10.136,-0.0006731981411576297
2535,00:00:10.14,0.005407460208516568
2536,00:00:10.144,0.009680702816695
2537,00:00:10.148,0.0006520831957459398
2538,00:00:10.152,-0.008022835943847898
2539,00:00:10.156,0.007909596548415769
2540,00:00:10.16,-0.01337760267779232
2541,00:00:10.164,0.011863968509714998
2542,00:00:10.168,-0.014390511903911793
2543,00:00:10.172,-0.0005636530695483071
2544,00:00:10.176,0.007333151064813111
2545,00:00:10.18,0.001161570457043118
2546,00:00:10.184,-0.0013696902897208903
2547,00:00:10.188,0.0070942830061539895
2548,00:00:10.192,-0.003760005114600064
2549,00:00:10.196,0.009143918287008997
2550,00:00:10.2,-0.012204686863697122
2551,00:00:10.204,-0.006277497392147782
2552,00:00:10.208,0.006890412070788438
2553,00:00:10.212,0.0003921176539734004
2554,00:00:10.216,0.007641485892236191
2555,00:00:10.22,-0.007912375498563029
2556,00:00:10.224,-0.005972815910354281
2557,00:00:10.228,-0.006264877971261677
2558,00:00:10.232,0.01587987039238221
2559,00:00:10.236,-0.0052318160305731
2560,00:00:10.24,-0.004639709834009459
2561,00:00:10.244,0.01960927667096257
2562,00:00:10.248,0.011391540523618465
2563,00:00:10.252,-0.0157230761833489
2564,00:00:10.256,-0.018551785498857498
2565,00:00:10.26,-0.008939154417021207
2566,00:00:10.264,0.0020550845656544005
2567,00:00:10.268,0.0165315184276551
2568,00:00:10.272,0.0047688141930848395
2569,00:00:10.276,0.01324269641190768
2570,00:00:10.28,-0.00843237410299481
2571,00:00:10.284,-0.019350814225617775
2572,00:00:10.288,-0.00607070999103599
2573,00:00:10.292,0.023166327308899812
2574,00:00:10.296,0.009316006675362585
2575,00:00:10.3,-0.00502858834806834
2576,00:00:10.304,-0.020987645257264417
2577,00:00:10.308,-0.01080873014871034
2578,00:00:10.312,0.007201331201940771
2579,00:00:10.316,0.01682335068471727
2580,00:00:10.32,0.01342826313339173
2581,00:00:10.324,-0.00679960777051747
2582,00:00:10.328,-0.007763261208310741
2583,00:00:10.332,-0.013769323646556551
2584,00:00:10.336,-0.0023132606875151396
2585,00:00:10.34,0.03620056502404617
2586,00:00:10.344,-0.00814166991040111
2587,00:00:10.348,-0.010695576027501371
2588,00:00:10.352,-0.01564820925705134
2589,00:00:10.356,-0.02349204069469126
2590,00:00:10.36,0.01491872349288314
2591,00:00:10.364,0.03808200149796906
2592,00:00:10.368,0.0009968657977878995
2593,00:00:10.372,-0.00558751961216331
2594,00:00:10.376,-0.004131104098632935
2595,00:00:10.38,-0.0003300167154520802
2596,00:00:10.384,-0.014176803175359971
2597,00:00:10.388,-0.012246427708305418
2598,00:00:10.392,-0.002840678673237538
2599,00:00:10.396,0.0347483437508345
2600,00:00:10.4,-0.01226044860959519
2601,00:00:10.404,0.0036868112074444044
2602,00:00:10.408,-0.00665345566812906
2603,00:00:10.412,-0.015905956272035802
2604,00:00:10.416,0.021535773295909208
2605,00:00:10.42,0.02620212361216549
2606,00:00:10.424,-0.01831910712644457
2607,00:00:10.428,-0.023247128352522815
2608,00:00:10.432,-0.00866836559725925
2609,00:00:10.436,0.0052002940792590345
2610,00:00:10.44,0.01084031839855016
2611,00:00:10.444,0.01720926957204938
2612,00:00:10.448,-0.004413147224113341
2613,00:00:10.452,-0.018408076168270754
2614,00:00:10.456,0.011519742198288468
2615,00:00:10.46,0.012341742607532069
2616,00:00:10.464,-0.02013712225016209
2617,00:00:10.468,-0.004799191607162329
2618,00:00:10.472,0.01879113120958209
2619,00:00:10.476,-0.00949033792130647
2620,00:00:10.48,0.013348132604733071
2621,00:00:10.484,-0.020799109188374156
2622,00:00:10.488,-0.006512721476610748
2623,00:00:10.492,0.007599763805046679
2624,00:00:10.496,0.0053790488746017304
2625,00:00:10.5,0.00711898825829849
2626,00:00:10.504,0.01563096325844522
2627,00:00:10.508,-0.0007187999435700539
2628,00:00:10.512,-0.03370253113098439
2629,00:00:10.516,-0.0024490822106599808
2630,00:00:10.52,0.01084405975416303
2631,00:00:10.524,-0.00370351644232865
2632,00:00:10.528,0.012327055141213353
2633,00:00:10.532,0.011818166123703122
2634,00:00:10.536,-0.00282125442754477
2635,00:00:10.54,-0.017412711400538683
2636,00:00:10.544,-0.008317733922012818
2637,00:00:10.548,0.01542035199236129
2638,00:00:10.552,0.0025168585125356904
2639,00:00:10.556,-0.0025513138971291482
2640,00:00:10.56,0.0012233927845954912
2641,00:00:10.564,-0.01984144677408041
2642,00:00:10.568,0.01704937964677811
2643,00:00:10.572,0.008411569520831101
2644,00:00:10.576,-0.009099127142690126
2645,00:00:10.58,-0.00572338374331594
2646,00:00:10.584,0.01144714793190361
2647,00:00:10.588,-0.009525896311970447
2648,00:00:10.592,0.010094262426719111
2649,00:00:10.596,0.01264380454085767
2650,00:00:10.6,-0.01618323416914789
2651,00:00:10.604,-0.011996045410342005
2652,00:00:10.608,-0.013187929522246124
2653,00:00:10.612,0.005662060109898451
2654,00:00:10.616,0.016177630459424063
2655,00:00:10.62,0.02019810071215033
2656,00:00:10.624,-0.011316142044961449
2657,00:00:10.628,0.0013506583636626575
2658,00:00:10.632,-0.00215770630165934
2659,00:00:10.636,-0.00804246310144662
2660,00:00:10.64,-0.0016500619240104701
2661,00:00:10.644,-0.0028882951592095257
2662,00:00:10.648,-0.015113268047571179
2663,00:00:10.652,0.009417901281267361
2664,00:00:10.656,0.02017498854547741
2665,00:00:10.66,0.00423257623333484
2666,00:00:10.664,-0.0004469287814572419
2667,00:00:10.668,-0.00454432261176407
2668,00:00:10.672,-0.01405768073163927
2669,00:00:10.676,-0.006802598712965841
2670,00:00:10.68,0.0001568983425386302
2671,00:00:10.684,0.012828326376620717
2672,00:00:10.688,-0.010695473232772196
2673,00:00:10.692,0.013604791311081534
2674,00:00:10.696,0.009840554092079441
2675,00:00:10.7,0.00995178241282705
2676,00:00:10.704,-0.00851927045732737
2677,00:00:10.708,-0.031947508919984144
2678,00:00:10.712,-0.003819764358922839
2679,00:00:10.716,0.005675762426108121
2680,00:00:10.72,0.03215024620294569
2681,00:00:10.724,-0.013955519767478112
2682,00:00:10.728,-0.00812827097252011
2683,00:00:10.732,0.01270362082868813
2684,00:00:10.736,-0.00322127738036215
2685,00:00:10.74,-0.0033813091868068997
2686,00:00:10.744,-0.012816776288673278
2687,00:00:10.748,0.01522036839742217
2688,00:00:10.752,-0.0034844680631068003
2689,00:00:10.756,0.002989608359712295
2690,00:00:10.76,-0.009149968405836297
2691,00:00:10.764,0.022914915898581956
2692,00:00:10.768,-0.010214752284809994
2693,00:00:10.772,-0.02293824905063955
2694,00:00:10.776,0.01171901077032089
2695,00:00:10.78,0.009575462434440858
2696,00:00:10.784,-0.00819339830195533
2697,00:00:10.788,0.004755822767037899
2698,00:00:10.792,-0.008658475242555131
2699,00:00:10.796,0.01772757049184289
2700,00:00:10.8,0.007241462240926911
2701,00:00:10.804,-0.010687539994250997
2702,00:00:10.808,-0.01399126998148857
2703,00:00:10.812,-0.02017432020511473
2704,00:00:10.816,0.008340505009982744
2705,00:00:10.82,0.032246758346445845
2706,00:00:10.824,0.013916281634010392
2707,00:00:10.828,-0.017551505356095738
2708,00:00:10.832,-0.02084411331452427
2709,00:00:10.836,-0.0016527071129530686
2710,00:00:10.84,0.00906058805412612
2711,00:00:10.844,0.022135983250336735
2712,00:00:10.848,-0.01763574243523177
2713,00:00:10.852,-0.005238528596237329
2714,00:00:10.856,-0.0036379422526806593
2715,00:00:10.86,0.004164532379945741
2716,00:00:10.864,0.0072270295640919305
2717,00:00:10.868,-0.011629264023213182
2718,00:00:10.872,0.02057585841976111
2719,00:00:10.876,0.008474807720631361
2720,00:00:10.88,-0.013981191354105265
2721,00:00:10.884,-0.03076861926820131
2722,00:00:10.888,0.0040096982265822615
2723,00:00:10.892,0.02791787753812966
2724,00:00:10.896,0.004734711255878249
2725,00:00:10.9,-0.0075460688094608815
2726,00:00:10.904,-0.015316268474634846
2727,00:00:10.908,0.00538643554318697
2728,00:00:10.912,0.014032997656613588
2729,00:00:10.916,-0.004620608757250009
2730,00:00:10.92,-0.0083213874604553
2731,00:00:10.924,0.0038111540488898806
2732,00:00:10.928,0.0052150549599900885
2733,00:00:10.932,-0.0022393758408725574
2734,00:00:10.936,-0.01841749669983988
2735,00:00:10.94,0.01979547436349098
2736,00:00:10.944,0.003530397079885006
2737,00:00:10.948,-0.0039032612694427393
2738,00:00:10.952,-0.009038334712386131
2739,00:00:10.956,0.0012852131039835487
2740,00:00:10.96,0.009533007629215717
2741,00:00:10.964,-0.01638283347710967
2742,00:00:10.968,0.0029740040190517894
2743,00:00:10.972,0.014494454604573522
2744,00:00:10.976,0.01221477228682491
2745,00:00:10.98,-0.009645397076383238
2746,00:00:10.984,-0.02300203661434356
2747,00:00:10.988,-0.009249135153368122
2748,00:00:10.992,0.0225666661281139
2749,00:00:10.996,0.005017170915380119
2750,00:00:11,-0.0022813064279034703
2751,00:00:11.004,0.01949188683647663
2752,00:00:11.008,-0.013039037119597209
2753,00:00:11.012,-0.013160130511096234
2754,00:00:11.016,-0.00814819475635886
2755,00:00:11.02,-0.005221553205046801
2756,00:00:11.024,0.00818608322879299
2757,00:00:11.028,0.017591215902939418
2758,00:00:11.032,0.013792596349958306
2759,00:00:11.036,-0.007432767190039151
2760,00:00:11.04,-0.025866350799333283
2761,00:00:11.044,0.000317217083647809
2762,00:00:11.048,0.00329410936683416
2763,00:00:11.052,0.013888414017856109
2764,00:00:11.056,-0.0009489217773079525
2765,00:00:11.06,-0.01045711955521257
2766,00:00:11.064,-0.0009363992139696485
2767,00:00:11.068,0.01061878772452474
2768,00:00:11.072,0.007115884451195601
2769,00:00:11.076,0.00189027516171336
2770,00:00:11.08,-0.019484053133055533
2771,00:00:11.084,0.00851988152135164
2772,00:00:11.088,-0.018772761570289703
2773,00:00:11.092,0.0009366744779981681
2774,00:00:11.096,0.004210454935673616
2775,00:00:11.1,0.022225757566047798
2776,00:00:11.104,0.0036132378736510925
2777,00:00:11.108,-0.00752907840069383
2778,00:00:11.112,0.00928901042789217
2779,00:00:11.116,-0.010796428585308649
2780,00:00:11.12,-0.01860542676877229
2781,00:00:11.124,-0.0016639056848362097
2782,00:00:11.128,0.004581891233101491
2783,00:00:11.132,-0.0006858684064354695
2784,00:00:11.136,0.02659253941965293
2785,00:00:11.14,0.0014175670221447897
2786,00:00:11.144,-0.022304659476503768
2787,00:00:11.148,-0.008720207842998241
2788,00:00:11.152,0.014598073321394654
2789,00:00:11.156,0.00756684935186058
2790,00:00:11.16,0.00548522733151912
2791,00:00:11.164,-0.023342682980000938
2792,00:00:11.168,5.095050437376814e-05
2793,00:00:11.172,0.015255343139870089
2794,00:00:11.176,-0.01274077955167737
2795,00:00:11.18,0.00911604170687497
2796,00:00:11.184,0.008401565195526935
2797,00:00:11.188,-0.0074062421917915405
2798,00:00:11.192,-0.00937964278273283
2799,00:00:11.196,0.003952372237108649
2800,00:00:11.2,-0.0022877525188960165
2801,00:00:11.204,0.00035262759774923194
2802,00:00:11.208,0.007187702227383819
2803,00:00:11.212,-0.004842929076403421
2804,00:00:11.216,0.02308588047162625
2805,00:00:11.22,-0.012941924156621131
2806,00:00:11.224,-0.03017382591497149
2807,00:00:11.228,-0.002664384956005958
2808,00:00:11.232,0.03694976556289478
2809,00:00:11.236,0.010946995578706261
2810,00:00:11.24,-0.016756051569245742
2811,00:00:11.244,-0.027298991743009537
2812,00:00:11.248,0.011854217387735849
2813,00:00:11.252,0.00603861908894032
2814,00:00:11.256,0.01289877295494079
2815,00:00:11.26,-0.0071183547843247695
2816,00:00:11.264,0.0104930668603629
2817,00:00:11.268,-0.01837162277661259
2818,00:00:11.272,0.0021984325721859906
2819,00:00:11.276,0.003896017442457376
2820,00:00:11.28,-0.00559754762798546
2821,00:00:11.284,0.0021039520797785376
2822,00:00:11.288,-0.00337968254461885
2823,00:00:11.292,0.013370190485147766
2824,00:00:11.296,-0.00967177178245038
2825,00:00:11.3,0.00453641545027496
2826,00:00:11.304,-0.0014277055161073706
2827,00:00:11.308,-0.010228889295831331
2828,00:00:11.312,0.019712262321263562
2829,00:00:11.316,-0.01099727116525173
2830,00:00:11.32,-0.014753510244190672
2831,00:00:11.324,0.03586513176560398
2832,00:00:11.328,-0.012274886947125198
2833,00:00:11.332,-0.024491456308169273
2834,00:00:11.336,-0.0017069583991542502
2835,00:00:11.34,0.03143594227731232
2836,00:00:11.344,0.004323191591538485
2837,00:00:11.348,-0.01809228910133245
2838,00:00:11.352,-0.00982213497627527
2839,00:00:11.356,-0.004160600074101236
2840,00:00:11.36,0.01352432311978192
2841,00:00:11.364,-0.00314921629615128
2842,00:00:11.368,0.016496941447258037
2843,00:00:11.372,-0.0032480019144713905
2844,00:00:11.376,-0.005993729457259218
2845,00:00:11.38,-0.0075033023022115395
2846,00:00:11.384,-0.013195818813983322
2847,00:00:11.388,0.01158811082132157
2848,00:00:11.392,0.020125695969909395
2849,00:00:11.396,-0.003984799492172918
2850,00:00:11.4,-0.00951566710136831
2851,00:00:11.404,0.006220081006176709
2852,00:00:11.408,-0.023243968375027162
2853,00:00:11.412,0.0004353541880846006
2854,00:00:11.416,0.01453379902523011
2855,00:00:11.42,0.0037357156397774807
2856,00:00:11.424,0.02164954005274921
2857,00:00:11.428,-0.02387138013727961
2858,00:00:11.432,-0.010958819824736588
2859,00:00:11.436,0.01305616361787543
2860,00:00:11.44,-0.009889032924547791
2861,00:00:11.444,8.419773075730216e-05
2862,00:00:11.448,0.007211102230940016
2863,00:00:11.452,0.007235070777824155
2864,00:00:11.456,0.0029070533055346455
2865,00:00:11.46,-0.012118389626266438
2866,00:00:11.464,0.007746507937554227
2867,00:00:11.468,-0.022764138527541843
2868,00:00:11.472,0.012269126076716928
2869,00:00:11.476,0.03112424269784238
2870,00:00:11.48,-0.031644279428292066
2871,00:00:11.484,-0.0036819383385591196
2872,00:00:11.488,-0.007478253683075309
2873,00:00:11.492,-3.1251314794648074e-05
2874,00:00:11.496,0.04613207280635835
2875,00:00:11.5,-0.010449616471305469
2876,00:00:11.504,-0.02445462998002764
2877,00:00:11.508,-0.013429111451841887
2878,00:00:11.512,0.019887402420863502
2879,00:00:11.516,0.014500053774099842
2880,00:00:11.52,-0.0142137680231826
2881,00:00:11.524,-0.003204090055078269
2882,00:00:11.528,-0.019400832010433036
2883,00:00:11.532,0.00502438144758344
2884,00:00:11.536,0.0329340856987983
2885,00:00:11.54,-0.00221704784780743
2886,00:00:11.544,-0.01304576732218267
2887,00:00:11.548,0.002467775775585322
2888,00:00:11.552,0.002253197832033031
2889,00:00:11.556,-0.016072604572400447
2890,00:00:11.56,-0.00851482874713839
2891,00:00:11.564,0.0011439144145697008
2892,00:00:11.568,0.0342140478314832
2893,00:00:11.572,-0.0029938092920929146
2894,00:00:11.576,0.005521131854038687
2895,00:00:11.58,-0.01675439579412337
2896,00:00:11.584,-0.016047908458858777
2897,00:00:11.588,-0.009754950413480401
2898,00:00:11.592,0.01234472298528996
2899,00:00:11.596,0.018372642283793535
2900,00:00:11.6,0.00107551016844808
2901,00:00:11.604,6.59438665024933e-05
2902,00:00:11.608,-0.011929431464523039
2903,00:00:11.612,0.013304377906024411
2904,00:00:11.616,-0.008987788460217415
2905,00:00:11.62,-0.012817284790799039
2906,00:00:11.624,0.0064310333691536894
2907,00:00:11.628,0.003086292650550597
2908,00:00:11.632,0.0022383642572094704
2909,00:00:11.636,0.0014688897645100908
2910,00:00:11.64,-0.003697283798828729
2911,00:00:11.644,-0.0006307780276983981
2912,00:00:11.648,0.010523651573748795
2913,00:00:11.652,0.0030257866019383108
2914,00:00:11.656,-0.0007363108452409554
2915,00:00:11.66,-0.02367327921092512
2916,00:00:11.664,-0.0025629857555031707
2917,00:00:11.668,0.018694524129386957
2918,00:00:11.672,-0.0023968615569174307
2919,00:00:11.676,0.005362282245187095
2920,00:00:11.68,0.0013025000225752596
2921,00:00:11.684,-0.0032421302457805775
2922,00:00:11.688,-0.01698348519857973
2923,00:00:11.692,0.0005563615995924948
2924,00:00:11.696,0.008953502401709522
2925,00:00:11.7,0.021060220664367094
2926,00:00:11.704,-0.0018157667363993824
2927,00:00:11.708,-0.016893484396860003
2928,00:00:11.712,0.0006453192909248173
2929,00:00:11.716,-0.00497038452886045
2930,00:00:11.72,-0.001515309850219631
2931,00:00:11.724,0.0025525613455101804
2932,00:00:11.728,0.0019697449170053
2933,00:00:11.732,0.00502974982373416
2934,00:00:11.736,0.0005687107332050705
2935,00:00:11.74,-0.004817915149033061
2936,00:00:11.744,0.0176690261578187
2937,00:00:11.748,-0.01327246741857379
2938,00:00:11.752,-0.0033768152352422476
2939,00:00:11.756,0.0008506709709763492
2940,00:00:11.76,-0.015128600847674513
2941,00:00:11.764,0.00806506723165512
2942,00:00:11.768,0.01643342782335821
2943,00:00:11.772,-0.009747455827891856
2944,00:00:11.776,0.0016604643315077106
2945,00:00:11.78,0.00201347004622221
2946,00:00:11.784,-0.00872460287064314
2947,00:00:11.788,0.010063872148748477
2948,00:00:11.792,-0.0034751964412862444
2949,00:00:11.796,0.00046679473598487914
2950,00:00:11.8,0.0018495260737836309
2951,00:00:11.804,-0.00941864761989563
2952,00:00:11.808,0.009260014689061749
2953,00:00:11.812,-0.0017388461856171502
2954,00:00:11.816,-0.011623640952166201
2955,00:00:11.82,0.00240889342967421
2956,00:00:11.824,0.0009291348396800458
2957,00:00:11.828,0.01766165927983821
2958,00:00:11.832,0.006745512771885844
2959,00:00:11.836,-0.005847050051670527
2960,00:00:11.84,-0.01693135756067929
2961,00:00:11.844,-0.006430377019569269
2962,00:00:11.848,0.01047298172488804
2963,00:00:11.852,0.00836367253214121
2964,00:00:11.856,-0.017413415480405134
2965,00:00:11.86,-0.006744150625308966
2966,00:00:11.864,0.004740058968309309
2967,00:00:11.868,0.01570762693881992
2968,00:00:11.872,0.026688709840527736
2969,00:00:11.876,-0.007028215477475901
2970,00:00:11.88,-0.02490020589902992
2971,00:00:11.884,-0.004716609138995409
2972,00:00:11.888,-0.00810243771411479
2973,00:00:11.892,-0.005709649762138731
2974,00:00:11.896,0.01319465017877519
2975,00:00:11.9,0.013143201969796797
2976,00:00:11.904,0.01167490868829189
2977,00:00:11.908,-0.00789828528650105
2978,00:00:11.912,-0.014604740776121592
2979,00:00:11.916,-0.0017377809854224311
2980,00:00:11.92,0.005242947721853851
2981,00:00:11.924,0.0035529660017346023
2982,00:00:11.928,-0.005966615630313719
2983,00:00:11.932,0.004247356053383557
2984,00:00:11.936,-0.0010544997639954003
2985,00:00:11.94,0.018093350518029176
2986,00:00:11.944,-0.019159917486831542
2987,00:00:11.948,-0.022061034571379458
2988,00:00:11.952,0.00854612956754863
2989,00:00:11.956,0.03453617775812741
2990,00:00:11.96,-0.003326230378661415
2991,00:00:11.964,-0.006859547225758436
2992,00:00:11.968,-0.01939177120220846
2993,00:00:11.972,-0.003101815935224291
2994,00:00:11.976,0.0057505393124301935
2995,00:00:11.98,0.007374189095571629
2996,00:00:11.984,0.00671630725264549
2997,00:00:11.988,0.005083877244032919
2998,00:00:11.992,-0.021852945443242778
2999,00:00:11.996,0.00827903090976179
3000,00:00:12,0.014633432263508439
3001,00:00:12.004,-0.00304122036322952
3002,00:00:12.008,-0.02382581081474201
3003,00:00:12.012,0.00036867673043162064
3004,00:00:12.016,0.009194022451993071
3005,00:00:12.02,-0.00216361181810499
3006,00:00:12.024,0.01942455559037624
3007,00:00:12.028,0.003176357189659033
3008,00:00:12.032,-0.00933942757546897
3009,00:00:12.036,-0.001194430398754785
3010,00:00:12.04,-0.014378891035448739
3011,00:00:12.044,-0.005918652197578929
3012,00:00:12.048,0.006351231422740971
3013,00:00:12.052,0.00866582384333015
3014,00:00:12.056,0.01161897566635162
3015,00:00:12.06,-0.013396649155765739
3016,00:00:12.064,0.002770019695162792
3017,00:00:12.068,0.007161182118579742
3018,00:00:12.072,0.003782417858019471
3019,00:00:12.076,-0.0201920435065404
3020,00:00:12.08,-0.01402832753956318
3021,00:00:12.084,0.01669772667810321
3022,00:00:12.088,0.00845532049424946
3023,00:00:12.092,0.003158138250000774
3024,00:00:12.096,0.00580845726653936
3025,00:00:12.1,0.002195293200202283
3026,00:00:12.104,-0.02767703472636638
3027,00:00:12.108,0.0035897619090974296
3028,00:00:12.112,0.01361408457159996
3029,00:00:12.116,-0.0006692484021186785
3030,00:00:12.12,-0.0033855674555525192
3031,00:00:12.124,0.002401356119662528
3032,00:00:12.128,-0.009843963634921276
3033,00:00:12.132,0.02059495367575439
3034,00:00:12.136,-0.02246517594903702
3035,00:00:12.14,0.0035183085419703414
3036,00:00:12.144,0.0016443241620436293
3037,00:00:12.148,0.01811424363404517
3038,00:00:12.152,-0.0038036500627640626
3039,00:00:12.156,-0.019572842400521012
3040,00:00:12.16,0.005778738210210572
3041,00:00:12.164,0.011387997830752252
3042,00:00:12.168,-0.010432908311486251
3043,00:00:12.172,4.217145033180974e-05
3044,00:00:12.176,-0.003685656003653991
3045,00:00:12.18,0.011770863668061822
3046,00:00:12.184,-0.0009061016608029595
3047,00:00:12.188,-0.007742802612483531
3048,00:00:12.192,0.00588275282643735
3049,00:00:12.196,0.0012182388454675596
3050,00:00:12.2,-0.003899398579960689
3051,00:00:12.204,-0.0025329849013360183
3052,00:00:12.208,-0.0019797028508037303
3053,00:00:12.212,0.007777438295306591
3054,00:00:12.216,0.005654340842738751
3055,00:00:12.22,-0.010184844548348334
3056,00:00:12.224,-2.124198363162577e-05
3057,00:00:12.228,-0.00902186640814762
3058,00:00:12.232,0.008133439114317298
3059,00:00:12.236,0.001388888107612729
3060,00:00:12.24,0.00986958749126643
3061,00:00:12.244,0.0086044739000499
3062,00:00:12.248,-0.012991278897970911
3063,00:00:12.252,-0.010010038502514338
3064,00:00:12.256,-0.020205431617796428
3065,00:00:12.26,0.0176442014053464
3066,00:00:12.264,0.013264536624774339
3067,00:00:12.268,0.0009405626915395197
3068,00:00:12.272,0.01887176447780805
3069,00:00:12.276,-0.01936936192214494
3070,00:00:12.28,-0.015246982220560331
3071,00:00:12.284,-0.0037490384420379927
3072,00:00:12.288,0.008989092457341032
3073,00:00:12.292,-0.0027431616326794
3074,00:00:12.296,0.014263315824791789
3075,00:00:12.3,0.00235650315880775
3076,00:00:12.304,-0.01646985253319141
3077,00:00:12.308,0.01080851326696575
3078,00:00:12.312,0.002620944636873941
3079,00:00:12.316,-0.002825855670380407
3080,00:00:12.32,1.0088551789518702e-05
3081,00:00:12.324,-0.019056613440625342
3082,00:00:12.328,0.010284253396093828
3083,00:00:12.332,0.017104599974118197
3084,00:00:12.336,-0.011271080933511292
3085,00:00:12.34,0.005784285720437769
3086,00:00:12.344,-0.01348533527925614
3087,00:00:12.348,0.0046222788514569384
3088,00:00:12.352,0.0029513537883758207
3089,00:00:12.356,-0.01793241593986751
3090,00:00:12.36,0.01719426200725141
3091,00:00:12.364,0.01805440406315032
3092,00:00:12.368,-0.009105274395551534
3093,00:00:12.372,-0.007027789833955468
3094,00:00:12.376,-0.002369628346059468
3095,00:00:12.38,-0.011790901622589478
3096,00:00:12.384,0.0008214490080717932
3097,00:00:12.388,0.0141671793535352
3098,00:00:12.392,0.012366067487164362
3099,00:00:12.396,-0.008945848967414332
