Elapsed Time,EMG1,EMG2,EMG3,BioRadio Event,
00:00:00,0.554233253002167,0.344579488039017,5.18529844284058,0,
00:00:00.004,-0.525335311889648,-0.327903509140015,-4.93643140792847,0,
00:00:00.008,-0.440400779247284,-0.266351789236069,-4.09777212142944,0,
00:00:00.012,-0.0468355268239975,-0.0332385711371899,-0.448802649974823,0,
00:00:00.016,0.22078213095665,0.13091678917408,2.12206792831421,0,
00:00:00.02,0.275554031133652,0.166237682104111,2.55908155441284,0,
00:00:00.024,0.16670173406601,0.110541738569736,1.56356763839722,0,
00:00:00.028,0.0336334519088268,0.0291461683809757,0.200710713863373,0,
00:00:00.032,-0.0848150029778481,-0.0518173351883888,-0.747805058956146,0,
00:00:00.036,-0.114546149969101,-0.0765393599867821,-1.00882267951965,0,
00:00:00.04,-0.0782115012407303,-0.0530975051224232,-0.754624605178833,0,
00:00:00.044,-0.0283332392573357,-0.0142532903701067,-0.288897484540939,0,
00:00:00.048,0.00755416275933385,0.00307906069792807,0.115511998534203,0,
00:00:00.052,0.0298484936356544,0.0218495819717646,0.304868102073669,0,
00:00:00.056,0.0353582426905632,0.0120915994048119,0.270536065101624,0,
00:00:00.06,0.0146400621160865,0.013721545226872,0.127313777804375,0,
00:00:00.064,0.003832480404526,0.0142244277521968,0.0294411368668079,0,
00:00:00.068,-0.0119844283908606,-0.00615735678002238,-0.0732211321592331,0,
00:00:00.072,-0.0123537993058562,-0.0172123126685619,-0.109082356095314,0,
00:00:00.076,-8.60600121086463E-05,-0.0104426238685846,-0.0615571662783623,0,
00:00:00.08,-0.00391123350709677,0.00361992744728923,-0.0195675250142813,0,
00:00:00.084,-0.00141077698208392,0.00361241959035397,0.0204180795699358,0,
00:00:00.088,-0.000354094314388931,0.00313145411200821,0.0357596091926098,0,
00:00:00.092,0.00297561078332365,0.00189284037332982,0.0263637769967318,0,
00:00:00.096,0.0103101385757327,-0.00161613535601646,0.0149976005777717,0,
00:00:00.1,-0.00105872692074627,0.00140513898804784,-0.0112263550981879,0,
00:00:00.104,-0.00425243237987161,0.000696196977514774,-0.0180929135531187,0,
00:00:00.108,-0.0032370388507843,0.00147590192500502,-0.00812177080661058,0,
00:00:00.112,0.00109107850585133,0.00305323535576463,-0.00237528956495225,0,
00:00:00.116,-0.0032940877135843,-0.00855904072523117,0.00571782467886806,0,
00:00:00.12,-0.000351051654433832,-0.0179410129785538,0.00588748697191477,0,
00:00:00.124,0.00870365090668201,0.0144207421690226,-0.00133592961356044,0,
00:00:00.128,-0.000852262659464031,0.018119852989912,0.014040214009583,0,
00:00:00.132,-0.00101070024538785,-0.00027822854463011,-0.0105930808931589,0,
00:00:00.136,-0.00817477609962225,-0.0119938375428319,-0.0120143946260214,0,
00:00:00.14,-9.0385801740922E-05,-0.00762535491958261,0.00398572161793709,0,
00:00:00.144,0.00796511583030224,-0.00236073229461908,0.00147297699004412,0,
00:00:00.148,0.00191587198060006,0.0123154167085886,0.00842855498194695,0,
00:00:00.152,-0.00143671524710953,0.00442997505888343,-0.00150504638440907,0,
00:00:00.156,-0.00230323849245906,-0.00614791922271252,-0.00344838784076273,0,
00:00:00.16,-0.00162161770276725,-0.00665393425151706,-0.00826971232891083,0,
00:00:00.164,-0.00253184884786606,0.00576509116217494,0.00995764881372452,0,
00:00:00.168,0.00449060741811991,0.00414012558758259,-8.42156223370694E-05,0,
00:00:00.172,0.000441454641986638,-0.000306852714857087,0.00453209038823843,0,
00:00:00.176,-0.000830827513709664,-0.00909408740699291,-0.00866629742085934,0,
00:00:00.18,0.00133209896739572,0.00102336262352765,-0.000491123704705387,0,
00:00:00.184,-0.00221438333392143,0.00560566317290068,0.00605794647708535,0,
00:00:00.188,-0.00354601675644517,0.000446846068371087,0.0017844052053988,0,
00:00:00.192,0.00211802800185978,0.000892242707777768,-0.00882114376872778,0,
00:00:00.196,0.00273418775759637,-0.00719867134466767,-0.00617212802171707,0,
00:00:00.2,0.00129256851505488,-0.000171329855220392,0.00627795606851578,0,
00:00:00.204,-0.000263924972387031,0.00524362456053495,0.00671158405020833,0,
00:00:00.208,0.00101495767012239,0.00945810787379742,0.00474491994827986,0,
00:00:00.212,-0.00508667482063174,-0.00192450080066919,-0.00522007560357451,0,
00:00:00.216,-0.000210886326385662,-0.0151607841253281,-0.00462827598676085,0,
00:00:00.22,0.00768970465287566,-0.00211881916038692,0.00296255247667432,0,
00:00:00.224,-0.00665572844445705,0.00214946130290627,0.00158043985720724,0,
00:00:00.228,-0.00445795897394419,0.00499949138611555,-0.0051529873162508,0,
00:00:00.232,0.000868147646542639,0.00869640056043863,0.00191596942022443,0,
00:00:00.236,0.00792018044739962,0.000187604106031358,-0.00234439084306359,0,
00:00:00.24,0.00163416203577071,-0.00785230007022619,-0.00634372141212225,0,
00:00:00.244,-0.00374622573144734,0.00217061652801931,0.0163346789777279,0,
00:00:00.248,0.00577812176197767,0.0054554957896471,0.0139960907399654,0,
00:00:00.252,-0.0121653797104955,-0.00729457847774029,-0.020600788295269,0,
00:00:00.256,0.000731868203729391,-0.00980297941714525,-0.0190718397498131,0,
00:00:00.26,0.00816171895712614,0.00148900621570647,0.00767571432515979,0,
00:00:00.264,-0.00321218743920326,0.0105275474488735,0.0142052238807082,0,
00:00:00.268,0.00132042192853987,0.00796089787036181,0.00690260250121355,0,
00:00:00.272,-0.00377143011428416,-0.00270228297449648,-0.00558232190087438,0,
00:00:00.276,0.000785061740316451,-0.010080729611218,-0.00158924330025911,0,
00:00:00.28,-0.000368482928024605,-0.0108296405524015,-0.00604987842962146,0,
00:00:00.284,0.00505339400842786,0.0119025120511651,0.00186397309880704,0,
00:00:00.288,0.00383778219111264,0.011885835789144,0.00407342938706279,0,
00:00:00.292,-0.0122165689244866,-0.00472109625115991,-0.0058407811447978,0,
00:00:00.296,0.000970688532106578,-0.00421653687953949,-0.00268105184659362,0,
00:00:00.3,0.00399247603490949,-0.0046639428474009,-0.0021715210750699,0,
00:00:00.304,0.00255361339077353,0.00333215040154755,0.0202926974743605,0,
00:00:00.308,0.00232149544171989,0.0023591339122504,-0.00973198655992746,0,
00:00:00.312,-0.00110337662044913,0.00182865175884217,-0.00260973675176501,0,
00:00:00.316,-0.00506353145465255,-0.0077567589469254,-0.00239447108469903,0,
00:00:00.32,-0.00478398008272052,-0.00539511069655418,0.00206958083435893,0,
00:00:00.324,0.000433216715464368,0.00435512838885188,0.00996475387364626,0,
00:00:00.328,0.0079576289281249,0.0146234445273876,-0.00983920972794294,0,
00:00:00.332,0.00204716785810888,-0.00202435674145818,-0.00751198269426823,0,
00:00:00.336,0.000884984154254198,-0.00620407611131668,0.00195538764819503,0,
00:00:00.34,-0.00824300572276115,-0.00641460483893752,0.00467855110764503,0,
00:00:00.344,0.000721056014299393,0.00100471079349518,0.00140007399022579,0,
00:00:00.348,0.00670283334329724,0.00513306399807334,0.00922485254704952,0,
00:00:00.352,-0.00246729352511466,0.000310433650156483,-0.00726443435996771,0,
00:00:00.356,-0.00744642736390233,-0.0071873078122735,-0.00855765584856272,0,
00:00:00.36,0.00689529767259955,0.00727183651179075,0.00288360426202416,0,
00:00:00.364,0.000116514558612835,0.00486646499484777,0.0106178494170308,0,
00:00:00.368,-0.00343202170915902,-0.000786117510870099,-0.00175537704490125,0,
00:00:00.372,-0.00086902326438576,-0.006012839730829,-0.0114652654156089,0,
00:00:00.376,0.00787569396197796,-0.00594287412241101,0.000130432061268948,0,
00:00:00.38,-0.00364962639287114,-0.000279121479252353,0.00200585532002151,0,
00:00:00.384,-0.0014514458598569,0.00577258039265871,0.00758350314572454,0,
00:00:00.388,0.00172226782888174,0.00848043989390135,-0.00107899634167552,0,
00:00:00.392,-0.00184311380144209,-0.000999520183540881,-0.00424621254205704,0,
00:00:00.396,-0.00345099763944745,-0.0110373320057988,0.00726198358461261,0,
00:00:00.4,-5.99070081079844E-05,-0.00451371679082513,-0.00405618594959378,0,
00:00:00.404,0.0107917096465826,0.00918375235050917,0.00212112697772682,0,
00:00:00.408,-0.00307505507953465,0.00616613775491714,-0.000625277229119092,0,
00:00:00.412,-0.00708536989986897,-0.00221056630834937,-0.00516590196639299,0,
00:00:00.416,-0.00247406866401434,-0.00602893345057964,-0.0134637458249927,0,
00:00:00.42,0.0041547566652298,0.00156440248247236,0.00607622135430574,0,
00:00:00.424,0.00170099618844688,-0.00276353885419667,0.0187537055462599,0,
00:00:00.428,0.0114355767145753,0.00986527651548386,-0.00131244398653507,0,
00:00:00.432,-0.00934413727372885,-0.0079724844545126,-0.00371637800708413,0,
00:00:00.436,-0.00828184001147747,-0.00780790951102972,-0.00170073972549289,0,
00:00:00.44,0.000665962812490761,0.00262125791050494,-0.00428698537871242,0,
00:00:00.444,0.00157311849761754,0.00806125067174435,-0.00423250067979097,0,
00:00:00.448,0.00712510664016008,0.0087012117728591,0.000460303388535976,0,
00:00:00.452,0.000854640325997025,-0.00639912905171514,0.00768366828560829,0,
00:00:00.456,0.000149797720951028,-0.00448941625654697,0.00176534347701818,0,
00:00:00.46,-0.00420252000913024,3.32719682774041E-05,-0.00131493189837784,0,
00:00:00.464,-0.00500229140743613,-0.00611913949251175,-0.00414504762738943,0,
00:00:00.468,-0.000426078768214211,0.00341626768931746,-0.00362360780127347,0,
00:00:00.472,0.00710820592939854,0.00850631296634674,0.00932929292321205,0,
00:00:00.476,0.0016056572785601,-0.00403888477012515,0.0102592064067721,0,
00:00:00.48,-0.00325010786764324,-0.00593078089877963,-0.0150633240118623,0,
00:00:00.484,0.00223040976561606,0.00564756197854877,-0.0149889886379242,0,
00:00:00.488,0.000496180029585958,0.0057566836476326,0.0079903332516551,0,
00:00:00.492,-0.00584601331502199,-0.00479405466467142,0.00592741649597883,0,
00:00:00.496,-0.00656410399824381,-0.00899550784379244,0.00428701331838965,0,
00:00:00.5,0.00987043604254723,0.0024669726844877,0.00401440262794495,0,
00:00:00.504,0.0131382727995515,0.00465734861791134,0.00183721852954477,0,
00:00:00.508,-0.00808774586766958,0.00689241383224726,-0.00520807644352317,0,
00:00:00.512,-0.0114195924252272,-0.00172355910763144,-0.00939966831356287,0,
00:00:00.516,-0.00366733712144196,-0.0108298566192389,0.0016257205279544,0,
00:00:00.52,0.00753783481195569,-0.00385088031180203,0.0100980196148157,0,
00:00:00.524,0.00602164631709456,0.0139535320922732,-0.00143304874654859,0,
00:00:00.528,-0.00291409785859287,0.00044294900726527,-0.00656937574967742,0,
00:00:00.532,-0.000300084560876712,-0.00354550266638398,-0.00728184916079044,0,
00:00:00.536,0.00016832206165418,-0.00288085802458227,0.000959630066063255,0,
00:00:00.54,-9.97799506876618E-05,-0.00293768919073045,0.0166532099246979,0,
00:00:00.544,-0.000365469692042097,0.000607464404311031,0.00675457017496228,0,
00:00:00.548,-0.000393635767977685,0.00694347685202956,-0.0109743252396584,0,
00:00:00.552,-0.000233441271120682,0.00288183218799531,-0.0137133318930864,0,
00:00:00.556,-0.00210178643465042,-0.00602312479168177,-0.00271004508249462,0,
00:00:00.56,0.00209212908521295,-0.00398947345092893,0.0102295782417059,0,
00:00:00.564,0.00179838750045747,0.00426182709634304,0.0104334475472569,0,
00:00:00.568,0.00236833258531988,0.000606544781476259,-0.00401087664067745,0,
00:00:00.572,-0.00485035357996821,0.00144357664976269,-0.00454068230465055,0,
00:00:00.576,-0.000711084459908307,-0.00467904936522245,0.0132056940346956,0,
00:00:00.58,0.000789876037742943,-0.00402679666876793,-0.0106143122538924,0,
00:00:00.584,0.000896448618732393,0.00972209870815277,-0.00964920129626989,0,
00:00:00.588,-0.00161196466069669,0.00687378970906138,0.00241137761622667,0,
00:00:00.592,0.0040617804042995,-0.0105119338259101,0.00643987767398357,0,
00:00:00.596,-0.000568249903153628,-0.0073734107427299,-0.00362938945181668,0,
00:00:00.6,0.0024304399266839,-0.00202371156774461,0.000468313926830888,0,
00:00:00.604,-0.00719078024849296,0.0086078979074955,0.0019862363114953,0,
00:00:00.608,-0.00150336814112961,0.0128230266273022,-0.000481724855490029,0,
00:00:00.612,-0.000313793862005696,-0.00680601689964533,0.0045024836435914,0,
00:00:00.616,0.00448283180594444,-0.00772345205768943,-0.00292791752144694,0,
00:00:00.62,0.00537958322092891,-0.00268881977535784,0.00375340785831213,0,
00:00:00.624,-0.00143602455500513,0.00585489347577095,-0.00616616383194923,0,
00:00:00.628,-0.00307337753474712,0.00557110784575343,-0.00582128297537565,0,
00:00:00.632,-0.00418330309912562,-0.00461000064387918,0.00483061280101538,0,
00:00:00.636,0.00148679537232965,-0.0106171611696482,0.00491875410079956,0,
00:00:00.64,0.0043830955401063,0.00486103491857648,0.0036630982067436,0,
00:00:00.644,0.00129569310229272,0.00856496021151543,-0.00116116378922015,0,
00:00:00.648,-0.00578022329136729,0.00296697253361344,-0.00591263268142939,0,
00:00:00.652,0.00146183778997511,-0.000344185682479292,-0.00567856291308999,0,
00:00:00.656,-0.000453472981462255,-0.0104869930073619,0.00409430218860507,0,
00:00:00.66,-0.00623880000784993,-0.0113508310168982,-0.00223417347297072,0,
00:00:00.664,0.0107184173539281,0.0140858320519328,0.00705172773450613,0,
00:00:00.668,-0.000313704425934702,0.0104623259976506,0.00382887641899288,0,
00:00:00.672,-0.000296033162157983,-0.00163361744489521,0.00087115220958367,0,
00:00:00.676,0.00295209256000817,-0.0142512135207653,-0.0119104348123074,0,
00:00:00.68,-0.00751926237717271,-0.00324579072184861,-0.00317666144110262,0,
00:00:00.684,-0.00649940175935626,0.00864000618457794,0.0010763865429908,0,
00:00:00.688,0.00703590549528599,0.0148163735866547,0.0152279203757644,0,
00:00:00.692,0.00973181426525116,-0.00283252145163715,-0.00491933012381196,0,
00:00:00.696,-0.00957396067678928,-0.0196756739169359,0.00257703522220254,0,
00:00:00.7,-0.00211323169060051,-0.00387365440838039,-0.00710014626383781,0,
00:00:00.704,0.00338628049939871,0.00960583426058292,-0.00438675610348582,0,
00:00:00.708,-0.00209554261527956,0.00556159717962146,0.00260373554192483,0,
00:00:00.712,0.00360838626511395,0.00363936414942145,0.0116697195917368,0,
00:00:00.716,-0.000351685099303722,-0.00514124007895589,-0.0103738885372877,0,
00:00:00.72,-0.00114868907257915,-0.00376860680989921,-0.00691554835066199,0,
00:00:00.724,-0.00275751203298569,-0.000286863127257675,0.0116529203951359,0,
00:00:00.728,0.00194417813327163,0.0101545313373208,-3.20194485539105E-05,0,
00:00:00.732,0.00198138086125255,-0.00585223501548171,-0.00896649342030287,0,
00:00:00.736,0.000547343632206321,-0.00550900073722005,0.00625086855143309,0,
00:00:00.74,-0.000643789186142385,-0.000826080737169832,0.00492551038041711,0,
00:00:00.744,0.00104325683787465,0.00461386097595096,0.00194400327745825,0,
00:00:00.748,-0.00481304246932268,0.00535685755312443,-0.00939690507948399,0,
00:00:00.752,9.84111611614935E-05,0.00255428720265627,-0.00734353298321366,0,
00:00:00.756,-0.000411661545513198,-0.00921826623380184,0.00521288020536304,0,
00:00:00.76,0.00129954819567502,-0.00547277741134167,0.00621585035696626,0,
00:00:00.764,0.0124340867623687,0.00706084351986647,0.0048503652215004,0,
00:00:00.768,-0.00839532725512981,-0.00168803113047034,-0.0047701527364552,0,
00:00:00.772,-0.00789014436304569,0.0033030123449862,-0.00414849631488323,0,
00:00:00.776,0.000554943107999861,-0.00463758874684572,0.00534023251384497,0,
00:00:00.78,0.00123518926557153,0.000848405587021261,-0.000321970524964854,0,
00:00:00.784,0.00681890686973929,0.00685866503044963,-0.00688556022942066,0,
00:00:00.788,0.000711370492354035,0.00219575595110655,-0.0025593179743737,0,
00:00:00.792,-0.0019052914576605,-0.00478412862867117,0.00440832460299134,0,
00:00:00.796,-4.02462937927339E-05,-0.0065133417956531,0.00217122468166053,0,
00:00:00.8,-0.00314195547252893,0.00251167616806924,0.00768719939514995,0,
00:00:00.804,-0.00171895127277821,-0.0014218072174117,0.00307907303795218,0,
00:00:00.808,-0.00166644260752946,0.00460152560845017,-0.0129599943757057,0,
00:00:00.812,0.0035266550257802,0.00241264444775879,-0.00988307874649763,0,
00:00:00.816,0.0031346317846328,-0.00497619388625026,0.0008704595384188,0,
00:00:00.82,0.00299964263103902,-0.00254602287895978,0.0115154646337032,0,
00:00:00.824,-0.00495315296575427,0.00315586035139859,0.00973134580999613,0,
00:00:00.828,-0.00122776383068413,0.00486662518233061,0.00278289569541812,0,
00:00:00.832,0.000238851178437471,0.000743730925023556,-0.0116301672533154,0,
00:00:00.836,0.000555779144633561,-0.00671107275411487,-0.00209304434247315,0,
00:00:00.84,-0.00168565439525992,-0.00342132523655891,-0.00895622652024031,0,
00:00:00.844,0.00417516753077507,0.00321743753738701,0.000952045898884535,0,
00:00:00.848,-0.000394261645851657,0.00754298362880945,0.00796050485223532,0,
00:00:00.852,-0.00366213661618531,-0.00679854303598404,0.0140480371192098,0,
00:00:00.856,0.00501654949039221,0.00213445234112442,-0.0109464740380645,0,
00:00:00.86,-0.00251954863779247,-0.000461660150904208,-0.0069046663120389,0,
00:00:00.864,-0.0026834667660296,-0.000810684345196933,0.00143061811104417,0,
00:00:00.868,-0.00267628883011639,-0.000320784747600555,0.0031567916739732,0,
00:00:00.872,0.000979855307377875,0.00434528570622206,0.00194619654212147,0,
00:00:00.876,0.00724418554455042,-0.00353652192279696,-0.00187475048005581,0,
00:00:00.88,0.00299047608859837,-0.0112399635836482,0.00523580890148878,0,
00:00:00.884,-0.00609746854752302,0.00768959801644087,-0.00339703261852264,0,
00:00:00.888,-0.00207982724532485,0.0144316125661135,-0.00379439955577254,0,
00:00:00.892,5.27513475390151E-05,-0.00330875464715064,-0.00132380821742117,0,
00:00:00.896,0.000849740346893668,-0.00925459899008274,-0.0052979807369411,0,
00:00:00.9,0.00081902596866712,-0.00258375843986869,0.0056704874150455,0,
00:00:00.904,0.00250357715412974,0.00311160436831415,0.0146096525713801,0,
00:00:00.908,-0.00194957084022462,-0.00190028571523726,0.00305680558085442,0,
00:00:00.912,-0.00184825982432812,0.00410403171554208,-0.0196634083986282,0,
00:00:00.916,-0.00249578547663987,-0.00400054780766368,6.43358071101829E-05,0,
00:00:00.92,-0.00148757104761899,0.00310775288380682,-0.00262429262511432,0,
00:00:00.924,0.0148905981332064,0.00889232754707336,0.00155153870582581,0,
00:00:00.928,-0.00168028834741563,-0.0077856658026576,0.00649961968883872,0,
00:00:00.932,-0.0109446747228503,-0.00445809680968523,0.00631858361884952,0,
00:00:00.936,-0.00332584092393517,-0.00277439295314252,-0.00369573687203228,0,
00:00:00.94,-0.000309320021187887,0.00149238202720881,-0.00187187141273171,0,
00:00:00.944,0.00337692676112056,0.00362807372584939,0.00290890200994909,0,
00:00:00.948,0.0104774730280042,0.00932666938751936,-0.00677224202081561,0,
00:00:00.952,-0.00324366730637848,-0.00472641689702868,0.000550028984434903,0,
00:00:00.956,-0.00457657827064395,-0.0055350442416966,-0.0067113540135324,0,
00:00:00.96,0.00227703829295933,0.00211112247779965,0.00861846096813679,0,
00:00:00.964,0.000872574630193412,0.00336515856906772,0.00227610697038472,0,
00:00:00.968,-0.00556020904332399,-0.00485508376732469,0.00214736768975854,0,
00:00:00.972,-0.0023091877810657,-0.00338344578631222,0.00368218077346683,0,
00:00:00.976,0.00796926114708185,-0.00186090846545994,-0.0144484182819724,0,
00:00:00.98,-0.000494447420351207,0.000253547943430021,0.000290869909804314,0,
00:00:00.984,-0.000158884256961755,0.0102418586611748,0.0215019080787897,0,
00:00:00.988,-0.00740570714697242,0.00289563718251884,-0.011872592382133,0,
00:00:00.992,0.00444434396922588,0.00411777105182409,-0.0140485623851418,0,
00:00:00.996,0.00192648964002728,-0.00967586785554886,0.00157229928299785,0,
00:00:01,-0.00170979741960764,-0.00988080631941557,0.00451947329565883,0,
00:00:01.004,-0.00259790034033358,-0.00788142904639244,0.00938774272799492,0,
00:00:01.008,0.0132801430299878,0.0188503917306662,0.00153137790039182,0,
00:00:01.012,-0.00696778018027544,0.00515633821487427,-0.000445267796749249,0,
00:00:01.016,-0.00732701970264316,-0.00411243876442313,-0.00528545631095767,0,
00:00:01.02,0.000254417187534273,-5.78562612645328E-05,-0.00589302787557244,0,
00:00:01.024,0.0047395583242178,-0.00344666838645935,-0.00288661941885948,0,
00:00:01.028,-0.00387864536605775,-0.00462296698242426,0.0112427389249206,0,
00:00:01.032,0.00524744391441345,0.00152618170250207,0.00367335649207234,0,
00:00:01.036,0.000809591030701995,0.00272420514374971,-0.00636171968653798,0,
00:00:01.04,-0.00128632155247033,0.00168179394677281,-0.00231684930622578,0,
00:00:01.044,0.000490565376821905,0.00230625737458467,-0.00201406888663769,0,
00:00:01.048,-0.00291087036021054,0.00148140068631619,0.0050590573810041,0,
00:00:01.052,-0.00175186607521027,-0.00648330058902502,-0.00143310893326998,0,
00:00:01.056,-0.0018256523180753,-0.0102741755545139,-0.00314517668448389,0,
00:00:01.06,0.00337206525728107,0.00628115795552731,0.00249631819315255,0,
00:00:01.064,0.0030550176743418,0.0119907977059484,0.0153460260480642,0,
00:00:01.068,0.00300104473717511,-0.00249497732147574,-0.00449607847258449,0,
00:00:01.072,-0.00282786064781249,-0.00224562012590468,-0.020576000213623,0,
00:00:01.076,-0.00107040512375534,0.000247150426730514,-0.00350631517358124,0,
00:00:01.08,-0.00541734835132957,-0.00926781445741653,0.0127208987250924,0,
00:00:01.084,-0.00135432416573167,0.00611727358773351,0.00455318763852119,0,
00:00:01.088,0.000510911282617599,0.00517964735627174,-0.00790912285447121,0,
00:00:01.092,0.0139735843986273,0.000362322549335659,0.00866163056343794,0,
00:00:01.096,0.000350975751644,-0.00486660934984684,0.00306015135720372,0,
00:00:01.1,-0.00783307757228613,-0.00738882226869464,0.00013378907169681,0,
00:00:01.104,-0.00790122337639332,0.00380836077965796,-0.00377074466086924,0,
00:00:01.108,0.00082814902998507,0.00717521458864212,-0.00671657035127282,0,
00:00:01.112,0.00592204742133617,0.0025430170353502,-0.00503578688949347,0,
00:00:01.116,0.00337887066416442,-0.00197754474356771,0.00739032356068492,0,
00:00:01.12,-0.00852480530738831,-0.0140006989240646,-0.00110343599226326,0,
00:00:01.124,0.00574863189831376,0.00506909331306815,-0.00232118484564126,0,
00:00:01.128,0.00443091802299023,0.0114540373906493,0.0120263108983636,0,
00:00:01.132,-0.00239921896718442,0.00343190599232912,-0.00406347448006272,0,
00:00:01.136,-0.00537905795499682,-0.0103318803012371,-0.00723501667380333,0,
00:00:01.14,0.00233769579790533,-0.00881111156195402,0.00237940018996596,0,
00:00:01.144,-0.000219794834265485,0.00423323642462492,0.000981563935056329,0,
00:00:01.148,-0.00242128106765449,0.00806040875613689,0.00288129947148263,0,
00:00:01.152,5.82797438255511E-05,-0.00097103085136041,0.00898444000631571,0,
00:00:01.156,0.00825061555951834,9.25862477743067E-05,-0.0092819407582283,0,
00:00:01.16,0.00247293687425554,0.00150009535718709,-0.0168290641158819,0,
00:00:01.164,-0.0097658783197403,0.00108109007123858,0.00795516837388277,0,
00:00:01.168,-0.00980793964117765,-0.00865116529166698,0.0139358593150973,0,
00:00:01.172,0.0070477188564837,-0.004020138643682,-0.000126831553643569,0,
00:00:01.176,0.0120791038498282,0.00419555604457855,-0.00918304361402988,0,
00:00:01.18,-0.000853098230436444,0.00285967392846942,-0.00249313237145543,0,
00:00:01.184,-0.00473399041220546,0.00442722020670772,0.00156883744057268,0,
00:00:01.188,-0.00167851219885051,0.00761393550783396,-0.00143884553108364,0,
00:00:01.192,-0.00320468307472765,-0.00747883366420865,0.00172483641654253,0,
00:00:01.196,-0.00498894462361932,-0.0117249144241214,0.00981479045003653,0,
00:00:01.2,0.0074477307498455,-0.000716817856300622,0.00521649420261383,0,
00:00:01.204,0.00347599713131785,0.00704476656392217,-0.0141553729772568,0,
00:00:01.208,0.00237621576525271,0.0117130260914564,0.00206137797795236,0,
00:00:01.212,-0.00335338269360363,-0.00252942880615592,-0.00635696435347199,0,
00:00:01.216,-0.005354936234653,-0.0149203157052398,0.0129347667098045,0,
00:00:01.22,0.00283605232834816,0.00101506651844829,-0.0102139264345169,0,
00:00:01.224,0.000280598294921219,0.0073557561263442,-0.00639923475682735,0,
00:00:01.228,-0.00216962560079992,0.00185678375419229,5.52340243302751E-05,0,
00:00:01.232,0.00419047055765986,0.00131776626221836,0.0167345758527517,0,
00:00:01.236,-0.00210463744588196,-0.00755339860916138,0.0180605743080378,0,
00:00:01.24,-0.00338472938165069,-0.00288471695967019,-0.0240771416574717,0,
00:00:01.244,0.0129621988162398,0.0108650531619787,-0.0155263971537352,0,
00:00:01.248,-0.00677694659680128,0.00487910583615303,-0.00251670181751251,0,
00:00:01.252,-0.00691418582573533,-0.00712768547236919,0.0188301876187325,0,
00:00:01.256,0.000603427935857326,-0.0105539094656706,0.0134711107239127,0,
00:00:01.26,0.00696108164265752,0.00219910405576229,-0.011163217946887,0,
00:00:01.264,-0.00382456299848855,0.0052685234695673,-0.00355176581069827,0,
00:00:01.268,-0.000590405776165426,0.00564985582605004,-0.00979109946638346,0,
00:00:01.272,0.002898690989241,0.0049800593405962,0.0112653775140643,0,
00:00:01.276,0.00104015367105603,-0.0109024317935109,0.00243594869971275,0,
00:00:01.28,-0.00939379818737507,-0.0132473194971681,-0.00842141732573509,0,
00:00:01.284,0.00817298702895641,0.0147788422182202,-0.00332998321391642,0,
00:00:01.288,-0.000813233782537282,0.00189397344365716,0.0174149964004755,0,
00:00:01.292,0.000703592784702778,-0.00113274820614606,-0.00246815267018974,0,
00:00:01.296,-0.00188378733582795,0.00127202540170401,-0.0199449993669987,0,
00:00:01.3,0.00558754103258252,0.00215194234624505,0.0109677352011204,0,
00:00:01.304,-0.00518516963347793,-0.00322203757241368,-0.00106978847179562,0,
00:00:01.308,-0.0017211299855262,-0.00111585797276348,0.00384327233769,0,
00:00:01.312,0.000265492242760956,-0.00521405041217804,0.00652036909013987,0,
00:00:01.316,-0.0010790703818202,-0.00312656466849148,-0.00430659716948867,0,
00:00:01.32,0.00493988394737244,0.00482569262385368,-0.00730383489280939,0,
00:00:01.324,0.00216172146610916,0.0137864230200648,-0.0148882772773504,0,
00:00:01.328,-0.00139785639476031,0.00306192901916802,0.0160908047109842,0,
00:00:01.332,-0.00698909442871809,-0.0149320745840669,0.0344758257269859,0,
00:00:01.336,-0.00654938444495201,-0.0136199258267879,-0.0236733946949244,0,
00:00:01.34,0.0105329724028707,0.00225884304381907,-0.0206351019442081,0,
00:00:01.344,0.0117475353181362,0.0197011195123196,0.00543109979480505,0,
00:00:01.348,-0.00784317776560783,0.00882284063845873,-0.000917478813789785,0,
00:00:01.352,-0.00576494261622429,-0.0105001265183091,-0.00207710266113281,0,
00:00:01.356,6.24260937911458E-05,-0.016413351520896,0.0147807281464338,0,
00:00:01.36,-0.00524119799956679,-0.00166983879171312,0.00775994546711445,0,
00:00:01.364,0.00642885407432914,0.0153560917824507,-0.0045287748798728,0,
00:00:01.368,0.00494795292615891,0.0106163481250405,-0.0138061093166471,0,
00:00:01.372,-0.00373857305385172,-0.00983294378966093,-0.00751085812225938,0,
00:00:01.376,-0.000671886256895959,-0.0108534460887313,0.00755314156413078,0,
00:00:01.38,0.000231162659474649,8.68066636030562E-05,0.0253264494240284,0,
00:00:01.384,-0.00186577637214214,0.00900009926408529,-0.011758653447032,0,
00:00:01.388,0.00402210839092731,0.00485117733478546,-0.020241966471076,0,
00:00:01.392,-0.000510107667651027,-0.000990456086583436,0.00524254236370325,0,
00:00:01.396,-0.00163994170725346,-0.00808462779968977,0.010575357824564,0,
00:00:01.4,0.000973006070125848,-0.00382256763987243,-0.00228286767378449,0,
00:00:01.404,-0.00214258069172502,0.0035704649053514,-0.00493162637576461,0,
00:00:01.408,-0.0032453453168273,0.00815876107662916,0.00583843607455492,0,
00:00:01.412,0.00242725294083357,-9.31266986299306E-05,-0.00496993493288755,0,
00:00:01.416,0.00499307690188289,-0.00984463654458523,0.0128724090754986,0,
00:00:01.42,-0.00272717769257724,-0.00370170641690493,-0.00285241869278252,0,
00:00:01.424,-1.30589148739091E-06,0.00940193794667721,-0.0134507864713669,0,
00:00:01.428,-0.00177153700497001,0.00593137834221125,-0.00742108793929219,0,
00:00:01.432,0.00396115286275744,-0.0046907844953239,0.0222514942288399,0,
00:00:01.436,-0.00279556796886027,-0.000234331411775202,-0.00487120170146227,0,
00:00:01.44,0.00219826819375157,-0.000892369193024933,-0.00725303823128343,0,
00:00:01.444,-0.00154605903662741,-0.00792342238128185,4.7616984375054E-05,0,
00:00:01.448,-0.00162153085693717,0.0024538291618228,0.000487225101096556,0,
00:00:01.452,0.00161410949658602,0.012724949978292,0.00210404489189386,0,
00:00:01.456,0.000642118160612881,-0.00944515876471996,0.00855645351111889,0,
00:00:01.46,-0.00687425676733255,-0.00453245174139738,-0.00465526804327965,0,
00:00:01.464,0.000743090233299881,-0.000936924770940095,-0.0050308327190578,0,
00:00:01.468,0.00824558362364769,0.00981739256531,0.00261094467714429,0,
00:00:01.472,0.00383101031184196,0.0070782070979476,0.00361743359826505,0,
00:00:01.476,-0.00377676472999156,-0.00787038169801235,-0.00694952392950654,0,
00:00:01.48,-0.00428682239726186,-0.00889861490577459,-0.00366207677870989,0,
00:00:01.484,-0.00198914296925068,0.00674052909016609,0.0057089882902801,0,
00:00:01.488,0.000361295911716297,0.00442442391067743,0.00422197254374623,0,
00:00:01.492,-0.000528982665855438,-0.0092778978869319,-0.00381670380011201,0,
00:00:01.496,0.00141067150980234,-0.00202578585594893,-0.00649335980415344,0,
00:00:01.5,0.00233272952027619,0.00305786007083952,-0.00164395873434842,0,
00:00:01.504,0.0079460646957159,0.0104558784514666,0.0299589671194553,0,
00:00:01.508,-0.00137674645520747,0.00296783167868853,-0.0107589783146977,0,
00:00:01.512,-0.00751248653978109,-0.00636728806421161,-0.0112229268997908,0,
00:00:01.516,-0.00694272434338927,-0.0148819545283914,-0.0127281621098518,0,
00:00:01.52,0.00164294301066548,0.000870390678755939,-0.00115910999011248,0,
00:00:01.524,0.00422828830778599,0.0113647701218724,0.0116279348731041,0,
00:00:01.528,0.00119223946239799,0.00879489630460739,0.00916913524270058,0,
00:00:01.532,0.00515742367133498,-0.00857847463339567,0.0168169867247343,0,
00:00:01.536,-0.000994050060398877,-0.00215920177288353,-0.0209318958222866,0,
00:00:01.54,-0.00285588507540524,-0.00192024803254753,-0.0204640161246061,0,
00:00:01.544,-0.000140773612656631,0.00670356024056673,0.00650878436863422,0,
00:00:01.548,-0.00478846952319145,-0.00197362084873021,0.01374845020473,0,
00:00:01.552,0.000801615999080241,-0.00307697127573192,0.00499471090734005,0,
00:00:01.556,0.00449993927031755,-0.00132143218070269,0.00100001157261431,0,
00:00:01.56,-0.000138464572955854,-0.00361822289414704,-0.00970519240945578,0,
00:00:01.564,-0.00316222896799445,0.00532926712185144,0.00113358162343502,0,
00:00:01.568,0.00342024327255785,0.0128001132979989,-0.00251193018630147,0,
00:00:01.572,-0.00240119732916355,-0.00908629596233368,-0.000428193568950519,0,
00:00:01.576,-0.00121929822489619,-0.0105559676885605,0.00591427413746715,0,
00:00:01.58,0.00501742726191878,0.00234999763779342,-0.00166597461793572,0,
00:00:01.584,-0.000184714241186157,0.00715742586180568,0.00229657650925219,0,
00:00:01.588,-0.00402989005669951,0.00327012059278786,1.93443770513113E-06,0,
00:00:01.592,0.000323351152474061,-0.00117941608186811,-0.00423238100484014,0,
00:00:01.596,0.00312775908969343,-0.00937530491501093,-0.00458106072619557,0,
00:00:01.6,-0.00354482163675129,-0.00296123791486025,-0.00188958458602428,0,
00:00:01.604,0.000216484433622099,0.00984808430075645,0.0178611185401678,0,
00:00:01.608,0.00314961280673742,0.0101433051750064,-0.0127789666876197,0,
00:00:01.612,-0.00128410290926695,-0.00882190931588411,-0.00597769534215331,0,
00:00:01.616,-0.00364353135228157,-0.00997505802661181,0.0234397351741791,0,
00:00:01.62,0.00356486742384732,-0.00169662653934211,-0.00522176921367645,0,
00:00:01.624,0.000138704112032428,0.010809825733304,-0.0132702821865678,0,
00:00:01.628,-0.000660234596580267,0.00824550725519657,-0.0129685252904892,0,
00:00:01.632,-0.000414586655097082,-0.00510909361764789,0.00731031130999327,0,
00:00:01.636,-0.00414568325504661,-0.00866732653230429,0.0125578176230192,0,
00:00:01.64,0.00834296457469463,-0.00124030269216746,-0.000291870266664773,0,
00:00:01.644,-0.000421661883592606,0.00418783444911242,0.000307150388834998,0,
00:00:01.648,-0.00281259859912097,0.00475381733849645,0.00380250043235719,0,
00:00:01.652,1.32937293528812E-05,-0.00403188122436404,0.0011897647054866,0,
00:00:01.656,-0.00452421791851521,-0.00527122523635626,-0.0125906430184841,0,
00:00:01.66,0.00309342541731894,-0.00227935030125082,-0.000137759925564751,0,
00:00:01.664,-0.00363205652683973,0.00748610636219382,-0.0036478559486568,0,
00:00:01.668,0.00407880730926991,0.00556018203496933,0.00560696190223098,0,
00:00:01.672,0.0056059705093503,0.00481542851775885,0.00937509816139936,0,
00:00:01.676,-0.00135403755120933,-0.00667386781424284,-0.00433790637180209,0,
00:00:01.68,-0.00112578668631613,-0.00672029284760356,-0.00467896414920688,0,
00:00:01.684,-0.00634187320247293,-0.00258992426097393,0.000850690354127437,0,
00:00:01.688,-0.00233595562167466,-0.00293540908023715,0.00988308899104595,0,
00:00:01.692,0.00411707255989313,0.00890826154500246,-0.013473030179739,0,
00:00:01.696,0.0037702692206949,-0.000321073661325499,-0.000927496992517263,0,
00:00:01.7,0.00329915271140635,0.00381304626353085,0.00562610011547804,0,
00:00:01.704,-0.0028844375628978,0.00537979183718562,-0.000686304352711886,0,
00:00:01.708,-0.00334958941675723,0.000497077533509582,0.00173521391116083,0,
00:00:01.712,-0.00153962895274162,-0.01209179405123,-0.00311203137971461,0,
00:00:01.716,-0.00175165664404631,-0.0199012421071529,0.00575783755630255,0,
00:00:01.72,0.00530967395752668,0.0143978875130415,0.000292074779281393,0,
00:00:01.724,0.00295999529771507,0.0171800069510937,-0.000215210806345567,0,
00:00:01.728,-0.000732309359591454,0.00714902393519878,-0.00436693895608187,0,
00:00:01.732,-0.00671813497319818,-0.0155664533376694,-0.00285116885788739,0,
00:00:01.736,-0.00249268068000674,-0.0106732361018658,0.00614735530689359,0,
00:00:01.74,0.00215304852463305,0.00183535646647215,0.00200024619698524,0,
00:00:01.744,0.010068510659039,0.010296143591404,-0.0130322054028511,0,
00:00:01.748,-0.00101313041523099,0.00725731113925576,-0.00236016837880015,0,
00:00:01.752,-0.00615178234875202,-0.00125593494158238,0.00746887736022472,0,
00:00:01.756,0.0010107399430126,-0.0164277497678995,0.000882703112438321,0,
00:00:01.76,-0.00324834254570305,-0.00418117083609104,0.00660347240045667,0,
00:00:01.764,0.00133501342497766,0.0135260252282023,0.0118281682953238,0,
00:00:01.768,0.00201518065296113,0.00611287634819746,-0.0110598457977176,0,
00:00:01.772,0.00314590893685818,-0.00311985239386559,-0.00825259834527969,0,
00:00:01.776,-0.00202249456197023,-0.00651541585102677,0.00354744726791978,0,
00:00:01.78,-0.00230865576304495,-0.000446642778115347,-0.00227557658217847,0,
00:00:01.784,-0.000883692584466189,0.00368749373592436,0.00248630740679801,0,
00:00:01.788,-0.00163061858620495,0.00161318643949926,-0.0138387037441134,0,
00:00:01.792,0.00297470018267632,-0.00505442731082439,0.0125689301639795,0,
00:00:01.796,0.00455762073397636,-0.00415321066975594,0.00781193841248751,0,
00:00:01.8,-0.00145400932524353,0.00365418614819646,0.00245510437525809,0,
00:00:01.804,-0.000527180556673557,0.00889154896140099,-0.0163841899484396,0,
00:00:01.808,-0.0076822261326015,0.0109748905524611,-0.006640640553087,0,
00:00:01.812,0.00425469363108277,-0.0153986988589168,0.0299204830080271,0,
00:00:01.816,0.00188548618461937,-0.0203707385808229,-0.00604829005897045,0,
00:00:01.82,-0.0016123556997627,0.0106563745066524,-0.0186403281986713,0,
00:00:01.824,0.00379258068278432,0.0167923402041197,-0.00483345473185182,0,
00:00:01.828,0.00127443647943437,0.000859418185427785,0.0240614134818316,0,
00:00:01.832,-0.00796020589768887,-0.00984393805265427,-0.0157966483384371,0,
00:00:01.836,0.00113313749898225,-0.00793559849262238,0.00710591766983271,0,
00:00:01.84,0.00917674880474806,0.00448796153068542,-0.00331210484728217,0,
00:00:01.844,-0.00836761388927698,0.00769020989537239,-0.00218795170076191,0,
00:00:01.848,-0.0030460455454886,0.000498070905450732,0.000955346680711955,0,
00:00:01.852,0.00374821061268449,-0.000283827015664428,0.00661099003627896,0,
00:00:01.856,0.00553242303431034,-0.00645147962495685,-0.00402388535439968,0,
00:00:01.86,0.00522347167134285,0.00329086813144386,0.00345065840519965,0,
00:00:01.864,-0.012762188911438,-0.00449800258502364,0.000844329129904509,0,
00:00:01.868,-0.00701793795451522,-0.0016032624989748,-0.00449328310787678,0,
00:00:01.872,0.0083366883918643,0.00634890515357256,-0.00337773072533309,0,
00:00:01.876,0.00479843141511083,-0.00044950915616937,-0.00674013094976544,0,
00:00:01.88,0.00311878765933216,0.00125420757103711,0.0116212796419859,0,
00:00:01.884,-0.00330520747229457,0.000272648961981758,0.0154856368899345,0,
00:00:01.888,-0.00778202572837472,0.00121232867240906,-0.0214973129332066,0,
00:00:01.892,0.00233412440866232,-0.00528141902759671,-0.0127569967880845,0,
00:00:01.896,0.00988988298922777,-0.000548425887245685,0.0178210232406855,0,
00:00:01.9,-0.00837632641196251,-0.00293815857730806,0.00585237052291632,0,
00:00:01.904,-0.00138531730044633,0.00730577949434519,0.00107557710725814,0,
00:00:01.908,0.00341436429880559,0.00403669197112322,-0.00125499337445945,0,
00:00:01.912,-0.000386635918403044,0.000889463524799794,-0.0230770613998175,0,
00:00:01.916,-0.000834097911138088,-0.00988841615617275,0.0153090413659811,0,
00:00:01.92,-0.000218286455492489,-0.00724246492609382,0.0146165387704968,0,
00:00:01.924,-0.00173881265800446,0.00769287208095193,-0.0140709085389972,0,
00:00:01.928,0.00246588257141411,0.00878821313381195,-0.00128628162201494,0,
00:00:01.932,0.00196532066911459,-0.00260735233314335,-0.00258681341074407,0,
00:00:01.936,0.00437969341874123,-0.00832664873450994,0.00904524046927691,0,
00:00:01.94,-0.00909622479230165,-0.000163494871230796,-0.0090734688565135,0,
00:00:01.944,0.0014990585623309,0.00972788687795401,-0.00388761260546744,0,
00:00:01.948,0.000158433569595218,-0.000474548432976007,0.0203175731003284,0,
00:00:01.952,0.000248518219450489,-0.00338975177146494,-0.00517912488430738,0,
00:00:01.956,0.000512203550897539,-0.00258807698264718,-0.00836093351244926,0,
00:00:01.96,-0.00155773444566876,-0.00693782838061452,-0.00155734922736883,0,
00:00:01.964,0.00226670340634882,0.00872328132390976,0.00340541428886354,0,
00:00:01.968,-0.00249873963184655,0.00831027049571276,-0.0022433411795646,0,
00:00:01.972,0.0101783312857151,-0.00413133436813951,-0.000605951121542603,0,
00:00:01.976,-0.00163085001986474,-0.00565041927620769,0.00160857185255736,0,
00:00:01.98,-0.00773428659886122,-0.00276321801356971,0.0167377758771181,0,
00:00:01.984,-0.00869778823107481,-0.00373168406076729,-0.0165987238287926,0,
00:00:01.988,0.00419096043333411,0.0101744355633855,-0.00744367763400078,0,
00:00:01.992,0.00838844105601311,0.00346264452673495,0.00537460902705789,0,
00:00:01.996,-0.000474611355457455,-0.00797488354146481,0.0012243133969605,0,
00:00:02,0.000457283022115007,-0.00180620420724154,-0.00480216089636087,0,
00:00:02.004,-0.0025564874522388,0.00820618215948343,0.011775872670114,0,
00:00:02.008,0.00489981565624475,0.00513719255104661,0.012458611279726,0,
00:00:02.012,-0.00559224607422948,-0.0111814783886075,-0.0125417783856392,0,
00:00:02.016,-0.00593381375074387,-0.0111765451729298,-0.0138809848576784,0,
00:00:02.02,0.00439115706831217,0.00479041645303369,-0.00128856988158077,0,
00:00:02.024,0.0107512697577477,0.0147448228672147,0.0156241124495864,0,
00:00:02.028,-0.0065774261020124,0.00580458948388696,-0.00389282498508692,0,
00:00:02.032,-0.00622393609955907,-0.0100467633455992,-0.00271820183843374,0,
00:00:02.036,0.00304756290279329,-0.00998551677912474,0.00361750996671617,0,
00:00:02.04,0.000764693366363645,0.00687717786058784,-0.00306576164439321,0,
00:00:02.044,0.00232859933748841,0.00101943698246032,-0.00417788978666067,0,
00:00:02.048,-0.00381330237723887,0.00161383813247085,-0.00179885281249881,0,
00:00:02.052,0.000551770499441773,-0.0064063873142004,0.0115137854591012,0,
00:00:02.056,-0.000504075840581208,0.000403140264097601,-0.00502828322350979,0,
00:00:02.06,-0.00118754187133163,0.0033745754044503,0.00707663549110293,0,
00:00:02.064,0.0118843913078308,0.00924796052277088,-0.00436155218631029,0,
00:00:02.068,0.00115469901356846,0.0035083619877696,-0.00666050333529711,0,
00:00:02.072,-0.0162344668060541,-0.0176378339529037,0.0151193346828222,0,
00:00:02.076,0.00105903099756688,-0.00258681434206665,-0.0109256394207478,0,
00:00:02.08,0.00442312099039555,0.00380423851311207,-0.013348113745451,0,
00:00:02.084,-0.00366897764615715,0.00244596973061562,0.00756328972056508,0,
00:00:02.088,0.00391067750751972,0.00868115574121475,0.00877958908677101,0,
00:00:02.092,0.00563477631658316,-0.0020873136818409,-0.00287551572546363,0,
00:00:02.096,-0.00118935666978359,-0.00847269222140312,0.00222143577411771,0,
00:00:02.1,-0.00511975912377238,-0.000813299906440079,0.00534112472087145,0,
00:00:02.104,0.00182450481224805,0.0111625865101814,-0.00485981628298759,0,
00:00:02.108,-0.000960465404205024,-0.000673223112244159,-0.00522056128829718,0,
00:00:02.112,-0.000873929006047547,-0.00692832935601473,-0.00408378196880221,0,
00:00:02.116,4.77881485494436E-06,-0.00618665153160691,0.000895678938832134,0,
00:00:02.12,0.000627620262093842,0.000166917452588677,0.00798710342496634,0,
00:00:02.124,0.00279527041129768,0.00847982801496983,0.00182432751171291,0,
00:00:02.128,-0.00153864524327219,0.00483113527297974,-0.0014318999601528,0,
00:00:02.132,-0.00158225663471967,-0.00270090764388442,0.0039899293333292,0,
00:00:02.136,-0.00453008571639657,-0.00989324506372213,-0.015799256041646,0,
00:00:02.14,0.00659325160086155,0.00190312322229147,0.00874640140682459,0,
00:00:02.144,0.00213160063140094,0.0131427813321352,0.000506645417772233,0,
00:00:02.148,-0.00281004491262138,-0.00265077175572515,0.0031781445723027,0,
00:00:02.152,0.000224875489948317,-0.00816216599196196,-0.012484185397625,0,
00:00:02.156,-0.00394312012940645,-0.00388013222254813,0.00518272304907441,0,
00:00:02.16,0.00978717766702175,0.00328019610606134,0.00904431100934744,0,
00:00:02.164,-0.00120455038268119,0.00782816018909216,-0.00120576994959265,0,
00:00:02.168,-0.00700190756469965,0.00180523504968733,-0.00304958084598184,0,
00:00:02.172,-0.00809859577566385,-0.00764246424660087,0.00859553087502718,0,
00:00:02.176,0.00445451866835356,-0.0112107349559665,-0.0141989467665553,0,
00:00:02.18,0.0104174166917801,0.00394811807200313,0.00267520337365568,0,
00:00:02.184,-0.00265883514657617,0.0142144737765193,0.003470090450719,0,
00:00:02.188,0.000676629191730171,0.00785256735980511,-0.00798494648188353,0,
00:00:02.192,-0.00483458209782839,-0.0138325728476048,0.00404900638386607,0,
00:00:02.196,-0.00214681169018149,-0.0114374384284019,-0.00369753013364971,0,
00:00:02.2,0.00538628501817584,0.00632063578814268,0.00524904951453209,0,
00:00:02.204,0.00281221722252667,0.00970059912651777,0.0114028546959162,0,
00:00:02.208,-0.00520298164337873,0.00525333592668176,-0.000115246228233445,0,
00:00:02.212,-0.00096122466493398,-0.00688125006854534,-0.0104163847863674,0,
00:00:02.216,-0.00334974890574813,-0.0107858665287495,-0.0170453209429979,0,
00:00:02.22,0.00914944522082806,0.00379201164469123,0.0345719903707504,0,
00:00:02.224,0.00408642971888185,0.00910218525677919,-0.013864659704268,0,
00:00:02.228,-0.0109750982373953,-0.00832704920321703,-0.0127054834738374,0,
00:00:02.232,-0.00372565654106438,-0.00244890851899982,-0.00648332806304097,0,
00:00:02.236,0.00627162540331483,0.00656398804858327,0.0154774338006973,0,
00:00:02.24,0.000204266791115515,-0.00221267342567444,0.00646830815821886,0,
00:00:02.244,0.00400377437472343,0.00746785849332809,0.00417736545205116,0,
00:00:02.248,-0.00130759563762695,-0.0021543437615037,-0.00907447002828121,0,
00:00:02.252,-0.0044912532903254,-0.00208075763657689,-0.00872846785932779,0,
00:00:02.256,-0.00368573400191963,-0.00869031623005867,-0.00912823528051376,0,
00:00:02.26,0.0116264317184687,0.00619567139074206,0.0291672516614199,0,
00:00:02.264,0.00235254690051079,0.00244314107112587,0.00449877511709929,0,
00:00:02.268,-0.0126595664769411,-0.00878067780286074,-0.0131334448233247,0,
00:00:02.272,-0.00200033443979919,0.00633962918072939,-0.00701306620612741,0,
00:00:02.276,0.00292224436998367,0.00119303399696946,-0.0133308600634336,0,
00:00:02.28,0.00360652129165828,0.0022575173061341,0.00172630103770643,0,
00:00:02.284,0.00210731150582433,0.00646782014518976,0.00149727310054004,0,
00:00:02.288,0.00229983334429562,-0.00741678150370717,0.0401991382241249,0,
00:00:02.292,-0.00503628561273217,-0.00888932589441538,-0.00656633684411645,0,
00:00:02.296,0.0011522927088663,0.00229046144522727,-0.0388015061616898,0,
00:00:02.3,-0.00344814057461917,-0.0021971098612994,0.0261426251381636,0,
00:00:02.304,0.00317737413570285,0.00605999352410436,0.0128700518980622,0,
00:00:02.308,-0.000106424500700086,0.00696788914501667,-0.0325993373990059,0,
00:00:02.312,-0.00269240024499595,-0.00306049757637084,-0.0130212567746639,0,
00:00:02.316,-0.000303149543469772,-0.00369266793131828,0.00470762606710196,0,
00:00:02.32,0.00591196492314339,0.00272670947015285,0.0209541376680136,0,
00:00:02.324,0.00227262824773788,0.0028469490353018,0.0117500238120556,0,
00:00:02.328,-0.00611599115654826,-0.00582818128168583,0.00747998291626573,0,
00:00:02.332,-0.00374486413784325,-0.00833480898290873,-0.0154529735445976,0,
00:00:02.336,0.00251730857416987,0.00175713270436972,-0.00993496831506491,0,
00:00:02.34,0.00489324191585183,0.00778780318796635,0.010339935310185,0,
00:00:02.344,-0.000889383896719664,0.00488642696291208,0.00356877944432199,0,
00:00:02.348,-0.00837134383618832,0.00228981184773147,-0.0153965540230274,0,
00:00:02.352,0.0128967827185988,0.00155279680620879,-0.010030509904027,0,
00:00:02.356,0.00105587369762361,-0.0127692297101021,0.00716571370139718,0,
00:00:02.36,-0.0114169856533408,-0.00711035309359431,0.00610498292371631,0,
00:00:02.364,-0.00583476619794965,0.00363947893492877,0.0100931040942669,0,
00:00:02.368,-9.94838192127645E-05,0.00205208826810122,0.0142823802307248,0,
00:00:02.372,0.0118493624031544,0.0123004028573632,-0.0166368819773197,0,
00:00:02.376,0.00478720478713512,0.000291188480332494,-0.0159266106784344,0,
00:00:02.38,0.00112726620864123,-0.00432561151683331,-0.00666684005409479,0,
00:00:02.384,-0.00345074338838458,-0.00419432017952204,0.0360672660171986,0,
00:00:02.388,-0.0111108608543873,-0.00409244373440742,0.00115996191743761,0,
00:00:02.392,0.0025297540705651,0.00629812246188521,-0.0277314763516188,0,
00:00:02.396,-0.00211203866638243,-0.00718311732634902,-0.00700947130098939,0,
00:00:02.4,0.0056088394485414,0.00217326474376023,0.0141934901475906,0,
00:00:02.404,0.00636682892218232,0.0127693675458431,0.00145083665847778,0,
00:00:02.408,0.000725836842320859,0.00117386190686375,-0.00216869241558015,0,
00:00:02.412,-0.00557283917441964,-0.00808867998421192,0.000762538576964289,0,
00:00:02.416,-0.0064333463087678,-0.0152530670166016,0.000670870940666646,0,
00:00:02.42,0.000967036583460867,0.00157232629135251,0.0167638771235943,0,
00:00:02.424,0.00314638717100024,0.0102996844798326,-0.00337838078849018,0,
00:00:02.428,0.00243987748399377,0.00940822809934616,0.00206859479658306,0,
00:00:02.432,0.00288243754766881,0.00146496086381376,-0.0325581207871437,0,
00:00:02.436,-0.00248218141496181,-0.00647528143599629,-0.00892769917845726,0,
00:00:02.44,-0.000595461286138743,-0.00995697360485792,0.0209074653685093,0,
00:00:02.444,-0.0113202836364508,0.00389230716973543,0.0106889074668288,0,
00:00:02.448,0.0129506187513471,0.0085974894464016,0.00767506007105112,0,
00:00:02.452,-0.00258025527000427,-0.0110262678936124,0.00319042196497321,0,
00:00:02.456,0.00152313883882016,-0.00500332750380039,-0.0248238332569599,0,
00:00:02.46,0.00288977404125035,0.0141979306936264,-0.000232839389354922,0,
00:00:02.464,0.0014656416606158,0.00778071163222194,0.0218195337802172,0,
00:00:02.468,-0.00909171719104052,-0.00437131291255355,-0.01000767480582,0,
00:00:02.472,-0.00473186001181602,-0.0135924890637398,-0.00570544088259339,0,
00:00:02.476,0.00366696668788791,-0.00104295765049756,-0.00313700619153678,0,
00:00:02.48,0.00476818811148405,0.00184696295764297,0.00790921505540609,0,
00:00:02.484,0.00258395285345614,0.00809920392930508,0.000150521955220029,0,
00:00:02.488,0.00207903189584613,0.0058593568392098,-0.00558307394385338,0,
00:00:02.492,-0.00140401651151478,-0.00340802618302405,0.00319111975841224,0,
00:00:02.496,-0.00946276262402534,-0.0158302932977676,0.00551688345149159,0,
00:00:02.5,0.00109512335620821,0.002277608262375,-0.00726796360686421,0,
00:00:02.504,0.00376883917488158,0.0179286282509565,0.00309282448142767,0,
00:00:02.508,0.00471126660704613,0.00191054469905794,0.00908732134848833,0,
00:00:02.512,0.000660512363538146,-0.0148616079241037,0.000277549843303859,0,
00:00:02.516,-0.00451946910470724,-0.00777841778472066,-0.014867146499455,0,
00:00:02.52,-0.00728418072685599,0.00226953765377402,-0.00765571882948279,0,
00:00:02.524,0.00367834279313684,0.01747409068048,0.00241758394986391,0,
00:00:02.528,0.00902428943663836,0.00880265887826681,0.00530738197267056,0,
00:00:02.532,-0.00377261755056679,-0.0196552835404873,0.0127654187381268,0,
00:00:02.536,-0.00805667042732239,-0.0119641227647662,-0.0014845144469291,0,
00:00:02.54,0.0136279482394457,0.0121285626664758,0.00841902010142803,0,
00:00:02.544,-0.00497746840119362,0.00128029834013432,-0.0122466674074531,0,
00:00:02.548,-0.00581440469250083,0.00672383513301611,0.000156831694766879,0,
00:00:02.552,0.00275385403074324,0.00172255304642022,-0.0118557484820485,0,
00:00:02.556,0.00235764007084072,-0.00322339567355812,-0.00620409287512302,0,
00:00:02.56,-0.0041366177611053,-0.00883451476693153,0.00671111699193716,0,
00:00:02.564,-0.00366798439063132,-0.00547003652900457,0.0075734443962574,0,
00:00:02.568,0.0140420449897647,0.0126964468508959,0.0143902702257037,0,
00:00:02.572,-0.00746763357892632,-0.00154274492524564,0.00291428179480135,0,
00:00:02.576,-0.00404454814270139,-0.00267578684724867,-0.0175679326057434,0,
00:00:02.58,0.004484330303967,0.00386328436434269,-0.0041061625815928,0,
00:00:02.584,0.00063970941118896,-0.000416123919421807,0.0056486357934773,0,
00:00:02.588,-0.00497851194813848,-0.001555101480335,-0.0219814404845238,0,
00:00:02.592,0.00927138235419989,0.00303186709061265,0.0453835017979145,0,
00:00:02.596,-0.00306585943326354,-0.00836592726409435,-0.0110472934320569,0,
00:00:02.6,-0.00657781632617116,-0.00104917166754603,-0.0182941053062677,0,
00:00:02.604,-0.00199321517720819,0.00545725878328085,0.000519793189596385,0,
00:00:02.608,0.00648810295388103,0.00616589654237032,-0.00892233103513718,0,
00:00:02.612,0.0039151213131845,-0.00129175209440291,0.00111934763845056,0,
00:00:02.616,-0.00462338095530868,-0.00336680584587157,0.0173900164663792,0,
00:00:02.62,0.00318815466016531,-0.00041158904787153,0.00782836973667145,0,
00:00:02.624,-0.00557871302589774,-0.00269215018488467,0.00266387080773711,0,
00:00:02.628,-0.00275035062804818,-0.000993413152173162,-0.0121085122227669,0,
00:00:02.632,0.00151699967682362,-0.00110679934732616,-0.0134193152189255,0,
00:00:02.636,0.00753970444202423,0.00373758445493877,0.0145487207919359,0,
00:00:02.64,-0.0012217506300658,0.000968634558375925,-0.013429774902761,0,
00:00:02.644,0.00384200108237565,0.00681980606168509,0.0115176169201732,0,
00:00:02.648,-0.00493805389851332,-0.00135042052716017,0.013735025189817,0,
00:00:02.652,-0.0046095484867692,-0.00675796577706933,-0.02418402582407,0,
00:00:02.656,-0.00340766250155866,-0.0102988202124834,-0.00385750597342849,0,
00:00:02.66,0.00544303329661489,0.00600225338712335,0.0126578053459525,0,
00:00:02.664,-6.12422954873182E-05,0.00954708829522133,0.00192279636394233,0,
00:00:02.668,0.000245027389610186,0.00548458751291037,-0.00467755645513535,0,
00:00:02.672,0.00532227894291282,-0.0085996501147747,0.0118195312097669,0,
00:00:02.676,0.00138306117150933,-0.0044310325756669,0.001527109881863,0,
00:00:02.68,-0.00469387834891677,-0.000582498381845653,-0.0121751222759485,0,
00:00:02.684,-0.00803012121468782,0.00159268057905138,-0.013736492022872,0,
00:00:02.688,0.00503225903958082,0.00407644733786583,0.0146824726834893,0,
00:00:02.692,0.00463677663356066,0.00139294925611466,-0.00624671392142773,0,
00:00:02.696,0.000791952188592404,-0.00333175132982433,0.0215940605849028,0,
00:00:02.7,-0.00399864558130503,-0.00641040690243244,-0.0056928195990622,0,
00:00:02.704,-0.00668406393378973,-0.000214223822695203,-0.00843513384461403,0,
00:00:02.708,0.00406102649867535,0.0148048019036651,-0.0139842629432678,0,
00:00:02.712,0.00494153518229723,0.00123424467165023,0.00450196256861091,0,
00:00:02.716,0.0041666803881526,-0.00953208282589912,0.0125212231650949,0,
00:00:02.72,-0.00481168925762177,-0.00603504665195942,-0.00285324268043041,0,
00:00:02.724,-0.00174399733077735,0.00213433057069778,-0.00693576550111175,0,
00:00:02.728,-0.000403941638069227,0.00786640588194132,0.021009961143136,0,
00:00:02.732,-0.00192889268510044,-0.00581480422988534,-0.00411646254360676,0,
00:00:02.736,0.00644077314063907,0.00305057479999959,-0.0127392718568444,0,
00:00:02.74,-0.00409835437312722,-1.23314521260909E-06,-0.0115399779751897,0,
00:00:02.744,-0.00510738510638475,-0.000827720912639052,-0.00408713659271598,0,
00:00:02.748,0.00860720593482256,0.00145936128683388,0.0242142397910357,0,
00:00:02.752,-0.00192653550766408,-4.03936428483576E-05,0.00618475489318371,0,
00:00:02.756,0.003729656804353,-0.00964539311826229,-0.0128491688519716,0,
00:00:02.76,-0.00838989764451981,-0.00390186137519777,0.00460680155083537,0,
00:00:02.764,0.00236506550572813,0.0240788795053959,-0.00468720262870193,0,
00:00:02.768,0.000635322474408895,0.00330066774040461,-0.00819630175828934,0,
00:00:02.772,0.000268631789367646,-0.0144605673849583,-0.00493568787351251,0,
00:00:02.776,0.00025966577231884,-0.0101186577230692,0.023545091971755,0,
00:00:02.78,0.000222804141230881,0.00116654962766916,0.00170551019255072,0,
00:00:02.784,0.000104670747532509,0.00927679240703583,-0.0135931232944131,0,
00:00:02.788,-2.81511693174252E-05,0.000462036550743505,-0.00360959279350936,0,
00:00:02.792,0.00196547224186361,-0.00351534434594214,0.00134531455114484,0,
00:00:02.796,-0.00209686858579516,-0.00302264420315623,0.00269500515423715,0,
00:00:02.8,-0.00587522378191352,0.00149866298306733,0.00823565665632486,0,
00:00:02.804,0.00582345435395837,0.0120528703555465,-0.00317204277962446,0,
00:00:02.808,0.00424391077831388,0.00342044816352427,-0.00935548357665539,0,
00:00:02.812,-0.00427746353670955,-0.00947017781436443,-0.00515669584274292,0,
00:00:02.816,0.00120652804616839,-0.00816197507083416,0.00517721567302942,0,
00:00:02.82,-0.00162707292474806,-0.00233930512331426,0.00904854387044907,0,
00:00:02.824,-0.00115763465873897,0.00445631425827742,0.00204524234868586,0,
00:00:02.828,-0.00201883795671165,-5.5449340834457E-06,0.00470856297761202,0,
00:00:02.832,0.00279211369343102,0.00348015385679901,0.00189740303903818,0,
00:00:02.836,0.00251875375397503,0.000554883037693799,-0.0230587925761938,0,
00:00:02.84,0.00274130562320352,0.00451467279344797,-0.00579767907038331,0,
00:00:02.844,-0.00280056404881179,-0.0035808605607599,0.0190033186227083,0,
00:00:02.848,-0.00295511330477893,0.00715939700603485,0.00225149095058441,0,
00:00:02.852,-0.00115774420555681,-0.00849263556301594,-0.0111302370205522,0,
00:00:02.856,-0.0015568626113236,-0.0152966333553195,0.0115200942382216,0,
00:00:02.86,0.00322716846130788,0.00491185765713453,-0.0043864375911653,0,
00:00:02.864,0.0027338492218405,0.0202679131180048,0.00438345596194267,0,
00:00:02.868,0.0027421114500612,-0.00121385755483061,-0.00567513145506382,0,
00:00:02.872,-0.00291550252586603,-0.0111245298758149,0.00441352371126413,0,
00:00:02.876,-0.00515680573880672,-0.00326435500755906,-0.00763628352433443,0,
00:00:02.88,0.00489521864801645,0.00395630765706301,-0.00387919717468321,0,
00:00:02.884,-0.00387501623481512,0.00557188782840967,0.0103188930079341,0,
00:00:02.888,-0.00192246434744447,0.000961700163315982,-0.00733521021902561,0,
00:00:02.892,0.00355669064447284,-0.00684263603761792,0.00337953306734562,0,
00:00:02.896,0.000922361097764224,-0.00572162866592407,0.0041078757494688,0,
00:00:02.9,0.00472364947199821,0.00505283661186695,0.00131935463286936,0,
00:00:02.904,0.000634257914498448,0.00710450997576118,-0.00748041970655322,0,
00:00:02.908,-0.00507161533460021,0.00582237262278795,0.00784990377724171,0,
00:00:02.912,0.000320796360028908,-0.00267883646301925,-0.00493983691558242,0,
00:00:02.916,-0.00465825805440545,-0.0154689466580749,-0.00569393299520016,0,
00:00:02.92,-0.00588142592459917,-0.0148294204846025,0.0211680438369513,0,
00:00:02.924,0.00160242768470198,0.0118574909865856,-0.0050215651281178,0,
00:00:02.928,0.0166550222784281,0.0253202095627785,-0.0136380130425096,0,
00:00:02.932,-0.00188464531674981,-0.0023729158565402,-0.00552644394338131,0,
00:00:02.936,-0.00552206626161933,-0.0132794072851539,-0.00952477939426899,0,
00:00:02.94,-0.00124705245252699,-0.00250514619983733,0.00349191017448902,0,
00:00:02.944,-0.000203320567379706,0.00790810771286488,0.0180156081914902,0,
00:00:02.948,-0.000116411654744297,0.00243187765590847,0.0133679881691933,0,
00:00:02.952,-0.000112578389234841,-0.00771929882466793,-0.00181152811273932,0,
00:00:02.956,-1.10730979940854E-05,-0.00962211191654205,-0.0105438204482198,0,
00:00:02.96,0.000120351462101098,0.00574776157736778,-0.00602256134152412,0,
00:00:02.964,0.000194164938875474,0.0065291952341795,-0.00232218485325575,0,
00:00:02.968,0.00433378526940942,0.010806443169713,-0.00790318939834833,0,
00:00:02.972,-0.00591513980180025,-0.00903454888612032,0.0138251585885882,0,
00:00:02.976,-0.00335613335482776,-0.0216029640287161,-0.00173992745112628,0,
00:00:02.98,0.00530931353569031,0.00281750247813761,0.0169894769787788,0,
00:00:02.984,0.00563059188425541,0.0204611588269472,-0.00825805123895407,0,
00:00:02.988,-0.010470905341208,0.00232793134637177,-0.00987302418798208,0,
00:00:02.992,-0.000237597050727345,-0.000882187625393271,-0.00602238951250911,0,
00:00:02.996,0.00589869869872928,-0.00498645985499024,-0.0070024156011641,0,
00:00:03,0.00566195184364915,0.00299236783757806,-0.00158626504708081,0,
00:00:03.004,-0.00222487421706319,0.00393783999606967,0.0124629195779562,0,
00:00:03.008,-0.0020357386674732,-0.00538204796612263,0.0133857065811753,0,
00:00:03.012,-0.00679776258766651,-0.0152792492881417,0.0041461125947535,0,
00:00:03.016,-0.00228260923177004,-0.00416781287640333,-0.0145034799352288,0,
00:00:03.02,0.00862024631351233,0.0148741090670228,0.0109271006658673,0,
00:00:03.024,0.000204733514692634,0.00821586605161428,0.00698538636788726,0,
00:00:03.028,-0.00389346340671182,0.000640015117824078,-0.0322410762310028,0,
00:00:03.032,0.000768755679018795,-0.00786128174513578,5.23258750035893E-05,0,
00:00:03.036,-0.00260818796232343,-0.00243309256620705,0.00331747508607805,0,
00:00:03.04,0.0109259570017457,0.000610645103733987,0.0179166179150343,0,
00:00:03.044,-0.00491388188675046,-0.000503182120155543,0.00374000216834247,0,
00:00:03.048,-0.00534568401053548,0.00320337689481676,-0.00406671455129981,0,
00:00:03.052,0.0049168192781508,0.00828672014176846,-0.00786402821540833,0,
00:00:03.056,-0.0123515026643872,-0.0101573783904314,-0.0142789063975215,0,
00:00:03.06,-0.00883117970079184,-0.00443505635485053,0.0189246088266373,0,
00:00:03.064,0.0507257208228111,0.00530610559508204,-0.000751481624320149,0,
00:00:03.068,-0.0271417889744043,0.00377134396694601,-0.000864093890413642,0,
00:00:03.072,-0.000698707241099328,-0.00625592283904552,0.00384701136499643,0,
00:00:03.076,0.00845544319599867,-0.000494428386446089,0.00431589968502522,0,
00:00:03.08,-0.0217641461640596,0.00445830449461937,-0.0133523093536496,0,
00:00:03.084,-0.0114601701498032,0.00880306214094162,-0.00311500742100179,0,
00:00:03.088,0.0108631420880556,-0.00427262904122472,0.00447544362396002,0,
00:00:03.092,0.00861038640141487,-0.00895724445581436,0.00181317050009966,0,
00:00:03.096,0.00605937512591481,-0.00832947250455618,-0.00105622410774231,0,
00:00:03.1,0.00863812770694494,0.001160345855169,0.00256047700531781,0,
00:00:03.104,-0.00684114778414369,0.0133478464558721,0.00386801478452981,0,
00:00:03.108,-0.00348209799267352,0.0115636186674237,-0.00408515939489007,0,
00:00:03.112,-0.00517810927703977,-0.00719540333375335,-0.00712223118171096,0,
00:00:03.116,-0.00653223833069205,-0.015366742387414,0.0184577498584986,0,
00:00:03.12,0.00263579748570919,-0.000555683160200715,-0.0150527469813824,0,
00:00:03.124,0.00760976364836097,0.0096324123442173,-0.00136323738843203,0,
00:00:03.128,0.00630400003865361,0.00760259525850415,0.0154020711779594,0,
00:00:03.132,-0.00025572840240784,-0.00265478575602174,-0.013360564596951,0,
00:00:03.136,-0.00652735028415918,-0.0118304444476962,-0.0112281460314989,0,
00:00:03.14,-0.0089691523462534,-0.00220902543514967,0.0055352090857923,0,
00:00:03.144,0.00299830618314445,0.00795852206647396,0.0153845781460404,0,
00:00:03.148,0.00513270730152726,0.00523637980222702,0.00183832214679569,0,
00:00:03.152,0.005060616414994,4.92524050059728E-05,-0.00215374794788659,0,
00:00:03.156,-0.00386326643638313,-0.00717700878158212,-0.00894357170909643,0,
00:00:03.16,-0.00323395035229623,-0.00551555212587118,-0.00248602195642889,0,
00:00:03.164,0.0037746517919004,0.00749682961031795,-0.000926361768506467,0,
00:00:03.168,0.00169594178441912,0.009513970464468,-0.00195725704543293,0,
00:00:03.172,-0.00342401582747698,-0.00806860066950321,0.0135356979444623,0,
00:00:03.176,-0.00675801141187549,-0.0108520248904824,0.0184791628271341,0,
00:00:03.18,0.00367205101065338,0.00531566282734275,-0.0320780612528324,0,
00:00:03.184,0.0087630907073617,0.0129307806491852,-0.00378761836327612,0,
00:00:03.188,-0.0019528423435986,-0.00111044477671385,0.0100285466760397,0,
00:00:03.192,-0.00807374808937311,-0.0142748290672898,-0.0103930030018091,0,
00:00:03.196,0.00173466559499502,0.000904323998838663,0.0175471268594265,0,
00:00:03.2,0.00536258378997445,0.00481419824063778,-0.000918553210794926,0,
00:00:03.204,0.00172973482403904,0.00547595554962754,-0.00836381781846285,0,
00:00:03.208,-0.00391312129795551,0.00286171701736748,-0.000342490675393492,0,
00:00:03.212,-0.00308238109573722,-0.00680321035906672,0.00959769356995821,0,
00:00:03.216,-0.000535318162292242,-0.00725254230201244,0.00556431151926517,0,
00:00:03.22,0.00129098712932318,-0.00288375187665224,-0.00129405118059367,0,
00:00:03.224,-0.000341882987413555,0.0121295293793082,-0.015723180025816,0,
00:00:03.228,0.00313634285703301,0.00254491320811212,-0.0101277688518167,0,
00:00:03.232,0.00398319540545344,0.000253669946687296,0.00439204601570964,0,
00:00:03.236,-0.00428215460851789,-0.00882766488939524,0.00306310248561203,0,
00:00:03.24,-0.00530559802427888,-0.00154949352145195,0.0193164441734552,0,
00:00:03.244,0.0121771479025483,0.00672071846202016,0.0137869147583842,0,
00:00:03.248,-0.00859947595745325,0.00345265911892056,-0.0200478173792362,0,
00:00:03.252,-3.88769913115539E-05,-0.00120410590898246,-0.00815640669316053,0,
00:00:03.256,-0.000999849289655685,-0.00959028583019972,-0.00475240545347333,0,
00:00:03.26,-0.00200543366372585,-0.00108001905027777,-0.0059867980889976,0,
00:00:03.264,0.00298711424693465,0.00782681722193956,-0.00310084270313382,0,
00:00:03.268,0.00488360645249486,0.00652475142851472,0.022788017988205,0,
00:00:03.272,0.00306446035392582,-0.00478380685672164,0.0130431819707155,0,
00:00:03.276,-0.00841913744807243,-0.0113985277712345,-0.00443625682964921,0,
00:00:03.28,-0.00700733438134193,-8.44548194436356E-05,-0.016947153955698,0,
00:00:03.284,0.00705869775265455,0.0162184238433838,0.00141873466782272,0,
00:00:03.288,0.00584354996681213,0.00640653818845749,-0.00428196555003524,0,
00:00:03.292,-0.00332911126315594,-0.0132370768114924,-0.00952966511249542,0,
00:00:03.296,0.00131851609330624,-0.0137584879994392,0.00623809220269322,0,
00:00:03.3,2.04052776098251E-05,0.00945301912724972,0.0247166994959116,0,
00:00:03.304,-0.0057609393261373,0.00236616935580969,0.00111109449062496,0,
00:00:03.308,-0.00206510233692825,0.00747520849108696,-0.0288079790771008,0,
00:00:03.312,0.00622261362150311,-0.000595448305830359,0.0135074406862259,0,
00:00:03.316,0.00373645056970418,-0.0102292811498046,-0.00676562776789069,0,
00:00:03.32,-0.00466420873999596,-0.00186491664499044,0.0112289832904935,0,
00:00:03.324,-0.00921934749931097,0.00319091486744583,-0.0124489516019821,0,
00:00:03.328,0.0125675583258271,0.0103487614542246,0.0152466194704175,0,
00:00:03.332,0.00744520500302315,-0.00139705673791468,-0.0108917681500316,0,
00:00:03.336,-0.00619230885058641,-0.00672497227787972,-0.00556479068472981,0,
00:00:03.34,-0.00704627716913819,0.000626342603936791,0.00147246662527323,0,
00:00:03.344,-0.00508547108620405,-0.00124156987294555,0.0131144048646092,0,
00:00:03.348,0.00296251894906163,0.00160416308790445,-0.00367772579193115,0,
00:00:03.352,-0.00171780493110418,-0.00343061005696654,-0.0111204469576478,0,
00:00:03.356,0.0128830745816231,0.00141897948924452,0.0106680942699313,0,
00:00:03.36,0.00763174751773477,0.000264831614913419,0.00659273937344551,0,
00:00:03.364,-0.0139807760715485,0.00333665939979255,-0.0102090481668711,0,
00:00:03.368,-0.00540262181311846,0.00790904555469751,-0.00871262419968843,0,
00:00:03.372,0.00235158414579928,-0.00860621966421604,0.0171643048524857,0,
00:00:03.376,0.00074759143171832,-0.00678626308217645,-0.00124142097774893,0,
00:00:03.38,-0.0031102008651942,-0.000604273984208703,-0.0167950838804245,0,
00:00:03.384,0.00933403149247169,0.0117888515815139,0.00737014738842845,0,
00:00:03.388,0.000214035520912148,-0.00174898328259587,0.00958589650690556,0,
00:00:03.392,-0.00475438684225082,-0.0082680955529213,-0.0110677657648921,0,
00:00:03.396,-0.00242019654251635,-0.00441143289208412,-0.00121133751235902,0,
00:00:03.4,0.00273740175180137,0.00949820503592491,0.0119783598929644,0,
00:00:03.404,0.00424077687785029,0.0130388885736465,0.000239055691054091,0,
00:00:03.408,-0.00177407916635275,-0.00352669670246542,-0.0169107206165791,0,
00:00:03.412,-0.00275673158466816,-0.0128473313525319,0.015967333689332,0,
00:00:03.416,-0.00149749068077654,-0.0087937917560339,-0.00603768043220043,0,
00:00:03.42,6.33171148365363E-05,0.00532403308898211,-0.00106878776568919,0,
00:00:03.424,0.00304017052985728,0.0133625762537122,0.00496909255161881,0,
00:00:03.428,-0.00507673481479287,-0.00422900402918458,-0.0112858107313514,0,
00:00:03.432,0.00293025118298829,-0.0051163830794394,0.00297724036499858,0,
00:00:03.436,0.00319252372719347,-0.00124023272655904,0.0101555669680238,0,
00:00:03.44,0.00299742259085178,0.00181425979826599,0.0120617104694247,0,
00:00:03.444,-0.000930345384404063,0.00878151878714561,-0.0150909563526511,0,
00:00:03.448,-0.00739000458270311,0.00189518369734287,-0.0123607683926821,0,
00:00:03.452,-0.0031961218919605,-0.00863294769078493,-0.00810717698186636,0,
00:00:03.456,0.00801702216267586,-0.0103905415162444,0.0135209243744612,0,
00:00:03.46,-0.00203314586542547,0.00532151851803064,0.026640385389328,0,
00:00:03.464,-0.0017759568290785,0.000199819580302574,-0.016563918441534,0,
00:00:03.468,0.0088762454688549,0.0147517304867506,-0.0069992789067328,0,
00:00:03.472,-0.00817865319550037,-0.0102858114987612,-0.00420585973188281,0,
00:00:03.476,-0.00101062853354961,-0.00311616621911526,-0.00181348854675889,0,
00:00:03.48,0.00356590957380831,0.00539513397961855,-0.00133959576487541,0,
00:00:03.484,0.00159761682152748,0.00264856754802167,0.0127573329955339,0,
00:00:03.488,-0.00923621654510498,-0.00767091941088438,0.0132037317380309,0,
00:00:03.492,0.00389488181099296,0.00272256089374423,-0.013865408487618,0,
00:00:03.496,0.00708784814924002,-0.00176659924909472,-0.0114253321662545,0,
00:00:03.5,-9.19868325581774E-05,0.00162237288895994,0.00455741258338094,0,
00:00:03.504,-0.00482741976156831,0.00348997092805803,0.00118462729733437,0,
00:00:03.508,-0.000534547492861748,0.000344229309121147,-0.00477790366858244,0,
00:00:03.512,0.00263924174942076,-0.00629640510305762,0.0346171334385872,0,
00:00:03.516,-0.00360166211612523,-0.00686290394514799,-0.0237527806311846,0,
00:00:03.52,0.00250934180803597,0.00980314798653126,-0.018745182082057,0,
00:00:03.524,-0.00269718840718269,0.006991031114012,-0.00014749335241504,0,
00:00:03.528,0.00329404044896364,0.00417907908558846,0.00277582858689129,0,
00:00:03.532,-0.00037764135049656,-0.0123477289453149,0.0214035864919424,0,
00:00:03.536,-0.000978175899945199,-0.00805301871150732,0.00994679518043995,0,
00:00:03.54,-0.000451379251899198,-0.00178349681664258,-0.00855139549821615,0,
00:00:03.544,0.000147744111018255,0.0113458670675755,-0.0132276611402631,0,
00:00:03.548,0.000418346287915483,0.00939591135829687,-0.0105328653007746,0,
00:00:03.552,-0.00379110500216484,-0.0102882916107774,0.0113925328478217,0,
00:00:03.556,0.00616931403055787,-0.0085096275433898,0.016905652359128,0,
00:00:03.56,0.0033212318085134,0.0156785752624273,-0.0115346796810627,0,
00:00:03.564,-0.00342920096591115,0.00944067630916834,-0.0174780804663897,0,
00:00:03.568,-0.0057392418384552,-0.0148418471217155,-0.000754343171138316,0,
00:00:03.572,0.00257324404083192,-0.00949221011251211,0.0152427842840552,0,
00:00:03.576,-0.00388525216840208,-0.00754389679059386,0.00177390710450709,0,
00:00:03.58,0.00609663128852844,0.00993152614682913,0.0125592770054936,0,
00:00:03.584,0.00373124866746366,0.0121589908376336,-0.00703049823641777,0,
00:00:03.588,-0.00281288125552237,0.00403774762526155,-0.00493946019560099,0,
00:00:03.592,-0.0011248515220359,-0.00328336516395211,-0.0104095824062824,0,
00:00:03.596,-0.00746142584830523,-0.0101079642772675,-0.00692558847367764,0,
00:00:03.6,0.00277756294235587,-0.00479653710499406,0.0207288507372141,0,
00:00:03.604,0.00854326784610748,0.00153921102173626,0.0124336220324039,0,
00:00:03.608,-0.00368458544835448,0.0107379266992211,-0.018833028152585,0,
00:00:03.612,-0.00352031388320029,0.000132399523863569,-0.0132098020985723,0,
00:00:03.616,0.005894067697227,-0.00313934194855392,0.00632336549460888,0,
00:00:03.62,-0.00620870804414153,-0.0088542653247714,0.00430315174162388,0,
00:00:03.624,0.00114239705726504,0.00916816014796495,0.00591857871040702,0,
00:00:03.628,0.000168483224115334,0.00147719169035554,0.00880945473909378,0,
00:00:03.632,0.00298589235171676,-0.00169243570417166,-0.00900323782116175,0,
00:00:03.636,0.00336584192700684,-0.00407531578093767,-0.00776944542303681,0,
00:00:03.64,-0.00277496408671141,-0.00113064900506288,-0.00152247061487287,0,
00:00:03.644,-0.00334194675087929,0.00574687635526061,0.00506228348240256,0,
00:00:03.648,-0.001570132561028,0.00258533679880202,0.00620426889508963,0,
00:00:03.652,0.000324438500683755,-0.0056367483921349,-0.000934563868213445,0,
00:00:03.656,-0.00076881778659299,-0.00335933361202478,-0.0112556573003531,0,
00:00:03.66,0.00534226698800921,0.00269077927805483,0.0139897977933288,0,
00:00:03.664,0.000365000334568322,0.00487231509760022,-0.00197980063967407,0,
00:00:03.668,-0.0035085822455585,-0.00308897881768644,-0.00321717793121934,0,
00:00:03.672,0.000573587021790445,-0.000298797094728798,-0.00504581164568663,0,
00:00:03.676,0.00306754722259939,-0.00184374616947025,-0.00572594488039613,0,
00:00:03.68,-0.00171775463968515,0.00201818905770779,0.0036108794156462,0,
00:00:03.684,-0.00618181517347693,-0.000600318133365363,0.0123422872275114,0,
00:00:03.688,0.0032044779509306,0.00818042457103729,0.00443674065172672,0,
00:00:03.692,-0.000404600723413751,-0.00522506330162287,-0.0142159182578325,0,
00:00:03.696,0.0135679114609957,-0.0119745936244726,-0.00735192559659481,0,
00:00:03.7,-0.00550507148727775,0.00610495125874877,0.0171208307147026,0,
00:00:03.704,-0.00794337131083012,0.00863668508827686,0.00161529984325171,0,
00:00:03.708,-0.00791732594370842,-0.00638559041544795,-0.00927102938294411,0,
00:00:03.712,0.00477283773943782,0.000200025053345598,-0.00760163646191359,0,
00:00:03.716,0.00848947465419769,-0.00055761553812772,0.0046650473959744,0,
00:00:03.72,-0.000701150740496814,0.00273465318605304,0.0160897187888622,0,
00:00:03.724,0.0022354512475431,0.00555024528875947,-0.0114976288750768,0,
00:00:03.728,-0.00679754884913564,-0.00658487062901258,-0.0132461311295629,0,
00:00:03.732,0.00312578375451267,-0.00281563005410135,0.0122451428323984,0,
00:00:03.736,6.10336610407103E-06,-0.00418742839246988,0.00515203597024083,0,
00:00:03.74,-0.00305444234982133,0.00525561301037669,0.00405954662710428,0,
00:00:03.744,0.00122445879969746,0.00676305638626218,-0.0106058409437537,0,
00:00:03.748,0.00565119413658977,0.00334383104927838,-0.0018736970378086,0,
00:00:03.752,-0.00552471447736025,-0.00924612861126661,0.0036630833055824,0,
00:00:03.756,-0.00583435082808137,-0.0142713822424412,0.00834873132407665,0,
00:00:03.76,0.00456054927781224,0.0123553238809109,-0.0146239455789328,0,
00:00:03.764,0.00671739922836423,0.0107060736045241,-0.000703719910234213,0,
00:00:03.768,-0.000552978541236371,0.00168012373615056,0.0066333431750536,0,
00:00:03.772,-0.00294076115824282,-0.00888173002749681,-0.00388525915332139,0,
00:00:03.776,-0.00450150668621063,-0.00415891781449318,0.00195713015273213,0,
00:00:03.78,0.00733284372836351,0.00151661061681807,0.0122960908338428,0,
00:00:03.784,-0.00382614112459123,0.00152001192327589,0.00521449232473969,0,
00:00:03.788,-0.00787165388464928,-0.00591579871252179,-0.016149815171957,0,
00:00:03.792,0.00348028820008039,0.00342311733402312,-0.00426102196797729,0,
00:00:03.796,0.00521290488541126,0.00229090033099055,-0.00350802601315081,0,
00:00:03.8,0.000688655069097877,0.00186222593765706,0.0060211755335331,0,
00:00:03.804,0.00387236569076777,0.0051283878274262,0.00305694341659546,0,
00:00:03.808,-0.00424618180841208,0.000113756716018543,-0.00701161334291101,0,
00:00:03.812,-0.00559863355010748,-0.00805696099996567,0.00801393948495388,0,
00:00:03.816,0.00551889557391405,-0.00879435706883669,0.0143223665654659,0,
00:00:03.82,0.00740516372025013,0.00869325641542673,-0.00791704282164574,0,
00:00:03.824,-0.0071204979903996,0.00900345668196678,-0.00634132092818618,0,
00:00:03.828,-0.00863842107355595,-0.00338859064504504,-0.0110905021429062,0,
00:00:03.832,0.000486897362861782,-0.00726049160584807,-0.00666428543627262,0,
00:00:03.836,0.00205787923187017,-0.00688292644917965,0.0090833967551589,0,
00:00:03.84,0.00372451450675726,0.00789104774594307,0.0105832694098353,0,
00:00:03.844,0.0115849263966084,0.0153030510991812,0.0219528470188379,0,
00:00:03.848,-0.00441678008064628,-0.00629835482686758,-0.0205095205456018,0,
00:00:03.852,-0.0132105769589543,-0.0173996016383171,-0.0130859771743417,0,
00:00:03.856,0.00417880620807409,-0.000651735812425613,0.00807004887610674,0,
00:00:03.86,0.00300016161054373,0.0133892251178622,-0.00113960425369442,0,
00:00:03.864,0.00322463060729206,0.0137662263587117,-0.00812970474362373,0,
00:00:03.868,-0.004289994481951,-0.0112864058464766,-0.00236488040536642,0,
00:00:03.872,-0.00255060335621238,-0.0109262317419052,0.0144019639119506,0,
00:00:03.876,0.000653063878417015,-0.00711641320958734,0.0048119924031198,0,
00:00:03.88,0.0105572333559394,0.00943333096802235,0.00953681766986847,0,
00:00:03.884,-0.00799334421753883,0.0108367167413235,-0.013035667128861,0,
00:00:03.888,0.000317419151542708,0.00277009047567844,-0.00918585620820522,0,
00:00:03.892,-0.0055142855271697,-0.0121939014643431,-0.000433694600360468,0,
00:00:03.896,0.00746058952063322,0.00206641317345202,-0.00372856226749718,0,
00:00:03.9,-0.000245841394644231,0.000446687918156385,0.00637238845229149,0,
00:00:03.904,-0.00614610454067588,-0.00241776159964502,0.00626018177717924,0,
00:00:03.908,0.00272984663024545,0.00367465172894299,0.0003022643213626,0,
00:00:03.912,0.0032821602653712,-0.00247292290441692,0.00702091446146369,0,
00:00:03.916,0.00314612267538905,-0.0013293381780386,-0.0091011431068182,0,
00:00:03.92,-0.00288260960951447,0.00502515211701393,-0.00932801887392998,0,
00:00:03.924,-0.00326324137859046,0.00409571826457977,-0.00104302947875112,0,
00:00:03.928,0.000654196774121374,-0.00780743639916182,0.0132253980264068,0,
00:00:03.932,-0.00569840800017118,-0.00697454111650586,7.81268026912585E-05,0,
00:00:03.936,0.00155505223665386,0.00056016823509708,0.00942637678235769,0,
00:00:03.94,0.00424328399822116,0.0073448782786727,-0.00978934206068516,0,
00:00:03.944,0.00335882091894746,0.00958443153649569,-0.0162606257945299,0,
00:00:03.948,0.0134867588058114,0.00538594042882323,0.000390090892324224,0,
00:00:03.952,-0.0128087149932981,-0.0154772326350212,0.00108900503255427,0,
00:00:03.956,-0.0137194506824017,-0.0122575908899307,0.0170634910464287,0,
00:00:03.96,0.00559834158048034,0.0105010084807873,0.00840835087001324,0,
00:00:03.964,0.00625588744878769,0.0105090402066708,-0.00925139710307121,0,
00:00:03.968,-0.00239284452982247,-0.00329093961045146,-0.0108502395451069,0,
00:00:03.972,-0.0102365417405963,-0.0224933885037899,0.00329717248678207,0,
00:00:03.976,0.00835408829152584,0.00834137480705976,0.00801294762641191,0,
00:00:03.98,0.0083605945110321,0.0171915926039219,-0.00315777445212007,0,
00:00:03.984,0.0064996499568224,0.0109888948500156,-0.0109905563294888,0,
00:00:03.988,-0.00665472447872162,-0.00796818360686302,0.00159310037270188,0,
00:00:03.992,-0.00978197623044252,-0.0159050654619932,0.00337338936515152,0,
00:00:03.996,-0.00379611738026142,-0.0136455995962024,0.00201959093101323,0,
00:00:04,0.00625333515927196,0.0102667324244976,0.0130722895264626,0,
00:00:04.004,0.000568744377233088,0.014009291306138,-0.00149788556154817,0,
00:00:04.008,0.00249603297561407,0.00120496831368655,-0.00940238032490015,0,
00:00:04.012,0.00115497154183686,-0.0010492178844288,-0.0086144432425499,0,
00:00:04.016,0.00154180510435253,-0.00306212552823126,-0.00529776746407151,0,
00:00:04.02,-0.00539400102570653,-0.00524194678291678,0.00408182246610522,0,
00:00:04.024,0.00329253706149757,0.00430148048326373,0.0354499444365501,0,
00:00:04.028,-0.00717606674879789,-0.00454989355057478,-0.0209443792700768,0,
00:00:04.032,0.00179806409869343,-0.00433443207293749,-0.0129678547382355,0,
00:00:04.036,0.00565596204251051,0.00563299469649792,0.00392347248271108,0,
00:00:04.04,0.000149810293805785,0.00294057256542146,0.000486135366372764,0,
00:00:04.044,-0.00153103307820857,0.00531106488779187,-0.00324009661562741,0,
00:00:04.048,0.000776602129917592,0.00628993660211563,0.00139670306816697,0,
00:00:04.052,-0.00244428077712655,-0.0160963051021099,0.0149196302518249,0,
00:00:04.056,-0.00557907624170184,-0.0138027928769588,0.00463187322020531,0,
00:00:04.06,0.00426184153184295,0.00559450499713421,-0.0143955824896693,0,
00:00:04.064,0.00246017170138657,0.0213831085711718,-0.0161500610411167,0,
00:00:04.068,0.00144969637040049,0.00405908795073628,0.0137734301388264,0,
00:00:04.072,0.00873507466167212,-0.0144946631044149,0.012872289866209,0,
00:00:04.076,-0.00624699285253882,-0.00249043363146484,-0.0118167866021395,0,
00:00:04.08,-0.00939208175987005,0.00327290198765695,-0.00594899384304881,0,
00:00:04.084,0.000986483995802701,-0.00266044749878347,0.00330574135296047,0,
00:00:04.088,-0.00124968716409057,0.00301288114860654,0.00678727636113763,0,
00:00:04.092,0.00362758245319128,-0.00264590349979699,-0.00151147192809731,0,
00:00:04.096,0.00343787856400013,-0.0031026559881866,-0.00184798880945891,0,
00:00:04.1,0.00340475793927908,0.00537701090797782,0.00594951119273901,0,
00:00:04.104,-0.00050618126988411,0.0101101109758019,-0.00516786053776741,0,
00:00:04.108,-0.00717122247442603,-0.00580348819494247,-0.00618421472609043,0,
00:00:04.112,-0.0053185629658401,-0.0113622872158885,0.00797619856894016,0,
00:00:04.116,0.00562050007283688,-0.00330738397315145,6.78467913530767E-05,0,
00:00:04.12,0.00746114132925868,0.00827988237142563,-0.0104066217318177,0,
00:00:04.124,-0.0045128776691854,0.0045469612814486,0.0125985471531749,0,
00:00:04.128,0.00286987656727433,0.00335146812722087,0.00868808571249247,0,
00:00:04.132,-0.0014696205034852,-0.000822707486804575,-0.0197860263288021,0,
00:00:04.136,-0.000354926189174876,0.00083684764103964,0.000363927450962365,0,
00:00:04.14,-0.00348365749232471,-0.00927743874490261,0.0132650919258595,0,
00:00:04.144,-0.00385844637639821,-0.0050239572301507,-0.0150329228490591,0,
00:00:04.148,0.000504120485857129,0.00133178348187357,0.00786298792809248,0,
00:00:04.152,0.00546005368232727,0.00461183534935117,-0.00192091369535774,0,
00:00:04.156,0.00769559247419238,0.00428471527993679,-0.000789147743489593,0,
00:00:04.16,-0.00584478862583637,0.00613793591037393,0.00175016827415675,0,
00:00:04.164,-0.00325826718471944,-0.00226439512334764,0.00250007351860404,0,
00:00:04.168,-0.007213253993541,-0.00489477626979351,0.00153318955563009,0,
00:00:04.172,0.0126240188255906,-0.00369333196431398,0.0103881964460015,0,
00:00:04.176,-0.00207532639615238,-0.00735761551186442,-0.0109556838870049,0,
00:00:04.18,0.00257154507562518,0.00895713176578283,-0.00749150244519114,0,
00:00:04.184,-0.00291634839959443,0.00682005286216736,-0.00177174515556544,0,
00:00:04.188,-0.00984466727823019,0.000505611824337393,0.00645575765520334,0,
00:00:04.192,-5.44388967682607E-05,-0.0139270089566708,-0.00246234214864671,0,
00:00:04.196,0.00917242560535669,0.00375847634859383,-0.000727530336007476,0,
00:00:04.2,0.00534284114837646,0.0100133735686541,0.00625360570847988,0,
00:00:04.204,-0.0067714168690145,-0.00567771354690194,0.000994175905361772,0,
00:00:04.208,0.00215515703894198,0.00168715231120586,-0.00765056302770972,0,
00:00:04.212,-0.00297484686598182,-0.00365632795728743,0.0144715793430805,0,
00:00:04.216,0.00261724414303899,-0.00182755605783314,-0.00820588693022728,0,
00:00:04.22,-0.0052638933993876,-0.0011689830571413,-0.0142912082374096,0,
00:00:04.224,0.00461921188980341,0.00619152467697859,0.00647314079105854,0,
00:00:04.228,0.00499026151373982,0.00973566062748432,0.0250273123383522,0,
00:00:04.232,-0.00482467329129577,-0.00874122884124517,-0.0101975938305259,0,
00:00:04.236,-0.00853908061981201,-0.0142318224534392,-0.0247486680746078,0,
00:00:04.24,0.000918263918720186,0.00620402349159122,0.00134717870969325,0,
00:00:04.244,0.0111002055928111,0.0141925327479839,0.0142330983653665,0,
00:00:04.248,0.000469898979645222,-0.0027179648168385,0.0024249313864857,0,
00:00:04.252,-0.00518406415358186,-0.0104482779279351,-0.00032785240910016,0,
00:00:04.256,-0.000844356080051512,-0.00403265655040741,0.00166981411166489,0,
00:00:04.26,0.000497005297802389,0.00906326994299889,-0.0021799283567816,0,
00:00:04.264,0.000530870165675879,0.00572051806375384,0.00433804420754313,0,
00:00:04.268,-0.00188174238428473,-0.00260263541713357,-0.00858288910239935,0,
00:00:04.272,0.00189510150812566,-0.0123962666839361,0.00364025798626244,0,
00:00:04.276,0.00562183139845729,0.00551713118329644,-0.00626663584262133,0,
00:00:04.28,-0.0018200158374384,0.0126608237624168,0.00638452544808388,0,
00:00:04.284,-0.00612438796088099,-0.00188674416858703,-0.000462604191852733,0,
00:00:04.288,-0.00919544883072376,-0.01293102838099,0.00474443705752492,0,
00:00:04.292,0.00896157789975405,-0.00552992103621364,-0.0126697169616818,0,
00:00:04.296,0.00998279452323914,0.00519371125847101,-0.000605242210440338,0,
00:00:04.3,-0.00452080415561795,0.0109543958678842,0.00511048408225179,0,
00:00:04.304,-0.00489334110170603,-0.000129738182295114,0.0114238718524575,0,
00:00:04.308,0.000782168528530747,0.00303256651386619,-0.00349904294125736,0,
00:00:04.312,0.00368709675967693,-0.00641970941796899,0.0028557397890836,0,
00:00:04.316,-0.00334873981773853,-0.0140520939603448,-0.010576986707747,0,
00:00:04.32,6.06541070737876E-05,0.00618717446923256,-0.00418246351182461,0,
00:00:04.324,0.00284650083631277,0.0123745575547218,-0.00299783237278461,0,
00:00:04.328,-0.00153822137508541,0.00172718230169266,0.00951679330319166,0,
00:00:04.332,0.000398012809455395,-0.00633450923487544,0.0189842153340578,0,
00:00:04.336,-0.00658708903938532,-0.0135164000093937,-0.0198754146695137,0,
00:00:04.34,-0.00127395067829639,0.00445960927754641,-0.00763886468484998,0,
00:00:04.344,0.0100364284589887,0.0122393034398556,-0.00488014239817858,0,
00:00:04.348,0.00524382200092077,0.00711564486846328,0.0130066564306617,0,
00:00:04.352,-0.00164558994583786,-0.0110004181042314,0.00736184325069189,0,
00:00:04.356,-0.0112354969605803,-0.00796739850193262,0.00284242071211338,0,
00:00:04.36,-0.00267207948490977,0.00166857917793095,-0.00314432801678777,0,
00:00:04.364,0.00909025780856609,0.0106237698346376,-0.0076284809038043,0,
00:00:04.368,0.000436967413406819,0.00144836341496557,-0.00858035311102867,0,
00:00:04.372,-0.0040037902072072,-0.0100936125963926,0.00401843478903174,0,
00:00:04.376,0.00260985922068357,-0.00279585714451969,0.0081008318811655,0,
00:00:04.38,0.00148613576311618,0.0105217844247818,-0.000668039137963206,0,
00:00:04.384,-0.00702865468338132,-0.00421980815008283,0.000440325500676408,0,
00:00:04.388,0.00204091519117355,-0.00189602305181324,0.00794161111116409,0,
00:00:04.392,0.00549034075811505,-0.00204145582392812,-0.00896643195301294,0,
00:00:04.396,-0.00235929782502353,-0.00122534262482077,-0.00765168620273471,0,
00:00:04.4,0.00625964673236012,0.0107009820640087,-0.0137613769620657,0,
00:00:04.404,-0.00994203705340624,-0.00415613083168864,0.0255855191498995,0,
00:00:04.408,-0.00332642788998783,-0.00192711025010794,0.00652351789176464,0,
00:00:04.412,0.00425105541944504,0.0039383303374052,-0.00615613488480449,0,
00:00:04.416,0.00415530661121011,-0.00549913570284843,-0.00486965663731098,0,
00:00:04.42,0.00146439950913191,-0.00287228939123452,-0.00728045636788011,0,
00:00:04.424,0.00118648703210056,0.0117314774543047,-0.00124131480697542,0,
00:00:04.428,-0.00380255980417132,0.00166591664310545,-0.00251213251613081,0,
00:00:04.432,-0.00107264856342226,-0.00933877844363451,0.0211460366845131,0,
00:00:04.436,-0.00691286567598581,-0.0147161455824971,0.00433830684050918,0,
00:00:04.44,0.0033658160828054,0.00549623975530267,-0.0111042382195592,0,
00:00:04.444,0.00475751981139183,0.0142298145219684,-0.0097082331776619,0,
00:00:04.448,0.0045058517716825,0.00666484143584967,-0.000900509592611343,0,
00:00:04.452,-0.0042918473482132,-0.00631773145869374,-0.00567846558988094,0,
00:00:04.456,-0.0034320515114814,-0.00857885181903839,0.0108780488371849,0,
00:00:04.46,0.00377355120144784,0.00155563687440008,0.00840548984706402,0,
00:00:04.464,-0.00443107960745692,0.00693874945864081,0.0032371508423239,0,
00:00:04.468,0.00468668434768915,-0.000759704096708447,-0.0120456637814641,0,
00:00:04.472,0.00663533341139555,-0.00783744268119335,-0.0047342530451715,0,
00:00:04.476,-0.00938294269144535,-0.00527909817174077,0.00353504670783877,0,
00:00:04.48,-0.00643249927088618,0.00626464933156967,0.00195781234651804,0,
00:00:04.484,0.00037655551568605,0.00406847381964326,0.00991194695234299,0,
00:00:04.488,0.00647906493395567,0.00615184241905808,-0.011049616150558,0,
00:00:04.492,0.00462909694761038,-0.00174966605845839,0.0016923111397773,0,
00:00:04.496,0.00491817854344845,-0.00840441975742579,0.010557446628809,0,
00:00:04.5,-0.00588621757924557,0.000663546728901565,-0.0142755080014467,0,
00:00:04.504,-0.00796780735254288,0.0063561387360096,-0.00439168233424425,0,
00:00:04.508,-0.00224144896492362,-0.00492668524384499,0.000424891855800524,0,
00:00:04.512,0.00690616061910987,-0.00149053824134171,0.00470206327736378,0,
00:00:04.516,0.000360903039108962,-0.00569963129237294,0.00936848390847445,0,
00:00:04.52,-0.000230309058679268,0.00506035890430212,-0.00516532408073545,0,
00:00:04.524,0.00871390290558338,0.0161940474063158,0.00484868744388223,0,
00:00:04.528,-0.00518690841272473,-0.005320995580405,0.00747453467920423,0,
00:00:04.532,-0.00406812643632293,-0.0069545884616673,-0.0113493297249079,0,
00:00:04.536,-0.00438620243221521,-0.0111231105402112,-0.00763106113299727,0,
00:00:04.54,-0.00462217582389712,-0.00381678715348244,-0.00612473813816905,0,
00:00:04.544,0.0044134734198451,0.0141545636579394,0.00202337466180325,0,
00:00:04.548,0.0125815691426396,0.0116302203387022,0.0109487660229206,0,
00:00:04.552,-0.00200188648886979,-0.00584387639537454,0.00245871907100081,0,
00:00:04.556,-0.0045292591676116,-0.0135101275518537,0.00179128546733409,0,
00:00:04.56,0.0015967080835253,0.00900717824697495,-0.000861979380715638,0,
00:00:04.564,0.00423794845119119,0.00816814135760069,0.00579612050205469,0,
00:00:04.568,-0.0141463065519929,-0.0138106122612953,-0.0145227862522006,0,
00:00:04.572,-0.00172439287416637,-0.00544603634625673,-0.00812146160751581,0,
00:00:04.576,0.00902167335152626,0.00495510501787066,0.00853318255394697,0,
00:00:04.58,0.00795344077050686,0.0124504426494241,0.00785619486123323,0,
00:00:04.584,-0.00603797985240817,0.00355567666701972,-0.00406589033082128,0,
00:00:04.588,-0.00312447384931147,-0.0048260660842061,-0.00467293336987495,0,
00:00:04.592,-0.000623281172011048,-0.0218757130205631,0.025773411616683,0,
00:00:04.596,-0.0012937868013978,0.000509359233547002,-0.0175432339310646,0,
00:00:04.6,0.000999695854261518,0.0163316242396832,-0.015948947519064,0,
00:00:04.604,0.00850596372038126,0.00980721414089203,0.00381637783721089,0,
00:00:04.608,-0.00195412896573544,-0.00255959248170257,0.00554114440456033,0,
00:00:04.612,-0.00626174174249172,-0.00851861946284771,0.000379852135665715,0,
00:00:04.616,-0.000627888017334044,-0.00306071946397424,0.00396186206489801,0,
00:00:04.62,-0.000705556012690067,-0.00217735976912081,0.00709736300632358,0,
00:00:04.624,0.00752374157309532,0.00937929749488831,-0.0035700483713299,0,
00:00:04.628,0.000438103772467002,0.00326762418262661,-0.00488011166453362,0,
00:00:04.632,-0.00720174517482519,-0.0201850067824125,0.0119893290102482,0,
00:00:04.636,-0.00335178780369461,-0.00237563857808709,-0.0116965332999825,0,
00:00:04.64,0.00367456465028226,0.0128740603104234,-0.0120251448825002,0,
00:00:04.644,0.00385605171322823,0.018674299120903,0.00278224912472069,0,
00:00:04.648,0.00360827404074371,0.00080980098573491,-0.00156573369167745,0,
00:00:04.652,-0.00469747791066766,-0.018197700381279,0.0107848448678851,0,
00:00:04.656,-0.00335579854436219,-0.0154724037274718,0.0100537724792957,0,
00:00:04.66,0.00201745750382543,0.0145277045667171,-0.00293651758693159,0,
00:00:04.664,0.00616257730871439,0.00862182769924402,0.000718868512194604,0,
00:00:04.668,-0.00347837596200407,-0.00842705368995667,-0.00535473879426718,0,
00:00:04.672,-0.00607590191066265,-0.00105499941855669,-0.0179899390786886,0,
00:00:04.676,0.000592543103266507,0.00158657727297395,0.00302185234613717,0,
00:00:04.68,0.00679537886753678,-0.000460193085018545,0.0350391417741776,0,
00:00:04.684,-0.00599817093461752,0.00679831439629197,-0.0218906179070473,0,
00:00:04.688,0.00137081230059266,-0.00252848514355719,-0.0153833366930485,0,
00:00:04.692,0.00248802173882723,-0.00789047032594681,0.01714276522398,0,
00:00:04.696,0.00528679927811027,0.00217711995355785,0.00641763117164373,0,
00:00:04.7,-0.00434520794078708,0.00366388238035142,-0.0109751848503947,0,
00:00:04.704,-0.00856851600110531,0.00180598313454539,-0.0084836408495903,0,
00:00:04.708,0.00256333569996059,0.00384532893076539,0.00975169241428375,0,
00:00:04.712,0.00655716052278876,-0.00532407779246569,0.00541006354615092,0,
00:00:04.716,-0.00364896981045604,-0.0170574765652418,0.00453494023531675,0,
00:00:04.72,0.00226456788368523,0.0108487671241164,-0.00853382330387831,0,
00:00:04.724,0.00369771383702755,0.0178299508988857,-5.05084281030577E-05,0,
00:00:04.728,-0.00239080190658569,0.00182052480522543,-0.0126867704093456,0,
00:00:04.732,-0.00322797615081072,-0.0142235867679119,4.36194677604362E-05,0,
00:00:04.736,-0.00376534601673484,-0.0137389069423079,0.0369945652782917,0,
00:00:04.74,0.00210208771750331,0.00958536192774773,-0.017252042889595,0,
00:00:04.744,0.00902999192476273,0.00866053998470306,-0.0208149086683989,0,
00:00:04.748,-0.00865350104868412,-0.00879087671637535,-0.00060432415921241,0,
00:00:04.752,-0.0010798170696944,0.000260433444054797,0.0166527684777975,0,
00:00:04.756,-0.000243174668867141,0.00355650833807886,-0.00369953247718513,0,
00:00:04.76,0.00598543277010322,0.00708983140066266,0.00345895788632333,0,
00:00:04.764,0.000548333511687815,0.00310647208243608,0.00209906999953091,0,
00:00:04.768,-0.0016456397715956,-0.0101735489442945,0.00114467437379062,0,
00:00:04.772,-0.00174134958069772,-0.00695139821618795,-0.00663082767277956,0,
00:00:04.776,-0.00297096371650696,-0.000232018734095618,2.65785929514095E-05,0,
00:00:04.78,0.00406478578224778,0.00603424618020654,-0.00164422031957656,0,
00:00:04.784,0.000197683504666202,0.00868845637887716,-0.00668014213442802,0,
00:00:04.788,-0.00502526992931962,0.0011900874087587,0.0047691403888166,0,
00:00:04.792,0.00952008180320263,-0.0108882989734411,0.0124793499708176,0,
00:00:04.796,-0.00276091997511685,-0.0101887006312609,0.00346548669040203,0,
00:00:04.8,-0.00846538972109556,0.00519783888012171,-0.00712283235043287,0,
00:00:04.804,6.74564216751605E-06,0.0124333603307605,-0.0118367187678814,0,
00:00:04.808,0.0101156067103148,0.00728107849135995,-0.0017561794957146,0,
00:00:04.812,-8.22259389678948E-05,-0.00880374759435654,-0.0044324160553515,0,
00:00:04.816,-0.00522452453151345,-0.0099451569840312,0.0169682838022709,0,
00:00:04.82,-0.000560700602363795,0.00405434193089604,0.00159027252811939,0,
00:00:04.824,0.000850211945362389,0.00424409937113523,0.00613275775685906,0,
00:00:04.828,0.00284877046942711,-0.00124428258277476,0.00688745826482773,0,
00:00:04.832,-0.00378436665050685,-0.00380785926245153,-0.0251622330397367,0,
00:00:04.836,-0.0018807293381542,-0.00272142351604998,-0.0160469319671392,0,
00:00:04.84,0.00523455161601305,0.00820938870310783,0.0118271065875888,0,
00:00:04.844,0.000471262028440833,0.00448231585323811,0.0269593726843596,0,
00:00:04.848,0.000730078318156302,-0.00133896979968995,-0.0131659731268883,0,
00:00:04.852,-0.00540799647569656,-0.00629227189347148,-0.000906249333638698,0,
00:00:04.856,-0.00443979632109404,-0.0100726177915931,-0.00788948405534029,0,
00:00:04.86,0.00967822037637234,0.00800043810158968,0.00694498373195529,0,
00:00:04.864,0.000840822991449386,0.00943485368043184,0.000720508222002536,0,
00:00:04.868,-0.00225837738253176,-0.000385654828278348,0.00546458084136248,0,
00:00:04.872,-0.00424474198371172,-0.00850494019687176,-0.0106456158682704,0,
00:00:04.876,0.00107533775735646,-0.00623091962188482,-0.00316085945814848,0,
00:00:04.88,0.00399129698053002,0.00758409313857555,0.0110857449471951,0,
00:00:04.884,-0.0030560006853193,-0.000350385118508711,0.00079845474101603,0,
00:00:04.888,-0.00183177250437438,0.00646797381341457,-0.00532291736453772,0,
00:00:04.892,0.00693343440070748,-0.000108909523987677,0.0153981558978558,0,
00:00:04.896,-0.00194680877029896,-0.00302964635193348,-0.0196874774992466,0,
00:00:04.9,-0.00533389067277312,-0.0050499439239502,-0.0127602200955153,0,
00:00:04.904,0.00247745588421822,0.0046776570379734,0.00211340258829296,0,
00:00:04.908,7.75119769969024E-06,-0.00215559103526175,0.014550325460732,0,
00:00:04.912,-0.00223681796342134,-0.00620417715981603,0.00814183335751295,0,
00:00:04.916,0.00427200831472874,0.00388961797580123,-0.000559665844775736,0,
00:00:04.92,0.00217143236659467,0.00878854189068079,0.00326765445061028,0,
00:00:04.924,-0.00517137022688985,-0.00203510490246117,-0.00650328909978271,0,
00:00:04.928,-0.00265206582844257,-0.00611604657024145,-0.00631919223815203,0,
00:00:04.932,0.00730433221906424,0.00173602730501443,0.00166390382219106,0,
00:00:04.936,-0.00109176791738719,0.00169198820367455,0.00330087030306458,0,
00:00:04.94,-0.00462882034480572,-0.00840054638683796,0.00168468023184687,0,
00:00:04.944,0.000669358356390148,0.00882492586970329,-0.0150250447914004,0,
00:00:04.948,0.00185298302676529,0.00143173907417804,0.00377184129320085,0,
00:00:04.952,-0.00091518322005868,-0.00766190188005567,0.00307015562430024,0,
00:00:04.956,0.00414892472326756,0.00421006651595235,0.0060459510423243,0,
00:00:04.96,0.00116701517254114,0.00816318020224571,0.00543233565986156,0,
00:00:04.964,-0.00413522077724338,-0.00136769539676607,-0.00640536285936832,0,
00:00:04.968,-0.0031016010325402,-0.00730601977556944,-0.00219335849396884,0,
00:00:04.972,0.0016296727117151,-0.002462238073349,0.00245566363446414,0,
00:00:04.976,-0.00679321773350239,-0.0082630468532443,-0.00496040098369122,0,
00:00:04.98,0.0019588100258261,0.00905764754861593,0.00312564428895712,0,
00:00:04.984,0.0223591718822718,0.0120501117780805,0.0177487842738628,0,
00:00:04.988,-0.0131558943539858,-0.00644308794289827,-0.025499327108264,0,
00:00:04.992,-0.00342868594452739,-0.0106103233993053,0.0219656657427549,0,
00:00:04.996,-0.00499601056799293,0.000444206700194627,-0.0108092483133078,0,
00:00:05,0.00152515154331923,0.0158995352685452,-0.0226131305098534,0,
00:00:05.004,0.0051479903049767,0.00146330613642931,0.0107385227456689,0,
00:00:05.008,-0.00610037194564939,-0.0120866904035211,0.000400734454160556,0,
00:00:05.012,0.00685889134183526,-0.00261679338291287,0.0104399155825377,0,
00:00:05.016,5.15382052981295E-05,-0.000654084549751133,0.000890267023351043,0,
00:00:05.02,0.000703915546182543,0.0062846289947629,0.0105559462681413,0,
00:00:05.024,0.00128960772417486,0.00531906727701426,-0.00303779426030815,0,
00:00:05.028,-0.00574503419920802,-0.00292237056419253,-0.0118120899423957,0,
00:00:05.032,-0.00114461523480713,-0.0107792755588889,-0.00423135561868548,0,
00:00:05.036,0.000849726318847388,-0.000908868387341499,0.00516938464716077,0,
00:00:05.04,0.00125953007955104,0.0108528379350901,0.00123683887068182,0,
00:00:05.044,0.00295169861055911,0.00755240255966783,-0.00251538213342428,0,
00:00:05.048,-0.00376107590273023,-0.0121131306514144,0.0013229928445071,0,
00:00:05.052,0.00018772816110868,-0.00312586920335889,-0.00274904887191951,0,
00:00:05.056,0.00115218921564519,-0.000370830326573923,0.00225586909800768,0,
00:00:05.06,-0.00131711480207741,0.00282839010469615,0.00689890002831817,0,
00:00:05.064,-0.00210212985984981,0.00770169077441096,-0.000651453156024218,0,
00:00:05.068,0.00522398948669434,-0.0017663991311565,0.000541029556188732,0,
00:00:05.072,-0.00114027690142393,-0.00308659090660512,-0.00712145958095789,0,
00:00:05.076,0.011480800807476,0.000508658355101943,0.00375560228712857,0,
00:00:05.08,-0.00530662946403027,0.000178946836967953,-0.0181215535849333,0,
00:00:05.084,-0.0149133270606399,0.00347458268515766,0.00221402524039149,0,
00:00:05.088,-0.00126261997502297,-0.00278672506101429,0.0210297126322985,0,
00:00:05.092,0.00468643009662628,-0.00788315571844578,0.00149224768392742,0,
00:00:05.096,0.00303091178648174,-0.00416861893609166,-0.00457177078351378,0,
00:00:05.1,0.00478031765669584,0.00956946611404419,-0.00425336789339781,0,
00:00:05.104,0.00389124220237136,0.011099711060524,0.004333371296525,0,
00:00:05.108,-0.00530646508559585,-0.00333928829059005,-0.00574540812522173,0,
00:00:05.112,-0.0043164724484086,-0.0150954518467188,-0.00586975878104568,0,
00:00:05.116,0.00334671954624355,-0.000740210118237883,0.0045846956782043,0,
00:00:05.12,-0.000237871179706417,0.00975725427269936,0.00475714774802327,0,
00:00:05.124,-0.00102669652551413,0.00790267437696457,-0.000459904404124245,0,
00:00:05.128,-0.00262952875345945,-0.00452592363581061,-0.00326774967834353,0,
00:00:05.132,0.00418094312772155,-0.00779085513204336,0.00765077071264386,0,
00:00:05.136,0.000180566348717548,-0.000648660236038268,-0.00420533679425716,0,
00:00:05.14,-0.000949662760831416,0.00221113977022469,-0.00444372976198792,0,
00:00:05.144,-0.00281181349419057,0.00852720066905022,-0.00116795510984957,0,
00:00:05.148,0.00180744321551174,-0.00269324192777276,0.00356986164115369,0,
00:00:05.152,0.00188694475218654,-0.0173308216035366,0.0127677600830793,0,
00:00:05.156,-0.00153873837552965,0.00490178586915135,-0.0118869058787823,0,
00:00:05.16,0.00138452567625791,0.0138209257274866,-0.0137808574363589,0,
00:00:05.164,0.00275693787261844,0.0102285565808415,0.00526019744575024,0,
00:00:05.168,-0.00458248658105731,-0.00876447279006243,0.00856805220246315,0,
00:00:05.172,0.0013519583735615,-0.0100170960649848,0.00694829970598221,0,
00:00:05.176,-0.0034221129026264,-0.00649652676656842,-0.012223431840539,0,
00:00:05.18,0.00108204619027674,0.00108887371607125,0.00969122443348169,0,
00:00:05.184,-0.000198391397134401,0.0116635486483574,0.00308139994740486,0,
00:00:05.188,0.000972433597780764,0.00566731998696923,-0.00541005469858646,0,
00:00:05.192,0.00573036540299654,-0.0102411834523082,-0.00756481615826488,0,
00:00:05.196,-0.00695691630244255,-0.00582709442824125,-0.00439670635387301,0,
00:00:05.2,0.00919485744088888,0.00774856889620423,0.00236355443485081,0,
00:00:05.204,0.000715206144377589,0.00746610062196851,0.0201873499900103,0,
00:00:05.208,-0.0112889809533954,0.00196309434249997,-0.0111126722767949,0,
00:00:05.212,-0.00387635384686291,-0.0153543390333652,-0.00146955635864288,0,
00:00:05.216,-0.00233005848713219,-0.00948811322450638,-0.0064987326040864,0,
00:00:05.22,0.0100456429645419,0.0135484226047993,0.0071022710762918,0,
00:00:05.224,0.00671620154753327,0.0101216621696949,-0.00222990475594997,0,
00:00:05.228,-0.00605717953294516,-0.00547057949006557,-0.0017821443034336,0,
00:00:05.232,-4.12300823882106E-06,-0.00761871132999659,0.00271777040325105,0,
00:00:05.236,0.00262510916218162,0.00268081366084516,-0.00420950353145599,0,
00:00:05.24,-0.00231469981372356,0.00975861120969057,0.0101802973076701,0,
00:00:05.244,-0.00670614093542099,-0.00679504917934537,-0.00224503851495683,0,
00:00:05.248,0.00503556896001101,-0.00180626264773309,-0.00624241540208459,0,
00:00:05.252,-0.00024848073371686,-0.00466019799932837,-0.00428383005782962,0,
00:00:05.256,0.00395624246448278,0.0037853226531297,0.0245344191789627,0,
00:00:05.26,0.000930015696212649,-0.000787832483183593,-0.01494334731251,0,
00:00:05.264,-0.00831480044871569,0.000460658455267549,-0.0139776784926653,0,
00:00:05.268,0.00306537770666182,0.00804585590958595,0.00204520765691996,0,
00:00:05.272,0.00104210572317243,-1.26884060591692E-05,0.00255561899393797,0,
00:00:05.276,-0.00183630269020796,-0.0102289943024516,0.00495381793007255,0,
00:00:05.28,0.0019641243852675,-0.000164451630553231,0.01303287781775,0,
00:00:05.284,-0.000486007193103433,0.00497866235673428,-0.00145488581620157,0,
00:00:05.288,0.006267627235502,0.00665080826729536,-0.00683816941455007,0,
00:00:05.292,-0.00524548720568419,-0.0109340995550156,-0.0100856814533472,0,
00:00:05.296,-0.00216956553049386,-0.00582019984722137,-0.00469221640378237,0,
00:00:05.3,-0.000193923158803955,0.00861290656030178,0.0141841741278768,0,
00:00:05.304,0.00282059866003692,0.0106280148029327,0.00372072425670922,0,
00:00:05.308,-0.00109930010512471,-0.0055100223980844,-0.00839130580425262,0,
00:00:05.312,-0.00523700285702944,-0.00882527884095907,-0.00402222666889429,0,
00:00:05.316,0.00183282955549657,-0.00697508547455072,0.0207140222191811,0,
00:00:05.32,0.00594090204685926,0.010786235332489,-0.00703578256070614,0,
00:00:05.324,0.000689190695993602,0.00800359714776278,-0.0234683323651552,0,
00:00:05.328,0.00297245755791664,0.000536246167030185,0.0210629403591156,0,
00:00:05.332,0.000923357321880758,-0.00843596085906029,-0.00281927268952131,0,
00:00:05.336,-0.0100536216050386,-0.00304693426005542,-0.0142615549266338,0,
00:00:05.34,-0.00552893849089742,0.000358447694452479,0.00385313248261809,0,
00:00:05.344,0.00337066315114498,0.00590213621035218,0.0125737329944968,0,
00:00:05.348,0.00287228566594422,-0.00437392760068178,0.00164441880770028,0,
00:00:05.352,0.00705224135890603,-0.000466295750811696,-0.00659376569092274,0,
00:00:05.356,-0.002009421819821,-0.000783133320510387,-0.0030529354698956,0,
00:00:05.36,-0.0028465879149735,0.00335823697969317,0.0179763082414865,0,
00:00:05.364,0.00716128014028072,0.0106082540005445,-0.00859749130904675,0,
00:00:05.368,-0.00542254094034433,-0.00991597212851048,-0.0086486553773284,0,
00:00:05.372,-0.011729272082448,-0.0122098559513688,-0.00609574886038899,0,
00:00:05.376,0.00439376849681139,0.00318637490272522,0.00265143369324505,0,
00:00:05.38,0.00673514511436224,0.00948043819516897,0.00894753634929657,0,
00:00:05.384,0.00346778891980648,0.00945488456636667,-0.0109437806531787,0,
00:00:05.388,-0.000318912963848561,-0.00437154760584235,0.0158751495182514,0,
00:00:05.392,-0.00442469166591764,-0.00691555812954903,-0.00502273440361023,0,
00:00:05.396,-0.000422358571086079,-0.00619219103828073,-0.00152529950719327,0,
00:00:05.4,0.00242644571699202,0.00576632283627987,-0.00284475740045309,0,
00:00:05.404,-0.00182340817991644,0.00592635571956635,-0.00488679157570004,0,
00:00:05.408,-0.00380031717941165,-0.0107183065265417,0.0154550960287452,0,
00:00:05.412,0.00375528121367097,0.00151770981028676,-0.00495781423524022,0,
00:00:05.416,-0.00158501416444778,-0.00440930109471083,-0.0109328599646688,0,
00:00:05.42,-0.000441891548689455,0.00806681346148252,0.00777571741491556,0,
00:00:05.424,0.00337701919488609,0.0127134611830115,-0.00513886287808418,0,
00:00:05.428,0.00599666265770793,-0.00284391851164401,0.00461495341733098,0,
00:00:05.432,-0.00652793003246188,-0.0119696231558919,0.0036080323625356,0,
00:00:05.436,-0.00510960398241878,-0.00624379049986601,0.00837661605328321,0,
00:00:05.44,-0.00665077799931169,-0.00502248154953122,-0.0163356903940439,0,
00:00:05.444,0.0168751571327448,0.0233573745936155,-0.00308313174173236,0,
00:00:05.448,0.00631389953196049,0.00189174374099821,0.000789542740676552,0,
00:00:05.452,-0.00814760196954012,-0.0131909269839525,0.00378992594778538,0,
00:00:05.456,-0.0100872199982405,-0.00741574680432677,0.00397204654291272,0,
00:00:05.46,-0.00501413969323039,0.00543316313996911,0.0042556282132864,0,
00:00:05.464,0.0114800315350294,0.0121414866298437,-0.00404014904052019,0,
00:00:05.468,0.00102148705627769,-0.00165622937493026,0.0114044118672609,0,
00:00:05.472,0.00118725944776088,-0.0122238732874393,-0.0162101592868567,0,
00:00:05.476,-0.000185582059202716,-0.00490124011412263,-0.0122636910527945,0,
00:00:05.48,0.00087229092605412,0.0116551611572504,0.00796269346028566,0,
00:00:05.484,-0.00330429221503437,0.0069488137960434,0.0164094958454371,0,
00:00:05.488,-0.00660083489492536,-0.00945767294615507,0.0073349573649466,0,
00:00:05.492,0.00780209386721253,0.000427167629823089,-0.0135800046846271,0,
00:00:05.496,0.00260523986071348,0.00351426564157009,-0.0170810408890247,0,
00:00:05.5,-0.00753553118556738,-0.00813057459890842,0.0122831100597978,0,
00:00:05.504,0.00127029453869909,0.00128605391364545,0.00766482902690768,0,
00:00:05.508,0.000885718443896621,0.00784789491444826,-0.0101958066225052,0,
00:00:05.512,0.00569020956754684,-0.00349639449268579,-0.000308391958242282,0,
00:00:05.516,-0.00251975329592824,-0.00708455918356776,0.0100719248875976,0,
00:00:05.52,0.00149039144162089,0.00827769376337528,-0.00646966602653265,0,
00:00:05.524,-0.00250108819454908,0.00962885096669197,0.000435233872849494,0,
00:00:05.528,-0.00436170492321253,-0.00683222245424986,0.00619809655472636,0,
00:00:05.532,-0.000754301901906729,-0.0118649937212467,0.00135457864962518,0,
00:00:05.536,0.0105623509734869,0.000950623012613505,-0.0157514996826649,0,
00:00:05.54,-0.00704343756660819,0.00473160902038217,0.0136235700920224,0,
00:00:05.544,-0.000684694503434002,0.00578472623601556,-0.00303657213225961,0,
00:00:05.548,0.00747903250157833,0.00336521095596254,-0.00437495298683643,0,
00:00:05.552,-0.00692709255963564,-0.00848704297095537,0.00521331932395697,0,
00:00:05.556,-0.00266308477148414,-0.00722499564290047,-0.00203947396948934,0,
00:00:05.56,-0.00128523411694914,0.00270300917327404,-0.00642384588718414,0,
00:00:05.564,0.00417040567845106,0.0138357691466808,-0.000595533812884241,0,
00:00:05.568,0.00143510475754738,-0.00400636857375503,0.0124807609245181,0,
00:00:05.572,0.00498262606561184,-0.00363767379894853,0.00322263897396624,0,
00:00:05.576,-0.00145911623258144,-0.00205747410655022,-0.00977838318794966,0,
00:00:05.58,-0.00328893470577896,-0.00039557131822221,0.00048470581532456,0,
00:00:05.584,-0.00241580745205283,0.00273622013628483,0.00119858200196177,0,
00:00:05.588,-0.000688801694195718,0.00105101859662682,-0.00443713320419192,0,
00:00:05.592,0.000657204887829721,-0.00500099128112197,-0.00340231508016586,0,
00:00:05.596,0.001157705206424,-0.00168361968826503,-0.00415038503706455,0,
00:00:05.6,0.00509173655882478,0.00829986855387688,0.0294233486056328,0,
00:00:05.604,-0.00770367216318846,-0.00263111875392497,-0.015118483453989,0,
00:00:05.608,-0.00150517816655338,0.00149863236583769,-0.0070041180588305,0,
00:00:05.612,0.0045579457655549,-0.00405042199417949,0.00800541881471872,0,
00:00:05.616,0.00541054410859942,-0.00175396958366036,0.01359455101192,0,
00:00:05.62,-0.00162667443510145,0.00538624497130513,-0.0194476656615734,0,
00:00:05.624,-0.00330527289770544,0.00466970028355718,-0.0182488653808832,0,
00:00:05.628,-0.00429284619167447,-0.00534549215808511,0.00386874913237989,0,
00:00:05.632,-0.000539519533049315,-0.00680176960304379,0.00792221631854773,0,
00:00:05.636,0.00858093798160553,-0.0011429637670517,0.022294020280242,0,
00:00:05.64,0.00111671548802406,0.0074645048007369,-0.00500957667827606,0,
00:00:05.644,-0.00714629096910357,0.00239837006665766,3.39790858561173E-05,0,
00:00:05.648,-0.00575850484892726,-0.000530728022567928,-0.00336421909742057,0,
00:00:05.652,0.00526162376627326,-0.00366495060734451,-0.00758187798783183,0,
00:00:05.656,0.0114936623722315,0.00266699027270079,-0.00657247984781861,0,
00:00:05.66,-0.00631811888888478,0.00110312143806368,0.00201594573445618,0,
00:00:05.664,-0.00432631839066744,-0.00337433372624218,0.00451785093173385,0,
00:00:05.668,-0.0034556002356112,-0.00222275871783495,-0.00275434134528041,0,
00:00:05.672,0.00273579428903759,-0.00197791284881532,0.00716195302084088,0,
00:00:05.676,0.00318801263347268,0.0055599445477128,0.0064066625200212,0,
00:00:05.68,0.00143323477823287,0.00128233444411308,-0.00281742797233164,0,
00:00:05.684,-0.000340174185112119,0.00151049660053104,0.00085026683518663,0,
00:00:05.688,-0.00120234512723982,-0.000884255045093596,-0.0139088407158852,0,
00:00:05.692,0.000941050704568625,-0.00432210275903344,-0.00404399260878563,0,
00:00:05.696,-0.00254012946970761,-0.00621175114065409,0.00799079425632954,0,
00:00:05.7,-0.00160503131337464,0.00680016726255417,0.000366994034266099,0,
00:00:05.704,-0.00186628242954612,0.0034227769356221,0.00545956147834659,0,
00:00:05.708,0.0053249429911375,0.00265024276450276,0.00691334810107946,0,
00:00:05.712,0.000968844629824162,-0.00303970673121512,-0.00911383703351021,0,
00:00:05.716,-0.00492017017677426,-0.0072492528706789,-0.00849617272615433,0,
00:00:05.72,0.00707980571314693,0.00482677761465311,0.0102999210357666,0,
00:00:05.724,-0.00128835102077574,0.00805666390806437,-0.00450743036344647,0,
00:00:05.728,-0.00512539362534881,-0.0101131750270724,0.0161678455770016,0,
00:00:05.732,-0.00401432951912284,-0.00383803597651422,-0.00752413086593151,0,
00:00:05.736,0.00965551286935806,0.00190229120198637,-0.0168607160449028,0,
00:00:05.74,0.000497598433867097,0.0061431834474206,-0.00535987922921777,0,
00:00:05.744,-0.000548145675566047,0.0115602910518646,0.0120585029944777,0,
00:00:05.748,-0.00641049863770604,-0.0105499206110835,0.0161432698369026,0,
00:00:05.752,-0.000549090560525656,-0.0113606676459312,-0.0139485169202089,0,
00:00:05.756,-0.000191304672625847,0.00439585419371724,-0.000420731230406091,0,
00:00:05.76,0.00397890899330378,0.00562095502391458,0.000583366432692856,0,
00:00:05.764,0.000614108459558338,6.94535701768473E-05,0.00553646590560675,0,
00:00:05.768,0.00838271901011467,-0.0011232930701226,-0.000680693308822811,0,
00:00:05.772,-0.00988240726292133,-0.000685435486957431,-0.00692790141329169,0,
00:00:05.776,0.00163835089188069,0.00205477466806769,0.00169664691202343,0,
00:00:05.78,-0.00310132442973554,-0.00164397992193699,-0.00163277424871922,0,
00:00:05.784,-0.00367600284516811,0.00283852918073535,0.00688156019896269,0,
00:00:05.788,-0.00131047703325748,-0.0102175157517195,0.00688848970457911,0,
00:00:05.792,0.00974681600928307,0.00134655821602792,-0.0125196557492018,0,
00:00:05.796,0.00538061978295445,0.00948375836014748,-0.00574776949360967,0,
00:00:05.8,-0.00539544271305203,0.00235069915652275,0.00123802246525884,0,
00:00:05.804,-0.00278418348170817,0.00220183958299458,-0.00173240248113871,0,
00:00:05.808,-0.00114243314601481,-0.00503076985478401,0.0183076355606318,0,
00:00:05.812,-6.66394407744519E-05,-0.00961830839514732,0.000901933934073895,0,
00:00:05.816,0.000499632325954735,-0.00694744940847158,-0.00432883109897375,0,
00:00:05.82,0.00061891769291833,0.0137879876419902,-0.00635447399690747,0,
00:00:05.824,0.000445867364760488,0.00719052413478494,-0.0109003065153956,0,
00:00:05.828,0.000173106149304658,-0.000304441782645881,0.00455164676532149,0,
00:00:05.832,-0.00212390837259591,-0.010467023588717,0.00216404953971505,0,
00:00:05.836,0.0059768371284008,-0.000463100790511817,0.000812274753116071,0,
00:00:05.84,-0.00037479869206436,0.0026138813700527,0.00890223495662212,0,
00:00:05.844,-0.00723307579755783,0.0084363641217351,-0.000848886207677424,0,
00:00:05.848,-0.000866582966409624,-0.00519926566630602,-0.00117803202010691,0,
00:00:05.852,8.7479995272588E-05,-0.0116272596642375,-0.00229422375559807,0,
00:00:05.856,0.00446827942505479,0.00654592458158731,0.00186109077185392,0,
00:00:05.86,0.000962969439569861,0.00888674054294825,-0.0114542599767447,0,
00:00:05.864,0.00222860858775675,-0.000189845712156966,0.00260615139268339,0,
00:00:05.868,4.87887809867971E-05,-0.0142550328746438,0.00951099768280983,0,
00:00:05.872,0.000311958894599229,0.00630200700834394,-0.00282815285027027,0,
00:00:05.876,-0.00613701576367021,0.00255670119076967,-0.00315669318661094,0,
00:00:05.88,0.00112957577221096,0.00533505761995912,-0.00246181688271463,0,
00:00:05.884,0.00139987003058195,0.0068001258186996,0.00353324413299561,0,
00:00:05.888,-0.00405587581917644,-0.0134080974385142,0.00759832933545113,0,
00:00:05.892,0.00326033541932702,-0.00709084002301097,0.00547057297080755,0,
00:00:05.896,-0.0035869397688657,-0.00389385316520929,-0.008002994582057,0,
00:00:05.9,0.00404767552390695,0.00615186151117086,-0.0126858213916421,0,
00:00:05.904,0.00552803091704845,0.0159905161708593,-0.00381437060423195,0,
00:00:05.908,-0.00144302868284285,-0.00144629529677331,0.0023416553158313,0,
00:00:05.912,-0.00742216734215617,-0.0104812420904636,0.00294983363710344,0,
00:00:05.916,0.0037012507673353,-0.000877079670317471,0.0294764805585146,0,
00:00:05.92,0.00278840796090662,0.00596719607710838,-0.0112197427079082,0,
00:00:05.924,-0.00672253267839551,0.00167651253286749,-0.0129987094551325,0,
00:00:05.928,0.00572511088103056,-0.0110137816518545,-0.00404478702694178,0,
00:00:05.932,0.000893772579729557,-0.00425764545798302,-0.00323208444751799,0,
00:00:05.936,-0.00603766739368439,0.00586235243827105,0.00874199904501438,0,
00:00:05.94,-0.00242154113948345,0.0110116973519325,0.00164894992485642,0,
00:00:05.944,0.00402947328984737,0.00572649855166674,0.00811410043388605,0,
00:00:05.948,0.00579632818698883,-0.00340346642769873,-0.00613557640463114,0,
00:00:05.952,-0.000799482921138406,-0.0138261532410979,-0.00869144778698683,0,
00:00:05.956,-0.000538440304808319,-0.00864345487207174,-0.00244721816852689,0,
00:00:05.96,-0.0101562468335032,0.00434252433478832,0.00304994313046336,0,
00:00:05.964,0.00370823382399976,0.0165204126387835,0.00891370046883821,0,
00:00:05.968,0.00522773806005716,0.0022179652005434,0.00149223324842751,0,
00:00:05.972,0.00430606864392757,-0.0109689524397254,-0.010651795193553,0,
00:00:05.976,-0.00279633165337145,-0.00589623767882586,0.00483893929049373,0,
00:00:05.98,-0.00590519933030009,0.00768464151769876,0.0108421854674816,0,
00:00:05.984,0.00196225149556994,0.0114988377317786,-0.00561300059780478,0,
00:00:05.988,-0.000314089935272932,-0.0103745944797993,-0.00759578961879015,0,
00:00:05.992,-0.00228232890367508,-0.0128068923950195,-0.00982974842190742,0,
00:00:05.996,0.00236788019537926,0.00708677852526307,0.00671708583831787,0,
00:00:06,0.00232242792844772,0.00771460076794028,0.0142047312110662,0,
00:00:06.004,0.00487903598695993,0.000323070358717814,0.0017313773278147,0,
00:00:06.008,-0.00873619876801968,-0.00216390588320792,-0.0160654224455357,0,
00:00:06.012,-0.00254238909110427,-0.00200032000429928,-0.000957956770434976,0,
00:00:06.016,0.00401522405445576,-0.00502663571387529,0.000125861406559125,0,
00:00:06.02,0.0116566140204668,0.00825819652527571,0.0182848665863276,0,
00:00:06.024,-0.0113418493419886,0.00206026993691921,-0.00915415678173304,0,
00:00:06.028,-0.00593686010688543,-0.00428032083436847,-0.00446057366207242,0,
00:00:06.032,0.00486541772261262,-0.0033631285186857,-0.00497192284092307,0,
00:00:06.036,0.00218833284452558,-0.00470832968130708,0.00506685581058264,0,
00:00:06.04,-0.00140288122929633,0.00745971081778407,0.000645193795207888,0,
00:00:06.044,0.00183613249100745,0.00527811888605356,0.01359604857862,0,
00:00:06.048,0.00118914910126477,5.86968017159961E-05,-0.00608305213972926,0,
00:00:06.052,0.00181981280911714,-0.00521993730217218,-0.0106787458062172,0,
00:00:06.056,-0.00514418631792068,-0.00765308970585465,-0.00634481711313128,0,
00:00:06.06,-0.00282147689722478,0.00366725609637797,0.00634864903986454,0,
00:00:06.064,0.00496229669079185,0.011287983506918,0.0026054170448333,0,
00:00:06.068,-0.00135803176090121,-0.00761478906497359,0.0170709583908319,0,
00:00:06.072,-0.00307261967100203,-0.00552583206444979,-0.00554322591051459,0,
00:00:06.076,0.00876461900770664,0.00690342718735337,-0.0125322574749589,0,
00:00:06.08,0.00113869190681726,0.00234335940331221,-0.00867500063031912,0,
00:00:06.084,-0.00773225398734212,0.00329504045657814,0.000802526250481606,0,
00:00:06.088,-0.0044462033547461,-0.00389193813316524,0.00439401995390654,0,
00:00:06.092,0.00694618094712496,-0.00896493531763554,0.0169156566262245,0,
00:00:06.096,-0.000388731888961047,-0.00269867735914886,-0.00488511845469475,0,
00:00:06.1,-0.00359567301347852,0.00750443246215582,-0.00669258693233132,0,
00:00:06.104,-0.000628948386292905,0.00761305633932352,0.00379359885118902,0,
00:00:06.108,0.00619106739759445,-0.00330961425788701,0.0015926428604871,0,
00:00:06.112,-0.00345253036357462,-0.00627076392993331,-0.00624212715774775,0,
00:00:06.116,0.00641596084460616,0.000294949568342417,-0.00149120145943016,0,
00:00:06.12,0.0057461834512651,0.00856151059269905,-0.00119020452257246,0,
00:00:06.124,-0.0201692543923855,-0.00615858379751444,0.00144199363421649,0,
00:00:06.128,-0.00490750418975949,-0.00864514149725437,0.0110284071415663,0,
00:00:06.132,0.0120641058310866,0.0106730563566089,-0.00363379064947367,0,
00:00:06.136,0.00890961103141308,0.00277810683473945,-0.00571260135620832,0,
00:00:06.14,-0.00100146082695574,-0.00331392209045589,-0.00279715564101934,0,
00:00:06.144,-0.0062995390035212,-0.000339693913701922,-0.00157952413428575,0,
00:00:06.148,0.000550498079974204,0.00410019420087337,0.00830390490591526,0,
00:00:06.152,-0.00375722791068256,-0.0105405487120152,0.0101793352514505,0,
00:00:06.156,0.00102313456591219,0.00216440320946276,-0.0264469664543867,0,
00:00:06.16,0.00197293236851692,0.00841785222291946,0.00228405161760747,0,
00:00:06.164,0.00122043455485255,-0.00175788346678019,0.0187439415603876,0,
00:00:06.168,-0.00399005087092519,-0.00149275816511363,-0.000300003594020382,0,
00:00:06.172,0.00551845505833626,-0.00804911926388741,-0.00288202287629247,0,
00:00:06.176,0.00689323479309678,0.00245967786759138,-0.0055161933414638,0,
00:00:06.18,-0.0097053274512291,0.00854773074388504,-0.00246688537299633,0,
00:00:06.184,-0.00489935372024775,0.000650204077828676,0.00496676564216614,0,
00:00:06.188,-0.00202426896430552,-0.00519941002130508,-0.00167389144189656,0,
00:00:06.192,0.00467863446101546,-0.00548378797248006,0.000750136969145387,0,
00:00:06.196,0.0086807357147336,-0.00227359007112682,0.00467900419607759,0,
00:00:06.2,-0.00215308554470539,0.0116678066551685,-0.00413978938013315,0,
00:00:06.204,-0.00816799700260162,0.00164808903355151,-0.00175983156077564,0,
00:00:06.208,-0.000362352817319334,-0.00464004091918468,-0.0131757631897926,0,
00:00:06.212,0.00524637335911393,-0.00103553710505366,0.0180639531463385,0,
00:00:06.216,0.0053065731190145,-0.00212524156086147,0.00439115334302187,0,
00:00:06.22,-0.00422802940011024,0.0020094474311918,-0.0094432644546032,0,
00:00:06.224,0.000248902390012518,0.00575536070391536,0.00504409475252032,0,
00:00:06.228,-0.000696476083248854,0.000334426324116066,-0.00858213100582361,0,
00:00:06.232,-0.00381625606678426,-0.00806297827512026,-0.00162427604664117,0,
00:00:06.236,-0.00163137936033309,-0.00666614808142185,0.00521480618044734,0,
00:00:06.24,0.00103351043071598,-0.00137660733889788,0.00421855831518769,0,
00:00:06.244,0.000151629632455297,0.0134838465601206,-0.00317985936999321,0,
00:00:06.248,0.0080120638012886,0.00939529854804277,0.00661711068823934,0,
00:00:06.252,-0.00360171659849584,-0.0161672849208117,0.00334313604980707,0,
