,Elapsed Time,EMG
0,00:00:00,3.713570624589921
1,00:00:00.004,-3.542154878377914
2,00:00:00.008,-2.933865070343018
3,00:00:00.012,-0.2999756336212162
4,00:00:00.016,1.503643617033957
5,00:00:00.02,1.809634178876875
6,00:00:00.024,1.1471986696124081
7,00:00:00.028,0.1810751967132091
8,00:00:00.032,-0.5323543921113011
9,00:00:00.036,-0.7812598273158071
10,00:00:00.04,-0.5794106945395467
11,00:00:00.044,-0.19663149211555753
12,00:00:00.048,0.1128043485805393
13,00:00:00.052,0.2406678684055802
14,00:00:00.056,0.20974208228290048
15,00:00:00.06,0.09430385805899283
16,00:00:00.064,0.030144330565235557
17,00:00:00.068,-0.07500659581273794
18,00:00:00.072,-0.1007210146635771
19,00:00:00.076,-0.06322955479845403
20,00:00:00.08,-0.02742797043174513
21,00:00:00.084,0.032856339123100035
22,00:00:00.088,0.04632062895689161
23,00:00:00.092,0.0378402201458812
24,00:00:00.096,-0.00961780652869493
25,00:00:00.1,0.01309844735078506
26,00:00:00.104,-0.0004478368209674885
27,00:00:00.108,-0.0230196053162217
28,00:00:00.112,0.01915708417072893
29,00:00:00.116,-0.05121090239845209
30,00:00:00.12,-0.048119556275196346
31,00:00:00.124,0.036605739034712315
32,00:00:00.128,0.05874345032498242
33,00:00:00.132,-0.0008308961987495214
34,00:00:00.136,-0.004340120241977277
35,00:00:00.14,-0.007732589961960933
36,00:00:00.144,-0.0141555527225137
37,00:00:00.148,0.029702080879360472
38,00:00:00.152,-0.02443046995904297
39,00:00:00.156,-0.011016761884093305
40,00:00:00.16,-0.016816057963296768
41,00:00:00.164,0.006409398280084196
42,00:00:00.168,0.01171247754245993
43,00:00:00.172,0.03784422576427457
44,00:00:00.176,0.005055529065430157
45,00:00:00.18,-0.0364944576285779
46,00:00:00.184,-0.02278526034206154
47,00:00:00.188,0.01951405592262748
48,00:00:00.192,0.0008231198589783171
49,00:00:00.196,-0.022367759607732303
50,00:00:00.2,0.03320834040641788
51,00:00:00.204,0.022187859285622828
52,00:00:00.208,-0.02917140838690097
53,00:00:00.212,0.025870747864246292
54,00:00:00.216,-0.01521693228278314
55,00:00:00.22,-0.033988736104220145
56,00:00:00.224,0.01570007065311076
57,00:00:00.228,0.00887038372457024
58,00:00:00.232,-0.02495759166777134
59,00:00:00.236,-0.013336288044229204
60,00:00:00.24,0.0961740035563708
61,00:00:00.244,-0.01293628523126247
62,00:00:00.248,-0.05717122135683895
63,00:00:00.252,-0.012125301742344226
64,00:00:00.256,-0.00875135231763122
65,00:00:00.26,0.04025602713227272
66,00:00:00.264,-0.00716961221769452
67,00:00:00.268,0.038770004350226345
68,00:00:00.272,-0.024184671696275518
69,00:00:00.276,-0.03844644036144011
70,00:00:00.28,0.0032961298711597503
71,00:00:00.284,-0.0108156146015972
72,00:00:00.288,0.027908402727916882
73,00:00:00.292,0.024531539995223298
74,00:00:00.296,-0.0017445024568587594
75,00:00:00.3,0.001490730792284001
76,00:00:00.304,-0.02388109476305545
77,00:00:00.308,-0.02512212283909316
78,00:00:00.312,0.00845041265711184
79,00:00:00.316,0.05092486995272344
80,00:00:00.32,0.0058135627768933894
81,00:00:00.324,-0.05120638664811847
82,00:00:00.328,-0.016667723655700708
83,00:00:00.332,-0.00426135017187334
84,00:00:00.336,0.0330324880778789
85,00:00:00.34,0.0318494392558933
86,00:00:00.344,-0.007116868800949281
87,00:00:00.348,-0.03437624219804996
88,00:00:00.352,0.01723244041204449
89,00:00:00.356,0.0016672760248184208
90,00:00:00.36,-0.010692035779356941
91,00:00:00.364,-0.02356848027557138
92,00:00:00.368,0.03064786549657582
93,00:00:00.372,-0.01033896021544931
94,00:00:00.376,0.004979377612471561
95,00:00:00.38,0.02726459270343177
96,00:00:00.384,-0.02564525767229493
97,00:00:00.388,-0.02068579487968234
98,00:00:00.392,0.015158714144490647
99,00:00:00.396,0.0205843800213188
100,00:00:00.4,-0.004789910279214408
101,00:00:00.404,-0.010305361822247491
102,00:00:00.408,-0.00648065097630029
103,00:00:00.412,-0.00490460777655244
104,00:00:00.416,0.02144194801803675
105,00:00:00.42,-0.013032287650275972
106,00:00:00.424,-0.015200653098872856
107,00:00:00.428,-0.00839339947560801
108,00:00:00.432,0.0476015945896507
109,00:00:00.436,0.01768123684450984
110,00:00:00.44,0.01870860066264872
111,00:00:00.444,-0.08251438662409791
112,00:00:00.448,-0.025699037127196813
113,00:00:00.452,0.01200467976741497
114,00:00:00.456,0.019426786340773133
115,00:00:00.46,0.03542642353568225
116,00:00:00.464,0.039185442496091086
117,00:00:00.468,-0.0274071665480733
118,00:00:00.472,-0.06163537641987206
119,00:00:00.476,0.03532679658383135
120,00:00:00.48,0.0015186793170869576
121,00:00:00.484,-0.02561510913074018
122,00:00:00.488,0.013702828204259282
123,00:00:00.492,0.01158514572307465
124,00:00:00.496,-0.0009911868255585397
125,00:00:00.5,0.0011058596428483699
126,00:00:00.504,-0.009406725876033301
127,00:00:00.508,0.03451531054452058
128,00:00:00.512,-0.0064639272168278685
129,00:00:00.516,-0.04695226461626588
130,00:00:00.52,0.01039818907156586
131,00:00:00.524,0.03589957626536487
132,00:00:00.528,-0.01678914064541459
133,00:00:00.532,-0.03222117479890587
134,00:00:00.536,0.006170789594761993
135,00:00:00.54,0.01260534022003416
136,00:00:00.544,0.03504649270325899
137,00:00:00.548,0.011976747075095807
138,00:00:00.552,-0.028888895176351098
139,00:00:00.556,-0.01810853090864838
140,00:00:00.56,-0.018569950945675304
141,00:00:00.564,-0.0018823565915226798
142,00:00:00.568,0.04073913116008041
143,00:00:00.572,0.012498005293309722
144,00:00:00.576,-0.01109538599848747
145,00:00:00.58,-0.01984992693178356
146,00:00:00.584,0.00702279584947974
147,00:00:00.588,-0.0008980468846857504
148,00:00:00.592,-0.01016235211864114
149,00:00:00.596,-0.006902171589899808
150,00:00:00.6,0.02163308695890007
151,00:00:00.604,0.02428289409726852
152,00:00:00.608,-0.0107711395248771
153,00:00:00.612,-0.0261183837428689
154,00:00:00.616,-0.015435608103871297
155,00:00:00.62,0.029770246823318264
156,00:00:00.624,-0.008487051352858502
157,00:00:00.628,-0.012352659367024902
158,00:00:00.632,0.048866689670831014
159,00:00:00.636,0.01265102205798032
160,00:00:00.64,-0.08093844144605099
161,00:00:00.644,-0.006003689952194701
162,00:00:00.648,0.03229664510581648
163,00:00:00.652,0.01221842551603916
164,00:00:00.656,0.01717232353985311
165,00:00:00.66,-0.01316175749525423
166,00:00:00.664,0.004840958397835469
167,00:00:00.668,-0.022516024764627177
168,00:00:00.672,0.019585488727898323
169,00:00:00.676,-0.016679578227922282
170,00:00:00.68,-0.00131078239064664
171,00:00:00.684,0.01726368966046717
172,00:00:00.688,-0.011065247002989059
173,00:00:00.692,-0.0013967441336717509
174,00:00:00.696,-0.010316461848560735
175,00:00:00.7,-0.006657295627519521
176,00:00:00.704,0.018182834668550668
177,00:00:00.708,0.0686039933934808
178,00:00:00.712,-0.027585400384850828
179,00:00:00.716,-0.076421725563705
180,00:00:00.72,-0.002556800842285198
181,00:00:00.724,0.04054818302392953
182,00:00:00.728,-0.0016076546162367075
183,00:00:00.732,0.011043960228562372
184,00:00:00.736,0.0036762792151421395
185,00:00:00.74,-0.033937908709049266
186,00:00:00.744,0.028049653279595108
187,00:00:00.748,0.0009900804143399295
188,00:00:00.752,0.004283569171093441
189,00:00:00.756,-0.01437587430700656
190,00:00:00.76,-0.007043327204883091
191,00:00:00.764,-0.007562553510069811
192,00:00:00.768,0.01265401928685606
193,00:00:00.772,0.005094377091154468
194,00:00:00.776,0.025730911642312997
195,00:00:00.78,-0.01220378559082742
196,00:00:00.784,-0.022326306789182158
197,00:00:00.788,-0.01832473510876291
198,00:00:00.792,0.015556344762444503
199,00:00:00.796,0.024844419443979814
200,00:00:00.8,-0.01614346797578038
201,00:00:00.804,-0.0019679795950650995
202,00:00:00.808,-0.010877870954573125
203,00:00:00.812,0.06922859814949332
204,00:00:00.816,-0.047225603600964
205,00:00:00.82,-0.05397599423304198
206,00:00:00.824,0.054848500061780145
207,00:00:00.828,-0.004517622292041767
208,00:00:00.832,-0.007210080511868023
209,00:00:00.836,0.014513740316033398
210,00:00:00.84,-0.030021361541002947
211,00:00:00.844,-0.016469521448016156
212,00:00:00.848,0.0587717536836863
213,00:00:00.852,0.009076322894543451
214,00:00:00.856,-0.01555506419390444
215,00:00:00.86,-0.01910748519003394
216,00:00:00.864,-0.0277342523913831
217,00:00:00.868,0.008606488350778822
218,00:00:00.872,0.01636805851012469
219,00:00:00.876,0.01094732049386949
220,00:00:00.88,0.00889144788379781
221,00:00:00.884,0.0034969546977663387
222,00:00:00.888,-0.009030072920722897
223,00:00:00.892,0.003411256402614528
224,00:00:00.896,-0.03708901628851888
225,00:00:00.9,-0.00675053219310939
226,00:00:00.904,0.03550687525421379
227,00:00:00.908,0.05984757561236624
228,00:00:00.912,-0.0781282614916563
229,00:00:00.916,-0.04024238290730861
230,00:00:00.92,0.03718983521685007
231,00:00:00.924,0.03977026976644993
232,00:00:00.928,-0.004078193567693221
233,00:00:00.932,-0.013991626445204072
234,00:00:00.936,-0.013610569760203368
235,00:00:00.94,-0.020917067304253592
236,00:00:00.944,0.0320083685219288
237,00:00:00.948,0.05791947402758523
238,00:00:00.952,-0.037915894761681515
239,00:00:00.956,-0.05275399447418746
240,00:00:00.96,0.002875569276511678
241,00:00:00.964,0.0034846626222132977
242,00:00:00.968,0.02160379965789616
243,00:00:00.972,0.007591936038807052
244,00:00:00.976,-0.02396618202328677
245,00:00:00.98,0.07999246520921588
246,00:00:00.984,-0.00894049805356193
247,00:00:00.988,-0.06499923858791594
248,00:00:00.992,-0.02394729922525587
249,00:00:00.996,0.0012377726379781996
250,00:00:01,0.013566765934228897
251,00:00:01.004,0.011180643574334698
252,00:00:01.008,0.02071920037269593
253,00:00:01.012,0.02399782650172716
254,00:00:01.016,0.00965528702363377
255,00:00:01.02,-0.034591119270771784
256,00:00:01.024,-0.028999326284974772
257,00:00:01.028,-0.01413159398362041
258,00:00:01.032,0.0065054674887505895
259,00:00:01.036,0.02121788449585434
260,00:00:01.04,-0.00897002173587683
261,00:00:01.044,0.05328705580905081
262,00:00:01.048,0.06253923568874596
263,00:00:01.052,-0.0711850915104151
264,00:00:01.056,-0.09150137705728413
265,00:00:01.06,-0.022710077930241872
266,00:00:01.064,0.03731564525514844
267,00:00:01.068,0.06019520538393412
268,00:00:01.072,0.028098026756197193
269,00:00:01.076,-0.01074417680501938
270,00:00:01.08,-0.031573475862387554
271,00:00:01.084,0.054278977680951385
272,00:00:01.088,-0.03789359936490655
273,00:00:01.092,-0.045197357889264766
274,00:00:01.096,-0.01975387427955864
275,00:00:01.1,0.03296829340979452
276,00:00:01.104,0.01749406231101607
277,00:00:01.108,0.00297365826554597
278,00:00:01.112,-0.03509621322155
279,00:00:01.116,0.0523742577061057
280,00:00:01.12,0.1428850442171099
281,00:00:01.124,-0.14299640734679997
282,00:00:01.128,-0.1243804926052687
283,00:00:01.132,0.00762589403893792
284,00:00:01.136,0.05587989778723565
285,00:00:01.14,0.05721669923514129
286,00:00:01.144,0.030401573982089737
287,00:00:01.148,-0.00869109621271491
288,00:00:01.152,-0.026006754022091592
289,00:00:01.156,-0.008557214285247028
290,00:00:01.16,0.0320214303210377
291,00:00:01.164,-0.025033939629793132
292,00:00:01.168,-0.05540509754791856
293,00:00:01.172,-0.001762881758622787
294,00:00:01.176,0.018583019264042377
295,00:00:01.18,0.03031845577061177
296,00:00:01.184,0.01718842750415206
297,00:00:01.188,-0.0017076131625799488
298,00:00:01.192,-0.0263346000574529
299,00:00:01.196,0.018855573711334762
300,00:00:01.2,0.08352686863509015
301,00:00:01.204,-0.10196919180452821
302,00:00:01.208,-0.047654134221374975
303,00:00:01.212,0.01813706802204248
304,00:00:01.216,0.009227568283677058
305,00:00:01.22,0.01560826413333413
306,00:00:01.224,0.02506408642511814
307,00:00:01.228,0.01912267017178238
308,00:00:01.232,-0.01675225654616952
309,00:00:01.236,0.010294136474840338
310,00:00:01.24,0.01378369424492117
311,00:00:01.244,-0.07070004893466833
312,00:00:01.248,-0.018794711213558888
313,00:00:01.252,0.02018930809572341
314,00:00:01.256,0.03336837422102694
315,00:00:01.26,0.025771329645067453
316,00:00:01.264,-0.007001947262324353
317,00:00:01.268,-0.011372672161087399
318,00:00:01.272,-0.025765790138393658
319,00:00:01.276,0.0049624776656855465
320,00:00:01.28,0.03718908852897586
321,00:00:01.284,-0.03880726080387835
322,00:00:01.288,0.0025175819173454787
323,00:00:01.292,0.00543899415060878
324,00:00:01.296,-0.00592349842190743
325,00:00:01.3,-0.0005406439304352015
326,00:00:01.304,0.0137265343219042
327,00:00:01.308,0.02998946234583851
328,00:00:01.312,-0.002933898475021131
329,00:00:01.316,-0.04212945071049038
330,00:00:01.32,-0.011493763886392151
331,00:00:01.324,0.014592536492273229
332,00:00:01.328,-0.00642646010965113
333,00:00:01.332,0.01048447797074914
334,00:00:01.336,0.0005766493268310816
335,00:00:01.34,-0.00847259303554889
336,00:00:01.344,0.044602714478969595
337,00:00:01.348,0.04169009497854857
338,00:00:01.352,-0.0802599545568228
339,00:00:01.356,-0.0557175306603312
340,00:00:01.36,0.025148550979793086
341,00:00:01.364,0.03395103942602874
342,00:00:01.368,0.025488216720987108
343,00:00:01.372,0.008390436414629207
344,00:00:01.376,-0.0314131951890886
345,00:00:01.38,0.010400367435067849
346,00:00:01.384,-0.0027378372615202984
347,00:00:01.388,-0.02553786302451046
348,00:00:01.392,-0.01008558645844458
349,00:00:01.396,0.02078850602265445
350,00:00:01.4,-0.014508824329823252
351,00:00:01.404,0.06446517910808325
352,00:00:01.408,0.0372888818383216
353,00:00:01.412,-0.08134778216481214
354,00:00:01.416,-0.05218571872683245
355,00:00:01.42,0.013796993996947978
356,00:00:01.424,0.014301021350547711
357,00:00:01.428,0.01942992792464794
358,00:00:01.432,0.026976367054885517
359,00:00:01.436,0.04337584784661882
360,00:00:01.44,-0.0222423123195767
361,00:00:01.444,-0.04047625977545978
362,00:00:01.448,-0.057226224569603884
363,00:00:01.452,0.00686394691001624
364,00:00:01.456,0.03259531792718914
365,00:00:01.46,0.03958937898278235
366,00:00:01.464,0.01320951519301163
367,00:00:01.468,-0.012953696306794871
368,00:00:01.472,-0.04286126652732492
369,00:00:01.476,-0.0069218724966049975
370,00:00:01.48,0.02797824749723077
371,00:00:01.484,0.0008644547779113887
372,00:00:01.488,0.03765161847695712
373,00:00:01.492,-0.01790765579789873
374,00:00:01.496,-0.05298991804011164
375,00:00:01.5,0.0015270197764038623
376,00:00:01.504,0.029859858856070808
377,00:00:01.508,-0.0015088003128766944
378,00:00:01.512,0.01028409553691742
379,00:00:01.516,0.01587054179981351
380,00:00:01.52,-0.020605390891432762
381,00:00:01.524,-0.02790449373424051
382,00:00:01.528,-0.006069399329135198
383,00:00:01.532,0.031128143891692127
384,00:00:01.536,0.018456969177350444
385,00:00:01.54,0.00015913462266318318
386,00:00:01.544,-0.00851268437691034
387,00:00:01.548,-0.0239941752515733
388,00:00:01.552,0.0015871152281760961
389,00:00:01.556,0.013776411302387718
390,00:00:01.56,-0.006887101713800851
391,00:00:01.564,-0.008094172459095687
392,00:00:01.568,-0.003704171627759982
393,00:00:01.572,0.031253992579877356
394,00:00:01.576,0.00937044993042943
395,00:00:01.58,-0.004912963428068927
396,00:00:01.584,-0.014834586530923819
397,00:00:01.588,-0.038879999890923486
398,00:00:01.592,0.00487591978162527
399,00:00:01.596,0.041575293987989495
400,00:00:01.6,0.004123004153370802
401,00:00:01.604,-0.01352522335946556
402,00:00:01.608,-0.022092598490416962
403,00:00:01.612,0.006468452258559407
404,00:00:01.616,0.01167748356238003
405,00:00:01.62,0.04009285476058726
406,00:00:01.624,-0.008214932517148539
407,00:00:01.628,-0.04502067808061845
408,00:00:01.632,-0.01819651247933507
409,00:00:01.636,-0.00342638930305838
410,00:00:01.64,0.03594262482511117
411,00:00:01.644,0.03011044609593226
412,00:00:01.648,-0.0068811196833849005
413,00:00:01.652,-0.018144526984542615
414,00:00:01.656,-0.026424739509820952
415,00:00:01.66,-0.011376985348761037
416,00:00:01.664,0.0535888548474759
417,00:00:01.668,0.0148769693914801
418,00:00:01.672,-0.0549654457718134
419,00:00:01.676,0.003074498890782748
420,00:00:01.68,-0.010354935191571709
421,00:00:01.684,-0.0012632263824343699
422,00:00:01.688,0.0987797882407903
423,00:00:01.692,-0.036327700130641405
424,00:00:01.696,-0.04216421325691046
425,00:00:01.7,-0.01465781359001994
426,00:00:01.704,-0.01040542835835368
427,00:00:01.708,0.00445995398331436
428,00:00:01.712,0.030686788610182737
429,00:00:01.716,0.01729621691629292
430,00:00:01.72,-0.01415338739752775
431,00:00:01.724,0.02900059102103116
432,00:00:01.728,-0.02335489145480091
433,00:00:01.732,-0.03157347849628423
434,00:00:01.736,0.0008189259096980182
435,00:00:01.74,-0.0037791586946695987
436,00:00:01.744,0.01271292055025698
437,00:00:01.748,0.019117842952255125
438,00:00:01.752,-0.001848841086030041
439,00:00:01.756,-0.007795591023750656
440,00:00:01.76,0.06299464683979748
441,00:00:01.764,-0.018327612429857202
442,00:00:01.768,-0.0950717814266682
443,00:00:01.772,-0.03179332730360326
444,00:00:01.776,0.0665833223611117
445,00:00:01.78,0.04616700951009989
446,00:00:01.784,0.003170187701471188
447,00:00:01.788,-0.03263082168996337
448,00:00:01.792,0.00034272205084556057
449,00:00:01.796,-0.00507121300324802
450,00:00:01.8,0.00039585973718203344
451,00:00:01.804,0.016791753005236394
452,00:00:01.808,-0.009785814618226142
453,00:00:01.812,-0.020933590829372378
454,00:00:01.816,0.006911545526236308
455,00:00:01.82,0.0034049809910357016
456,00:00:01.824,0.018594303734971597
457,00:00:01.828,-0.01814018655568362
458,00:00:01.832,0.023759185336530195
459,00:00:01.836,0.02560257446020845
460,00:00:01.84,-0.0494728640187532
461,00:00:01.844,-0.032029698602855226
462,00:00:01.848,0.03618545696372165
463,00:00:01.852,-0.01690752326976508
464,00:00:01.856,0.004720955854281771
465,00:00:01.86,0.0712652876973152
466,00:00:01.864,-0.03431730158627038
467,00:00:01.868,-0.04617436323314902
468,00:00:01.872,-0.009451542049646372
469,00:00:01.876,0.02944729756563897
470,00:00:01.88,0.01705675059929488
471,00:00:01.884,-0.018535863840952557
472,00:00:01.888,0.02340242033824324
473,00:00:01.892,0.00021041650325060715
474,00:00:01.896,-0.01790487673133615
475,00:00:01.9,-0.01008465676568449
476,00:00:01.904,-0.007203662928077389
477,00:00:01.908,0.008462649013381488
478,00:00:01.912,0.004311740398407029
479,00:00:01.916,0.030452880542725366
480,00:00:01.92,-0.0023408497945638495
481,00:00:01.924,-0.02748666098341344
482,00:00:01.928,-0.026656634174287267
483,00:00:01.932,-0.0015172890853136795
484,00:00:01.936,0.03309250180609523
485,00:00:01.94,0.0367370462045074
486,00:00:01.944,0.002095200004987391
487,00:00:01.948,-0.04558039596304305
488,00:00:01.952,-0.0147168341791257
489,00:00:01.956,-0.00544081837870181
490,00:00:01.96,0.004929844872094691
491,00:00:01.964,0.012530329870060091
492,00:00:01.968,0.03295017825439576
493,00:00:01.972,-0.02366174198687072
494,00:00:01.976,0.05360702215693886
495,00:00:01.98,-0.03420980414375667
496,00:00:01.984,-0.04635604307986798
497,00:00:01.988,-0.026328107109293272
498,00:00:01.992,0.005924529861658812
499,00:00:01.996,0.08905807370319958
500,00:00:02,-0.002816621679812708
501,00:00:02.004,-0.0392219377681613
502,00:00:02.008,-0.004176168702542778
503,00:00:02.012,-0.01044472632929683
504,00:00:02.016,-0.0045814177574357426
505,00:00:02.02,0.007598004656756524
506,00:00:02.024,0.028833935735747253
507,00:00:02.028,0.005496038589626549
508,00:00:02.032,-0.016617587069049464
509,00:00:02.036,-0.010146913933567703
510,00:00:02.04,-0.0021300842054188186
511,00:00:02.044,-0.0035523617698345294
512,00:00:02.048,-0.00495305750519037
513,00:00:02.052,0.004369481001049252
514,00:00:02.056,0.01764965429902077
515,00:00:02.06,0.024698125664144747
516,00:00:02.064,-0.050496586132794674
517,00:00:02.068,0.024143866030499332
518,00:00:02.072,0.005853034090250744
519,00:00:02.076,-0.019195260014384992
520,00:00:02.08,-0.01210428029298782
521,00:00:02.084,0.02856581890955564
522,00:00:02.088,-0.013861939543858172
523,00:00:02.092,-0.0090704363246914
524,00:00:02.096,-0.00024087214842437874
525,00:00:02.1,0.01613515522330999
526,00:00:02.104,0.03860198504116849
527,00:00:02.108,-0.028519090032204958
528,00:00:02.112,-0.0026905406266451992
529,00:00:02.116,-0.005861605284735559
530,00:00:02.12,-0.046903780428692705
531,00:00:02.124,0.0180817969376221
532,00:00:02.128,0.042389458045363385
533,00:00:02.132,-0.011460898531368007
534,00:00:02.136,-0.01687532220967114
535,00:00:02.14,-0.0013546394184231602
536,00:00:02.144,0.0137565506156534
537,00:00:02.148,0.050115757388994084
538,00:00:02.152,-0.027382296044379494
539,00:00:02.156,-0.0232822968391702
540,00:00:02.16,-0.034585994493681896
541,00:00:02.164,-0.0123976815957576
542,00:00:02.168,0.03199648112058644
543,00:00:02.172,0.016636731452308588
544,00:00:02.176,0.023972079274244655
545,00:00:02.18,-0.0067636414896697
546,00:00:02.184,-0.02636853948934009
547,00:00:02.188,0.0082224514335393
548,00:00:02.192,0.032049866858869756
549,00:00:02.196,0.012083612382411998
550,00:00:02.2,-0.0679625533521176
551,00:00:02.204,-0.05444402550347152
552,00:00:02.208,0.01888394472189249
553,00:00:02.212,0.05512728868052361
554,00:00:02.216,0.04656823957338933
555,00:00:02.22,0.01580227538943291
556,00:00:02.224,-0.03143428731709726
557,00:00:02.228,-0.03525567043106999
558,00:00:02.232,-0.030923707410693106
559,00:00:02.236,0.012277166009880611
560,00:00:02.24,0.02129312872421
561,00:00:02.244,0.011830275179818259
562,00:00:02.248,0.00907279830425978
563,00:00:02.252,-0.025524266296997694
564,00:00:02.256,-0.012722626648610458
565,00:00:02.26,0.045172389596700696
566,00:00:02.264,0.005538791185244919
567,00:00:02.268,-0.01824825233779847
568,00:00:02.272,-0.01678822468966244
569,00:00:02.276,-0.010697225865442299
570,00:00:02.28,-0.005999346263706688
571,00:00:02.284,0.0029074682970531233
572,00:00:02.288,0.01084590354003014
573,00:00:02.292,0.00527313037309796
574,00:00:02.296,0.04993660328909748
575,00:00:02.3,-0.02386547438800333
576,00:00:02.304,-0.0322959539480507
577,00:00:02.308,0.0576938530430199
578,00:00:02.312,-0.0676196441054344
579,00:00:02.316,-0.0364869094919413
580,00:00:02.32,0.014089051401242659
581,00:00:02.324,0.03555552754551166
582,00:00:02.328,0.027238138020038584
583,00:00:02.332,-0.008393199183046832
584,00:00:02.336,-0.006106328743044285
585,00:00:02.34,0.07355081662535666
586,00:00:02.344,-0.03299065155442801
587,00:00:02.348,-0.09669901337474585
588,00:00:02.352,-0.02084104350069539
589,00:00:02.356,0.02725745271891358
590,00:00:02.36,0.04781117942184214
591,00:00:02.364,0.0005689384415745995
592,00:00:02.368,0.0409681526944041
593,00:00:02.372,-0.01615872257389119
594,00:00:02.376,-0.045903917402029
595,00:00:02.38,0.03413671394810077
596,00:00:02.384,0.0015070103108882973
597,00:00:02.388,-0.027149875182658434
598,00:00:02.392,-0.033937785774469334
599,00:00:02.396,-0.002071944065391988
600,00:00:02.4,0.03682037955150007
601,00:00:02.404,0.03965335479006178
602,00:00:02.408,-0.0086510987021029
603,00:00:02.412,-0.02430723607540136
604,00:00:02.416,-0.015982631593942663
605,00:00:02.42,0.0581612703390419
606,00:00:02.424,-0.0063074091449379956
607,00:00:02.428,-0.0691477060317994
608,00:00:02.432,-0.02221499173901973
609,00:00:02.436,0.038119595963507835
610,00:00:02.44,0.02628605801146476
611,00:00:02.444,0.00234476034529506
612,00:00:02.448,0.0015959735028445799
613,00:00:02.452,-0.010411073453724398
614,00:00:02.456,0.03845701919635759
615,00:00:02.46,0.00755580561235543
616,00:00:02.464,-0.0740874167531728
617,00:00:02.468,-0.04495668318122627
618,00:00:02.472,0.03483311785385008
619,00:00:02.476,0.02461213152855639
620,00:00:02.48,0.02518938062712552
621,00:00:02.484,0.05812430797959678
622,00:00:02.488,-0.03098069172119715
623,00:00:02.492,-0.07931690476834774
624,00:00:02.496,-0.011356224480550722
625,00:00:02.5,0.0784736489877105
626,00:00:02.504,0.00951170199550693
627,00:00:02.508,-0.05706402572104699
628,00:00:02.512,-0.01961736544035372
629,00:00:02.516,0.01843308971729132
630,00:00:02.52,0.017608646478038243
631,00:00:02.524,0.019193840678781302
632,00:00:02.528,0.00313343165908009
633,00:00:02.532,-0.00927888904698193
634,00:00:02.536,-0.005851290188729761
635,00:00:02.54,-0.003274883143603799
636,00:00:02.544,-0.007755778904538577
637,00:00:02.548,-0.0443484015995636
638,00:00:02.552,0.0337416594848036
639,00:00:02.556,0.12855307944118982
640,00:00:02.56,-0.021392083028331448
641,00:00:02.564,-0.1487085726694208
642,00:00:02.568,-0.05490442353766406
643,00:00:02.572,0.0405746440519579
644,00:00:02.576,0.07069646753370758
645,00:00:02.58,0.05085868032620064
646,00:00:02.584,0.012948007788509118
647,00:00:02.588,-0.031705771572887856
648,00:00:02.592,-0.04170265584252777
649,00:00:02.596,-0.00283653941005468
650,00:00:02.6,0.02372633339837191
651,00:00:02.604,-0.011993626947514786
652,00:00:02.608,-0.00479687727056438
653,00:00:02.612,-0.004086517263203898
654,00:00:02.616,-0.016196134500205454
655,00:00:02.62,0.0552076669409871
656,00:00:02.624,-0.02155971620231864
657,00:00:02.628,0.001857160008512439
658,00:00:02.632,-0.008719675708562118
659,00:00:02.636,-0.001829421264119467
660,00:00:02.64,-0.00622907001525165
661,00:00:02.644,-0.010230028012301773
662,00:00:02.648,0.0089162930380553
663,00:00:02.652,0.020017958187963796
664,00:00:02.656,0.00909552839584649
665,00:00:02.66,-0.00368665182031691
666,00:00:02.664,0.004715473973192261
667,00:00:02.668,-0.041343496181070805
668,00:00:02.672,-0.014423799002543092
669,00:00:02.676,0.05492682522162791
670,00:00:02.68,0.0168490990472492
671,00:00:02.684,-0.02474851021543146
672,00:00:02.688,-0.04100243560969823
673,00:00:02.692,-0.0013204235583544315
674,00:00:02.696,0.0097144255414605
675,00:00:02.7,0.02879613218829034
676,00:00:02.704,0.0060202221502549955
677,00:00:02.708,0.0314194969832896
678,00:00:02.712,-0.01888647023588419
679,00:00:02.716,-0.039590308908373076
680,00:00:02.72,-0.022520635975524752
681,00:00:02.724,0.014098174637183547
682,00:00:02.728,0.01280584069900215
683,00:00:02.732,0.0252218742389232
684,00:00:02.736,0.00886277924291786
685,00:00:02.74,-0.02221125317737458
686,00:00:02.744,-0.008484177422360507
687,00:00:02.748,0.03337012324482204
688,00:00:02.752,-0.023823340889066458
689,00:00:02.756,-0.02263947809115052
690,00:00:02.76,-0.00640648184344169
691,00:00:02.764,0.0034637452808965463
692,00:00:02.768,0.012620646622963229
693,00:00:02.772,-0.017847173381596852
694,00:00:02.776,0.09943469613790507
695,00:00:02.78,0.03631722647696743
696,00:00:02.784,-0.12644740939140336
697,00:00:02.788,-0.05893077749351504
698,00:00:02.792,0.013330043293535801
699,00:00:02.796,0.03835061029531059
700,00:00:02.8,0.053607914596796036
701,00:00:02.804,0.009623654303140893
702,00:00:02.808,-0.00510234967805445
703,00:00:02.812,-0.03072121157310908
704,00:00:02.816,-0.01569689880125225
705,00:00:02.82,0.004638447426259519
706,00:00:02.824,-0.0015601683408021823
707,00:00:02.828,0.00285822164732963
708,00:00:02.832,0.00404564791824671
709,00:00:02.836,0.01364600239321589
710,00:00:02.84,0.014639898203313349
711,00:00:02.844,-0.03179543325677518
712,00:00:02.848,0.011461378773674421
713,00:00:02.852,-0.01416904199868441
714,00:00:02.856,0.018546865321695777
715,00:00:02.86,-0.009940424584783628
716,00:00:02.864,-0.02767711924389007
717,00:00:02.868,0.0029014180181547913
718,00:00:02.872,0.048774306662380806
719,00:00:02.876,0.009869351051747799
720,00:00:02.88,-0.0242609428241849
721,00:00:02.884,-0.01763763767667115
722,00:00:02.888,-0.0026005303807324597
723,00:00:02.892,0.008951282128691698
724,00:00:02.896,6.50025904178099e-05
725,00:00:02.9,-0.007762293331324978
726,00:00:02.904,0.01208411576226351
727,00:00:02.908,0.03377011697739359
728,00:00:02.912,-0.044270883314311435
729,00:00:02.916,-0.01163020078092813
730,00:00:02.92,0.02650002995505931
731,00:00:02.924,0.0117073180153966
732,00:00:02.928,-0.02186913660261777
733,00:00:02.932,-0.010880366433411788
734,00:00:02.936,-0.011626552499365075
735,00:00:02.94,0.0502229165285826
736,00:00:02.944,0.0024128209333866817
737,00:00:02.948,-0.03502416843548425
738,00:00:02.952,-0.01460201980080457
739,00:00:02.956,0.015340349171310622
740,00:00:02.96,0.05342843569815154
741,00:00:02.964,-0.037716412800364175
742,00:00:02.968,-0.020583100238582164
743,00:00:02.972,0.017269034986384258
744,00:00:02.976,-0.027612041398242578
745,00:00:02.98,-0.010246211488265513
746,00:00:02.984,0.0523169020889327
747,00:00:02.988,0.0108239213004708
748,00:00:02.992,-0.02874721074476847
749,00:00:02.996,-0.015779121778905378
750,00:00:03,0.02220427384600047
751,00:00:03.004,-0.00541944615542885
752,00:00:03.008,-0.01904184604063627
753,00:00:03.012,0.011185355077032
754,00:00:03.016,0.042515642533544444
755,00:00:03.02,-0.02034996403381227
756,00:00:03.024,-0.009092716500163078
757,00:00:03.028,-0.03445913875475529
758,00:00:03.032,-0.01308680721558629
759,00:00:03.036,0.03430036977260894
760,00:00:03.04,0.03331067226827143
761,00:00:03.044,-0.01724879909306762
762,00:00:03.048,-0.007924591482151314
763,00:00:03.052,-0.018963254522532263
764,00:00:03.056,0.05958186136558649
765,00:00:03.06,-0.01509392308071255
766,00:00:03.064,-0.05273621773812918
767,00:00:03.068,-0.002047583635430784
768,00:00:03.072,0.00892950315028432
769,00:00:03.076,-0.01928877213504163
770,00:00:03.08,0.06562865781597796
771,00:00:03.084,0.03606259170919656
772,00:00:03.088,-0.06119586620479822
773,00:00:03.092,-0.02371452814986694
774,00:00:03.096,-0.00555079744663091
775,00:00:03.1,0.02119160862639546
776,00:00:03.104,0.011998584319371685
777,00:00:03.108,-0.007369862229097636
778,00:00:03.112,0.007102025207132118
779,00:00:03.116,0.02849176956806332
780,00:00:03.12,-0.036792547092773006
781,00:00:03.124,-0.02375237387605008
782,00:00:03.128,0.009330951375886791
783,00:00:03.132,0.02201735740527514
784,00:00:03.136,-0.004507326288148751
785,00:00:03.14,-0.0040671420283615815
786,00:00:03.144,0.011817413149401499
787,00:00:03.148,-0.0017135788220912287
788,00:00:03.152,0.013651602668687682
789,00:00:03.156,0.005613644141703771
790,00:00:03.16,-0.031071725534275223
791,00:00:03.164,-0.04232129728188741
792,00:00:03.168,0.00426811643410474
793,00:00:03.172,0.028426099568605468
794,00:00:03.176,0.04625395603943612
795,00:00:03.18,0.018091551959514618
796,00:00:03.184,-0.03683043899945907
797,00:00:03.188,-0.041028017993085
798,00:00:03.192,0.006387452594935869
799,00:00:03.196,0.024236447759903967
800,00:00:03.2,0.010629393160343099
801,00:00:03.204,-0.0020858510397374075
802,00:00:03.208,-0.0015756874345242283
803,00:00:03.212,-0.008791010361164801
804,00:00:03.216,-0.020212904550135104
805,00:00:03.22,-0.005413267761468943
806,00:00:03.224,-0.01374410558491946
807,00:00:03.228,0.07302372436970468
808,00:00:03.232,0.05500177142675971
809,00:00:03.236,-0.0796127626672387
810,00:00:03.24,-0.07673498848453161
811,00:00:03.244,0.0207900772802532
812,00:00:03.248,0.04795585572719576
813,00:00:03.252,0.03736974322237076
814,00:00:03.256,-0.03729940706398338
815,00:00:03.26,-0.02741485275328159
816,00:00:03.264,0.035465793916955514
817,00:00:03.268,0.024685635406058302
818,00:00:03.272,-0.03752066707238553
819,00:00:03.276,-0.005855954717844732
820,00:00:03.28,0.0032538495725021
821,00:00:03.284,-0.015157712157815731
822,00:00:03.288,0.004832539008930325
823,00:00:03.292,0.05566372908651832
824,00:00:03.296,0.0014980121050030193
825,00:00:03.3,-0.05838673235848547
826,00:00:03.304,-0.033773772418498965
827,00:00:03.308,0.02389296842738983
828,00:00:03.312,0.03412821632809933
829,00:00:03.316,0.011316353455185939
830,00:00:03.32,0.0249812717083842
831,00:00:03.324,-0.01669026672607287
832,00:00:03.328,-0.04470137151656675
833,00:00:03.332,-0.01370904850773516
834,00:00:03.336,-0.0077670454047619915
835,00:00:03.34,0.03260685782879595
836,00:00:03.344,0.02228647889569401
837,00:00:03.348,0.01246133749373264
838,00:00:03.352,0.0027113861870020775
839,00:00:03.356,-0.02708656666800372
840,00:00:03.36,-0.012146632885560369
841,00:00:03.364,-0.011876908596605121
842,00:00:03.368,-0.0006741783581674004
843,00:00:03.372,0.03116274299100038
844,00:00:03.376,-0.0069673694670201215
845,00:00:03.38,-0.02081184764392674
846,00:00:03.384,0.025809972546994707
847,00:00:03.388,0.02144728368148212
848,00:00:03.392,-0.03350094519555567
849,00:00:03.396,-0.01253689941950144
850,00:00:03.4,0.00788798183202746
851,00:00:03.404,0.022665992379188506
852,00:00:03.408,-0.00878527341410518
853,00:00:03.412,-0.006251710088690739
854,00:00:03.416,-0.01106599532067776
855,00:00:03.42,0.0038975160568952695
856,00:00:03.424,0.008023868314921863
857,00:00:03.428,0.013877095159841656
858,00:00:03.432,-0.0046793033834546735
859,00:00:03.436,-0.01899983064504336
860,00:00:03.44,0.004409883171319961
861,00:00:03.444,0.015704599849414073
862,00:00:03.448,0.0035697697894647397
863,00:00:03.452,-0.032266070134937735
864,00:00:03.456,-0.01114247774239629
865,00:00:03.46,0.043555470183491714
866,00:00:03.464,0.04458471573889254
867,00:00:03.468,-0.04733252094592899
868,00:00:03.472,-0.07294788444414736
869,00:00:03.476,0.035400473396293805
870,00:00:03.48,0.03734014322981235
871,00:00:03.484,-0.00011747330427166851
872,00:00:03.488,-0.00887501600664105
873,00:00:03.492,0.02942526654805991
874,00:00:03.496,-0.030101665062829845
875,00:00:03.5,-0.02937373844906689
876,00:00:03.504,0.0132366333855316
877,00:00:03.508,0.00604356004623696
878,00:00:03.512,0.020875673741102233
879,00:00:03.516,0.0437797332415357
880,00:00:03.52,-0.02881581475958225
881,00:00:03.524,-0.06392330396920438
882,00:00:03.528,-0.01522482722066343
883,00:00:03.532,0.02917405706830322
884,00:00:03.536,0.03950341884046794
885,00:00:03.54,-0.013672846485860642
886,00:00:03.544,0.023704985287622563
887,00:00:03.548,0.01570004504173994
888,00:00:03.552,-0.0543847735971212
889,00:00:03.556,-0.02240777923725544
890,00:00:03.56,0.015685031365137575
891,00:00:03.564,0.030855032615363553
892,00:00:03.568,-0.0009658499038778167
893,00:00:03.572,-0.01244683354161679
894,00:00:03.576,-0.026549706701189276
895,00:00:03.58,0.003161200322210799
896,00:00:03.584,0.1059601679444312
897,00:00:03.588,0.01772595994771109
898,00:00:03.592,-0.13834616797976168
899,00:00:03.596,-0.057102516759187066
900,00:00:03.6,0.0339630781672895
901,00:00:03.604,0.04132507805479693
902,00:00:03.608,0.041302755591459565
903,00:00:03.612,0.03220689389854673
904,00:00:03.616,-0.007145629730075641
905,00:00:03.62,-0.018019137904047938
906,00:00:03.624,-0.01436730462592096
907,00:00:03.628,-0.0309839409892447
908,00:00:03.632,-0.0024208668619394094
909,00:00:03.636,-0.02526263287290931
910,00:00:03.64,0.021694005001336357
911,00:00:03.644,0.02257553581148385
912,00:00:03.648,0.02005267314962111
913,00:00:03.652,0.009418455592822289
914,00:00:03.656,-0.02359048929065466
915,00:00:03.66,-0.015588126378133903
916,00:00:03.664,-0.021117227850481854
917,00:00:03.668,0.09445355460047719
918,00:00:03.672,0.007400123402476297
919,00:00:03.676,-0.07986505143344401
920,00:00:03.68,-0.06317560374736787
921,00:00:03.684,0.017265505797695386
922,00:00:03.688,0.01975769421551379
923,00:00:03.692,0.05278896517120298
924,00:00:03.696,0.014691807038616441
925,00:00:03.7,0.02700975909829139
926,00:00:03.704,0.002620810875669102
927,00:00:03.708,-0.06889448734000318
928,00:00:03.712,-0.04787156777456402
929,00:00:03.716,0.010716721881181002
930,00:00:03.72,0.02680941950529816
931,00:00:03.724,0.0254758382216096
932,00:00:03.728,-0.011564591492060607
933,00:00:03.732,0.02991110994480553
934,00:00:03.736,0.08029029052704574
935,00:00:03.74,-0.087771326303482
936,00:00:03.744,-0.07855714624747637
937,00:00:03.748,-0.01302875834517184
938,00:00:03.752,0.03044577874243258
939,00:00:03.756,0.0551347211003303
940,00:00:03.76,0.01964928512461479
941,00:00:03.764,-0.00462251110002399
942,00:00:03.768,0.00385089032351966
943,00:00:03.772,0.02244024898391215
944,00:00:03.776,-0.058664610609412166
945,00:00:03.78,-0.041632966138422475
946,00:00:03.784,-0.014152334537357068
947,00:00:03.788,0.017514962702989578
948,00:00:03.792,0.05992641142802319
949,00:00:03.796,0.0392358996905386
950,00:00:03.8,-0.0351907876320183
951,00:00:03.804,-0.0022046593949199
952,00:00:03.808,0.039515091106295634
953,00:00:03.812,-0.05563882738351828
954,00:00:03.816,-0.06344446213915944
955,00:00:03.82,-0.0045791398733854
956,00:00:03.824,0.031748658977448906
957,00:00:03.828,0.04153156199026849
958,00:00:03.832,0.03137032967060809
959,00:00:03.836,-0.01584992674179376
960,00:00:03.84,-0.010034564300440262
961,00:00:03.844,0.0443201549351215
962,00:00:03.848,-0.0504946010187268
963,00:00:03.852,-0.026838822290301302
964,00:00:03.856,-0.006932464428246011
965,00:00:03.86,-0.02049307938432325
966,00:00:03.864,0.00833408953621981
967,00:00:03.868,0.05084950849413865
968,00:00:03.872,0.032172941369935856
969,00:00:03.876,-0.024758881190791768
970,00:00:03.88,0.03250662051141259
971,00:00:03.884,-0.03332216199487448
972,00:00:03.888,-0.050022868439555106
973,00:00:03.892,-0.018626898992806683
974,00:00:03.896,-0.003362070769071558
975,00:00:03.9,0.0590928560122848
976,00:00:03.904,0.038294927217066295
977,00:00:03.908,0.002641424536705031
978,00:00:03.912,-0.026744158240035208
979,00:00:03.916,-0.027086540474556407
980,00:00:03.92,-0.02165755536407227
981,00:00:03.924,-0.0012186892563477198
982,00:00:03.928,0.02594765601679681
983,00:00:03.932,-0.01402941020205617
984,00:00:03.936,0.041614216286689105
985,00:00:03.94,0.015300803817808597
986,00:00:03.944,0.0025770450010894966
987,00:00:03.948,-0.027933785691857303
988,00:00:03.952,-0.057549404911696855
989,00:00:03.956,-9.341631084708313e-06
990,00:00:03.96,0.027732617454603287
991,00:00:03.964,0.023777064867317642
992,00:00:03.968,0.0010465574450790605
993,00:00:03.972,0.00703698652796447
994,00:00:03.976,0.002529911231249609
995,00:00:03.98,-0.02877249754965302
996,00:00:03.984,0.05593911465257406
997,00:00:03.988,-0.04102272982709112
998,00:00:03.992,-0.02308431966230275
999,00:00:03.996,-0.003052578249480576
1000,00:00:04,0.0051026756409556
1001,00:00:04.004,0.0013385156635195017
1002,00:00:04.008,0.008525534998625467
1003,00:00:04.012,0.03599914675578471
1004,00:00:04.016,0.006519154179841211
1005,00:00:04.02,-0.004938853206112922
1006,00:00:04.024,-0.019988440675661003
1007,00:00:04.028,-0.025260119698941708
1008,00:00:04.032,-0.04456044663675131
1009,00:00:04.036,0.029515469446778263
1010,00:00:04.04,0.025760259712114954
1011,00:00:04.044,0.01253356994129715
1012,00:00:04.048,0.04455470130778848
1013,00:00:04.052,-0.008959380909800498
1014,00:00:04.056,-0.05455810838611794
1015,00:00:04.06,-0.00807406567037106
1016,00:00:04.064,-0.005735563114285471
1017,00:00:04.068,0.0010531478328630306
1018,00:00:04.072,0.01773927919566637
1019,00:00:04.076,0.01851816731505098
1020,00:00:04.08,0.040052336640656
1021,00:00:04.084,-0.035883905366063104
1022,00:00:04.088,-0.041708702920004746
1023,00:00:04.092,0.007478851359337561
1024,00:00:04.096,0.02765031415037815
1025,00:00:04.1,-0.03693951945751907
1026,00:00:04.104,0.017601221450604523
1027,00:00:04.108,0.008495150366798111
1028,00:00:04.112,-0.006044629029929702
1029,00:00:04.116,0.019669009838253194
1030,00:00:04.12,0.0744340391829609
1031,00:00:04.124,-0.07434841152280566
1032,00:00:04.128,-0.04694067453965544
1033,00:00:04.132,-0.01981273246929049
1034,00:00:04.136,-0.0013465422089211612
1035,00:00:04.14,0.04000702640041707
1036,00:00:04.144,0.0626544672995805
1037,00:00:04.148,0.025075395358726382
1038,00:00:04.152,-0.04500605911016467
1039,00:00:04.156,-0.04064820194616908
1040,00:00:04.16,-0.02636649110354483
1041,00:00:04.164,0.003097601234912869
1042,00:00:04.168,0.0041188271716236895
1043,00:00:04.172,0.037272973451763336
1044,00:00:04.176,0.04767428524792189
1045,00:00:04.18,0.019367097178474048
1046,00:00:04.184,-0.07971047493629158
1047,00:00:04.188,-0.05238655116409055
1048,00:00:04.192,0.01516459439881146
1049,00:00:04.196,0.03771958500146863
1050,00:00:04.2,0.029220572672784308
1051,00:00:04.204,0.009147567237960171
1052,00:00:04.208,0.00696668610908086
1053,00:00:04.212,-0.05318167083896699
1054,00:00:04.216,-0.0271242568269372
1055,00:00:04.22,0.054937628156039885
1056,00:00:04.224,0.01617318671196699
1057,00:00:04.228,-0.032455651409691234
1058,00:00:04.232,-0.016499917954206418
1059,00:00:04.236,-0.0038899309001863107
1060,00:00:04.24,0.005275799892842815
1061,00:00:04.244,0.05292630963958801
1062,00:00:04.248,-0.0018112575635313918
1063,00:00:04.252,-0.04050281178206201
1064,00:00:04.256,-0.0015488266944885185
1065,00:00:04.26,-0.0013108607381582225
1066,00:00:04.264,0.01438209135085348
1067,00:00:04.268,0.00901096500456333
1068,00:00:04.272,-0.015079775243066251
1069,00:00:04.276,-0.006998944096267239
1070,00:00:04.28,-8.8212313130491e-05
1071,00:00:04.284,0.01425473205745215
1072,00:00:04.288,0.0009618939366191582
1073,00:00:04.292,-0.0089007606729865
1074,00:00:04.296,0.02229791344143449
1075,00:00:04.3,-0.03246631938964129
1076,00:00:04.304,0.03064179793000222
1077,00:00:04.308,-0.01657792716287073
1078,00:00:04.312,-0.00871658825781196
1079,00:00:04.316,-0.010965965979266908
1080,00:00:04.32,-0.0047326919157058
1081,00:00:04.324,0.0411535864695907
1082,00:00:04.328,0.01500647980719809
1083,00:00:04.332,-0.007876107469201098
1084,00:00:04.336,-0.03378226747736335
1085,00:00:04.34,-0.008930967189371579
1086,00:00:04.344,0.0004986443091184022
1087,00:00:04.348,0.01075690030120312
1088,00:00:04.352,-0.00010550674051042902
1089,00:00:04.356,0.010599087894661394
1090,00:00:04.36,-0.0008802905213088196
1091,00:00:04.364,0.008313239552080583
1092,00:00:04.368,0.018654031679034202
1093,00:00:04.372,-0.006169993896037361
1094,00:00:04.376,-0.02584432344883677
1095,00:00:04.38,-0.03015039162710312
1096,00:00:04.384,-0.02559579350054261
1097,00:00:04.388,0.05011606076732278
1098,00:00:04.392,0.0528079303912818
1099,00:00:04.396,-0.014718959107995089
1100,00:00:04.4,0.002354912925511661
1101,00:00:04.404,-0.022605860605835904
1102,00:00:04.408,-0.06288612633943552
1103,00:00:04.412,0.02246508141979572
1104,00:00:04.416,0.010992388240993013
1105,00:00:04.42,0.03662623697891828
1106,00:00:04.424,0.003833990544080741
1107,00:00:04.428,8.791044820107442e-06
1108,00:00:04.432,-0.027575972955673912
1109,00:00:04.436,-0.002279718639329078
1110,00:00:04.44,-0.0041974340565502635
1111,00:00:04.444,0.027993327355943648
1112,00:00:04.448,0.03163138916715979
1113,00:00:04.452,-0.03956689639016989
1114,00:00:04.456,-0.05665343906730411
1115,00:00:04.46,0.03808622900396586
1116,00:00:04.464,0.006082133186282639
1117,00:00:04.468,-0.0075472481548787
1118,00:00:04.472,0.012674406549194798
1119,00:00:04.476,0.04375784890726214
1120,00:00:04.48,-0.021371768292738118
1121,00:00:04.484,-0.03042841888964168
1122,00:00:04.488,0.0241321753710508
1123,00:00:04.492,-0.0291014574468136
1124,00:00:04.496,-0.019186959601938752
1125,00:00:04.5,0.01019984984304756
1126,00:00:04.504,0.01575324498116966
1127,00:00:04.508,0.0147570655972231
1128,00:00:04.512,0.02625198266468947
1129,00:00:04.516,-0.02677125716581941
1130,00:00:04.52,-0.01068531669443474
1131,00:00:04.524,0.008652511984109879
1132,00:00:04.528,-0.0471975775435568
1133,00:00:04.532,0.0818241620436311
1134,00:00:04.536,0.040604698704555575
1135,00:00:04.54,-0.1097483169287443
1136,00:00:04.544,-0.05499004153534772
1137,00:00:04.548,0.04198690457269546
1138,00:00:04.552,0.0462485887110233
1139,00:00:04.556,0.024118080735206642
1140,00:00:04.56,0.0084682898595929
1141,00:00:04.564,0.01396285090595488
1142,00:00:04.568,-0.028184716589748908
1143,00:00:04.572,-0.04471171414479613
1144,00:00:04.576,-0.0568522019311786
1145,00:00:04.58,0.047866920940577984
1146,00:00:04.584,0.0490160705521703
1147,00:00:04.588,0.008936151396483159
1148,00:00:04.592,-0.006275197956711051
1149,00:00:04.596,-0.020097153261303853
1150,00:00:04.6,-0.018692908342927698
1151,00:00:04.604,0.00301640504039824
1152,00:00:04.608,0.0526937665417791
1153,00:00:04.612,0.04681103277835057
1154,00:00:04.616,-0.08352425973862407
1155,00:00:04.62,-0.07116945926100018
1156,00:00:04.624,-0.0037769043119624413
1157,00:00:04.628,0.04767391132190831
1158,00:00:04.632,0.045393489766866
1159,00:00:04.636,0.01782245433423664
1160,00:00:04.64,-0.005146772360603796
1161,00:00:04.644,-0.014127816539257751
1162,00:00:04.648,-0.03640190232545144
1163,00:00:04.652,0.04056689981371163
1164,00:00:04.656,-0.003463713452220008
1165,00:00:04.66,-0.02747712098062038
1166,00:00:04.664,-0.0279004476033151
1167,00:00:04.668,-0.010444630868732999
1168,00:00:04.672,0.08782845968380534
1169,00:00:04.676,-0.0017367035616189797
1170,00:00:04.68,-0.05564911151304846
1171,00:00:04.684,-0.00748438714072109
1172,00:00:04.688,0.01196517935022714
1173,00:00:04.692,-0.0029435707256198
1174,00:00:04.696,0.03360255574807524
1175,00:00:04.7,0.0555394077673554
1176,00:00:04.704,-0.03295623697340492
1177,00:00:04.708,-0.05178516753949226
1178,00:00:04.712,-0.05824120528995991
1179,00:00:04.716,0.007325621321797402
1180,00:00:04.72,0.05703357793390755
1181,00:00:04.724,0.02929567266255619
1182,00:00:04.728,0.0036548422649502893
1183,00:00:04.732,0.0013424798380583497
1184,00:00:04.736,-0.017630540300160653
1185,00:00:04.74,-0.01675127330236133
1186,00:00:04.744,-0.06354581145569674
1187,00:00:04.748,0.1212768517434597
1188,00:00:04.752,0.01217171782627699
1189,00:00:04.756,-0.06950717279687517
1190,00:00:04.76,-0.02832373697310682
1191,00:00:04.764,-0.04023606888949871
1192,00:00:04.768,0.0320783816277981
1193,00:00:04.772,0.05415423959493637
1194,00:00:04.776,0.06561075354693456
1195,00:00:04.78,-0.01590146146190821
1196,00:00:04.784,-0.0737494863569737
1197,00:00:04.788,-0.02775686490349479
1198,00:00:04.792,0.01845229859463869
1199,00:00:04.796,-0.012358002364635481
1200,00:00:04.8,0.03455883087008251
1201,00:00:04.804,0.0389914950355888
1202,00:00:04.808,-0.03531900816597049
1203,00:00:04.812,-0.0013258364051580013
1204,00:00:04.816,-0.005118114262586468
1205,00:00:04.82,-0.007598968222737252
1206,00:00:04.824,0.007853126036934551
1207,00:00:04.828,0.01379726454615597
1208,00:00:04.832,-0.020534226670861244
1209,00:00:04.836,0.014399504754692271
1210,00:00:04.84,-0.049545635003596586
1211,00:00:04.844,0.01186580909416079
1212,00:00:04.848,0.10669544665142897
1213,00:00:04.852,-0.02040378237143163
1214,00:00:04.856,-0.07926785689778622
1215,00:00:04.86,-0.01588705438189206
1216,00:00:04.864,0.004557337611913639
1217,00:00:04.868,0.01662425510585307
1218,00:00:04.872,0.036121464334428255
1219,00:00:04.876,0.005439194850623603
1220,00:00:04.88,0.013067048974335096
1221,00:00:04.884,-0.01529940194450319
1222,00:00:04.888,-0.020618326030671617
1223,00:00:04.892,-0.010775647126138209
1224,00:00:04.896,-0.02892648917622864
1225,00:00:04.9,0.010824767872691151
1226,00:00:04.904,0.01576325600035492
1227,00:00:04.908,0.026426434749737368
1228,00:00:04.912,0.01662022934760899
1229,00:00:04.916,-0.02032488537952299
1230,00:00:04.92,0.0003273687325418004
1231,00:00:04.924,0.010265106335282367
1232,00:00:04.928,-0.018425318638037425
1233,00:00:04.932,-0.01635187771171331
1234,00:00:04.936,0.002201766707003139
1235,00:00:04.94,-0.008126819971948862
1236,00:00:04.944,0.00214225286617877
1237,00:00:04.948,0.010777340969070789
1238,00:00:04.952,0.003178880200721328
1239,00:00:04.956,0.04130288073793052
1240,00:00:04.96,0.026702711358666354
1241,00:00:04.964,-0.04313881881535058
1242,00:00:04.968,-0.0496015325188636
1243,00:00:04.972,-0.029530169442296
1244,00:00:04.976,0.01850552996620538
1245,00:00:04.98,0.04048318788409232
1246,00:00:04.984,0.01358629763126375
1247,00:00:04.988,0.03183439001441
1248,00:00:04.992,-0.0094544388120994
1249,00:00:04.996,-0.03533490234985939
1250,00:00:05,-0.0276957796886563
1251,00:00:05.004,-0.005317868461133864
1252,00:00:05.008,0.02201724541373555
1253,00:00:05.012,0.015043447143398229
1254,00:00:05.016,0.004280420369468619
1255,00:00:05.02,0.001064401185431007
1256,00:00:05.024,-0.00098351389169693
1257,00:00:05.028,-0.00260678399354219
1258,00:00:05.032,-0.0011833389289677403
1259,00:00:05.036,-0.048351233126595644
1260,00:00:05.04,0.048607271630317014
1261,00:00:05.044,0.06349007994867864
1262,00:00:05.048,-0.07810295559465882
1263,00:00:05.052,-0.024943637661635806
1264,00:00:05.056,-0.003046223195269701
1265,00:00:05.06,0.026275723008439025
1266,00:00:05.064,0.021140386816114243
1267,00:00:05.068,0.004113838833291081
1268,00:00:05.072,0.01536037109326573
1269,00:00:05.076,-0.014926121104508635
1270,00:00:05.08,-0.02314179646782573
1271,00:00:05.084,-0.0022086263634264495
1272,00:00:05.088,-0.00881584896706045
1273,00:00:05.092,0.00515614869073033
1274,00:00:05.096,0.011511706281453359
1275,00:00:05.1,0.007476960541680459
1276,00:00:05.104,0.01383938663639134
1277,00:00:05.108,-0.0186097712721676
1278,00:00:05.112,-0.005304668098688098
1279,00:00:05.116,0.0457077585160732
1280,00:00:05.12,-0.016774802817962998
1281,00:00:05.124,-0.035138382576406
1282,00:00:05.128,-0.03368050954304633
1283,00:00:05.132,-0.0026599287521093633
1284,00:00:05.136,0.025071602271054892
1285,00:00:05.14,0.04283275222405787
1286,00:00:05.144,0.010703235966502685
1287,00:00:05.148,-0.016239210031926632
1288,00:00:05.152,0.014599271118640931
1289,00:00:05.156,-0.010103687644004801
1290,00:00:05.16,-0.005654630484059462
1291,00:00:05.164,-0.03753448673523965
1292,00:00:05.168,-0.028555870463605984
1293,00:00:05.172,0.019997509662061912
1294,00:00:05.176,0.02756867650896307
1295,00:00:05.18,0.03130064485594631
1296,00:00:05.184,-0.004616441437974581
1297,00:00:05.188,-0.01287956652231513
1298,00:00:05.192,-0.013625569175928873
1299,00:00:05.196,0.021289555821567822
1300,00:00:05.2,0.0011133644729853214
1301,00:00:05.204,-0.0043797881808131985
1302,00:00:05.208,-0.017479451693361597
1303,00:00:05.212,-0.037973594851791886
1304,00:00:05.216,-0.003497889032587409
1305,00:00:05.22,0.04137116065248847
1306,00:00:05.224,0.02433666586875911
1307,00:00:05.228,0.0008271558908745586
1308,00:00:05.232,0.0021571535617113113
1309,00:00:05.236,-0.03125348128378386
1310,00:00:05.24,0.0415421575307846
1311,00:00:05.244,-0.01767494739033282
1312,00:00:05.248,-0.06065120641142127
1313,00:00:05.252,0.0072089675813914005
1314,00:00:05.256,0.03659693337976934
1315,00:00:05.26,0.00825600046664475
1316,00:00:05.264,-0.018182961735874376
1317,00:00:05.268,0.02920423098839822
1318,00:00:05.272,0.043057142291218035
1319,00:00:05.276,-0.049404876306652995
1320,00:00:05.28,-0.059771952219307506
1321,00:00:05.284,0.017082646489143403
1322,00:00:05.288,0.030176469590514822
1323,00:00:05.292,0.037831399589777
1324,00:00:05.296,-0.0481823049485683
1325,00:00:05.3,0.0024442560970783303
1326,00:00:05.304,0.007283310871571309
1327,00:00:05.308,0.015478809364139999
1328,00:00:05.312,-0.02949647698551415
1329,00:00:05.316,0.01608524285256868
1330,00:00:05.32,0.0195476558292285
1331,00:00:05.324,-0.01055017905309793
1332,00:00:05.328,-0.026613211724907146
1333,00:00:05.332,-0.009451771154999771
1334,00:00:05.336,0.01467438274994496
1335,00:00:05.34,0.019729963969439268
1336,00:00:05.344,0.06761853583157071
1337,00:00:05.348,-0.06361953448504219
1338,00:00:05.352,-0.03584939613938332
1339,00:00:05.356,-0.0221944584045559
1340,00:00:05.36,0.0075485210400075
1341,00:00:05.364,0.02006101196457165
1342,00:00:05.368,0.0581363397650421
1343,00:00:05.372,0.01831465680152179
1344,00:00:05.376,-0.0507049327716231
1345,00:00:05.38,-0.03662701044231656
1346,00:00:05.384,0.03126306040212514
1347,00:00:05.388,0.00015440862625836892
1348,00:00:05.392,-0.01697174971923234
1349,00:00:05.396,0.0025384258187841563
1350,00:00:05.4,-0.0007503796368837079
1351,00:00:05.404,0.02407935913652181
1352,00:00:05.408,-0.03017988242208954
1353,00:00:05.412,0.038213868509046726
1354,00:00:05.416,0.05939134745858606
1355,00:00:05.42,-0.0730712190270423
1356,00:00:05.424,-0.05082517117261889
1357,00:00:05.428,0.007560461643151941
1358,00:00:05.432,0.021267765492666464
1359,00:00:05.436,0.005721795372664929
1360,00:00:05.44,0.02044639200903477
1361,00:00:05.444,0.001321993302553887
1362,00:00:05.448,0.04560613899957384
1363,00:00:05.452,-0.02039339288603519
1364,00:00:05.456,-0.06515507830772553
1365,00:00:05.46,-0.00019547296687956114
1366,00:00:05.464,-0.0123771047219634
1367,00:00:05.468,0.022198170423507708
1368,00:00:05.472,0.04140506265684964
1369,00:00:05.476,0.015589028596878019
1370,00:00:05.48,-0.006646184250712351
1371,00:00:05.484,-0.05021579144522546
1372,00:00:05.488,-0.013299181766342365
1373,00:00:05.492,0.028930818662047404
1374,00:00:05.496,-0.014857304282486458
1375,00:00:05.5,0.02873232052661477
1376,00:00:05.504,0.046257813926786226
1377,00:00:05.508,-0.05247872369363901
1378,00:00:05.512,-0.02087602438405159
1379,00:00:05.516,0.007423058268614091
1380,00:00:05.52,0.008577580912969953
1381,00:00:05.524,0.0007021315395833033
1382,00:00:05.528,-0.03693946078419684
1383,00:00:05.532,0.05124520810204553
1384,00:00:05.536,0.006362481391988662
1385,00:00:05.54,-0.03769289725460106
1386,00:00:05.544,0.02660877187736332
1387,00:00:05.548,0.00383831048384309
1388,00:00:05.552,-0.019581027096137456
1389,00:00:05.556,0.01596820855047551
1390,00:00:05.56,0.003923465497791698
1391,00:00:05.564,-0.03512384649366145
1392,00:00:05.568,-0.0039034658111631974
1393,00:00:05.572,0.009918991941958678
1394,00:00:05.576,0.030645112507045283
1395,00:00:05.58,0.027393528143875343
1396,00:00:05.584,-0.014887521509081172
1397,00:00:05.588,-0.0478978114406345
1398,00:00:05.592,-0.015931550879031416
1399,00:00:05.596,0.013342463877052058
1400,00:00:05.6,0.019080594385741292
1401,00:00:05.604,0.03118594968691464
1402,00:00:05.608,-0.01269394461996853
1403,00:00:05.612,-0.012145737651735562
1404,00:00:05.616,0.018313070584554274
1405,00:00:05.62,-0.014354212209582298
1406,00:00:05.624,-0.041902692057192395
1407,00:00:05.628,-0.004027827351819718
1408,00:00:05.632,0.01791837299242619
1409,00:00:05.636,0.08795421232935045
1410,00:00:05.64,-0.00822986662387848
1411,00:00:05.644,-0.07711763656698171
1412,00:00:05.648,-0.024455843726173
1413,00:00:05.652,0.030326312407851223
1414,00:00:05.656,-0.001912244828417911
1415,00:00:05.66,0.008051931858062791
1416,00:00:05.664,0.02413078676909207
1417,00:00:05.668,0.020806725951842936
1418,00:00:05.672,-0.03263542661443347
1419,00:00:05.676,-0.010547309182584267
1420,00:00:05.68,-0.01274431450292467
1421,00:00:05.684,0.0003336429363116622
1422,00:00:05.688,0.003594308625906708
1423,00:00:05.692,0.010619960259646137
1424,00:00:05.696,0.021224724536296008
1425,00:00:05.7,0.03706422611139712
1426,00:00:05.704,-0.034212675411254126
1427,00:00:05.708,-0.056711853947490495
1428,00:00:05.712,0.00211070943623784
1429,00:00:05.716,0.01900280034169552
1430,00:00:05.72,0.009699749061837841
1431,00:00:05.724,0.00436809356324379
1432,00:00:05.728,0.009824893582845112
1433,00:00:05.732,0.01924312254413957
1434,00:00:05.736,-0.0014466913416981506
1435,00:00:05.74,-0.02506556804291907
1436,00:00:05.744,-0.00378014997113497
1437,00:00:05.748,-0.021289792144671107
1438,00:00:05.752,-0.00417498126626016
1439,00:00:05.756,0.01024433504790067
1440,00:00:05.76,0.02496833540499213
1441,00:00:05.764,0.002753005130216481
1442,00:00:05.768,-0.0006450396031140795
1443,00:00:05.772,-0.015189635567367011
1444,00:00:05.776,0.060274181712884414
1445,00:00:05.78,-0.0300186881795526
1446,00:00:05.784,-0.06805862998589876
1447,00:00:05.788,0.006553752114996319
1448,00:00:05.792,0.02431811718270185
1449,00:00:05.796,0.023731848224997503
1450,00:00:05.8,-0.00699599552899599
1451,00:00:05.804,-0.008738377131521702
1452,00:00:05.808,0.010352001016144636
1453,00:00:05.812,-0.00036068959161638086
1454,00:00:05.816,0.0012641188222915298
1455,00:00:05.82,-0.006177795701660221
1456,00:00:05.824,0.008281179936602712
1457,00:00:05.828,-0.0017588008195162201
1458,00:00:05.832,-0.0176277551800012
1459,00:00:05.836,-0.004818449728190899
1460,00:00:05.84,0.0035235943505540507
1461,00:00:05.844,0.023289003409445334
1462,00:00:05.848,-0.01835538027808073
1463,00:00:05.852,0.01008183369413019
1464,00:00:05.856,-0.021193583961576216
1465,00:00:05.86,0.053439813666045596
1466,00:00:05.864,0.019728112034499652
1467,00:00:05.868,-0.06139355595223604
1468,00:00:05.872,-0.0572913570795208
1469,00:00:05.876,0.0352542204782367
1470,00:00:05.88,0.03161250811535862
1471,00:00:05.884,-0.0016302661970258418
1472,00:00:05.888,0.019232750055380138
1473,00:00:05.892,-0.0018577194423414773
1474,00:00:05.896,-0.019756931811571163
1475,00:00:05.9,-0.007254870841279621
1476,00:00:05.904,0.0050863767974079
1477,00:00:05.908,-0.00803940161131322
1478,00:00:05.912,0.0063774771988392
1479,00:00:05.916,0.032805561902932726
1480,00:00:05.92,-0.01793228415772323
1481,00:00:05.924,-0.02883119322359562
1482,00:00:05.928,-0.00742899277247493
1483,00:00:05.932,0.044441934674978305
1484,00:00:05.936,0.007716046529822031
1485,00:00:05.94,-0.03277498297393317
1486,00:00:05.944,-0.02898977138102056
1487,00:00:05.948,0.015697650611400656
1488,00:00:05.952,0.03605384565889841
1489,00:00:05.956,0.0016645230352878015
1490,00:00:05.96,-0.0012268326245247485
1491,00:00:05.964,-0.01264832075685263
1492,00:00:05.968,-0.0021850374178029198
1493,00:00:05.972,-0.011420354712754481
1494,00:00:05.976,-0.008346229791641253
1495,00:00:05.98,-0.004409769084304568
1496,00:00:05.984,0.012221461191074928
1497,00:00:05.988,0.03020542941521857
1498,00:00:05.992,0.02455731527879835
1499,00:00:05.996,-0.03047386475373061
1500,00:00:06,-0.035808500368148116
1501,00:00:06.004,-0.00198647053912274
1502,00:00:06.008,0.0036681119236163244
1503,00:00:06.012,0.03491015266627079
1504,00:00:06.016,0.011868841887917404
1505,00:00:06.02,-0.034777509514242404
1506,00:00:06.024,-0.01852291729301216
1507,00:00:06.028,0.02042122953571384
1508,00:00:06.032,0.003580400720238618
1509,00:00:06.036,0.03453707881271842
1510,00:00:06.04,-0.00668979063630103
1511,00:00:06.044,-0.014927466865628972
1512,00:00:06.048,-0.03944740677252416
1513,00:00:06.052,-0.01950152218341828
1514,00:00:06.056,0.028135256841778804
1515,00:00:06.06,0.0521954987198114
1516,00:00:06.064,0.0035179764963686523
1517,00:00:06.068,-0.031132116913795464
1518,00:00:06.072,0.006324565969407628
1519,00:00:06.076,-0.01478205434978012
1520,00:00:06.08,-0.02108308902825231
1521,00:00:06.084,-0.0006856863619759601
1522,00:00:06.088,0.006345063287881168
1523,00:00:06.092,0.045377503382042036
1524,00:00:06.096,0.02745847380720071
1525,00:00:06.1,-0.0492600547149777
1526,00:00:06.104,-0.0088664658833295
1527,00:00:06.108,-0.013639509677886998
1528,00:00:06.112,-0.02678262488916515
1529,00:00:06.116,0.034157958813011674
1530,00:00:06.12,0.02883687755092981
1531,00:00:06.124,-0.018850505643058558
1532,00:00:06.128,0.03193877963349225
1533,00:00:06.132,0.0206453558057546
1534,00:00:06.136,-0.06621789559721947
1535,00:00:06.14,-0.02164550963789228
1536,00:00:06.144,0.012764798710122701
1537,00:00:06.148,0.026014073519036188
1538,00:00:06.152,-0.00750054093077778
1539,00:00:06.156,0.00975918490439651
1540,00:00:06.16,-0.00771898799575867
1541,00:00:06.164,0.00673857983201741
1542,00:00:06.168,0.04079521214589476
1543,00:00:06.172,-0.0150506924837827
1544,00:00:06.176,-0.045706551987677764
1545,00:00:06.18,-0.03694823570549486
1546,00:00:06.184,0.022485586348921022
1547,00:00:06.188,0.03258640854619442
1548,00:00:06.192,0.010748215718194839
1549,00:00:06.196,0.028049784246832177
1550,00:00:06.2,-0.03944032103754586
1551,00:00:06.204,-0.024543216917663768
1552,00:00:06.208,0.04497414082288742
1553,00:00:06.212,0.011440531350672242
1554,00:00:06.216,-0.05057449219748381
1555,00:00:06.22,-0.013593807816505446
1556,00:00:06.224,-0.0022453302517533302
1557,00:00:06.228,0.014647816075012043
1558,00:00:06.232,0.04261795757338406
1559,00:00:06.236,0.0043074176646769324
1560,00:00:06.24,0.02719383593648672
1561,00:00:06.244,-0.03705614292994143
1562,00:00:06.248,-0.06803488828882102
1563,00:00:06.252,0.0014919899404049197
1564,00:00:06.256,0.03558914270251993
1565,00:00:06.26,0.02387483278289439
1566,00:00:06.264,0.0038626901805400788
1567,00:00:06.268,-0.008410107344389
1568,00:00:06.272,3.1651230528949824e-05
1569,00:00:06.276,0.0258118202909827
1570,00:00:06.28,-0.0497604170814156
1571,00:00:06.284,-0.015486703719943831
1572,00:00:06.288,0.040677357465028804
1573,00:00:06.292,0.00308806542307142
1574,00:00:06.296,0.017175990040414032
1575,00:00:06.3,-0.0466537883039564
1576,00:00:06.304,0.01308873831294479
1577,00:00:06.308,-0.009155964478850328
1578,00:00:06.312,-0.01935382536612453
1579,00:00:06.316,0.04549810569733384
1580,00:00:06.32,0.030697624199092454
1581,00:00:06.324,-0.041081784525886206
1582,00:00:06.328,-0.0029046664421912287
1583,00:00:06.332,-0.009819890838116409
1584,00:00:06.336,0.015473400242626672
1585,00:00:06.34,-0.00935467961244286
1586,00:00:06.344,-0.0051430338062346
1587,00:00:06.348,0.013867109140846833
1588,00:00:06.352,-0.0088433807250112
1589,00:00:06.356,0.034508155426010524
1590,00:00:06.36,-0.015666532679460922
1591,00:00:06.364,-0.0338168060407043
1592,00:00:06.368,-0.014326493954285969
1593,00:00:06.372,0.04519573191646489
1594,00:00:06.376,0.00946142256725575
1595,00:00:06.38,-0.02910112612880769
1596,00:00:06.384,-0.008650344330817518
1597,00:00:06.388,0.00619360967539251
1598,00:00:06.392,0.0793313467875123
1599,00:00:06.396,-0.01997985993511978
1600,00:00:06.4,-0.0938700251281262
1601,00:00:06.404,-0.023651310242712498
1602,00:00:06.408,0.04439152171835299
1603,00:00:06.412,0.04499329486861825
1604,00:00:06.416,0.0021837279200553903
1605,00:00:06.42,-0.00733426585793496
1606,00:00:06.424,0.012389397714287029
1607,00:00:06.428,-0.008920966414734737
1608,00:00:06.432,-0.028436439926736036
1609,00:00:06.436,0.0062052309513092214
1610,00:00:06.44,-0.028633953072130604
1611,00:00:06.444,0.0022526527754962895
1612,00:00:06.448,0.020284525351598845
1613,00:00:06.452,0.032862376887351274
1614,00:00:06.456,0.0022760047577321703
1615,00:00:06.46,-0.04236428788863117
1616,00:00:06.464,0.05246629286557438
1617,00:00:06.468,0.0376465320587158
1618,00:00:06.472,-0.08617640752345325
1619,00:00:06.476,-0.05600106157362459
1620,00:00:06.48,0.008431693539023401
1621,00:00:06.484,0.048028207849711124
1622,00:00:06.488,0.0400027651339769
1623,00:00:06.492,-0.002923548512626443
1624,00:00:06.496,-0.00583216268569234
1625,00:00:06.5,0.014261795629863589
1626,00:00:06.504,-0.019494208507239798
1627,00:00:06.508,-0.030937539762817347
1628,00:00:06.512,-0.005162258632481102
1629,00:00:06.516,0.00851711817085748
1630,00:00:06.52,0.0032386574894189384
1631,00:00:06.524,0.009664085693657402
1632,00:00:06.528,0.004568614531308458
1633,00:00:06.532,0.003350567072629919
1634,00:00:06.536,0.01596287707798183
1635,00:00:06.54,-0.00023157708346849964
1636,00:00:06.544,0.005357941612601259
1637,00:00:06.548,-0.05958071863278752
1638,00:00:06.552,-0.013800987973809197
1639,00:00:06.556,0.04624798940494653
1640,00:00:06.56,0.0043279948295094255
1641,00:00:06.564,-0.004538178793154744
1642,00:00:06.568,-0.0020971978083253115
1643,00:00:06.572,0.05740495305508378
1644,00:00:06.576,-0.0425052151549608
1645,00:00:06.58,-0.04023072449490428
1646,00:00:06.584,0.014084044465562332
1647,00:00:06.588,-0.00844736886210739
1648,00:00:06.592,0.011831065872684121
1649,00:00:06.596,0.002140191849321139
1650,00:00:06.6,0.026024013757705647
1651,00:00:06.604,0.0016133021563291498
1652,00:00:06.608,0.005309389904141428
1653,00:00:06.612,-0.03013705869670962
1654,00:00:06.616,-0.007250951603054967
1655,00:00:06.62,0.00930677168071272
1656,00:00:06.624,0.020593740977346897
1657,00:00:06.628,-0.03063221150659961
1658,00:00:06.632,-0.015635468997061232
1659,00:00:06.636,0.01644462253898383
1660,00:00:06.64,0.017120577744208307
1661,00:00:06.644,0.009036771079991044
1662,00:00:06.648,0.01020738179795442
1663,00:00:06.652,-0.011489800177514579
1664,00:00:06.656,-0.01883716008160269
1665,00:00:06.66,0.0184334255754947
1666,00:00:06.664,-0.029215570306405463
1667,00:00:06.668,-0.0032324120402336017
1668,00:00:06.672,-0.00025807367637754007
1669,00:00:06.676,0.01750205352436751
1670,00:00:06.68,0.03349283710122105
1671,00:00:06.684,-0.021526593016460552
1672,00:00:06.688,-0.027704127423930934
1673,00:00:06.692,0.03170919138938185
1674,00:00:06.696,-0.011140391696244499
1675,00:00:06.7,0.030710498802363907
1676,00:00:06.704,-0.025117391080129853
1677,00:00:06.708,-0.029570359736681002
1678,00:00:06.712,-0.01579996384680266
1679,00:00:06.716,0.03576490632258357
1680,00:00:06.72,-0.002575733233243241
1681,00:00:06.724,0.013794007740216333
1682,00:00:06.728,0.00701791327446703
1683,00:00:06.732,-0.0053003751381766094
1684,00:00:06.736,-0.018877935755881512
1685,00:00:06.74,-0.008626383729279048
1686,00:00:06.744,0.04316422273404893
1687,00:00:06.748,-0.00940500339493156
1688,00:00:06.752,-0.034527444804552936
1689,00:00:06.756,0.000187520257895812
1690,00:00:06.76,-0.0030367551371454915
1691,00:00:06.764,0.023703016457147907
1692,00:00:06.768,0.01732391444966193
1693,00:00:06.772,0.0018842532299459397
1694,00:00:06.776,-0.01325273420661685
1695,00:00:06.78,-0.011880411417223518
1696,00:00:06.784,-0.009037109906785228
1697,00:00:06.788,0.01766137394588444
1698,00:00:06.792,-0.021153651177883113
1699,00:00:06.796,-0.01701689884066582
1700,00:00:06.8,0.019112143258098523
1701,00:00:06.804,0.02462843641114893
1702,00:00:06.808,0.00887067869189196
1703,00:00:06.812,0.00245993444696069
1704,00:00:06.816,-0.011151637881994251
1705,00:00:06.82,-0.015372827183455241
1706,00:00:06.824,-0.01019404269754887
1707,00:00:06.828,0.0004583935951814103
1708,00:00:06.832,0.02160903485491876
1709,00:00:06.836,-0.006123726023361
1710,00:00:06.84,-0.0132779590785503
1711,00:00:06.844,0.0009274985641240484
1712,00:00:06.848,0.014566539321094758
1713,00:00:06.852,0.06421410510665743
1714,00:00:06.856,-0.06718395068310204
1715,00:00:06.86,-0.04741348506649953
1716,00:00:06.864,0.006441709236241881
1717,00:00:06.868,0.029118577658664473
1718,00:00:06.872,0.02160649839788681
1719,00:00:06.876,-0.006390960654243822
1720,00:00:06.88,-0.0018895418616012138
1721,00:00:06.884,0.052108387462794795
1722,00:00:06.888,-0.03670426574535664
1723,00:00:06.892,-0.030641175340861127
1724,00:00:06.896,-0.01641672861296683
1725,00:00:06.9,-0.004470905289053896
1726,00:00:06.904,0.020618298643967168
1727,00:00:06.908,0.03335549775511024
1728,00:00:06.912,-4.66212513856631e-05
1729,00:00:06.916,0.0008592945523560012
1730,00:00:06.92,-0.02666481304913754
1731,00:00:06.924,-0.02534320417908022
1732,00:00:06.928,0.0144827058538795
1733,00:00:06.932,0.02007802756270394
1734,00:00:06.936,0.03965099266497419
1735,00:00:06.94,-0.013741766568273259
1736,00:00:06.944,-0.043783060449641184
1737,00:00:06.948,-0.02146452292799948
1738,00:00:06.952,-0.0021357608493417606
1739,00:00:06.956,0.027619435684755417
1740,00:00:06.96,0.030797790735959948
1741,00:00:06.964,0.00506919878534965
1742,00:00:06.968,0.0004619411192834399
1743,00:00:06.972,-0.02736948244273654
1744,00:00:06.976,-0.009260502643883249
1745,00:00:06.98,-0.002078995807096329
1746,00:00:06.984,0.01207924634218215
1747,00:00:06.988,-0.004130539484322109
1748,00:00:06.992,-0.006206263788044449
1749,00:00:06.996,-0.011986499652266511
1750,00:00:07,0.04017685959115628
1751,00:00:07.004,0.03571334853768348
1752,00:00:07.008,-0.04676763433963061
1753,00:00:07.012,-0.0434535755775869
1754,00:00:07.016,0.011475792969577018
1755,00:00:07.02,0.016576343945416728
1756,00:00:07.024,0.01819000765681263
1757,00:00:07.028,-0.001402216497808622
1758,00:00:07.032,0.01037272624671459
1759,00:00:07.036,0.006818908266723149
1760,00:00:07.04,-0.027310964651405808
1761,00:00:07.044,-0.03529257234185933
1762,00:00:07.048,0.02764447277877484
1763,00:00:07.052,0.0017993897199630707
1764,00:00:07.056,0.009708087891340228
1765,00:00:07.06,0.02416738495230673
1766,00:00:07.064,-0.012123797088861549
1767,00:00:07.068,0.006514321547001581
1768,00:00:07.072,-0.02557513769716024
1769,00:00:07.076,-0.021008433774113697
1770,00:00:07.08,0.016991228796541698
1771,00:00:07.084,-0.009644440517149596
1772,00:00:07.088,-0.00807385344523944
1773,00:00:07.092,0.03804337466135617
1774,00:00:07.096,0.02696849755011497
1775,00:00:07.1,0.005036429967731272
1776,00:00:07.104,-0.03966046590358023
1777,00:00:07.108,-0.022530172020196873
1778,00:00:07.112,-0.012154961121268598
1779,00:00:07.116,0.01603915216401224
1780,00:00:07.12,0.00754710333421825
1781,00:00:07.124,0.008435946656391042
1782,00:00:07.128,0.015454475535079837
1783,00:00:07.132,0.02406433265423402
1784,00:00:07.136,-0.0420644987607374
1785,00:00:07.14,-0.013639927026815709
1786,00:00:07.144,0.004054275806993218
1787,00:00:07.148,0.003572166897356538
1788,00:00:07.152,0.015474558211280964
1789,00:00:07.156,-0.0259588742628694
1790,00:00:07.16,0.02852684445679184
1791,00:00:07.164,0.02654814592096957
1792,00:00:07.168,-0.06409959308803075
1793,00:00:07.172,0.01990706007927654
1794,00:00:07.176,0.01809186534956095
1795,00:00:07.18,-0.024194306693971157
1796,00:00:07.184,0.02416712790727616
1797,00:00:07.188,0.003885755897499593
1798,00:00:07.192,-0.012196890078485019
1799,00:00:07.196,-0.02665177080780269
1800,00:00:07.2,0.0133958915248513
1801,00:00:07.204,4.695524694397525e-05
1802,00:00:07.208,0.032980363350361606
1803,00:00:07.212,0.0025816985871642863
1804,00:00:07.216,-0.03227230720221992
1805,00:00:07.22,0.004756324109621333
1806,00:00:07.224,0.00873681530356411
1807,00:00:07.228,-0.01853056950494646
1808,00:00:07.232,-0.014941389730665867
1809,00:00:07.236,0.04294567136093978
1810,00:00:07.24,0.01888358965516083
1811,00:00:07.244,-0.024756940081715573
1812,00:00:07.248,-0.0312395920045674
1813,00:00:07.252,0.009408131241798397
1814,00:00:07.256,0.0030562831088901
1815,00:00:07.26,0.005113654769957201
1816,00:00:07.264,0.005941815907135599
1817,00:00:07.268,-0.004397700016852437
1818,00:00:07.272,0.010632036253809929
1819,00:00:07.276,0.0151719562709332
1820,00:00:07.28,-0.015560710569843698
1821,00:00:07.284,-0.01563169539440419
1822,00:00:07.288,-0.00326817785389721
1823,00:00:07.292,0.00377097621094435
1824,00:00:07.296,0.00978925405070186
1825,00:00:07.3,-0.00192229181993753
1826,00:00:07.304,-0.0061317230574786715
1827,00:00:07.308,-0.010159922181628638
1828,00:00:07.312,0.01882535242475568
1829,00:00:07.316,0.04235068289563062
1830,00:00:07.32,-0.02979151633917356
1831,00:00:07.324,-0.031623787246644525
1832,00:00:07.328,-0.01038718246854841
1833,00:00:07.332,0.01015612349146977
1834,00:00:07.336,0.02118974912445996
1835,00:00:07.34,-0.004172890912741419
1836,00:00:07.344,0.0074068007525056045
1837,00:00:07.348,-0.011718750698491931
1838,00:00:07.352,0.05178419128060349
1839,00:00:07.356,-0.05074164550751446
1840,00:00:07.36,-0.026790233794599796
1841,00:00:07.364,0.020441795699298382
1842,00:00:07.368,-0.003049470018595457
1843,00:00:07.372,0.0020216354168951303
1844,00:00:07.376,0.01890091761015352
1845,00:00:07.38,0.005005947314202742
1846,00:00:07.384,0.00856278371065856
1847,00:00:07.388,-0.02697601530235265
1848,00:00:07.392,-0.01770588243380186
1849,00:00:07.396,0.03813809691928331
1850,00:00:07.4,-0.013215554412454377
1851,00:00:07.404,-0.0287348148413003
1852,00:00:07.408,0.005955385975539729
1853,00:00:07.412,0.06221460783854131
1854,00:00:07.416,0.0023184129968285283
1855,00:00:07.42,-0.0744082648307085
1856,00:00:07.424,0.017830037744715838
1857,00:00:07.428,0.009429312776774211
1858,00:00:07.432,-0.03053384833037856
1859,00:00:07.436,0.0019587518181651753
1860,00:00:07.44,0.044521305244416096
1861,00:00:07.444,0.0603812774643303
1862,00:00:07.448,-0.04617077158763998
1863,00:00:07.452,-0.04666123748756952
1864,00:00:07.456,-0.0002985438331961285
1865,00:00:07.46,-0.0002640434540807776
1866,00:00:07.464,-0.009663034230470649
1867,00:00:07.468,0.01151275262236595
1868,00:00:07.472,0.0329094999469817
1869,00:00:07.476,0.04283321881666784
1870,00:00:07.48,-0.024865822866559056
1871,00:00:07.484,-0.05369643610902129
1872,00:00:07.488,-0.008027979405596849
1873,00:00:07.492,0.0179167171008885
1874,00:00:07.496,-0.0038598035462200694
1875,00:00:07.5,0.01385449746157974
1876,00:00:07.504,0.004897141916444529
1877,00:00:07.508,-0.00218306574970479
1878,00:00:07.512,0.004084648564457812
1879,00:00:07.516,0.02062240289524196
1880,00:00:07.52,-0.017451914609409862
1881,00:00:07.524,0.01693575433455404
1882,00:00:07.528,-0.04419085104018445
1883,00:00:07.532,-0.025990884634666152
1884,00:00:07.536,0.01256307587027552
1885,00:00:07.54,0.0160391791723668
1886,00:00:07.544,0.059548035613261135
1887,00:00:07.548,0.00190052436664709
1888,00:00:07.552,-0.051294942735694404
1889,00:00:07.556,-0.016349006444215813
1890,00:00:07.56,0.01311519066803154
1891,00:00:07.564,-0.0020910417661070793
1892,00:00:07.568,0.02364562591537831
1893,00:00:07.572,0.004503914329688999
1894,00:00:07.576,-0.03146017529070376
1895,00:00:07.58,0.01246348209679126
1896,00:00:07.584,0.0008522098651155828
1897,00:00:07.588,0.0034005367197096304
1898,00:00:07.592,-0.0076944585889577154
1899,00:00:07.596,0.010213730856776175
1900,00:00:07.6,0.00027775811031463885
1901,00:00:07.604,-0.010180324781686081
1902,00:00:07.608,-0.018587394384667295
1903,00:00:07.612,0.010684728622436522
1904,00:00:07.616,0.05434581683948636
1905,00:00:07.62,0.012014792300760704
1906,00:00:07.624,-0.07297767512500283
1907,00:00:07.628,-0.026711407117545598
1908,00:00:07.632,0.0009828650072449855
1909,00:00:07.636,0.06517951632849874
1910,00:00:07.64,0.0062449462711811725
1911,00:00:07.644,-0.01993697602301837
1912,00:00:07.648,-0.016001477604731872
1913,00:00:07.652,0.01685194351011889
1914,00:00:07.656,0.003977522952482149
1915,00:00:07.66,-0.020330333150923318
1916,00:00:07.664,0.003686461597681049
1917,00:00:07.668,0.006448727392125868
1918,00:00:07.672,0.00451929634436974
1919,00:00:07.676,-0.007437220483552701
1920,00:00:07.68,-0.010694515542127199
1921,00:00:07.684,0.006932759657502138
1922,00:00:07.688,0.00672595406649634
1923,00:00:07.692,0.03098431346006695
1924,00:00:07.696,-0.0313454593997449
1925,00:00:07.7,-0.023514510190580023
1926,00:00:07.704,0.0183918464463204
1927,00:00:07.708,-0.0015938027063384513
1928,00:00:07.712,0.017091059940867084
1929,00:00:07.716,0.005612889886833769
1930,00:00:07.72,-0.023649561684578633
1931,00:00:07.724,-0.024440983543172472
1932,00:00:07.728,0.014315843116492002
1933,00:00:07.732,0.061323426198214306
1934,00:00:07.736,-0.014323187526315478
1935,00:00:07.74,-0.046909044962376356
1936,00:00:07.744,0.00752547010779387
1937,00:00:07.748,0.00572554161772138
1938,00:00:07.752,0.00041447719559074055
1939,00:00:07.756,-0.01216142205521465
1940,00:00:07.76,0.0006477382848970644
1941,00:00:07.764,0.02122013922780747
1942,00:00:07.768,0.01194627163931724
1943,00:00:07.772,0.012405333924107299
1944,00:00:07.776,-0.034043536521494305
1945,00:00:07.78,0.00738047948107128
1946,00:00:07.784,-0.02406396553851665
1947,00:00:07.788,-0.0060493603814393455
1948,00:00:07.792,0.02558060991577806
1949,00:00:07.796,0.00845208298414944
1950,00:00:07.8,-0.018910618964582713
1951,00:00:07.804,0.01840303238714115
1952,00:00:07.808,0.00934580620378252
1953,00:00:07.812,0.00047675915993748014
1954,00:00:07.816,-0.030483652604743873
1955,00:00:07.82,0.005917741451412478
1956,00:00:07.824,0.011362541466951391
1957,00:00:07.828,-0.009462870657444
1958,00:00:07.832,-0.01713621616363524
1959,00:00:07.836,0.02572635409887882
1960,00:00:07.84,0.04007036215625704
1961,00:00:07.844,-0.04804100841283794
1962,00:00:07.848,-0.00451754732057451
1963,00:00:07.852,0.011706636752933298
1964,00:00:07.856,-0.01679287292063236
1965,00:00:07.86,-0.0137283715885132
1966,00:00:07.864,0.04369906429201363
1967,00:00:07.868,-0.0036722906224895334
1968,00:00:07.872,-0.0010510645806789017
1969,00:00:07.876,-0.01751160575076939
1970,00:00:07.88,-0.0031226998908095993
1971,00:00:07.884,-0.0014678628649562615
1972,00:00:07.888,0.02862102561630308
1973,00:00:07.892,-0.0052316894289106105
1974,00:00:07.896,-0.003970060031861069
1975,00:00:07.9,-0.0028942128410562873
1976,00:00:07.904,-0.03761551319621504
1977,00:00:07.908,0.013044426450505851
1978,00:00:07.912,0.025757349096238613
1979,00:00:07.916,0.01006431668065489
1980,00:00:07.92,-0.03242190578021109
1981,00:00:07.924,0.03935147868469361
1982,00:00:07.928,0.009878856471914329
1983,00:00:07.932,-0.051949526183307226
1984,00:00:07.936,-0.00651718070730564
1985,00:00:07.94,0.0184529637917876
1986,00:00:07.944,0.0037024028133601015
1987,00:00:07.948,-0.016357854474335944
1988,00:00:07.952,0.04139510402455924
1989,00:00:07.956,0.005371860810555519
1990,00:00:07.96,-0.016250397573457986
1991,00:00:07.964,-0.02109252940863375
1992,00:00:07.968,-0.01244807988405229
1993,00:00:07.972,0.006154342554509598
1994,00:00:07.976,0.019093665294349197
1995,00:00:07.98,0.01873821381013841
1996,00:00:07.984,-0.013162182935047857
1997,00:00:07.988,-0.02243452426046132
1998,00:00:07.992,-0.00541402632370591
1999,00:00:07.996,0.019539222586900037
2000,00:00:08,0.03832662012428039
2001,00:00:08.004,-0.025185922160744657
2002,00:00:08.008,-0.023147746920585695
2003,00:00:08.012,-0.019280476029962263
2004,00:00:08.016,-0.0008563904557377005
2005,00:00:08.02,0.04179463675245647
2006,00:00:08.024,0.01702967004803216
2007,00:00:08.028,-0.023618242586962948
2008,00:00:08.032,-0.0261721285060048
2009,00:00:08.036,0.014316274508018978
2010,00:00:08.04,0.01736668054945769
2011,00:00:08.044,-0.01646486134268344
2012,00:00:08.048,0.027815384091809347
2013,00:00:08.052,0.007670534541830469
2014,00:00:08.056,-0.038232640363276074
2015,00:00:08.06,-0.010389217175543301
2016,00:00:08.064,-0.012875083601102278
2017,00:00:08.068,0.00335224112495776
2018,00:00:08.072,0.04616744443774228
2019,00:00:08.076,0.025718855191371355
2020,00:00:08.08,-0.0384087399579585
2021,00:00:08.084,-0.013559205224737511
2022,00:00:08.088,-0.003187454072758559
2023,00:00:08.092,-0.00876788981258866
2024,00:00:08.096,0.013495630584657189
2025,00:00:08.1,0.014023531693965221
2026,00:00:08.104,0.01611107215285303
2027,00:00:08.108,-0.0018702175002545465
2028,00:00:08.112,-0.02223284868523476
2029,00:00:08.116,-0.002276878309203334
2030,00:00:08.12,-0.017119373194873302
2031,00:00:08.124,0.003871182554576103
2032,00:00:08.128,0.00739356689155102
2033,00:00:08.132,-0.00508000736590477
2034,00:00:08.136,0.026927194558083987
2035,00:00:08.14,0.0303492583334446
2036,00:00:08.144,-0.0380424031754955
2037,00:00:08.148,-0.008295848965644798
2038,00:00:08.152,-0.011833515949547322
2039,00:00:08.156,-0.013661933597177267
2040,00:00:08.16,0.017237573862075757
2041,00:00:08.164,0.0709871202707291
2042,00:00:08.168,-0.02831956697627898
2043,00:00:08.172,-0.0696773522067815
2044,00:00:08.176,-0.004082377068698432
2045,00:00:08.18,0.02203747769817707
2046,00:00:08.184,0.03093203320167958
2047,00:00:08.188,0.007995859894435855
2048,00:00:08.192,0.004174216999672371
2049,00:00:08.196,-0.02846704446710647
2050,00:00:08.2,0.0192145630717278
2051,00:00:08.204,-0.011862393468618431
2052,00:00:08.208,-0.007783316948916757
2053,00:00:08.212,-0.006449216278269878
2054,00:00:08.216,-0.004459799733012981
2055,00:00:08.22,0.00859361258335411
2056,00:00:08.224,0.01972011849284172
2057,00:00:08.228,0.001168909016996669
2058,00:00:08.232,-0.028690368868410504
2059,00:00:08.236,0.04678620584309111
2060,00:00:08.24,0.01622185646556321
2061,00:00:08.244,-0.0630891434848308
2062,00:00:08.248,-0.03154054330661892
2063,00:00:08.252,0.0249085039831698
2064,00:00:08.256,0.0202497630380094
2065,00:00:08.26,-0.0020855558104813108
2066,00:00:08.264,0.023590525088366093
2067,00:00:08.268,0.016985179390758283
2068,00:00:08.272,-0.01918200135696682
2069,00:00:08.276,-0.018630100414156872
2070,00:00:08.28,-0.02171012153849004
2071,00:00:08.284,-0.0004184979479759602
2072,00:00:08.288,0.004243524861522021
2073,00:00:08.292,0.02399047673679889
2074,00:00:08.296,0.0023420648649334595
2075,00:00:08.3,-0.004875733051449019
2076,00:00:08.304,0.05580581235699356
2077,00:00:08.308,-0.0191871896386146
2078,00:00:08.312,-0.07355637801811095
2079,00:00:08.316,-0.02328413748182359
2080,00:00:08.32,0.03013033850584179
2081,00:00:08.324,0.02881855797022579
2082,00:00:08.328,0.038597058504819856
2083,00:00:08.332,-0.00964773190207781
2084,00:00:08.336,-0.01622260827571151
2085,00:00:08.34,-0.01188979949802161
2086,00:00:08.344,-0.01748659845907237
2087,00:00:08.348,-0.014964896021410832
2088,00:00:08.352,0.006840375717729329
2089,00:00:08.356,0.0149269085377455
2090,00:00:08.36,0.04801103379577392
2091,00:00:08.364,0.01590277068316938
2092,00:00:08.368,-0.04507221933454275
2093,00:00:08.372,-0.048650997458025765
2094,00:00:08.376,0.006083984859287709
2095,00:00:08.38,0.025266904413001567
2096,00:00:08.384,0.004268296004738676
2097,00:00:08.388,0.03357130568474535
2098,00:00:08.392,-0.013535397592932031
2099,00:00:08.396,-0.03349841327872129
2100,00:00:08.4,0.021456622984260307
2101,00:00:08.404,0.003454448655247702
2102,00:00:08.408,-0.007051855325698797
2103,00:00:08.412,0.00039227493107317317
2104,00:00:08.416,-0.00916456349659709
2105,00:00:08.42,-0.0026340913027524983
2106,00:00:08.424,0.00856746808858589
2107,00:00:08.428,0.0027239345945417803
2108,00:00:08.432,0.0014007110148668298
2109,00:00:08.436,-0.0179308848455548
2110,00:00:08.44,0.03849765984341502
2111,00:00:08.444,-0.005698912078514699
2112,00:00:08.448,-0.003382254741154643
2113,00:00:08.452,-0.03452527662739162
2114,00:00:08.456,0.006934946402907371
2115,00:00:08.46,0.009472738776821633
2116,00:00:08.464,-0.0012553372653201196
2117,00:00:08.468,0.029394133540336022
2118,00:00:08.472,-0.014009690232342121
2119,00:00:08.476,-0.0165639398037456
2120,00:00:08.48,-0.01817467436194421
2121,00:00:08.484,0.01996153421350754
2122,00:00:08.488,0.013428759702946984
2123,00:00:08.492,-0.0026148867327719888
2124,00:00:08.496,0.01698366005439312
2125,00:00:08.5,-0.010637884028255908
2126,00:00:08.504,-0.023672673385590356
2127,00:00:08.508,-0.0131894788937643
2128,00:00:08.512,0.0288563845679164
2129,00:00:08.516,-0.0001451345160603211
2130,00:00:08.52,0.01615654677152634
2131,00:00:08.524,-0.01912637206260119
2132,00:00:08.528,-0.014726812951266767
2133,00:00:08.532,-0.005112588900374247
2134,00:00:08.536,0.01408874569460745
2135,00:00:08.54,0.002286198548972612
2136,00:00:08.544,-0.0046444535255432025
2137,00:00:08.548,0.04156384849920868
2138,00:00:08.552,0.014747228240594263
2139,00:00:08.556,-0.048202833160758046
2140,00:00:08.56,-0.04294815514003859
2141,00:00:08.564,0.013097507879137976
2142,00:00:08.568,0.020605259807780392
2143,00:00:08.572,0.00950995448511097
2144,00:00:08.576,0.01403936772840101
2145,00:00:08.58,-0.007571914698928591
2146,00:00:08.584,-0.03248856790014539
2147,00:00:08.588,0.0318571915850043
2148,00:00:08.592,0.0758042139932513
2149,00:00:08.596,-0.05651878798380496
2150,00:00:08.6,-0.0725757535547019
2151,00:00:08.604,-0.01228461391292513
2152,00:00:08.608,0.0293913669884205
2153,00:00:08.612,0.02725967857986688
2154,00:00:08.616,0.02448442042805251
2155,00:00:08.62,-0.00034745084121823983
2156,00:00:08.624,-0.00966596510261297
2157,00:00:08.628,-0.003591768676415051
2158,00:00:08.632,-0.007581168552860619
2159,00:00:08.636,0.01678123394958679
2160,00:00:08.64,-0.01547343702986839
2161,00:00:08.644,-0.0265463949181139
2162,00:00:08.648,-0.011750145931728198
2163,00:00:08.652,0.018810152309015386
2164,00:00:08.656,0.02898378320969636
2165,00:00:08.66,0.00657315319404003
2166,00:00:08.664,-0.007046181941404939
2167,00:00:08.668,-0.004262785310857
2168,00:00:08.672,-0.0151856173761189
2169,00:00:08.676,0.030563840642571418
2170,00:00:08.68,-0.02807573234895245
2171,00:00:08.684,-0.008879069704562469
2172,00:00:08.688,0.009616951458156098
2173,00:00:08.692,0.0495002325624228
2174,00:00:08.696,-0.0669470205903053
2175,00:00:08.7,-0.02656134223798285
2176,00:00:08.704,0.02955468837171797
2177,00:00:08.708,0.033953484147787115
2178,00:00:08.712,0.01768017566064368
2179,00:00:08.716,-0.02045446867123245
2180,00:00:08.72,-0.008195766014978319
2181,00:00:08.724,-0.0154199190437793
2182,00:00:08.728,-0.02652065582515209
2183,00:00:08.732,0.06376627460122108
2184,00:00:08.736,0.0169460079341661
2185,00:00:08.74,-0.022572375368326902
2186,00:00:08.744,-0.0510476534254849
2187,00:00:08.748,-0.006235334556549792
2188,00:00:08.752,0.00945891975425181
2189,00:00:08.756,0.03333019558340307
2190,00:00:08.76,0.02986173657700422
2191,00:00:08.764,-0.010678351587557698
2192,00:00:08.768,-0.0727968867868184
2193,00:00:08.772,0.053513153456151485
2194,00:00:08.776,0.0653425636701286
2195,00:00:08.78,-0.05970526766031979
2196,00:00:08.784,-0.0687191830947995
2197,00:00:08.788,0.01535604975651952
2198,00:00:08.792,0.03835194185376159
2199,00:00:08.796,0.018901224248111248
2200,00:00:08.8,0.00367575371637943
2201,00:00:08.804,0.006930730014573783
2202,00:00:08.808,-0.016046693315729513
2203,00:00:08.812,-0.0493993200361729
2204,00:00:08.816,0.04332044883631166
2205,00:00:08.82,0.03132643457502133
2206,00:00:08.824,-0.035550797765608905
2207,00:00:08.828,-0.00708686839789152
2208,00:00:08.832,0.003341877367347531
2209,00:00:08.836,-0.007891917310189423
2210,00:00:08.84,-0.01695714442757898
2211,00:00:08.844,0.01448501588311042
2212,00:00:08.848,0.01899918774142863
2213,00:00:08.852,0.01246549002826209
2214,00:00:08.856,0.03524510422721507
2215,00:00:08.86,-0.018759958911687184
2216,00:00:08.864,-0.02758932765573268
2217,00:00:08.868,-0.0541481403633952
2218,00:00:08.872,-0.0005431567551568094
2219,00:00:08.876,0.033832845743745586
2220,00:00:08.88,0.02326560020446776
2221,00:00:08.884,0.02526204520836476
2222,00:00:08.888,-0.018530185334384393
2223,00:00:08.892,-0.002234870567917796
2224,00:00:08.896,-0.007717141881585199
2225,00:00:08.9,-0.01913798600435257
2226,00:00:08.904,0.0006119422614574406
2227,00:00:08.908,0.00584829715080561
2228,00:00:08.912,0.00934910913929343
2229,00:00:08.916,-0.001076410640962467
2230,00:00:08.92,0.012056532985298
2231,00:00:08.924,0.018693608173634815
2232,00:00:08.928,-0.039957259821676416
2233,00:00:08.932,-0.02159563940949737
2234,00:00:08.936,0.007107066514436183
2235,00:00:08.94,0.024758433923125288
2236,00:00:08.944,0.0031560861971230113
2237,00:00:08.948,0.00870958389714356
2238,00:00:08.952,0.02216084208339451
2239,00:00:08.956,-0.010877609543967997
2240,00:00:08.96,-0.04216757579706612
2241,00:00:08.964,-0.01693649776279924
2242,00:00:08.968,0.0190870865044417
2243,00:00:08.972,0.00344180734828119
2244,00:00:08.976,0.03477323753759265
2245,00:00:08.98,-0.023809810503735235
2246,00:00:08.984,0.013985432684421558
2247,00:00:08.988,0.016223818063736
2248,00:00:08.992,-0.026112996973097304
2249,00:00:08.996,-0.0443831197917461
2250,00:00:09,0.013700100593268929
2251,00:00:09.004,0.04779937805142255
2252,00:00:09.008,-0.012579475762322538
2253,00:00:09.012,-0.0059057185426355
2254,00:00:09.016,0.021758200804470083
2255,00:00:09.02,0.004021262284368263
2256,00:00:09.024,-0.045180113054812
2257,00:00:09.028,-0.021953244169708334
2258,00:00:09.032,0.013615072704851669
2259,00:00:09.036,0.03451774874702089
2260,00:00:09.04,0.017795950639992918
2261,00:00:09.044,-0.011501585133373647
2262,00:00:09.048,-0.02281777001917364
2263,00:00:09.052,0.008731949841603678
2264,00:00:09.056,0.01120520429685712
2265,00:00:09.06,-0.011544477936695375
2266,00:00:09.064,-0.017842109315097297
2267,00:00:09.068,0.0068627974251285195
2268,00:00:09.072,0.036410694476217004
2269,00:00:09.076,-0.014845694575342353
2270,00:00:09.08,-0.02747795556206263
2271,00:00:09.084,-0.01588809397071601
2272,00:00:09.088,0.0369412247091532
2273,00:00:09.092,0.02519010659307245
2274,00:00:09.096,-0.01902435859665274
2275,00:00:09.1,-0.031534152105450616
2276,00:00:09.104,-0.004331407137215141
2277,00:00:09.108,0.04968627158086747
2278,00:00:09.112,0.00247921049594875
2279,00:00:09.116,-0.0337751898914576
2280,00:00:09.12,0.0051356041803957
2281,00:00:09.124,-0.004528779536485674
2282,00:00:09.128,0.002254001330584291
2283,00:00:09.132,-0.005561168305575801
2284,00:00:09.136,-0.015611058908689301
2285,00:00:09.14,0.03667090134695174
2286,00:00:09.144,0.01618943084031347
2287,00:00:09.148,-0.01057175546884533
2288,00:00:09.152,-0.018648356286575976
2289,00:00:09.156,-0.012965664616785921
2290,00:00:09.16,-0.015070806799485553
2291,00:00:09.164,0.01717392401769756
2292,00:00:09.168,0.04071649722754957
2293,00:00:09.172,-0.0060548358596861
2294,00:00:09.176,-0.001395139028318209
2295,00:00:09.18,-0.02645852137356992
2296,00:00:09.184,-0.0264388222713023
2297,00:00:09.188,0.006734147900715469
2298,00:00:09.192,0.02951566968113186
2299,00:00:09.196,0.00386903528124094
2300,00:00:09.2,0.0038299239240586706
2301,00:00:09.204,9.316892828788062e-05
2302,00:00:09.208,-0.0160255311056971
2303,00:00:09.212,-0.005601646495051651
2304,00:00:09.216,0.0072308832313865284
2305,00:00:09.22,0.02295635081827633
2306,00:00:09.224,-0.00385502073913813
2307,00:00:09.228,-0.0417061448097229
2308,00:00:09.232,0.0092557808384299
2309,00:00:09.236,0.023309089243412004
2310,00:00:09.24,-0.009728987235575918
2311,00:00:09.244,-0.0003064523334614941
2312,00:00:09.248,0.0010976539924740791
2313,00:00:09.252,-0.016171979252248992
2314,00:00:09.256,0.0094844731502235
2315,00:00:09.26,0.08540073735639454
2316,00:00:09.264,-0.04837961075827478
2317,00:00:09.268,-0.06209542590659114
2318,00:00:09.272,-0.0078073106706141975
2319,00:00:09.276,0.0015312989708036193
2320,00:00:09.28,0.04172577423742043
2321,00:00:09.284,0.02244516182690865
2322,00:00:09.288,-0.0016620163805782795
2323,00:00:09.292,-0.006070030853152261
2324,00:00:09.296,-0.028441930655390052
2325,00:00:09.3,-0.0015179142355918988
2326,00:00:09.304,-0.011301987804472436
2327,00:00:09.308,0.03706957912072535
2328,00:00:09.312,0.024578481446951597
2329,00:00:09.316,-0.0327983750030398
2330,00:00:09.32,-0.038367967121303054
2331,00:00:09.324,0.01692246436141431
2332,00:00:09.328,0.022459915810031834
2333,00:00:09.332,0.0036679644836112805
2334,00:00:09.336,0.007273802533745807
2335,00:00:09.34,-0.001420166809111851
2336,00:00:09.344,-0.0163934268057346
2337,00:00:09.348,-0.02368047460913658
2338,00:00:09.352,0.002450774190947417
2339,00:00:09.356,0.02146419393830001
2340,00:00:09.36,0.021007711533457
2341,00:00:09.364,-0.03713166853412988
2342,00:00:09.368,0.03249383531510833
2343,00:00:09.372,0.046846429351717254
2344,00:00:09.376,-0.06628283402460507
2345,00:00:09.38,-0.03605700505431738
2346,00:00:09.384,0.007943194366816904
2347,00:00:09.388,0.02049740578513593
2348,00:00:09.392,0.0161759674083441
2349,00:00:09.396,0.01880070846527818
2350,00:00:09.4,-0.005350282532163022
2351,00:00:09.404,-0.033552980050444596
2352,00:00:09.408,0.03050854336470368
2353,00:00:09.412,0.009688424062915152
2354,00:00:09.416,-0.039059568196535124
2355,00:00:09.42,-0.023896884638816118
2356,00:00:09.424,0.026552325114607832
2357,00:00:09.428,0.02089788229204711
2358,00:00:09.432,0.00940985733177516
2359,00:00:09.436,-0.02020131621975454
2360,00:00:09.44,0.014341314323246469
2361,00:00:09.444,0.0026932359323836373
2362,00:00:09.448,-0.01926021371036767
2363,00:00:09.452,-0.01392530906014144
2364,00:00:09.456,-0.003211425326298931
2365,00:00:09.46,0.0015687788545619683
2366,00:00:09.464,0.050587437115609646
2367,00:00:09.468,-0.005810133414343
2368,00:00:09.472,-0.032845791662111865
2369,00:00:09.476,-0.0172050786204636
2370,00:00:09.48,0.02234776504337789
2371,00:00:09.484,0.040075660217553336
2372,00:00:09.488,0.015187963843345663
2373,00:00:09.492,-0.07691874968077175
2374,00:00:09.496,-0.024269010871648792
2375,00:00:09.5,0.011379058007150899
2376,00:00:09.504,0.02035331143997611
2377,00:00:09.508,0.02847974677570165
2378,00:00:09.512,0.01634428353281691
2379,00:00:09.516,-0.01077453792095184
2380,00:00:09.52,-0.0014329231344163218
2381,00:00:09.524,-0.0031135324388742516
2382,00:00:09.528,-0.02885172562673688
2383,00:00:09.532,-0.00532471045880811
2384,00:00:09.536,0.01715054351370785
2385,00:00:09.54,-6.026914343238029e-05
2386,00:00:09.544,0.019816366955637914
2387,00:00:09.548,-0.015753334388136895
2388,00:00:09.552,-0.004647149355150759
2389,00:00:09.556,0.022553447633981802
2390,00:00:09.56,-0.022451451048254988
2391,00:00:09.564,-0.012285906355828031
2392,00:00:09.568,0.011609455570578549
2393,00:00:09.572,0.02379621006548403
2394,00:00:09.576,-0.00627979321870956
2395,00:00:09.58,-0.02938326122239233
2396,00:00:09.584,0.012059257365763201
2397,00:00:09.588,0.012650890159420659
2398,00:00:09.592,-0.018460261868312962
2399,00:00:09.596,0.014464117703028025
2400,00:00:09.6,-0.00901675433851778
2401,00:00:09.604,0.0135084735229611
2402,00:00:09.608,0.024813306052237707
2403,00:00:09.612,-0.0432095965370536
2404,00:00:09.616,-0.02074099751189353
2405,00:00:09.62,0.01944492617622022
2406,00:00:09.624,0.02850033016875383
2407,00:00:09.628,0.0037247126456350097
2408,00:00:09.632,-0.03521926444955161
2409,00:00:09.636,0.021691609988920436
2410,00:00:09.64,0.0108990892767906
2411,00:00:09.644,-0.031142638297751504
2412,00:00:09.648,-0.008285849024105115
2413,00:00:09.652,0.01699597213882953
2414,00:00:09.656,-0.00893970299512152
2415,00:00:09.66,0.028958141803741497
2416,00:00:09.664,0.02997453138232237
2417,00:00:09.668,-0.02815297804772853
2418,00:00:09.672,-0.0309180498588831
2419,00:00:09.676,-0.035431961528956876
2420,00:00:09.68,0.026891424087807522
2421,00:00:09.684,0.04588774871081115
2422,00:00:09.688,0.0083612389862537
2423,00:00:09.692,-0.06036367079650515
2424,00:00:09.696,0.0220134379342199
2425,00:00:09.7,0.013539982028305517
2426,00:00:09.704,0.0011326302774250403
2427,00:00:09.708,0.0025552526349201504
2428,00:00:09.712,-0.020293114706873856
2429,00:00:09.716,0.048314595129340866
2430,00:00:09.72,-0.02994504198431967
2431,00:00:09.724,-0.05444692051969469
2432,00:00:09.728,0.0110841812565923
2433,00:00:09.732,0.024691302329301848
2434,00:00:09.736,0.02056550886481998
2435,00:00:09.74,3.7833000533280155e-05
2436,00:00:09.744,0.04856086836662145
2437,00:00:09.748,-0.047592986375093474
2438,00:00:09.752,-0.038074497599154655
2439,00:00:09.756,-0.010466380070283778
2440,00:00:09.76,0.015431498643010903
2441,00:00:09.764,0.029438481607940045
2442,00:00:09.768,0.010022468864917727
2443,00:00:09.772,-0.01193384034559127
2444,00:00:09.776,-0.0032206207979470526
2445,00:00:09.78,0.013120633549988301
2446,00:00:09.784,-0.01521338615566488
2447,00:00:09.788,-0.018912868341431056
2448,00:00:09.792,0.02487833722261707
2449,00:00:09.796,-0.019171505235135562
2450,00:00:09.8,0.0017511807382106798
2451,00:00:09.804,0.011034463415853681
2452,00:00:09.808,0.003176870173774663
2453,00:00:09.812,-0.00576936267316349
2454,00:00:09.816,0.02187086408957834
2455,00:00:09.82,0.010791622567921828
2456,00:00:09.824,-0.050093592610210166
2457,00:00:09.828,0.007477148703401329
2458,00:00:09.832,0.007276867749169471
2459,00:00:09.836,-0.012496549170464239
2460,00:00:09.84,0.006658960541244607
2461,00:00:09.844,0.01230434444732962
2462,00:00:09.848,0.014658436179161047
2463,00:00:09.852,-0.008613485726527863
2464,00:00:09.856,0.005624635610729411
2465,00:00:09.86,0.004022290930151929
2466,00:00:09.864,-0.017017237783875257
2467,00:00:09.868,-0.02635216037742794
2468,00:00:09.872,0.002602600958198301
2469,00:00:09.876,0.008884860551916028
2470,00:00:09.88,-0.011199213156942276
2471,00:00:09.884,0.0928246099501848
2472,00:00:09.888,-0.0026554954238236107
2473,00:00:09.892,-0.0950009133666753
2474,00:00:09.896,-0.01596669142600149
2475,00:00:09.9,0.013796360231935999
2476,00:00:09.904,0.027276160006294955
2477,00:00:09.908,0.03670655936002727
2478,00:00:09.912,-0.005741355475038309
2479,00:00:09.916,-0.026628462132066502
2480,00:00:09.92,-0.0437516830861569
2481,00:00:09.924,0.0933262007310986
2482,00:00:09.928,-0.00572571344673638
2483,00:00:09.932,-0.06281006848439584
2484,00:00:09.936,-0.037255109753459636
2485,00:00:09.94,0.02675178507342933
2486,00:00:09.944,0.03558318575960577
2487,00:00:09.948,0.01311724970582872
2488,00:00:09.952,-0.004526728123892099
2489,00:00:09.956,-0.00496111530810594
2490,00:00:09.96,0.020359023474156822
2491,00:00:09.964,0.016510532004758723
2492,00:00:09.968,-0.06716018216684455
2493,00:00:09.972,-0.03100120974704624
2494,00:00:09.976,0.016459273174405105
2495,00:00:09.98,0.0132561661303044
2496,00:00:09.984,0.03954836260527377
2497,00:00:09.988,0.02373758982867003
2498,00:00:09.992,-0.01185930310748516
2499,00:00:09.996,-0.0450407922035083
2500,00:00:10,-0.011386397760361346
2501,00:00:10.004,0.08043915871530774
2502,00:00:10.008,-0.003621101379394493
2503,00:00:10.012,-0.0838192375376821
2504,00:00:10.016,-0.03208668739534918
2505,00:00:10.02,0.02125500328838826
2506,00:00:10.024,0.0520592126995325
2507,00:00:10.028,0.013982316944748219
2508,00:00:10.032,0.003434075391851351
2509,00:00:10.036,0.03582249372266238
2510,00:00:10.04,-0.04095320310443644
2511,00:00:10.044,-0.057685624808073044
2512,00:00:10.048,-0.0027044867165386707
2513,00:00:10.052,0.03073166566900911
2514,00:00:10.056,0.01780998287722468
2515,00:00:10.06,0.010270080063492101
2516,00:00:10.064,-0.0101967558730394
2517,00:00:10.068,0.00745024532079702
2518,00:00:10.072,-0.0121627245098353
2519,00:00:10.076,-0.03343608265276998
2520,00:00:10.08,0.010901632835157202
2521,00:00:10.084,0.0754910781979561
2522,00:00:10.088,-0.027004535309970316
2523,00:00:10.092,-0.05479901097714898
2524,00:00:10.096,-0.01941220788285133
2525,00:00:10.1,0.038397144526243154
2526,00:00:10.104,0.016962841618806193
2527,00:00:10.108,-0.0003542504273355003
2528,00:00:10.112,0.008935234975069803
2529,00:00:10.116,-0.01434401329606774
2530,00:00:10.12,-0.008910034550353892
2531,00:00:10.124,0.02558416637475605
2532,00:00:10.128,-0.02661427715793254
2533,00:00:10.132,-0.01953708683140576
2534,00:00:10.136,0.026037924457341398
2535,00:00:10.14,0.0028526651440188297
2536,00:00:10.144,-0.010303526185452957
2537,00:00:10.148,0.004889202653430411
2538,00:00:10.152,0.0028858929872512575
2539,00:00:10.156,0.03413621487561609
2540,00:00:10.16,-0.01739122078288343
2541,00:00:10.164,-0.04706274135969587
2542,00:00:10.168,-0.004830180434510081
2543,00:00:10.172,0.060758486855775076
2544,00:00:10.176,0.0054097515530884
2545,00:00:10.18,-0.029904138762503876
2546,00:00:10.184,-0.02927051868755375
2547,00:00:10.188,0.0017304178327322002
2548,00:00:10.192,0.020889366918709136
2549,00:00:10.196,0.01441065070685
2550,00:00:10.2,0.014935297949705276
2551,00:00:10.204,-0.01719516701996324
2552,00:00:10.208,-0.014765550615265981
2553,00:00:10.212,-0.017848416173364995
2554,00:00:10.216,0.012577534886077041
2555,00:00:10.22,0.08048453449737278
2556,00:00:10.224,-0.02392969699576497
2557,00:00:10.228,-0.05428714677691461
2558,00:00:10.232,-0.05355298705399037
2559,00:00:10.236,0.00870875013060864
2560,00:00:10.24,0.041858469834551236
2561,00:00:10.244,0.03702538064680995
2562,00:00:10.248,0.018841583747416738
2563,00:00:10.252,-0.027053765021264553
2564,00:00:10.256,-0.01061470946297049
2565,00:00:10.26,0.02964788209646939
2566,00:00:10.264,-0.04715742822736508
2567,00:00:10.268,-0.016867745027411764
2568,00:00:10.272,0.0021694372408092213
2569,00:00:10.276,0.023769642808474628
2570,00:00:10.28,0.006569005083292709
2571,00:00:10.284,0.004732637782581148
2572,00:00:10.288,0.013832481112331138
2573,00:00:10.292,-0.0012058494612575323
2574,00:00:10.296,-0.03756321105174719
2575,00:00:10.3,0.008128812129143629
2576,00:00:10.304,0.02287181094288826
2577,00:00:10.308,-0.024338341550901487
2578,00:00:10.312,0.00028256466612222066
2579,00:00:10.316,0.016563069075345983
2580,00:00:10.32,-0.028087606013286897
2581,00:00:10.324,0.02332640346139673
2582,00:00:10.328,0.04808626510202882
2583,00:00:10.332,-0.03504543751478194
2584,00:00:10.336,-0.03461239114403724
2585,00:00:10.34,-0.007088941114488986
2586,00:00:10.344,0.01962623139843343
2587,00:00:10.348,0.024563932092860383
2588,00:00:10.352,-0.02003204356878999
2589,00:00:10.356,-0.0077118137269280886
2590,00:00:10.36,0.00452082057017833
2591,00:00:10.364,0.01908592658583079
2592,00:00:10.368,0.01491825608536599
2593,00:00:10.372,-0.010419837082736243
2594,00:00:10.376,-0.007496746489778159
2595,00:00:10.38,-0.03682451881468296
2596,00:00:10.384,-0.00531614758074285
2597,00:00:10.388,0.00469670351594687
2598,00:00:10.392,0.01649546506814656
2599,00:00:10.396,0.01129796169698237
2600,00:00:10.4,0.09262238489463924
2601,00:00:10.404,-0.04090140946209431
2602,00:00:10.408,-0.0774910312902648
2603,00:00:10.412,-0.02279576985165482
2604,00:00:10.416,-6.684847176077931e-05
2605,00:00:10.42,0.02604165219236163
2606,00:00:10.424,0.037531343521550305
2607,00:00:10.428,0.009031754336319813
2608,00:00:10.432,0.00504899933002889
2609,00:00:10.436,-0.01771940616890789
2610,00:00:10.44,-0.01233416842296723
2611,00:00:10.444,-0.02308114850893616
2612,00:00:10.448,0.029409096576273497
2613,00:00:10.452,0.018630678765475698
2614,00:00:10.456,-0.019983033649623394
2615,00:00:10.46,-0.0325904274359345
2616,00:00:10.464,0.00773631618358195
2617,00:00:10.468,0.022494528704555712
2618,00:00:10.472,-0.011797430459409923
2619,00:00:10.476,0.040234714746475164
2620,00:00:10.48,0.00033158576115968966
2621,00:00:10.484,-0.04410178586840632
2622,00:00:10.488,0.016814241185784378
2623,00:00:10.492,-0.02222036522289275
2624,00:00:10.496,-0.001018641807604589
2625,00:00:10.5,0.02666536276228724
2626,00:00:10.504,0.02029086370021103
2627,00:00:10.508,-0.017873896169476197
2628,00:00:10.512,-0.03222823981195687
2629,00:00:10.516,-0.00620075059123337
2630,00:00:10.52,0.03830188116990023
2631,00:00:10.524,0.023423440288752304
2632,00:00:10.528,-0.01279237959533927
2633,00:00:10.532,-0.02818046137690545
2634,00:00:10.536,-0.006349615461658687
2635,00:00:10.54,0.007120145892258727
2636,00:00:10.544,0.010066051036119461
2637,00:00:10.548,-0.012433925294317302
2638,00:00:10.552,0.00598948946571911
2639,00:00:10.556,0.03380484529770913
2640,00:00:10.56,-0.0068102674558759
2641,00:00:10.564,-0.04497831594198947
2642,00:00:10.568,0.0021173193817958097
2643,00:00:10.572,0.013048275111941614
2644,00:00:10.576,0.011365898884832821
2645,00:00:10.58,0.010980737046338609
2646,00:00:10.584,-0.02379824221134187
2647,00:00:10.588,0.021233763545751544
2648,00:00:10.592,-0.0010643818823155042
2649,00:00:10.596,-0.030218268744647475
2650,00:00:10.6,0.02208272973075502
2651,00:00:10.604,0.008002299815416372
2652,00:00:10.608,-0.0124953547492623
2653,00:00:10.612,-0.014924805087503004
2654,00:00:10.616,-5.312403663993055e-05
2655,00:00:10.62,0.0020184025634080137
2656,00:00:10.624,0.04401867929846051
2657,00:00:10.628,-0.009187733987346292
2658,00:00:10.632,0.0034064063802361003
2659,00:00:10.636,-0.037410185672342715
2660,00:00:10.64,-0.021161890123039467
2661,00:00:10.644,0.02112567285075782
2662,00:00:10.648,0.023468684405088404
2663,00:00:10.652,-0.014922216534614601
2664,00:00:10.656,0.00779870268888767
2665,00:00:10.66,0.015447965357452667
2666,00:00:10.664,-0.005789236507553138
2667,00:00:10.668,0.009272099006921003
2668,00:00:10.672,-0.042315576225519194
2669,00:00:10.676,0.0017719501629472265
2670,00:00:10.68,0.0003245351836085493
2671,00:00:10.684,0.002510683611035394
2672,00:00:10.688,0.030185758601874137
2673,00:00:10.692,0.01363743701949718
2674,00:00:10.696,-0.02989067899761725
2675,00:00:10.7,0.04073178162798284
2676,00:00:10.704,-0.03748603770509367
2677,00:00:10.708,-0.033760063117369975
2678,00:00:10.712,-0.012049432843923569
2679,00:00:10.716,0.03186355857178567
2680,00:00:10.72,0.01823965227231385
2681,00:00:10.724,0.01936091505922377
2682,00:00:10.728,-0.0027049854397773743
2683,00:00:10.732,-0.006214559078216551
2684,00:00:10.736,-0.013682942255400118
2685,00:00:10.74,-0.0170965754659846
2686,00:00:10.744,-0.02055315696634349
2687,00:00:10.748,0.039697119500488
2688,00:00:10.752,0.039093892090022606
2689,00:00:10.756,-0.0483797821216286
2690,00:00:10.76,-0.01486538886092603
2691,00:00:10.764,0.013439767877571281
2692,00:00:10.768,-0.0067753964103758335
2693,00:00:10.772,0.018380948342382922
2694,00:00:10.776,0.02731530903838579
2695,00:00:10.78,-0.02648792299441994
2696,00:00:10.784,-0.02701910212636
2697,00:00:10.788,-0.0083663379773498
2698,00:00:10.792,0.04151620063930751
2699,00:00:10.796,-0.000233495607972139
2700,00:00:10.8,-0.015581324463710182
2701,00:00:10.804,0.01040208712220194
2702,00:00:10.808,0.009067205479368571
2703,00:00:10.812,-0.0148216832894832
2704,00:00:10.816,-0.02026350330561396
2705,00:00:10.82,-0.006408724759239701
2706,00:00:10.824,0.0072508170269429805
2707,00:00:10.828,0.05841995216906075
2708,00:00:10.832,-0.008125564083457002
2709,00:00:10.836,-0.0284656267613173
2710,00:00:10.84,-0.0006637589540333007
2711,00:00:10.844,-0.0231802267953753
2712,00:00:10.848,-0.028022608719766112
2713,00:00:10.852,0.0196573669090868
2714,00:00:10.856,0.09458575770258902
2715,00:00:10.86,-0.023240118753164972
2716,00:00:10.864,-0.05743630463257435
2717,00:00:10.868,-0.01588440872728824
2718,00:00:10.872,0.01562356296926739
2719,00:00:10.876,0.01315137674100697
2720,00:00:10.88,0.00990485586225991
2721,00:00:10.884,-0.012450370471924582
2722,00:00:10.888,0.008078323677182201
2723,00:00:10.892,0.010208426916506103
2724,00:00:10.896,-0.0112409383582417
2725,00:00:10.9,0.005572480906266718
2726,00:00:10.904,-0.0003980551846325406
2727,00:00:10.908,-0.02329408447258178
2728,00:00:10.912,-0.01415686879772688
2729,00:00:10.916,0.03154063201509414
2730,00:00:10.92,0.010234386310912662
2731,00:00:10.924,-0.01607562275603414
2732,00:00:10.928,0.03911324962973599
2733,00:00:10.932,-0.025495520152617208
2734,00:00:10.936,-0.019869544077664582
2735,00:00:10.94,-0.0046141515485942485
2736,00:00:10.944,-0.008334234822541439
2737,00:00:10.948,-0.00623252941295505
2738,00:00:10.952,0.0451807142235338
2739,00:00:10.956,0.02753697335720065
2740,00:00:10.96,-0.005676361673977234
2741,00:00:10.964,-0.04485475178807981
2742,00:00:10.968,-0.034692309331148884
2743,00:00:10.972,0.01386068901047112
2744,00:00:10.976,0.010196340619586412
2745,00:00:10.98,0.03639296768233182
2746,00:00:10.984,-0.005622693803161417
2747,00:00:10.988,-0.00389196732430723
2748,00:00:10.992,0.023288827098440337
2749,00:00:10.996,-0.03734998917207123
2750,00:00:11,-0.005461710185045372
2751,00:00:11.004,0.022367265075445168
2752,00:00:11.008,-0.03453636215999722
2753,00:00:11.012,0.0028728867182508102
2754,00:00:11.016,0.019212896004319163
2755,00:00:11.02,0.006172167079057619
2756,00:00:11.024,0.004810434184037149
2757,00:00:11.028,-0.01799620594829323
2758,00:00:11.032,0.0063949753530323
2759,00:00:11.036,0.007680113427340969
2760,00:00:11.04,0.020376038213726102
2761,00:00:11.044,-0.01485223043709994
2762,00:00:11.048,-0.02957191877067095
2763,00:00:11.052,-0.007909741660114348
2764,00:00:11.056,0.009428294142708191
2765,00:00:11.06,0.0189257571473718
2766,00:00:11.064,0.0108045633533039
2767,00:00:11.068,0.016451261471956986
2768,00:00:11.072,-0.030756106600165346
2769,00:00:11.076,-0.0022316045360640177
2770,00:00:11.08,-0.0278100008144974
2771,00:00:11.084,0.026777928229421287
2772,00:00:11.088,0.02326875028666113
2773,00:00:11.092,-0.025197196751832962
2774,00:00:11.096,-0.0034307395108044026
2775,00:00:11.1,0.0063176531111821515
2776,00:00:11.104,0.017238195869140317
2777,00:00:11.108,0.0035507080610841495
2778,00:00:11.112,-0.004550402984023091
2779,00:00:11.116,-0.03226564638316626
2780,00:00:11.12,-0.005309144791681335
2781,00:00:11.124,0.019613845739513643
2782,00:00:11.128,0.01285379857290538
2783,00:00:11.132,-0.01592750975396483
2784,00:00:11.136,-0.00288996519520884
2785,00:00:11.14,0.028814053628593708
2786,00:00:11.144,0.03150832396931949
2787,00:00:11.148,-0.013601058162748798
2788,00:00:11.152,-0.0671176660689525
2789,00:00:11.156,-0.02930073533207176
2790,00:00:11.16,0.01974490564316515
2791,00:00:11.164,0.041610713349655236
2792,00:00:11.168,0.02025086642242972
2793,00:00:11.172,-0.003394018160179229
2794,00:00:11.176,-0.014292182400822608
2795,00:00:11.18,0.033007942605763674
2796,00:00:11.184,0.030492339050397332
2797,00:00:11.188,-0.09002447128295901
2798,00:00:11.192,-0.036416002316400464
2799,00:00:11.196,0.01523747271858161
2800,00:00:11.2,0.030056172632612285
2801,00:00:11.204,0.010636562830768548
2802,00:00:11.208,0.01843680511228742
2803,00:00:11.212,0.0251558064483106
2804,00:00:11.216,-0.017502784161479195
2805,00:00:11.22,-0.033870896790176616
2806,00:00:11.224,-0.03441992118314378
2807,00:00:11.228,0.07865892653353515
2808,00:00:11.232,0.0218044314533472
2809,00:00:11.236,-0.039648984558880336
2810,00:00:11.24,-0.049070203211158514
2811,00:00:11.244,-0.016635868931189228
2812,00:00:11.248,0.0037237745709717118
2813,00:00:11.252,0.04038224020041526
2814,00:00:11.256,0.02778981905430552
2815,00:00:11.26,0.01463848375715315
2816,00:00:11.264,-0.01084896037355065
2817,00:00:11.268,-0.005772462347522326
2818,00:00:11.272,-0.0359429707750678
2819,00:00:11.276,-0.027742873877286904
2820,00:00:11.28,0.041571142151951755
2821,00:00:11.284,0.05699295410886403
2822,00:00:11.288,0.008674345910549192
2823,00:00:11.292,-0.09876313246786593
2824,00:00:11.296,-0.03178237378597261
2825,00:00:11.3,0.0205940809100866
2826,00:00:11.304,0.04721202189102766
2827,00:00:11.308,0.01993124559521672
2828,00:00:11.312,0.011535434983670628
2829,00:00:11.316,-0.0037605832039844245
2830,00:00:11.32,-0.021646646811859686
2831,00:00:11.324,-0.014407231821678579
2832,00:00:11.328,-0.0024077598936855897
2833,00:00:11.332,0.0030852016061544297
2834,00:00:11.336,0.01478662248700853
2835,00:00:11.34,-0.012744251909680288
2836,00:00:11.344,-0.0007892907597124499
2837,00:00:11.348,0.006033646001014867
2838,00:00:11.352,-0.0043330707703717036
2839,00:00:11.356,0.0018298747309017992
2840,00:00:11.36,0.012402236490743242
2841,00:00:11.364,0.0012433198280632695
2842,00:00:11.368,-0.022444665431976304
2843,00:00:11.372,-0.011817282531410442
2844,00:00:11.376,0.06421443261206153
2845,00:00:11.38,-0.015955837443470875
2846,00:00:11.384,-0.03269707551226023
2847,00:00:11.388,0.0017560804262757301
2848,00:00:11.392,-0.038077553734183305
2849,00:00:11.396,0.023983735154615708
2850,00:00:11.4,0.010770565597340428
2851,00:00:11.404,0.02466868655756121
2852,00:00:11.408,0.02126157446764409
2853,00:00:11.412,-0.004916322475764929
2854,00:00:11.416,-0.03342212573625147
2855,00:00:11.42,-0.021110026922542602
2856,00:00:11.424,0.011668253690004331
2857,00:00:11.428,-0.0021619045874104004
2858,00:00:11.432,0.00970780011266471
2859,00:00:11.436,0.004639967170078309
2860,00:00:11.44,0.0029272134415805296
2861,00:00:11.444,-0.0029724027263000594
2862,00:00:11.448,0.00955423049163074
2863,00:00:11.452,0.0350278662517666
2864,00:00:11.456,-0.04611878935247659
2865,00:00:11.46,-0.045251521281898
2866,00:00:11.464,0.01009391387924552
2867,00:00:11.468,0.017655089148320292
2868,00:00:11.472,0.05881664343178268
2869,00:00:11.476,-0.0019695345545187593
2870,00:00:11.48,-0.04175532670342369
2871,00:00:11.484,-0.01745048351585865
2872,00:00:11.488,0.01526658656075607
2873,00:00:11.492,-0.00843946170061828
2874,00:00:11.496,0.03777360077947371
2875,00:00:11.5,-0.00285431742668152
2876,00:00:11.504,-0.04251574398949738
2877,00:00:11.508,0.0048809568397700795
2878,00:00:11.512,0.016746453708037727
2879,00:00:11.516,0.0007266327738761902
2880,00:00:11.52,-0.009558489546179766
2881,00:00:11.524,0.01230030343867839
2882,00:00:11.528,0.0037998929619789176
2883,00:00:11.532,-0.016218130651395726
2884,00:00:11.536,0.03293659153860067
2885,00:00:11.54,-0.000946489046327768
2886,00:00:11.544,-0.04050276032648979
2887,00:00:11.548,0.0006543810013682101
2888,00:00:11.552,-0.0017921462422236794
2889,00:00:11.556,0.01130033889785411
2890,00:00:11.56,0.011535954428836728
2891,00:00:11.564,0.0054805318359285515
2892,00:00:11.568,0.013587828841991731
2893,00:00:11.572,-0.02246551122516394
2894,00:00:11.576,-0.012228923849761476
2895,00:00:11.58,-0.009051290107891
2896,00:00:11.584,0.01782775181345648
2897,00:00:11.588,0.02582088904455304
2898,00:00:11.592,-0.008248876780271547
2899,00:00:11.596,-0.026478895917534797
2900,00:00:11.6,-0.0004330496303737103
2901,00:00:11.604,-0.011791689321398797
2902,00:00:11.608,0.000602997373789548
2903,00:00:11.612,0.06554069078993054
2904,00:00:11.616,0.00357812386937439
2905,00:00:11.62,-0.051160329021513476
2906,00:00:11.624,-0.03112352872267364
2907,00:00:11.628,0.00803607003763316
2908,00:00:11.632,0.022903954610228563
2909,00:00:11.636,0.012424383101915685
2910,00:00:11.64,0.012333998689427961
2911,00:00:11.644,-0.020195194287225632
2912,00:00:11.648,0.013197526801377521
2913,00:00:11.652,-0.002484546042978741
2914,00:00:11.656,-0.023988449480384623
2915,00:00:11.66,0.00371203222312033
2916,00:00:11.664,0.0003604844387154957
2917,00:00:11.668,0.03150535118766133
2918,00:00:11.672,-0.008944911183789372
2919,00:00:11.676,-0.032964185811579255
2920,00:00:11.68,0.0129943331703544
2921,00:00:11.684,-0.00684820418246091
2922,00:00:11.688,0.008001284440979351
2923,00:00:11.692,0.02275295206345621
2924,00:00:11.696,-0.01671462901867927
2925,00:00:11.7,-0.004632746335119001
2926,00:00:11.704,0.02974115905817594
2927,00:00:11.708,-0.010969330556690702
2928,00:00:11.712,-0.00809369934722785
2929,00:00:11.716,-0.02231393661350014
2930,00:00:11.72,-0.03084540413692594
2931,00:00:11.724,0.02907159738242631
2932,00:00:11.728,0.04392114863730958
2933,00:00:11.732,-0.0055299559608101906
2934,00:00:11.736,-0.02804831444518636
2935,00:00:11.74,0.022708284494001345
2936,00:00:11.744,0.011260237079113732
2937,00:00:11.748,-0.02129429788328703
2938,00:00:11.752,-0.0449725678190588
2939,00:00:11.756,0.0006611066637560708
2940,00:00:11.76,0.028675737325102122
2941,00:00:11.764,0.047970912739401676
2942,00:00:11.768,-0.01038529083598404
2943,00:00:11.772,-0.020850369706749902
2944,00:00:11.776,-0.0022786727204220304
2945,00:00:11.78,-0.01184511836618189
2946,00:00:11.784,-0.022558599128387882
2947,00:00:11.788,0.0263886358588934
2948,00:00:11.792,0.009830559603869912
2949,00:00:11.796,-0.017571182223036892
2950,00:00:11.8,0.008959370316006281
2951,00:00:11.804,0.03624961365130728
2952,00:00:11.808,-0.005033541936427354
2953,00:00:11.812,-0.03868982987478378
2954,00:00:11.816,-0.00128238042816518
2955,00:00:11.82,-0.010656779166311001
2956,00:00:11.824,-0.0034099197946489083
2957,00:00:11.828,0.018809742294251912
2958,00:00:11.832,0.03871647990308699
2959,00:00:11.836,-0.020950817503035103
2960,00:00:11.84,0.0026567257009446604
2961,00:00:11.844,0.003344646189361789
2962,00:00:11.848,-0.01122981705702846
2963,00:00:11.852,-0.0409319177269936
2964,00:00:11.856,0.005530286813154807
2965,00:00:11.86,-0.0013906895183026582
2966,00:00:11.864,0.04567623231559998
2967,00:00:11.868,0.029037527507171007
2968,00:00:11.872,-0.007779853651300069
2969,00:00:11.876,-0.041798195801675306
2970,00:00:11.88,-0.02967559162061669
2971,00:00:11.884,0.016663937560224443
2972,00:00:11.888,0.021822024602443
2973,00:00:11.892,0.0419605262577533
2974,00:00:11.896,-0.04315830022096626
2975,00:00:11.9,-0.02833642764016983
2976,00:00:11.904,0.01196238514967262
2977,00:00:11.908,0.012489784043282279
2978,00:00:11.912,-0.00048189889639613064
2979,00:00:11.916,-0.0025962965592043457
2980,00:00:11.92,0.02867596736177807
2981,00:00:11.924,0.0075295316055416905
2982,00:00:11.928,-0.022753284603822983
2983,00:00:11.932,-0.037696391809731694
2984,00:00:11.936,-0.0103615126572549
2985,00:00:11.94,0.04601587093202398
2986,00:00:11.944,0.02456997521221638
2987,00:00:11.948,-0.029262619558721763
2988,00:00:11.952,-0.01800624374300241
2989,00:00:11.956,0.0135704684071243
2990,00:00:11.96,-0.008761695818975611
2991,00:00:11.964,0.046460648532956825
2992,00:00:11.968,0.012203962774947239
2993,00:00:11.972,-0.0754418373107911
2994,00:00:11.976,-0.02118589403107763
2995,00:00:11.98,0.03048078343272212
2996,00:00:11.984,0.02836613910039887
2997,00:00:11.988,0.016081331297755238
2998,00:00:11.992,0.00525994831696153
2999,00:00:11.996,-0.02972376556135709
3000,00:00:12,-0.024362265598028888
3001,00:00:12.004,0.0068392549874261
3002,00:00:12.008,0.0037931723927613426
3003,00:00:12.012,0.019465327379293733
3004,00:00:12.016,0.02068801724817608
3005,00:00:12.02,-0.01839153841137885
3006,00:00:12.024,0.00953145232051615
3007,00:00:12.028,-0.024312941823154733
3008,00:00:12.032,-0.03465317375957967
3009,00:00:12.036,0.0065090214484371245
3010,00:00:12.04,0.03819622192531821
3011,00:00:12.044,0.021582446177490028
3012,00:00:12.048,0.02295601088553668
3013,00:00:12.052,-0.03842620272189385
3014,00:00:12.056,-0.02610363368876275
3015,00:00:12.06,0.007512631011195488
3016,00:00:12.064,-0.027744768187403658
3017,00:00:12.068,0.00945243693422526
3018,00:00:12.072,0.05071685696020726
3019,00:00:12.076,0.009810625808313512
3020,00:00:12.08,-0.02282431069761513
3021,00:00:12.084,-0.011853619478642899
3022,00:00:12.088,-0.01860965020023285
3023,00:00:12.092,-0.00015035479009389494
3024,00:00:12.096,0.01109153992729263
3025,00:00:12.1,0.02452719316352156
3026,00:00:12.104,0.009312450885772698
3027,00:00:12.108,-0.027778895571827937
3028,00:00:12.112,-0.01688335463404652
3029,00:00:12.116,0.01233255164697768
3030,00:00:12.12,0.004334948025643789
3031,00:00:12.124,0.013977540846099146
3032,00:00:12.128,-0.01107120560482142
3033,00:00:12.132,0.01146787917241455
3034,00:00:12.136,-0.0017987643368541795
3035,00:00:12.14,-0.022854406364785952
3036,00:00:12.144,0.02297494001686579
3037,00:00:12.148,-0.013400289695709972
3038,00:00:12.152,-0.018908607657067453
3039,00:00:12.156,0.00278260326012969
3040,00:00:12.16,0.02701519802212713
3041,00:00:12.164,0.014348963275551817
3042,00:00:12.168,0.017515739891678088
3043,00:00:12.172,-0.046581063652411145
3044,00:00:12.176,-0.02867252100259063
3045,00:00:12.18,0.01396586676128209
3046,00:00:12.184,0.01775351737160239
3047,00:00:12.188,0.0130254032555968
3048,00:00:12.192,0.02944386600574942
3049,00:00:12.196,-0.02842916408553723
3050,00:00:12.2,-0.03195735276676713
3051,00:00:12.204,0.00822201417759061
3052,00:00:12.208,0.01636674359906463
3053,00:00:12.212,-0.0008029914461075705
3054,00:00:12.216,-0.004541241622064294
3055,00:00:12.22,0.0018242203514091358
3056,00:00:12.224,0.03422659914940598
3057,00:00:12.228,-0.03425939736189322
3058,00:00:12.232,-0.01909738651011135
3059,00:00:12.236,0.0069281454198061605
3060,00:00:12.24,0.00352150597609576
3061,00:00:12.244,0.015158717753365629
3062,00:00:12.248,-0.013166361943149237
3063,00:00:12.252,0.03828836587490512
3064,00:00:12.256,0.0019842695910483495
3065,00:00:12.26,-0.03931258153170345
3066,00:00:12.264,-0.02550504868850114
3067,00:00:12.268,0.004216990666463954
3068,00:00:12.272,0.007985627511516217
3069,00:00:12.276,0.04985752794891593
3070,00:00:12.28,0.013122741918778043
3071,00:00:12.284,-0.04887444886844606
3072,00:00:12.288,-0.024051081389188742
3073,00:00:12.292,0.02369482954964041
3074,00:00:12.296,0.023803054355084924
3075,00:00:12.3,-0.001038110814988502
3076,00:00:12.304,-0.02425973676145071
3077,00:00:12.308,-0.01567100011743605
3078,00:00:12.312,0.02108885673806076
3079,00:00:12.316,0.005472907971125091
3080,00:00:12.32,0.0006664780667052211
3081,00:00:12.324,0.02022852376103406
3082,00:00:12.328,-0.00602921284735199
3083,00:00:12.332,-0.03942711884155877
3084,00:00:12.336,-0.02278125123120844
3085,00:00:12.34,0.06008570175617939
3086,00:00:12.344,0.002132093068212321
3087,00:00:12.348,-0.017217576038092357
3088,00:00:12.352,0.002514936619263607
3089,00:00:12.356,-0.01712416298687457
3090,00:00:12.36,0.01296345703303814
3091,00:00:12.364,0.02496429230086507
3092,00:00:12.368,-0.027984578162431738
3093,00:00:12.372,-0.014100441709160798
3094,00:00:12.376,0.011423430405557143
3095,00:00:12.38,0.013807218754664091
3096,00:00:12.384,-0.00840771268121894
3097,00:00:12.388,0.01173402788117528
3098,00:00:12.392,-0.01137741236016155
3099,00:00:12.396,0.015187063254415982
3100,00:00:12.4,-0.0082243517099414
3101,00:00:12.404,-0.028280187863856526
3102,00:00:12.408,-0.00449099038087297
3103,00:00:12.412,-0.0008364412933588132
3104,00:00:12.416,0.05401425808668145
3105,00:00:12.42,0.016907230019569404
3106,00:00:12.424,0.00566342798992991
3107,00:00:12.428,-0.06019669934175906
3108,00:00:12.432,-0.0549688842147589
3109,00:00:12.436,0.02538573014044234
3110,00:00:12.44,0.05972768319770689
3111,00:00:12.444,0.005219438055064529
3112,00:00:12.448,-0.007863789796829196
3113,00:00:12.452,-0.0030885124579072207
3114,00:00:12.456,-0.030912427231669468
3115,00:00:12.46,0.01025535422377294
3116,00:00:12.464,0.018438178114593022
3117,00:00:12.468,-0.021506156539544463
3118,00:00:12.472,-0.0036441097618080723
3119,00:00:12.476,0.02031213685404514
3120,00:00:12.48,0.012457476463168908
3121,00:00:12.484,-0.0285183612722903
3122,00:00:12.488,0.009740094166772902
3123,00:00:12.492,0.02142694685608148
3124,00:00:12.496,-0.02913933387026195
3125,00:00:12.5,-0.00889671640470627
3126,00:00:12.504,0.003184200380928799
3127,00:00:12.508,-0.00894029252231121
