,Elapsed Time,EMG
0,00:00:00,-0.23663899302482483
1,00:00:00.004,0.2355656623840382
2,00:00:00.008,0.18769520521163596
3,00:00:00.012,0.002095554023981594
4,00:00:00.016,-0.13630388677120192
5,00:00:00.02,-0.06758561730384799
6,00:00:00.024,-0.04747709631919897
7,00:00:00.028,-0.015350019559264103
8,00:00:00.032,0.02106660977005928
9,00:00:00.036,0.020342372357846
10,00:00:00.04,0.034474402666091586
11,00:00:00.044,0.04957980616018175
12,00:00:00.048,-0.02144513279199603
13,00:00:00.052,-0.02584103774279349
14,00:00:00.056,-0.004091061651706605
15,00:00:00.06,0.005526402965188
16,00:00:00.064,-0.002691590227186711
17,00:00:00.068,-0.005111238657264014
18,00:00:00.072,-0.00687705073505635
19,00:00:00.076,0.011175183986779264
20,00:00:00.08,-0.0013000442340853615
21,00:00:00.084,0.01356247393414381
22,00:00:00.088,0.014915835112333308
23,00:00:00.092,-0.0259753335267305
24,00:00:00.096,-0.011774662882089611
25,00:00:00.1,0.014924649149179452
26,00:00:00.104,-0.01777322698035279
27,00:00:00.108,0.0008894071797840401
28,00:00:00.112,0.010420432547107339
29,00:00:00.116,0.01006263284943998
30,00:00:00.12,0.012759461533278178
31,00:00:00.124,-0.0009667886770330359
32,00:00:00.128,-0.01275198440998792
33,00:00:00.132,-0.00737890391610563
34,00:00:00.136,-0.014822917699348176
35,00:00:00.14,-0.0037896065623499423
36,00:00:00.144,0.01751944841817022
37,00:00:00.148,0.028088449500501142
38,00:00:00.152,-0.017259676940739193
39,00:00:00.156,-0.02513766777701676
40,00:00:00.16,0.0103462073020637
41,00:00:00.164,0.017075469717383406
42,00:00:00.168,0.0006016392726451141
43,00:00:00.172,-0.0063568502664566005
44,00:00:00.176,-0.010434415657073256
45,00:00:00.18,-0.01351939281448725
46,00:00:00.184,0.011381182703189552
47,00:00:00.188,0.03465841361321504
48,00:00:00.192,-0.0048388391733169495
49,00:00:00.196,-0.029847412995877693
50,00:00:00.2,-0.005849938548635696
51,00:00:00.204,0.005578689626418049
52,00:00:00.208,0.01193974353373051
53,00:00:00.212,-0.005146356765180821
54,00:00:00.216,0.005815572338178792
55,00:00:00.22,0.0009376845555379987
56,00:00:00.224,0.00636856118217111
57,00:00:00.228,-0.022893493529409108
58,00:00:00.232,0.0036168388323858398
59,00:00:00.236,0.01291756867431104
60,00:00:00.24,-0.0010283413575962116
61,00:00:00.244,0.006931887008249759
62,00:00:00.248,-0.01579141756519672
63,00:00:00.252,0.00635055848397315
64,00:00:00.256,-9.088139631785366e-05
65,00:00:00.26,-0.012696483172476201
66,00:00:00.264,-0.00426121265627444
67,00:00:00.268,0.01789976004511116
68,00:00:00.272,0.020061292452737738
69,00:00:00.276,-0.01221835403703153
70,00:00:00.28,-0.018349090125411787
71,00:00:00.284,0.00863601092714816
72,00:00:00.288,-0.002232358790934091
73,00:00:00.292,-0.0020898780785501003
74,00:00:00.296,0.0027766736311605252
75,00:00:00.3,-0.00580173067282886
76,00:00:00.304,0.012797180097550171
77,00:00:00.308,-0.004244377603754409
78,00:00:00.312,-0.006032267585396701
79,00:00:00.316,0.01454089069738984
80,00:00:00.32,-0.0014745197258889207
81,00:00:00.324,-0.01943213038612153
82,00:00:00.328,0.02697727875784043
83,00:00:00.332,-0.01995909237302838
84,00:00:00.336,-0.016322245821356697
85,00:00:00.34,0.014538222574628959
86,00:00:00.344,0.02614246681332589
87,00:00:00.348,-0.024884746409952627
88,00:00:00.352,-0.012945701408170841
89,00:00:00.356,0.0004909303970634911
90,00:00:00.36,0.04345114948227999
91,00:00:00.364,0.02105091605335472
92,00:00:00.368,-0.036894073244184256
93,00:00:00.372,-0.03889604425057771
94,00:00:00.376,-0.005125641589984289
95,00:00:00.38,-0.00786460004746906
96,00:00:00.384,0.03833146159740861
97,00:00:00.388,0.03806817531585702
98,00:00:00.392,0.01643215655349195
99,00:00:00.396,-0.03656289237551391
100,00:00:00.4,-0.04098138981498778
101,00:00:00.404,0.0016181743703782402
102,00:00:00.408,0.004430148517712888
103,00:00:00.412,0.020359111018478898
104,00:00:00.416,0.025676243007183096
105,00:00:00.42,-0.010709710419178009
106,00:00:00.424,-0.01444161683321
107,00:00:00.428,-0.00282682641409333
108,00:00:00.432,-0.00963488453999161
109,00:00:00.436,-0.00781283946707846
110,00:00:00.44,0.011810371419414871
111,00:00:00.444,0.004430262895766653
112,00:00:00.448,0.021918225334957252
113,00:00:00.452,0.0034159167698817354
114,00:00:00.456,-0.021081411978229863
115,00:00:00.46,-0.016301889903843403
116,00:00:00.464,0.01352439797483385
117,00:00:00.468,0.0013433254789561077
118,00:00:00.472,0.0010758615098893625
119,00:00:00.476,3.6677811294820103e-06
120,00:00:00.48,-0.0006280450033955241
121,00:00:00.484,-0.013083012396236928
122,00:00:00.488,0.01573434658348557
123,00:00:00.492,0.01224299380555749
124,00:00:00.496,-0.02028212044388056
125,00:00:00.5,-0.004393643466755749
126,00:00:00.504,0.010953543416690083
127,00:00:00.508,0.004744503472466027
128,00:00:00.512,0.0012322190450504405
129,00:00:00.516,-0.0012167984386906002
130,00:00:00.52,0.0016595118213445096
131,00:00:00.524,-0.02723268326371913
132,00:00:00.528,0.00439508608542382
133,00:00:00.532,0.008723842009203484
134,00:00:00.536,0.023536860244348652
135,00:00:00.54,-0.0044211321510375
136,00:00:00.544,-0.0025675608776509705
137,00:00:00.548,-0.02551634330302475
138,00:00:00.552,-0.00012699421495198857
139,00:00:00.556,0.02247513970360163
140,00:00:00.56,-0.012794871814548971
141,00:00:00.564,0.006233822088688669
142,00:00:00.568,0.02280021551996466
143,00:00:00.572,-0.010960758663713932
144,00:00:00.576,-0.02467016759328546
145,00:00:00.58,-0.005024831873015502
146,00:00:00.584,-0.011722423019818955
147,00:00:00.588,0.033807864412665395
148,00:00:00.592,0.02165827034332325
149,00:00:00.596,-0.00565476960036904
150,00:00:00.6,-0.01932529243640597
151,00:00:00.604,-0.014600724418414783
152,00:00:00.608,0.008787401951849488
153,00:00:00.612,-0.011000382248312231
154,00:00:00.616,0.02713101729750632
155,00:00:00.62,-0.010852242470718918
156,00:00:00.624,0.00521928770467643
157,00:00:00.628,0.007688442477956419
158,00:00:00.632,-0.026685504475608482
159,00:00:00.636,0.00519063184037805
160,00:00:00.64,0.0007607329171151408
161,00:00:00.644,0.0074700620025396295
162,00:00:00.648,-0.007585064275190259
163,00:00:00.652,0.022510760696604848
164,00:00:00.656,-0.006826604396337645
165,00:00:00.66,-0.02499806368723515
166,00:00:00.664,0.023570741963339973
167,00:00:00.668,0.01336532784625891
168,00:00:00.672,-0.02846800163388257
169,00:00:00.676,-0.01967972866259511
170,00:00:00.68,0.02362541714683174
171,00:00:00.684,0.025317312218248803
172,00:00:00.688,-0.007454181089997301
173,00:00:00.692,-0.0076087801717222
174,00:00:00.696,-0.028749896213412292
175,00:00:00.7,0.01860864646732807
176,00:00:00.704,-0.0010855925793293892
177,00:00:00.708,0.012586515396833406
178,00:00:00.712,-0.0036911768838763194
179,00:00:00.716,-0.007057325216010209
180,00:00:00.72,-0.0018182476051151692
181,00:00:00.724,0.017182746320031625
182,00:00:00.728,0.0023732988629490102
183,00:00:00.732,-0.02312728186370806
184,00:00:00.736,-0.00277276057749987
185,00:00:00.74,0.005373417865484948
186,00:00:00.744,-0.004370295908302077
187,00:00:00.748,0.013163820491172418
188,00:00:00.752,0.014673991361632943
189,00:00:00.756,-0.012844336451962587
190,00:00:00.76,-0.0030214202124625505
191,00:00:00.764,-0.0039211476687341885
192,00:00:00.768,-0.0248283576220274
193,00:00:00.772,0.024191641248762608
194,00:00:00.776,0.03033895464614031
195,00:00:00.78,-0.0013200175017118502
196,00:00:00.784,-0.030156509019434417
197,00:00:00.788,-0.013879053236451009
198,00:00:00.792,0.005477915517985817
199,00:00:00.796,-0.009472242789343
200,00:00:00.8,0.0030592815019190693
201,00:00:00.804,0.04435666371136899
202,00:00:00.808,0.0002887729788199106
203,00:00:00.812,-0.013113755740050657
204,00:00:00.816,-0.00554510857909918
205,00:00:00.82,-0.007351272273808759
206,00:00:00.824,-0.03175040520727637
207,00:00:00.828,0.0081636116374284
208,00:00:00.832,0.02866240032017235
209,00:00:00.836,0.019801527028903386
210,00:00:00.84,-0.007887537474744015
211,00:00:00.844,-0.018820664379745722
212,00:00:00.848,-0.004002659115940381
213,00:00:00.852,0.007306701336347026
214,00:00:00.856,-0.01625771564431489
215,00:00:00.86,0.004481375799514349
216,00:00:00.864,-0.002375955693423781
217,00:00:00.868,0.03754571359604597
218,00:00:00.872,-0.0044026297109667194
219,00:00:00.876,-0.016269460669718648
220,00:00:00.88,-0.02458836417645212
221,00:00:00.884,-0.0018055229738820368
222,00:00:00.888,0.0252863785717636
223,00:00:00.892,0.02972221490927041
224,00:00:00.896,-0.021228196681477123
225,00:00:00.9,-0.03253569686785345
226,00:00:00.904,0.021438871917780475
227,00:00:00.908,0.002360011683776971
228,00:00:00.912,-0.01579786464571953
229,00:00:00.916,0.005109853402245793
230,00:00:00.92,0.015753182116895942
231,00:00:00.924,-0.00019306293688717974
232,00:00:00.928,0.001578329131007191
233,00:00:00.932,-0.013819243991747502
234,00:00:00.936,-0.01060608716215939
235,00:00:00.94,0.013290121452882941
236,00:00:00.944,0.014979195315390829
237,00:00:00.948,0.005954192485660319
238,00:00:00.952,-0.011899709934368749
239,00:00:00.956,-0.01914404355920852
240,00:00:00.96,-0.02914198208600287
241,00:00:00.964,0.03397081512957812
242,00:00:00.968,0.02681563189253209
243,00:00:00.972,-0.007161107845604302
244,00:00:00.976,0.0037241775426082356
245,00:00:00.98,-0.01041680388152604
246,00:00:00.984,0.0021087145432830273
247,00:00:00.988,-0.018305234611034442
248,00:00:00.992,-0.0022781383013352405
249,00:00:00.996,0.00716006790753455
250,00:00:01,0.00426206423435361
251,00:00:01.004,-0.010056319821160276
252,00:00:01.008,-0.0017890154849737896
253,00:00:01.012,0.01724894519429651
254,00:00:01.016,0.02189481782261281
255,00:00:01.02,-0.005677218459823053
256,00:00:01.024,-0.01746510714292527
257,00:00:01.028,-0.01045918895397335
258,00:00:01.032,-0.004885894013568761
259,00:00:01.036,0.00464064464904368
260,00:00:01.04,0.00016609299927943834
261,00:00:01.044,0.014256865484639999
262,00:00:01.048,0.006187049206346271
263,00:00:01.052,0.002540544199291622
264,00:00:01.056,-0.030346170533448437
265,00:00:01.06,-0.01198194414610043
266,00:00:01.064,0.022141600551549304
267,00:00:01.068,0.028813858749345007
268,00:00:01.072,-0.014122206826868969
269,00:00:01.076,-0.013275827746838338
270,00:00:01.08,0.0018391956109553602
271,00:00:01.084,0.009223060216754682
272,00:00:01.088,-0.005477530416101181
273,00:00:01.092,-0.00841357768513262
274,00:00:01.096,-0.01055048778653144
275,00:00:01.1,0.004990341723896572
276,00:00:01.104,0.02379209641367197
277,00:00:01.108,0.0199425732716918
278,00:00:01.112,-0.02258509653620427
279,00:00:01.116,-0.0276703520212322
280,00:00:01.12,-0.0026119942776858802
281,00:00:01.124,0.010784468147903691
282,00:00:01.128,0.014452554518356921
283,00:00:01.132,0.0071902247145772
284,00:00:01.136,-0.001032159372698507
285,00:00:01.14,0.0007583677070215318
286,00:00:01.144,-0.0011258700396865598
287,00:00:01.148,-0.02621519425883888
288,00:00:01.152,-0.003153231460601099
289,00:00:01.156,0.01385778165422382
290,00:00:01.16,0.007602884434163591
291,00:00:01.164,0.003490146482363341
292,00:00:01.168,0.01478332001715896
293,00:00:01.172,-0.01146184571553022
294,00:00:01.176,-0.021991279209032658
295,00:00:01.18,-0.014904866780852857
296,00:00:01.184,0.03226976469159132
297,00:00:01.188,0.019733405904844438
298,00:00:01.192,-0.011172281694598489
299,00:00:01.196,-0.029942332766950054
300,00:00:01.2,0.005722384899854659
301,00:00:01.204,0.0015586377121508108
302,00:00:01.208,0.022590893204323916
303,00:00:01.212,0.006157486932352182
304,00:00:01.216,-0.02230126643553376
305,00:00:01.22,-0.004263539536623239
306,00:00:01.224,0.00719868252053857
307,00:00:01.228,-0.006040854728780675
308,00:00:01.232,0.01548379473388195
309,00:00:01.236,0.00752125238068402
310,00:00:01.24,-0.035392111865803606
311,00:00:01.244,-0.004938217447488571
312,00:00:01.248,0.04023326188325879
313,00:00:01.252,-0.005674598272889887
314,00:00:01.256,-0.00397284841164945
315,00:00:01.26,-0.004996004048734961
316,00:00:01.264,-0.023033533943816988
317,00:00:01.268,0.01362879255066218
318,00:00:01.272,0.02128690015524624
319,00:00:01.276,0.00736552418675274
320,00:00:01.28,-0.01249740330968052
321,00:00:01.284,-0.018076920881867412
322,00:00:01.288,-0.02558159176260231
323,00:00:01.292,0.03034186456352474
324,00:00:01.296,0.02411719923838969
325,00:00:01.3,-0.01581422588787975
326,00:00:01.304,-0.006111822964157909
327,00:00:01.308,0.004496673122048361
328,00:00:01.312,-0.001309162471443399
329,00:00:01.316,0.005018723095417958
330,00:00:01.32,0.00040847063064582134
331,00:00:01.324,0.00450729089789096
332,00:00:01.328,-0.028935965150594687
333,00:00:01.332,-0.0014900538371875795
334,00:00:01.336,0.018426264636218583
335,00:00:01.34,0.021406010724604158
336,00:00:01.344,0.00425204355269666
337,00:00:01.348,-0.036859562620520495
338,00:00:01.352,-0.010889922268688741
339,00:00:01.356,0.02117940550670025
340,00:00:01.36,0.01535836351104081
341,00:00:01.364,-0.004987609980162196
342,00:00:01.368,-0.01011890382505953
343,00:00:01.372,-0.00023754267022013057
344,00:00:01.376,0.012225365266203879
345,00:00:01.38,-0.00876592332497234
346,00:00:01.384,-0.02064395649358631
347,00:00:01.388,0.004212670028209669
348,00:00:01.392,0.02780340224853714
349,00:00:01.396,0.0030584638006985188
350,00:00:01.4,-0.011943259276449649
351,00:00:01.404,-0.0192766785621643
352,00:00:01.408,0.01237926457542926
353,00:00:01.412,0.03450727183371781
354,00:00:01.416,-0.03205053647980095
355,00:00:01.42,-0.021496885921806114
356,00:00:01.424,0.025835410226136415
357,00:00:01.428,-0.0014569598133675795
358,00:00:01.432,-0.02995483041740953
359,00:00:01.436,0.03494598902761943
360,00:00:01.44,0.02464990329463025
361,00:00:01.444,-0.01843427168205384
362,00:00:01.448,-0.03319087810814384
363,00:00:01.452,0.001407108036801252
364,00:00:01.456,0.008979131001979081
365,00:00:01.46,0.03169860225170855
366,00:00:01.464,0.0019707003375515402
367,00:00:01.468,-0.028822899330407367
368,00:00:01.472,-0.009989495098125191
369,00:00:01.476,0.0154605753486976
370,00:00:01.48,0.0002710403568926276
371,00:00:01.484,-0.017410171683877748
372,00:00:01.488,-0.008219250186812134
373,00:00:01.492,0.04454245045781138
374,00:00:01.496,0.015916665084660088
375,00:00:01.5,-0.02866315911524001
376,00:00:01.504,-0.027185087790712742
377,00:00:01.508,0.005769834388047419
378,00:00:01.512,0.012455526361009099
379,00:00:01.516,0.0036180638708174385
380,00:00:01.52,0.01124713360331953
381,00:00:01.524,0.004603002016665417
382,00:00:01.528,-0.03085307916626335
383,00:00:01.532,-0.01768610070575964
384,00:00:01.536,0.03724764403887096
385,00:00:01.54,0.005245448555797341
386,00:00:01.544,-0.01573849038686603
387,00:00:01.548,0.00617956963833421
388,00:00:01.552,0.0138594415038824
389,00:00:01.556,0.01645769807510079
390,00:00:01.56,-0.0347253770451061
391,00:00:01.564,-0.039517894620075794
392,00:00:01.568,0.008591047953814272
393,00:00:01.572,0.0299069681204855
394,00:00:01.576,0.027393815573304902
395,00:00:01.58,-0.001573607325553921
396,00:00:01.584,-0.006498414877569303
397,00:00:01.588,-0.03858438646420837
398,00:00:01.592,0.011125331278890389
399,00:00:01.596,0.018399322405457483
400,00:00:01.6,0.00862214935477824
401,00:00:01.604,-0.01074343756772578
402,00:00:01.608,-0.0021220007911324406
403,00:00:01.612,-0.0072212466038763514
404,00:00:01.616,-0.02665250256541194
405,00:00:01.62,0.022808681067544943
406,00:00:01.624,0.0385441230610013
407,00:00:01.628,-0.012019118235912177
408,00:00:01.632,-0.02858671545982361
409,00:00:01.636,-0.01341680390760302
410,00:00:01.64,0.008612156379967921
411,00:00:01.644,0.0381735106930137
412,00:00:01.648,0.0016288780607283098
413,00:00:01.652,-0.01902579213492568
414,00:00:01.656,-0.023616855498403273
415,00:00:01.66,0.0015945881605148313
416,00:00:01.664,0.012980481726117439
417,00:00:01.668,-0.0047758603468537305
418,00:00:01.672,0.024637721478939025
419,00:00:01.676,-0.00344193167984485
420,00:00:01.68,0.00232367793068988
421,00:00:01.684,-0.020888960978481932
422,00:00:01.688,-0.001111479243263611
423,00:00:01.692,-0.0009722031204546493
424,00:00:01.696,-0.01867047348059714
425,00:00:01.7,0.031852052983595
426,00:00:01.704,0.011835509678348888
427,00:00:01.708,-0.0032342041376978194
428,00:00:01.712,-0.01142143760807811
429,00:00:01.716,-0.0040695096540730455
430,00:00:01.72,-0.00591966102365401
431,00:00:01.724,0.00969223259016868
432,00:00:01.728,-0.018666837364435182
433,00:00:01.732,0.01661988510750231
434,00:00:01.736,-1.6359845176340017e-05
435,00:00:01.74,-0.0029343594796955503
436,00:00:01.744,0.0260877702385187
437,00:00:01.748,-0.003556417184881854
438,00:00:01.752,-0.04932371992617848
439,00:00:01.756,0.015572751173749561
440,00:00:01.76,0.01481171185150744
441,00:00:01.764,0.007125404197722677
442,00:00:01.768,-0.004383531690109527
443,00:00:01.772,-0.00218512612627819
444,00:00:01.776,0.0009949689847417115
445,00:00:01.78,-0.00245706457644701
446,00:00:01.784,0.002380837875534822
447,00:00:01.788,-0.01028927532024682
448,00:00:01.792,-0.0005298784817568958
449,00:00:01.796,0.011748532764613639
450,00:00:01.8,0.0042226274963468305
451,00:00:01.804,0.00663364923093468
452,00:00:01.808,-0.005684343632310608
453,00:00:01.812,-0.003422623034566639
454,00:00:01.816,-0.018892288790084408
455,00:00:01.82,-0.01903429348021743
456,00:00:01.824,0.016709894873201847
457,00:00:01.828,0.02174169046338643
458,00:00:01.832,0.03041499853134157
459,00:00:01.836,-0.0306613994762302
460,00:00:01.84,-0.00022437618463300342
461,00:00:01.844,-0.0019325668690726178
462,00:00:01.848,-0.0024802640546113235
463,00:00:01.852,-0.008038133906666186
464,00:00:01.856,-0.03413753025233736
465,00:00:01.86,0.03867707611061627
466,00:00:01.864,0.03442397527396677
467,00:00:01.868,-0.01184263126924638
468,00:00:01.872,-0.013462408212944907
469,00:00:01.876,-0.023362888954579813
470,00:00:01.88,-0.005723976530134699
471,00:00:01.884,0.022330389067064936
472,00:00:01.888,0.010715557727962718
473,00:00:01.892,0.0022532555740326643
474,00:00:01.896,-0.01142473635263741
475,00:00:01.9,-0.005502347252331679
476,00:00:01.904,0.00597138132434339
477,00:00:01.908,-0.00555200909730048
478,00:00:01.912,-0.006489533232524989
479,00:00:01.916,0.004405065439641479
480,00:00:01.92,0.022072554100304842
481,00:00:01.924,0.005768406495917586
482,00:00:01.928,-0.02453569555655121
483,00:00:01.932,-0.01928321912419053
484,00:00:01.936,0.01975142769515519
485,00:00:01.94,0.012425607128534492
486,00:00:01.944,-0.012403532862663252
487,00:00:01.948,-0.011617086012847739
488,00:00:01.952,0.014472801762167321
489,00:00:01.956,0.01064004283398383
490,00:00:01.96,-0.0019382536993361957
491,00:00:01.964,-0.00863736448809504
492,00:00:01.968,0.004751200089231111
493,00:00:01.972,-0.01464118552394212
494,00:00:01.976,-0.007880574732553217
495,00:00:01.98,0.00737518002279102
496,00:00:01.984,0.019615902798250363
497,00:00:01.988,0.01613216055557132
498,00:00:01.992,-0.0087295761331916
499,00:00:01.996,-0.03114072687458245
500,00:00:02,-0.014837509370408961
501,00:00:02.004,0.00970368320122358
502,00:00:02.008,0.030215594917535768
503,00:00:02.012,0.021982082165777683
504,00:00:02.016,-0.02806144091300671
505,00:00:02.02,-0.02163281897082927
506,00:00:02.024,0.001909431884996599
507,00:00:02.028,0.035509522072970895
508,00:00:02.032,0.0020192475058138613
509,00:00:02.036,-0.04654317442327742
510,00:00:02.04,0.00112710683606565
511,00:00:02.044,0.024737718515098078
512,00:00:02.048,0.013989371323987154
513,00:00:02.052,-0.02234976831823587
514,00:00:02.056,0.0037068442907184414
515,00:00:02.06,0.006626211456023152
516,00:00:02.064,0.0019468609243631298
517,00:00:02.068,-0.00860004501737422
518,00:00:02.072,0.0021765236742794618
519,00:00:02.076,-0.0018850025953724807
520,00:00:02.08,0.014205617830157297
521,00:00:02.084,-0.01648855442181226
522,00:00:02.088,-0.001502664614235978
523,00:00:02.092,0.005441116401925681
524,00:00:02.096,-0.002934548829216506
525,00:00:02.1,0.005720793604268689
526,00:00:02.104,-0.0033308851998299287
527,00:00:02.108,0.004537316039204599
528,00:00:02.112,-0.00669354479759932
529,00:00:02.116,0.0077851550886407495
530,00:00:02.12,0.003203019732609391
531,00:00:02.124,-0.013612312264740457
532,00:00:02.128,-0.020582502242177694
533,00:00:02.132,0.0238307029940188
534,00:00:02.136,0.02375616226345301
535,00:00:02.14,-0.00538958143442869
536,00:00:02.144,0.001850922591984272
537,00:00:02.148,-0.01442377641797066
538,00:00:02.152,-0.029920948669314412
539,00:00:02.156,0.006873342208564291
540,00:00:02.16,0.02236956777051092
541,00:00:02.164,0.0033473521471023603
542,00:00:02.168,-0.0021916826954111414
543,00:00:02.172,-0.004435677343280986
544,00:00:02.176,-0.0033001671545207596
545,00:00:02.18,0.003405437775654715
546,00:00:02.184,0.00572027429006994
547,00:00:02.188,0.0013714257220271942
548,00:00:02.192,0.00990328076295554
549,00:00:02.196,-0.02595564117655154
550,00:00:02.2,-0.00466235913336277
551,00:00:02.204,0.01676159142516553
552,00:00:02.208,0.01092972233891486
553,00:00:02.212,-0.0170161500573158
554,00:00:02.216,-0.008044643211178511
555,00:00:02.22,-0.007854748400859582
556,00:00:02.224,0.02756490977481012
557,00:00:02.228,0.019133898313157212
558,00:00:02.232,-0.00835830229334534
559,00:00:02.236,-0.03183521865867074
560,00:00:02.24,-0.011490402277559039
561,00:00:02.244,0.00320375559385868
562,00:00:02.248,0.02467469230759895
563,00:00:02.252,0.019086621003225463
564,00:00:02.256,-0.012707647169008858
565,00:00:02.26,0.0012922272780997441
566,00:00:02.264,-0.01208200876135378
567,00:00:02.268,0.0019305547466501598
568,00:00:02.272,-0.0209272671490908
569,00:00:02.276,0.0020752516575157894
570,00:00:02.28,0.04174443060765039
571,00:00:02.284,-0.02835173474159087
572,00:00:02.288,-0.010185132734477562
573,00:00:02.292,0.02222829032689328
574,00:00:02.296,0.005473983168485577
575,00:00:02.3,-0.009053387970197946
576,00:00:02.304,-0.003665989730507139
577,00:00:02.308,-0.00400942686246708
578,00:00:02.312,-0.00511391460895539
579,00:00:02.316,0.0035360472975298806
580,00:00:02.32,0.00985600124113262
581,00:00:02.324,0.00605141581036147
582,00:00:02.328,0.010137876262888314
583,00:00:02.332,-0.02880009612999857
584,00:00:02.336,-0.01818268606439231
585,00:00:02.34,0.012554809363791762
586,00:00:02.344,0.029109170660376507
587,00:00:02.348,-0.007143113063648341
588,00:00:02.352,-0.014511479064822148
589,00:00:02.356,0.01493269711500034
590,00:00:02.36,0.006377325858920852
591,00:00:02.364,-0.02070174086838962
592,00:00:02.368,-0.01979838940314949
593,00:00:02.372,0.01927879708819091
594,00:00:02.376,0.01532596186734736
595,00:00:02.38,-0.00027258251793682423
596,00:00:02.384,0.0034365344326943003
597,00:00:02.388,-0.009990721009671681
598,00:00:02.392,-0.002040576146100599
599,00:00:02.396,-0.0017363830120302737
600,00:00:02.4,-0.01221972017083317
601,00:00:02.404,-0.0013560122461058171
602,00:00:02.408,0.010335426952224221
603,00:00:02.412,0.020563312573358368
604,00:00:02.416,0.0008006675634533106
605,00:00:02.42,-0.01966460025869307
606,00:00:02.424,0.0020339752081781582
607,00:00:02.428,-0.00528833187127021
608,00:00:02.432,0.0010661570704542144
609,00:00:02.436,0.0036501174326986083
610,00:00:02.44,0.003183391818311068
611,00:00:02.444,0.005480244755744931
612,00:00:02.448,-0.0002249329700134712
613,00:00:02.452,-0.00854402652475985
614,00:00:02.456,-0.017370050307363293
615,00:00:02.46,0.02700084086973219
616,00:00:02.464,-0.004462246317416418
617,00:00:02.468,0.001316149253398187
618,00:00:02.472,-0.009263042360544201
619,00:00:02.476,-0.0014602258452214292
620,00:00:02.48,0.01983838016167283
621,00:00:02.484,-0.01806510472670193
622,00:00:02.488,-0.004964552019373531
623,00:00:02.492,0.00975639559328556
624,00:00:02.496,-0.008376400175620809
625,00:00:02.5,0.01733727520331741
626,00:00:02.504,-0.0009689667494967519
627,00:00:02.508,0.003912027226760989
628,00:00:02.512,-0.00874608545564114
629,00:00:02.516,-0.024010137189179638
630,00:00:02.52,0.0012513889523688673
631,00:00:02.524,0.014517083531245591
632,00:00:02.528,0.0222518090158701
633,00:00:02.532,-0.014380093081854249
634,00:00:02.536,-0.003199153696186838
635,00:00:02.54,0.008445868406852242
636,00:00:02.544,-0.007595304981805386
637,00:00:02.548,-0.013041211059317033
638,00:00:02.552,0.0005323650548234513
639,00:00:02.556,0.02428192365914584
640,00:00:02.56,-0.010264062788337441
641,00:00:02.564,-0.013794416227938195
642,00:00:02.568,0.01580417831428349
643,00:00:02.572,0.015414386754855482
644,00:00:02.576,-0.015278003993444166
645,00:00:02.58,-0.012290624448723966
646,00:00:02.584,-0.003663756418973209
647,00:00:02.588,0.001147977600339797
648,00:00:02.592,0.00979762664064765
649,00:00:02.596,0.008403730695135895
650,00:00:02.6,-0.011904979590326558
651,00:00:02.604,-0.00536394491791725
652,00:00:02.608,0.014148422284051769
653,00:00:02.612,0.01183301396667957
654,00:00:02.616,-0.010676325764507059
655,00:00:02.62,-0.00697722914628684
656,00:00:02.624,-0.01214242703281346
657,00:00:02.628,0.0050514488793851325
658,00:00:02.632,0.0016725761815905987
659,00:00:02.636,0.02082871366292238
660,00:00:02.64,-0.006758212111890391
661,00:00:02.644,-0.010046405717730519
662,00:00:02.648,0.0017178062698803846
663,00:00:02.652,-0.01922104461118581
664,00:00:02.656,0.02314539381768558
665,00:00:02.66,0.0045235333964228595
666,00:00:02.664,0.00119033083319664
667,00:00:02.668,-0.0018584278877824502
668,00:00:02.672,-0.02418955811299383
669,00:00:02.676,0.014406375819817178
670,00:00:02.68,0.0018745609559118704
671,00:00:02.684,0.004291383549571038
672,00:00:02.688,0.00941643211990597
673,00:00:02.692,-0.005651785060763359
674,00:00:02.696,-0.02165767305996268
675,00:00:02.7,-0.004317813378293063
676,00:00:02.704,0.010851603001356132
677,00:00:02.708,0.022282375837676283
678,00:00:02.712,0.01267557090613991
679,00:00:02.716,-0.02469750680029396
680,00:00:02.72,-0.028869340487290143
681,00:00:02.724,0.007865877822041508
682,00:00:02.728,0.0233807596378028
683,00:00:02.732,0.022372547653503754
684,00:00:02.736,-0.02671824209392069
685,00:00:02.74,-0.01017595594748854
686,00:00:02.744,0.007503022236051038
687,00:00:02.748,0.006108069326728589
688,00:00:02.752,0.00670366117265075
689,00:00:02.756,-0.017292508011450977
690,00:00:02.76,-0.002461799944285312
691,00:00:02.764,-0.004041005391627609
692,00:00:02.768,0.01713169808499516
693,00:00:02.772,0.01382511341944333
694,00:00:02.776,-0.018525979423429803
695,00:00:02.78,-0.005883391480892901
696,00:00:02.784,0.0036456431262195093
697,00:00:02.788,-0.004239644797053194
698,00:00:02.792,0.0052707325667142695
699,00:00:02.796,0.01808072568383067
700,00:00:02.8,-0.00345355900935824
701,00:00:02.804,-0.01285918557550759
702,00:00:02.808,-0.010678506456315599
703,00:00:02.812,-0.001197239995235579
704,00:00:02.816,-0.0069221351295709705
705,00:00:02.82,0.0228794096037745
706,00:00:02.824,-0.00011307763634249221
707,00:00:02.828,0.01256852119695395
708,00:00:02.832,0.00947857950814068
709,00:00:02.836,-0.00683390116319061
710,00:00:02.84,-0.04236483946442602
711,00:00:02.844,-0.014461677521467249
712,00:00:02.848,0.02727800607681273
713,00:00:02.852,0.014975131383835112
714,00:00:02.856,0.00168311642482878
715,00:00:02.86,0.01156911381985992
716,00:00:02.864,-0.00656492903362959
717,00:00:02.868,-0.010501035954803227
718,00:00:02.872,0.005638767499476661
719,00:00:02.876,-0.004829931742278864
720,00:00:02.88,-0.013100506155751649
721,00:00:02.884,-0.02459921198897068
722,00:00:02.888,0.029415391851216596
723,00:00:02.892,0.02744573261588809
724,00:00:02.896,-0.003024793229997179
725,00:00:02.9,-0.007656527915969489
726,00:00:02.904,-0.019496513297781314
727,00:00:02.908,0.0013968104904051864
728,00:00:02.912,0.0103435730561614
729,00:00:02.916,-0.0018588776583783378
730,00:00:02.92,-0.00259188667405396
731,00:00:02.924,-0.00643094070255756
732,00:00:02.928,0.013693443790543774
733,00:00:02.932,0.004898300394415851
734,00:00:02.936,-0.007422579685226071
735,00:00:02.94,-0.01266486733220517
736,00:00:02.944,0.006363855878589675
737,00:00:02.948,0.011226907675450086
738,00:00:02.952,0.0002684146165848403
739,00:00:02.956,-0.011404907098039985
740,00:00:02.96,-0.0013792708050459502
741,00:00:02.964,0.0003055151864828076
742,00:00:02.968,0.002510255319066349
743,00:00:02.972,0.015380811491922941
744,00:00:02.976,-0.012136524193920199
745,00:00:02.98,-0.01182484254240995
746,00:00:02.984,-0.0026197399711236392
747,00:00:02.988,0.025648904615081923
748,00:00:02.992,-0.008411833550781001
749,00:00:02.996,-0.0026898328505922087
750,00:00:03,0.003411515150219203
751,00:00:03.004,0.006134565221145761
752,00:00:03.008,-0.017547804047353573
753,00:00:03.012,-0.013083185069263018
754,00:00:03.016,0.014022023133293265
755,00:00:03.02,0.021674918942153495
756,00:00:03.024,-0.020489566959440708
757,00:00:03.028,0.003455210360698396
758,00:00:03.032,0.02671544486656787
759,00:00:03.036,-0.018268939340487123
760,00:00:03.04,-0.031405837042257204
761,00:00:03.044,0.002218841575086116
762,00:00:03.048,0.027969389557256374
763,00:00:03.052,0.01028041122481229
764,00:00:03.056,-0.0017500479589216314
765,00:00:03.06,-0.03413939150050279
766,00:00:03.064,0.012381107662804428
767,00:00:03.068,0.01078772707842288
768,00:00:03.072,0.01847975933924317
769,00:00:03.076,-0.011423240415751903
770,00:00:03.08,-0.03401843272149558
771,00:00:03.084,0.001758781727403379
772,00:00:03.088,0.023749216343276154
773,00:00:03.092,0.016143756089149985
774,00:00:03.096,0.001410871976986534
775,00:00:03.1,-0.02302303537726397
776,00:00:03.104,-0.01949679013341672
777,00:00:03.108,0.0014444738626480103
778,00:00:03.112,0.03312251321040098
779,00:00:03.116,0.00937282177619637
780,00:00:03.12,-0.01527418754994868
781,00:00:03.124,0.0020852338639087984
782,00:00:03.128,-0.010291923535987738
783,00:00:03.132,-0.0007437919266522208
784,00:00:03.136,0.0023928011069074295
785,00:00:03.14,-0.004131869412958622
786,00:00:03.144,-0.010021672816947103
787,00:00:03.148,0.0015065190382301703
788,00:00:03.152,-0.006913665332831449
789,00:00:03.156,0.038039527600631125
790,00:00:03.16,0.018423812463879606
791,00:00:03.164,-0.013019961887039239
792,00:00:03.168,-0.032004476059228175
793,00:00:03.172,-0.007262013386935
794,00:00:03.176,0.0044713763054460304
795,00:00:03.18,0.0033586714416742403
796,00:00:03.184,0.00963153038173914
797,00:00:03.188,0.00346761778928339
798,00:00:03.192,0.0038576803635805793
799,00:00:03.196,-0.007996973290573783
800,00:00:03.2,0.0028682970441878328
801,00:00:03.204,-0.01419814093969763
802,00:00:03.208,0.00868739746510982
803,00:00:03.212,-0.00465202750638128
804,00:00:03.216,0.019029652699828148
805,00:00:03.22,0.0084723331965506
806,00:00:03.224,-0.02870509307831521
807,00:00:03.228,-0.02361319202464071
808,00:00:03.232,0.033532104920595954
809,00:00:03.236,0.007646360085345789
810,00:00:03.24,0.011860112426802518
811,00:00:03.244,-0.026867457803746247
812,00:00:03.248,-0.010962487896904351
813,00:00:03.252,0.0207710862159729
814,00:00:03.256,0.002789980208035557
815,00:00:03.26,-0.002292213030159471
816,00:00:03.264,-0.02535070572048426
817,00:00:03.268,0.009863184764981242
818,00:00:03.272,0.03567244485020635
819,00:00:03.276,-0.008219561772421002
820,00:00:03.28,-0.01543630217202007
821,00:00:03.284,-0.02100491430610418
822,00:00:03.288,-0.0008153290254995296
823,00:00:03.292,0.013566133682616058
824,00:00:03.296,0.014888039906509222
825,00:00:03.3,0.01594179162202637
826,00:00:03.304,-0.01102858386002481
827,00:00:03.308,-0.02963498095050458
828,00:00:03.312,0.0074852084217127334
829,00:00:03.316,0.0135183593956754
830,00:00:03.32,0.002548344840761255
831,00:00:03.324,-0.011994603555649522
832,00:00:03.328,-0.011368422769010077
833,00:00:03.332,0.019776088185608304
834,00:00:03.336,0.008135436782140454
835,00:00:03.34,-0.00424080248922111
836,00:00:03.344,-0.01915464526973663
837,00:00:03.348,0.011775552062317729
838,00:00:03.352,0.013494682963937526
839,00:00:03.356,0.006055926278349941
840,00:00:03.36,-0.025622784160077572
841,00:00:03.364,-0.023494436638429723
842,00:00:03.368,0.0082545408513397
843,00:00:03.372,0.024804079439491047
844,00:00:03.376,0.016444936860352737
845,00:00:03.38,0.0017059332458302392
846,00:00:03.384,-0.02092756237834693
847,00:00:03.388,-0.007348002865910531
848,00:00:03.392,-0.00017179470160044686
849,00:00:03.396,-0.0034176590852439907
850,00:00:03.4,0.01523143798112869
851,00:00:03.404,-0.0052636107429862005
852,00:00:03.408,0.002104888670146458
853,00:00:03.412,-0.008914446225389831
854,00:00:03.416,0.01117861224338413
855,00:00:03.42,0.0022169598378241097
856,00:00:03.424,0.0016097670886665496
857,00:00:03.428,-0.007471511140465728
858,00:00:03.432,-0.009703702526167035
859,00:00:03.436,0.01353354254388247
860,00:00:03.44,-0.00820674188435078
861,00:00:03.444,-0.006829648540588098
862,00:00:03.448,0.01506799983326348
863,00:00:03.452,-0.00835080491378904
864,00:00:03.456,0.0131525041651912
865,00:00:03.46,0.011419678281527009
866,00:00:03.464,-0.025956492172554142
867,00:00:03.468,-0.004689225635956974
868,00:00:03.472,-0.00026296544820070874
869,00:00:03.476,0.007042540237307542
870,00:00:03.48,0.006356042809784408
871,00:00:03.484,-0.0036909979535266783
872,00:00:03.488,-0.0012674180325120696
873,00:00:03.492,0.02070239116437729
874,00:00:03.496,0.007803555614373179
875,00:00:03.5,-0.033029151323717094
876,00:00:03.504,-0.019996793475002085
877,00:00:03.508,-0.00373414368368689
878,00:00:03.512,0.0168403605930507
879,00:00:03.516,0.04253089369740331
880,00:00:03.52,0.00599646642149309
881,00:00:03.524,-0.035775136668235015
882,00:00:03.528,-0.013825677335262323
883,00:00:03.532,0.007600148674100682
884,00:00:03.536,0.00187162216752768
885,00:00:03.54,0.004486907739192251
886,00:00:03.544,-0.005170952528715141
887,00:00:03.548,0.0251989457756281
888,00:00:03.552,-0.012398400576785188
889,00:00:03.556,-0.005868159933015711
890,00:00:03.56,-0.010303133982233679
891,00:00:03.564,-0.00878575537353754
892,00:00:03.568,0.004247953853337093
893,00:00:03.572,0.02382144751027227
894,00:00:03.576,0.012620730791240882
895,00:00:03.58,-0.01354107749648393
896,00:00:03.584,-0.02252377651166169
897,00:00:03.588,0.006298110587522379
898,00:00:03.592,0.01514286245219409
899,00:00:03.596,-0.015103633049875543
900,00:00:03.6,0.00303600449115038
901,00:00:03.604,-0.00891464343294501
902,00:00:03.608,0.010078847117256368
903,00:00:03.612,0.0206708745099604
904,00:00:03.616,0.01847986294887964
905,00:00:03.62,-0.038900223560631275
906,00:00:03.624,-0.03037170553579925
907,00:00:03.628,0.021170059219002717
908,00:00:03.632,0.01868934347294271
909,00:00:03.636,0.0055601759813725905
910,00:00:03.64,-0.012847560254158456
911,00:00:03.644,-0.014343030052259561
912,00:00:03.648,0.012777981108229168
913,00:00:03.652,0.010669828967365883
914,00:00:03.656,-0.00498172547668219
915,00:00:03.66,-0.00343891602824442
916,00:00:03.664,0.004645341308787471
917,00:00:03.668,-0.01021147309802473
918,00:00:03.672,-0.00452246167697013
919,00:00:03.676,0.01363109657540917
920,00:00:03.68,-0.0014112098142504692
921,00:00:03.684,0.007173863705247609
922,00:00:03.688,-0.010884730378165841
923,00:00:03.692,-0.0031198277138173493
924,00:00:03.696,-0.0033779303776100295
925,00:00:03.7,0.01427476992830634
926,00:00:03.704,-0.011213136836886359
927,00:00:03.708,0.00040229034493677405
928,00:00:03.712,-0.00012227427214383992
929,00:00:03.716,0.017416202754247934
930,00:00:03.72,0.004479308612644669
931,00:00:03.724,-0.0168228272814304
932,00:00:03.728,-0.02699070866219703
933,00:00:03.732,-0.0023343772627413303
934,00:00:03.736,0.05193448532372706
935,00:00:03.74,0.0066714159911498375
936,00:00:03.744,-0.03251591674052176
937,00:00:03.748,-0.02341928798705344
938,00:00:03.752,0.010296612977981569
939,00:00:03.756,0.04205615073442451
940,00:00:03.76,-0.011208194890059541
941,00:00:03.764,-0.016624579904600978
942,00:00:03.768,-0.008845202741213143
943,00:00:03.772,0.0002685020426724863
944,00:00:03.776,0.0011575712596822918
945,00:00:03.78,0.009599616416380711
946,00:00:03.784,0.014755078125745068
947,00:00:03.788,0.0009594860021024997
948,00:00:03.792,-0.02200315322261306
949,00:00:03.796,-0.01164807737222874
950,00:00:03.8,0.0009425507159903702
951,00:00:03.804,0.01849616563413296
952,00:00:03.808,0.015404487101477553
953,00:00:03.812,-0.004391743423184377
954,00:00:03.816,-0.010565085889538757
955,00:00:03.82,-0.01431421888992195
956,00:00:03.824,-0.0007968418067321168
957,00:00:03.828,0.019119020900689062
958,00:00:03.832,-0.0003145804839732656
959,00:00:03.836,-0.01798986224457623
960,00:00:03.84,-0.0025245165452361298
961,00:00:03.844,0.02727429848164315
962,00:00:03.848,0.0070437722606584395
963,00:00:03.852,0.0019526882097125127
964,00:00:03.856,-0.043346368707716514
965,00:00:03.86,-0.01366323255933824
966,00:00:03.864,0.02338644186966126
967,00:00:03.868,0.013986991776619122
968,00:00:03.872,0.03456557122990493
969,00:00:03.876,-0.01373906480148436
970,00:00:03.88,-0.03204647096572442
971,00:00:03.884,-0.0109841891098768
972,00:00:03.888,0.006690702866762871
973,00:00:03.892,0.014822013268712908
974,00:00:03.896,0.01158814970403909
975,00:00:03.9,-0.011410845268983387
976,00:00:03.904,-0.01947004767134785
977,00:00:03.908,0.00693126185797155
978,00:00:03.912,0.022997141815722023
979,00:00:03.916,0.014382436638697971
980,00:00:03.92,-0.01113511202856898
981,00:00:03.924,-0.030141523922793532
982,00:00:03.928,-0.010174563154578209
983,00:00:03.932,0.011611577450821637
984,00:00:03.936,0.003800567239522939
985,00:00:03.94,0.02392269670963282
986,00:00:03.944,-0.0036175989080221207
987,00:00:03.948,-0.004358899910585017
988,00:00:03.952,-0.006881871464429452
989,00:00:03.956,-0.0016704439185559793
990,00:00:03.96,0.0021674339659512095
991,00:00:03.964,-0.0014458680525422
992,00:00:03.968,-0.0073544706683606196
993,00:00:03.972,0.01442333031445738
994,00:00:03.976,0.002233504084870222
995,00:00:03.98,-0.013023165985941892
996,00:00:03.984,-0.00400593178346754
997,00:00:03.988,0.00732534029521049
998,00:00:03.992,-0.0005553778028115598
999,00:00:03.996,0.002633178097312335
1000,00:00:04,0.01682738005183638
1001,00:00:04.004,-0.011219604057259854
1002,00:00:04.008,-0.01655291428323836
1003,00:00:04.012,0.0037284365389496105
1004,00:00:04.016,-0.004006976145319639
1005,00:00:04.02,0.00251181051135063
1006,00:00:04.024,0.013470590347424151
1007,00:00:04.028,0.01103757205419242
1008,00:00:04.032,-0.00178343057632443
1009,00:00:04.036,-0.01377284177578985
1010,00:00:04.04,-0.009761982597410672
1011,00:00:04.044,-0.0057817553170025305
1012,00:00:04.048,0.008049261348787695
1013,00:00:04.052,0.010933373603620563
1014,00:00:04.056,0.004332442302256819
1015,00:00:04.06,-0.00835453043691814
1016,00:00:04.064,-0.0072191307554021495
1017,00:00:04.068,0.0025497844908386395
1018,00:00:04.072,0.01971476105973121
1019,00:00:04.076,0.0020781358762178587
1020,00:00:04.08,-0.01250161044299602
1021,00:00:04.084,-0.03925521764904257
1022,00:00:04.088,-0.0002331023570150098
1023,00:00:04.092,0.0596910258755088
1024,00:00:04.096,0.0043729536700993395
1025,00:00:04.1,-0.03164460114203397
1026,00:00:04.104,-0.0033057623077184404
1027,00:00:04.108,0.003481106352410281
1028,00:00:04.112,0.004489589948207191
1029,00:00:04.116,0.006441203644499184
1030,00:00:04.12,-0.018900810740888146
1031,00:00:04.124,-0.02884318528231237
1032,00:00:04.128,0.0403752904385329
1033,00:00:04.132,0.020553141366690415
1034,00:00:04.136,0.007856745272874818
1035,00:00:04.14,-0.01750812865793705
1036,00:00:04.144,-0.01673547364771369
1037,00:00:04.148,-0.01727567729540172
1038,00:00:04.152,-0.00269166042562574
1039,00:00:04.156,0.013439712114632157
1040,00:00:04.16,0.017022298648953438
1041,00:00:04.164,0.008208352519432085
1042,00:00:04.168,0.00671163154765963
1043,00:00:04.172,-0.010578577464912082
1044,00:00:04.176,-0.01531899784458797
1045,00:00:04.18,-0.007725318428128899
1046,00:00:04.184,0.009456252402742399
1047,00:00:04.188,-0.00605560059193518
1048,00:00:04.192,-0.01101445627864448
1049,00:00:04.196,0.019840968307107697
1050,00:00:04.2,0.01965680019930003
1051,00:00:04.204,-0.00617444701492787
1052,00:00:04.208,-0.00904298177920283
1053,00:00:04.212,0.005616004695184524
1054,00:00:04.216,-0.01454878529330017
1055,00:00:04.22,-0.015270973352016902
1056,00:00:04.224,0.01770597300492229
1057,00:00:04.228,0.006604457623325288
1058,00:00:04.232,-0.01250865892507132
1059,00:00:04.236,0.00298744475003332
1060,00:00:04.24,0.01123599475249653
1061,00:00:04.244,0.00685656734276563
1062,00:00:04.248,0.011865768537973085
1063,00:00:04.252,-0.03597050206735727
1064,00:00:04.256,-0.01899841608246789
1065,00:00:04.26,0.0274119542445988
1066,00:00:04.264,0.003312429878860752
1067,00:00:04.268,0.00429155537858613
1068,00:00:04.272,0.005882152821868661
1069,00:00:04.276,-0.00102456170134246
1070,00:00:04.28,0.004519790061749511
1071,00:00:04.284,-0.03463606489822266
1072,00:00:04.288,0.01048526540398593
1073,00:00:04.292,0.016289259016048163
1074,00:00:04.296,-0.0011859093792736504
1075,00:00:04.3,-0.011362423712853342
1076,00:00:04.304,-0.011801660177297911
1077,00:00:04.308,0.02066494431346651
1078,00:00:04.312,0.02834670711308719
1079,00:00:04.316,-0.01471816620323807
1080,00:00:04.32,-0.041800471022725105
1081,00:00:04.324,0.006609415635466581
1082,00:00:04.328,0.0130040110088885
1083,00:00:04.332,0.01690843934193254
1084,00:00:04.336,0.00267832865938544
1085,00:00:04.34,-0.014275141598773196
1086,00:00:04.344,-0.00397455424536019
1087,00:00:04.348,0.007640512427315118
1088,00:00:04.352,0.001070038299076273
1089,00:00:04.356,0.0034958235919475607
1090,00:00:04.36,-0.009066137223271653
1091,00:00:04.364,-0.021026897593401393
1092,00:00:04.368,0.01150911860167983
1093,00:00:04.372,0.0173841817304492
1094,00:00:04.376,0.011608569882810121
1095,00:00:04.38,-0.01099542970769106
1096,00:00:04.384,0.005547109525650729
1097,00:00:04.388,-0.04254767484962944
1098,00:00:04.392,0.01911965545150452
1099,00:00:04.396,0.02367903897538777
1100,00:00:04.4,0.00832918379455805
1101,00:00:04.404,-0.01636646594852207
1102,00:00:04.408,-0.02247692272067069
1103,00:00:04.412,-0.010423297859233568
1104,00:00:04.416,0.018598753027617897
1105,00:00:04.42,0.027332918718457156
1106,00:00:04.424,0.01238631003070622
1107,00:00:04.428,-0.017347488785162523
1108,00:00:04.432,-0.02280392684042449
1109,00:00:04.436,-0.0024414262734353803
1110,00:00:04.44,0.013491415054886598
1111,00:00:04.444,-0.006259625311940929
1112,00:00:04.448,0.0007861261256039004
1113,00:00:04.452,-0.0029682418680749886
1114,00:00:04.456,0.0065554513130337
1115,00:00:04.46,0.00580392894335093
1116,00:00:04.464,-0.000535207276698208
1117,00:00:04.468,-0.0021142414771020395
1118,00:00:04.472,0.006560276262462138
1119,00:00:04.476,-0.004608816845575342
1120,00:00:04.48,-0.006500850897282359
1121,00:00:04.484,-0.013946891849627755
1122,00:00:04.488,-0.00030775344930589026
1123,00:00:04.492,0.022652934014331553
1124,00:00:04.496,0.01823038212023676
1125,00:00:04.5,-0.02769244881346824
1126,00:00:04.504,-0.00403570453636348
1127,00:00:04.508,0.01457824744284153
1128,00:00:04.512,0.0007719624554738368
1129,00:00:04.516,-0.00194628059398383
1130,00:00:04.52,-0.008000971865840256
1131,00:00:04.524,-0.028650638647377484
1132,00:00:04.528,0.010469806613400578
1133,00:00:04.532,0.03084660830791105
1134,00:00:04.536,0.010084385983645909
1135,00:00:04.54,-0.011736626853235071
1136,00:00:04.544,-0.007402895949780941
1137,00:00:04.548,-9.80785698629907e-05
1138,00:00:04.552,0.0008467386360280207
1139,00:00:04.556,-0.00855908100493252
1140,00:00:04.56,-0.0015875719254836466
1141,00:00:04.564,-0.00964612420648334
1142,00:00:04.568,0.015796247636899338
1143,00:00:04.572,0.0001892163418233195
1144,00:00:04.576,0.01585032464936376
1145,00:00:04.58,8.18953849375699e-05
1146,00:00:04.584,-0.0060477978549897705
1147,00:00:04.588,-0.02507146168500184
1148,00:00:04.592,0.01795700669754294
1149,00:00:04.596,-0.0006631577853113413
1150,00:00:04.6,0.009021493140608051
1151,00:00:04.604,-0.00861447385977953
1152,00:00:04.608,-0.003932496241759559
1153,00:00:04.612,-0.01410410809330643
1154,00:00:04.616,-0.0025910963304340805
1155,00:00:04.62,0.027029694989323647
1156,00:00:04.624,0.008106353925541071
1157,00:00:04.628,-0.010514453140785942
1158,00:00:04.632,-0.004598706029355571
1159,00:00:04.636,-0.01633207057602703
1160,00:00:04.64,0.023842758499085882
1161,00:00:04.644,0.014432504773139959
1162,00:00:04.648,-0.00576528819510712
1163,00:00:04.652,-0.04041860392317177
1164,00:00:04.656,-0.016278964001685402
1165,00:00:04.66,0.03260940685868255
1166,00:00:04.664,0.032700873911380775
1167,00:00:04.668,-0.006717535346979279
1168,00:00:04.672,-0.01934449956752359
1169,00:00:04.676,0.0044184282887727005
1170,00:00:04.68,0.012283388059586259
1171,00:00:04.684,-0.04081928974483165
1172,00:00:04.688,-0.0026712897233665024
1173,00:00:04.692,0.02684322698041799
1174,00:00:04.696,0.011818882543593649
1175,00:00:04.7,0.011267736786976469
1176,00:00:04.704,-0.01884770020842552
1177,00:00:04.708,0.0003228194545954505
1178,00:00:04.712,-0.017562923603691157
1179,00:00:04.716,0.005320530035532961
1180,00:00:04.72,0.01276767812669277
1181,00:00:04.724,-0.01196093438193202
1182,00:00:04.728,0.02073304844088855
1183,00:00:04.732,-0.003015574533492321
1184,00:00:04.736,-0.020114634127821752
1185,00:00:04.74,-0.00539660349022597
1186,00:00:04.744,0.006372363248374318
1187,00:00:04.748,0.01595422229729595
1188,00:00:04.752,0.0006881930166855506
1189,00:00:04.756,-0.005671708265253986
1190,00:00:04.76,0.013289164053276192
1191,00:00:04.764,-0.007486245711334028
1192,00:00:04.768,-0.00697493448387835
1193,00:00:04.772,-0.01633967366069554
1194,00:00:04.776,-0.0053976553026586814
1195,00:00:04.78,0.008338633080711592
1196,00:00:04.784,0.015155789209529761
1197,00:00:04.788,0.02607002714648847
1198,00:00:04.792,0.00781388604082167
1199,00:00:04.796,-0.04615838266909116
1200,00:00:04.8,-0.02203885721974079
1201,00:00:04.804,0.017641182988882023
1202,00:00:04.808,0.01259672102332842
1203,00:00:04.812,0.004979445133358229
1204,00:00:04.816,0.003704668954014791
1205,00:00:04.82,-0.00027660885825753125
1206,00:00:04.824,-0.009303998194809539
1207,00:00:04.828,0.008603534195572174
1208,00:00:04.832,-0.0033088948930526346
1209,00:00:04.836,-0.00288204732351005
1210,00:00:04.84,-0.00015550921671092033
1211,00:00:04.844,-0.007035482674837111
1212,00:00:04.848,-0.0034896645229309797
1213,00:00:04.852,0.01229481387417763
1214,00:00:04.856,0.0012181245256215308
1215,00:00:04.86,-0.005346989491954471
1216,00:00:04.864,0.01556522701866929
1217,00:00:04.868,-0.0025255186483263865
1218,00:00:04.872,-0.021578935906291008
1219,00:00:04.876,0.00031737098470330065
1220,00:00:04.88,0.00938303163275122
1221,00:00:04.884,0.0041597443050704844
1222,00:00:04.888,0.00263223890215159
1223,00:00:04.892,-0.0032727447687648176
1224,00:00:04.896,-0.01368426717817781
1225,00:00:04.9,0.004418078722665088
1226,00:00:04.904,0.012664099689573053
1227,00:00:04.908,0.01167932199314235
1228,00:00:04.912,-0.0024449760676361616
1229,00:00:04.916,-0.01096462388522923
1230,00:00:04.92,-0.01671334728598594
1231,00:00:04.924,-0.01334047981072213
1232,00:00:04.928,0.005577528208959843
1233,00:00:04.932,0.03474082518368958
1234,00:00:04.936,0.01736476249061522
1235,00:00:04.94,-0.02021871833130719
1236,00:00:04.944,-0.0448741568252444
1237,00:00:04.948,0.024907256651204093
1238,00:00:04.952,0.03045496821869168
1239,00:00:04.956,-0.00348426983691753
1240,00:00:04.96,-0.0274522919207811
1241,00:00:04.964,-0.012660237494856112
1242,00:00:04.968,0.00958838686347008
1243,00:00:04.972,0.015709948493167807
1244,00:00:04.976,0.00200214772485196
1245,00:00:04.98,0.000942516606301071
1246,00:00:04.984,0.01134838641155512
1247,00:00:04.988,-0.010128770416486084
1248,00:00:04.992,-0.012114282988477514
1249,00:00:04.996,0.0005197293357923601
1250,00:00:05,-0.008876574924215681
1251,00:00:05.004,-0.00029975874349478897
1252,00:00:05.008,0.003206139313988392
1253,00:00:05.012,0.018787724897265465
1254,00:00:05.016,0.008604633825598295
1255,00:00:05.02,0.00840438762679693
1256,00:00:05.024,-0.03832458506803956
1257,00:00:05.028,-0.00669314165133984
1258,00:00:05.032,0.010423840722069101
1259,00:00:05.036,-0.0015654688468202983
1260,00:00:05.04,0.023071607574820484
1261,00:00:05.044,0.013513252168195319
1262,00:00:05.048,-0.015334201976656909
1263,00:00:05.052,-0.02766183018684387
1264,00:00:05.056,-0.0001270153443329058
1265,00:00:05.06,0.014075878745643424
1266,00:00:05.064,0.0011392701417208013
1267,00:00:05.068,0.00901298935059458
1268,00:00:05.072,0.008712109643965911
1269,00:00:05.076,-0.030852966068778215
1270,00:00:05.08,0.00238528125919401
1271,00:00:05.084,0.02582482108846304
1272,00:00:05.088,-0.007918256451375755
1273,00:00:05.092,-0.010111484643857693
1274,00:00:05.096,0.001309015206061301
1275,00:00:05.1,-0.0028220822568982896
1276,00:00:05.104,0.00362140638753769
1277,00:00:05.108,0.01912301359698173
1278,00:00:05.112,-0.009318667463958258
1279,00:00:05.116,0.002866618277039378
1280,00:00:05.12,-0.01437380071729421
1281,00:00:05.124,-0.02792611205950376
1282,00:00:05.128,0.02048273896798488
1283,00:00:05.132,0.01741736102849248
1284,00:00:05.136,-0.003322916803881531
1285,00:00:05.14,0.01610641134902835
1286,00:00:05.144,0.002300314605236049
1287,00:00:05.148,-0.01116409990936517
1288,00:00:05.152,-0.026519990351516788
1289,00:00:05.156,-0.01540056162048132
1290,00:00:05.16,0.01863846078049396
1291,00:00:05.164,0.01820234023034575
1292,00:00:05.168,-0.0014487532898783996
1293,00:00:05.172,0.01333148451521994
1294,00:00:05.176,0.012703437125310281
1295,00:00:05.18,-0.012441441707778729
1296,00:00:05.184,-0.04033591862389585
1297,00:00:05.188,-0.012085427239071623
1298,00:00:05.192,0.02152067236602307
1299,00:00:05.196,0.0488741472363473
1300,00:00:05.2,-0.030850328505039274
1301,00:00:05.204,-0.010232513537630432
1302,00:00:05.208,0.006917517050169441
1303,00:00:05.212,-0.007937308400869359
1304,00:00:05.216,0.002344997134059631
1305,00:00:05.22,0.00957602774724364
1306,00:00:05.224,0.006099356804043091
1307,00:00:05.228,-0.006414652569219539
1308,00:00:05.232,-0.00681067164987326
1309,00:00:05.236,0.007602211320772721
1310,00:00:05.24,-0.00676703825592994
1311,00:00:05.244,-0.011589669389650241
1312,00:00:05.248,0.010098781902343038
1313,00:00:05.252,-0.00785526214167475
1314,00:00:05.256,0.01733001205138866
1315,00:00:05.26,0.013727091543842107
1316,00:00:05.264,-0.01750309299677611
1317,00:00:05.268,-0.019556386338081228
1318,00:00:05.272,0.01931835804134602
1319,00:00:05.276,-0.00011002851169905362
1320,00:00:05.28,0.009319299831986424
1321,00:00:05.284,-0.00245690741576254
1322,00:00:05.288,-0.028978377580642707
1323,00:00:05.292,-0.0039364055264741495
1324,00:00:05.296,0.0234770753886551
1325,00:00:05.3,0.02883846545591953
1326,00:00:05.304,-0.01456798193976283
1327,00:00:05.308,-0.02047612471506004
1328,00:00:05.312,0.008512362372130159
1329,00:00:05.316,-0.0015623269136994995
1330,00:00:05.32,-0.020526549196802038
1331,00:00:05.324,0.0034001941094174903
1332,00:00:05.328,0.01751774596050381
1333,00:00:05.332,0.013765769312158258
1334,00:00:05.336,0.0054487581073772145
1335,00:00:05.34,-0.007160882232710738
1336,00:00:05.344,-0.03077008482068772
1337,00:00:05.348,0.014883567579090602
1338,00:00:05.352,0.001959227956831429
1339,00:00:05.356,-0.007092043873853971
1340,00:00:05.36,0.00794043787755071
1341,00:00:05.364,-0.0022364188916981307
1342,00:00:05.368,0.02480597281828527
1343,00:00:05.372,-0.016801401041448113
1344,00:00:05.376,-0.03100416355300693
1345,00:00:05.38,0.012048848904669281
1346,00:00:05.384,0.02385567163582895
1347,00:00:05.388,0.0004764022305607838
1348,00:00:05.392,-0.002465884434059259
1349,00:00:05.396,-0.01583464368013666
1350,00:00:05.4,0.0025499288458377093
1351,00:00:05.404,0.0054100036068121
1352,00:00:05.408,0.0026235722471029017
1353,00:00:05.412,-0.004661232856960849
1354,00:00:05.416,0.0040475837886333405
1355,00:00:05.42,-0.00046558212488889694
1356,00:00:05.424,0.014584052376449112
1357,00:00:05.428,-0.029836992034688602
1358,00:00:05.432,-0.014147844631224878
1359,00:00:05.436,0.02706652716733519
1360,00:00:05.44,0.025097442892729277
1361,00:00:05.444,-0.018036829773336642
1362,00:00:05.448,-0.016538352705538297
1363,00:00:05.452,0.0029613191727548794
1364,00:00:05.456,0.010805350728332901
1365,00:00:05.46,-0.0042645586654543495
1366,00:00:05.464,-0.0013082240475341634
1367,00:00:05.468,-0.009594345930963758
1368,00:00:05.472,0.0132850999943912
1369,00:00:05.476,0.023664017673581828
1370,00:00:05.48,-0.01654226565733549
1371,00:00:05.484,-0.028446922136936274
1372,00:00:05.488,0.020099761022720465
1373,00:00:05.492,-0.0013736810069531185
1374,00:00:05.496,-0.00594272813759745
1375,00:00:05.5,0.0015266195405274994
1376,00:00:05.504,-2.81211105175325e-05
1377,00:00:05.508,-0.007338251685723661
1378,00:00:05.512,0.01398232686915436
1379,00:00:05.516,0.02117598778568212
1380,00:00:05.52,0.00981051888084039
1381,00:00:05.524,-0.03606009716168046
1382,00:00:05.528,-0.02116039954125878
1383,00:00:05.532,0.01135154906660319
1384,00:00:05.536,0.011960859061218802
1385,00:00:05.54,-0.016518001699296236
1386,00:00:05.544,0.016001209238311283
1387,00:00:05.548,0.046153936535119996
1388,00:00:05.552,-0.022080965572968108
1389,00:00:05.556,-0.044964597094804104
1390,00:00:05.56,-0.01535543212958145
1391,00:00:05.564,0.03215811005793516
1392,00:00:05.568,0.028666986152529675
1393,00:00:05.572,0.0037781265709782045
1394,00:00:05.576,-0.017875542107503865
1395,00:00:05.58,-0.02953063813038174
1396,00:00:05.584,-0.011779985157772899
1397,00:00:05.588,0.024078118527540965
1398,00:00:05.592,0.029507819795980987
1399,00:00:05.596,0.01076841913163662
1400,00:00:05.6,-0.030580246355384623
1401,00:00:05.604,-0.029343589616473736
1402,00:00:05.608,0.009058149997144981
1403,00:00:05.612,0.02442049374803905
1404,00:00:05.616,0.01648265495896339
1405,00:00:05.62,-0.0002628838410601011
1406,00:00:05.624,-0.02958746184594931
1407,00:00:05.628,-0.00892605271656066
1408,00:00:05.632,0.004772624466568241
1409,00:00:05.636,0.00725185917690392
1410,00:00:05.64,0.017506978008896078
1411,00:00:05.644,0.0087324979249388
1412,00:00:05.648,-0.03006861591711641
1413,00:00:05.652,-0.0026591636124067035
1414,00:00:05.656,0.00879309675656258
1415,00:00:05.66,0.010687234840588644
1416,00:00:05.664,-0.009030741755850641
1417,00:00:05.668,-0.006042532040737573
1418,00:00:05.672,-0.00099524145480245
1419,00:00:05.676,0.0109959855908528
1420,00:00:05.68,0.008363718865439304
1421,00:00:05.684,0.0031242598779499505
1422,00:00:05.688,-0.008572827151510868
1423,00:00:05.692,-0.01199126488063484
1424,00:00:05.696,-0.009506111266091471
1425,00:00:05.7,-0.006581838533747942
1426,00:00:05.704,0.010302904338459505
1427,00:00:05.708,0.033595152199268404
1428,00:00:05.712,0.006502459291368728
1429,00:00:05.716,-0.02717268327251082
1430,00:00:05.72,-0.013646107167005497
1431,00:00:05.724,0.001999793341383341
1432,00:00:05.728,0.01541544869542118
1433,00:00:05.732,0.004188355989754199
1434,00:00:05.736,-0.016450899653136727
1435,00:00:05.74,0.0035988134332001495
1436,00:00:05.744,-0.0025975530152209103
1437,00:00:05.748,0.003688490891363452
1438,00:00:05.752,0.0027912867954000805
1439,00:00:05.756,0.021327283699065468
1440,00:00:05.76,-0.010120679158717392
1441,00:00:05.764,-0.025100646074861357
1442,00:00:05.768,0.008453206857666401
1443,00:00:05.772,0.0009238023485522457
1444,00:00:05.776,-0.0029228157363832205
1445,00:00:05.78,0.02714023017324509
1446,00:00:05.784,-0.016217048396356407
1447,00:00:05.788,-0.015037469565868402
1448,00:00:05.792,-0.0021474463865161116
1449,00:00:05.796,0.009110046550631527
1450,00:00:05.8,0.00883410323876884
1451,00:00:05.804,0.01614733785390859
1452,00:00:05.808,-0.015223378373775664
1453,00:00:05.812,-0.02614996954798697
1454,00:00:05.816,0.010853135026991369
1455,00:00:05.82,0.0355986775830388
1456,00:00:05.824,-0.025722773745656038
1457,00:00:05.828,-0.021213186904788052
1458,00:00:05.832,0.0282717547379434
1459,00:00:05.836,0.014045842457562702
1460,00:00:05.84,-0.01782791782170534
1461,00:00:05.844,-0.0063370289281010584
1462,00:00:05.848,-0.024772851029411003
1463,00:00:05.852,0.005325642181560401
1464,00:00:05.856,0.05184877384454008
1465,00:00:05.86,0.015575870871543853
1466,00:00:05.864,-0.062387034296989524
1467,00:00:05.868,-0.0003697569482028415
1468,00:00:05.872,0.01779262674972415
1469,00:00:05.876,-0.009586256288457657
1470,00:00:05.88,-0.0029651899822056606
1471,00:00:05.884,0.01102184411138296
1472,00:00:05.888,0.022346279351040686
1473,00:00:05.892,-0.008796105859801128
1474,00:00:05.896,-0.0044934083125554025
1475,00:00:05.9,-0.010182952973991629
1476,00:00:05.904,-0.01618047547526658
1477,00:00:05.908,0.01854152767919007
1478,00:00:05.912,0.00020786700770259034
1479,00:00:05.916,-0.005603260920906906
1480,00:00:05.92,0.02345977176446471
1481,00:00:05.924,-0.0061774305067956795
1482,00:00:05.928,-0.0229092412628233
1483,00:00:05.932,-0.008152846479788419
1484,00:00:05.936,0.02379833720624446
1485,00:00:05.94,0.009288491681218144
1486,00:00:05.944,-0.005333765177056221
1487,00:00:05.948,-0.018717626575380522
1488,00:00:05.952,-0.0057015148922801
1489,00:00:05.956,0.013246877584606409
1490,00:00:05.96,0.025768520776182358
1491,00:00:05.964,-0.025504643330350563
1492,00:00:05.968,0.01104942616075273
1493,00:00:05.972,0.00291866546467645
1494,00:00:05.976,-0.021114930044859686
1495,00:00:05.98,-0.0013350304216146695
1496,00:00:05.984,0.009998051915317769
1497,00:00:05.988,-0.006421377882361391
1498,00:00:05.992,0.0075320969335735104
1499,00:00:05.996,-0.00210985052399338
1500,00:00:06,0.012828828301280732
1501,00:00:06.004,-0.0046122123603709
1502,00:00:06.008,-0.01496045023668557
1503,00:00:06.012,0.02552945213392379
1504,00:00:06.016,-0.0022536024916916704
1505,00:00:06.02,-0.03367344662547117
1506,00:00:06.024,0.004862340982072059
1507,00:00:06.028,0.0004292642697691952
1508,00:00:06.032,0.0260708355344832
1509,00:00:06.036,-0.00764934858307242
1510,00:00:06.04,-0.0037925656652078024
1511,00:00:06.044,0.026662131072953295
1512,00:00:06.048,-0.02877393364906312
1513,00:00:06.052,-0.01659640017896891
1514,00:00:06.056,0.005072103114798677
1515,00:00:06.06,0.00870457937708124
1516,00:00:06.064,0.020049774029757817
1517,00:00:06.068,-0.0020205504260957293
1518,00:00:06.072,-0.01831712131388485
1519,00:00:06.076,-0.0005757370963692197
1520,00:00:06.08,-0.0007251731585710981
1521,00:00:06.084,0.006266761571168903
1522,00:00:06.088,-0.004623851040378221
1523,00:00:06.092,0.00963160302489996
1524,00:00:06.096,-0.00619549211114646
1525,00:00:06.1,0.006642336957156634
1526,00:00:06.104,0.006176784634590148
1527,00:00:06.108,-0.018151846714317802
1528,00:00:06.112,-0.009332927467767153
1529,00:00:06.116,0.005817905068397491
1530,00:00:06.12,0.012014746018394388
1531,00:00:06.124,0.00898340437561275
1532,00:00:06.128,-0.0020974596118321642
1533,00:00:06.132,0.002323240973055342
1534,00:00:06.136,-0.008764728183450638
1535,00:00:06.14,-0.02090505638625475
1536,00:00:06.144,0.0003242889652028697
1537,00:00:06.148,0.01747264759615064
1538,00:00:06.152,0.01168768596835437
1539,00:00:06.156,0.0009939947631210106
1540,00:00:06.16,-0.007937302812933832
1541,00:00:06.164,-0.009169576223939659
1542,00:00:06.168,-0.0007738422136753902
1543,00:00:06.172,0.004810344427824003
1544,00:00:06.176,0.015528185758739708
1545,00:00:06.18,-0.01173805573489517
1546,00:00:06.184,-0.01141401985660195
1547,00:00:06.188,-0.015154354041442279
1548,00:00:06.192,0.01196346804499623
1549,00:00:06.196,0.015970953390933542
1550,00:00:06.2,0.0210841076186625
1551,00:00:06.204,0.00022038258612156521
1552,00:00:06.208,-0.027460026438347985
1553,00:00:06.212,-0.015275753103196617
1554,00:00:06.216,-0.006152809131890539
1555,00:00:06.22,0.023077359423041368
1556,00:00:06.224,0.0004485780373215901
1557,00:00:06.228,0.01788603165186941
1558,00:00:06.232,-0.015898188699793515
1559,00:00:06.236,-0.0017709088278934303
1560,00:00:06.24,0.00845251604914656
1561,00:00:06.244,-0.02120403735898432
1562,00:00:06.248,-0.002248057047836479
1563,00:00:06.252,0.016385809401981512
1564,00:00:06.256,0.017925349297001958
1565,00:00:06.26,-0.02356446394696835
1566,00:00:06.264,0.0003336980007588807
1567,00:00:06.268,-0.01047290617134422
1568,00:00:06.272,0.011104827583267217
1569,00:00:06.276,0.01633908879011869
1570,00:00:06.28,0.0006262720562517504
1571,00:00:06.284,-0.006287627853453199
1572,00:00:06.288,-0.037999198044417426
1573,00:00:06.292,0.015112769557163102
1574,00:00:06.296,0.023288847878575318
1575,00:00:06.3,0.01587550062686205
1576,00:00:06.304,-0.010151413967832961
1577,00:00:06.308,-0.031725531443953486
1578,00:00:06.312,0.004580844950396568
1579,00:00:06.316,0.01211448200047012
1580,00:00:06.32,0.0032706286292523198
1581,00:00:06.324,0.01083115674555309
1582,00:00:06.328,-0.01232570296997438
1583,00:00:06.332,-0.011020272038877002
1584,00:00:06.336,0.02892928663641215
1585,00:00:06.34,-0.0041670904174679856
1586,00:00:06.344,-0.039756122976541505
1587,00:00:06.348,0.01259863423183558
1588,00:00:06.352,0.00685233261901886
1589,00:00:06.356,0.00178984203375877
1590,00:00:06.36,0.012365905888145796
1591,00:00:06.364,0.00705427746288478
1592,00:00:06.368,-0.014054618775844581
1593,00:00:06.372,0.0008704933570697904
1594,00:00:06.376,-0.00372835132293404
1595,00:00:06.38,-0.0024841872218530586
1596,00:00:06.384,-0.001917282312206225
1597,00:00:06.388,-0.0003080689348280508
1598,00:00:06.392,0.01390208071097731
1599,00:00:06.396,-0.005341167852748168
1600,00:00:06.4,0.0008299861219711589
1601,00:00:06.404,0.01622819993644955
1602,00:00:06.408,-0.02619117428548636
1603,00:00:06.412,-0.0199125948129222
1604,00:00:06.416,0.005507509631570426
1605,00:00:06.42,0.03570522787049413
1606,00:00:06.424,0.007271837617736336
1607,00:00:06.428,-0.008646121772471854
1608,00:00:06.432,0.00025968672707675933
1609,00:00:06.436,-0.021995488088577996
1610,00:00:06.44,-0.03457434941083194
1611,00:00:06.444,0.02292526559904218
1612,00:00:06.448,0.029045022325590253
1613,00:00:06.452,0.01594985602423546
1614,00:00:06.456,0.0058188799303024894
1615,00:00:06.46,-0.01435591978952289
1616,00:00:06.464,-0.02731702849268909
1617,00:00:06.468,-0.01253244234248996
1618,00:00:06.472,0.00641450099647042
1619,00:00:06.476,0.00013172638136893944
1620,00:00:06.48,0.01130785187706354
1621,00:00:06.484,0.03166535974014548
1622,00:00:06.488,0.008006670046597721
1623,00:00:06.492,-0.031013837084174187
1624,00:00:06.496,-0.01969968271441757
1625,00:00:06.5,0.002256894484162329
1626,00:00:06.504,0.021812154911458492
1627,00:00:06.508,0.00428393646143377
1628,00:00:06.512,-0.00628036912530661
1629,00:00:06.516,-0.02474305662326516
1630,00:00:06.52,0.0028788229537894984
1631,00:00:06.524,0.00239887193311006
1632,00:00:06.528,0.028821648564189648
1633,00:00:06.532,0.00200876337476075
1634,00:00:06.536,0.0002722670324146704
1635,00:00:06.54,-0.016194933967199232
1636,00:00:06.544,-0.00476189935579896
1637,00:00:06.548,0.009642965951343264
1638,00:00:06.552,-0.00701799569651484
1639,00:00:06.556,-0.015047226566821338
1640,00:00:06.56,0.0006539737805724096
1641,00:00:06.564,0.011913510854356
1642,00:00:06.568,0.001970779616385699
1643,00:00:06.572,0.0136488443240524
1644,00:00:06.576,0.0045030452311039006
1645,00:00:06.58,-0.005562094971537589
1646,00:00:06.584,-0.017570243682712358
1647,00:00:06.588,0.0008888201555237126
1648,00:00:06.592,0.012630070152226882
1649,00:00:06.596,-0.01576602552086115
1650,00:00:06.6,-0.000653322465950624
1651,00:00:06.604,0.016706812821212245
1652,00:00:06.608,-0.0076345950365066485
1653,00:00:06.612,-0.013707440346479421
1654,00:00:06.616,0.026126285549253222
1655,00:00:06.62,0.010391924963187195
1656,00:00:06.624,-0.01579437588225115
1657,00:00:06.628,-0.03132134280167518
1658,00:00:06.632,0.02151660341769459
1659,00:00:06.636,0.007079719507601114
1660,00:00:06.64,-0.01434169104322791
1661,00:00:06.644,0.02628603391349307
1662,00:00:06.648,-0.002142339479178211
1663,00:00:06.652,-0.013060879078693691
1664,00:00:06.656,-0.01488279923796654
1665,00:00:06.66,-0.0011892272159457276
1666,00:00:06.664,0.023340791289228995
1667,00:00:06.668,0.013091290835291172
1668,00:00:06.672,-0.03174956422299151
1669,00:00:06.676,0.01230356504675006
1670,00:00:06.68,0.007816877041477713
1671,00:00:06.684,-0.014532461937051306
1672,00:00:06.688,-0.005448268493637404
1673,00:00:06.692,0.00349533144617453
1674,00:00:06.696,0.01932470966130492
1675,00:00:06.7,0.0017367721302434902
1676,00:00:06.704,-0.02858206466771664
1677,00:00:06.708,0.0068843199405819195
1678,00:00:06.712,0.011587794870138158
1679,00:00:06.716,0.0009191674180328907
1680,00:00:06.72,0.016675996594131
1681,00:00:06.724,-0.023722836980596202
1682,00:00:06.728,-0.02821955364197486
1683,00:00:06.732,0.023723883088678094
1684,00:00:06.736,0.013387691229581847
1685,00:00:06.74,0.012515641748905178
1686,00:00:06.744,0.0025004071649163987
1687,00:00:06.748,-0.014729781192727382
1688,00:00:06.752,-0.02259622816927728
1689,00:00:06.756,0.0019092504517175318
1690,00:00:06.76,0.019143424869980614
1691,00:00:06.764,-0.01740774163044994
1692,00:00:06.768,0.004129864042624841
1693,00:00:06.772,0.009580933488905432
1694,00:00:06.776,0.010408339556306628
1695,00:00:06.78,-0.003256681375205548
1696,00:00:06.784,-0.008509319741278878
1697,00:00:06.788,-0.012853180989623103
1698,00:00:06.792,0.008258796064183112
1699,00:00:06.796,0.01775465338141655
1700,00:00:06.8,-0.00438496028073132
1701,00:00:06.804,0.0038361708866432296
1702,00:00:06.808,-0.008625461632618677
1703,00:00:06.812,-0.022199552971869707
1704,00:00:06.816,0.0072042673127725755
1705,00:00:06.82,0.00687434920109809
1706,00:00:06.824,-0.0008908864110708297
1707,00:00:06.828,-0.001774245407432271
1708,00:00:06.832,0.02111858897842471
1709,00:00:06.836,0.007560671539977196
1710,00:00:06.84,-0.020528045482933507
1711,00:00:06.844,-0.020534999668598158
1712,00:00:06.848,0.0071824516635388
1713,00:00:06.852,0.027172890026122384
1714,00:00:06.856,0.01038599805906414
1715,00:00:06.86,-0.02875123522244392
1716,00:00:06.864,-0.0224190449807793
1717,00:00:06.868,0.01573039148934183
1718,00:00:06.872,0.006058000493794681
1719,00:00:06.876,0.007045630831271411
1720,00:00:06.88,0.02476228168234227
1721,00:00:06.884,-0.01978259440511467
1722,00:00:06.888,-0.025368265894940126
1723,00:00:06.892,0.011221418390050522
1724,00:00:06.896,0.011529581213835627
1725,00:00:06.9,-0.012218694959301519
1726,00:00:06.904,-0.011309554101899271
1727,00:00:06.908,0.025563366711139672
1728,00:00:06.912,0.003993189835455269
1729,00:00:06.916,0.005751803691964593
1730,00:00:06.92,-0.00521828164346516
1731,00:00:06.924,-0.03813070477917787
1732,00:00:06.928,0.008131126582156863
1733,00:00:06.932,0.023922113941807845
1734,00:00:06.936,0.02356032468378547
1735,00:00:06.94,-0.02385518047958609
1736,00:00:06.944,-0.024792277021333603
1737,00:00:06.948,0.012587775709107511
1738,00:00:06.952,0.014390851487405595
1739,00:00:06.956,-0.01826616143807773
1740,00:00:06.96,-0.0072159557603299705
1741,00:00:06.964,0.018084740266203943
1742,00:00:06.968,0.00923840375617147
1743,00:00:06.972,0.019738972070626883
1744,00:00:06.976,-0.021679141733329695
1745,00:00:06.98,-0.026096598710864814
1746,00:00:06.984,0.004851793870329871
1747,00:00:06.988,0.02391040476504714
1748,00:00:06.992,-0.01281057088635862
1749,00:00:06.996,0.0013028843095526117
1750,00:00:07,-0.0013344408944249101
1751,00:00:07.004,0.0024526616812181614
1752,00:00:07.008,0.0018849880434572697
1753,00:00:07.012,0.00020401831716299057
1754,00:00:07.016,-0.0009590532863512572
1755,00:00:07.02,-0.0032641359139233906
1756,00:00:07.024,0.0053704458114225435
1757,00:00:07.028,0.001704907568637286
1758,00:00:07.032,-0.015053929528221488
1759,00:00:07.036,0.0038678876589983992
1760,00:00:07.04,0.007214957615360619
1761,00:00:07.044,0.0101824237499386
1762,00:00:07.048,-0.01233143801800907
1763,00:00:07.052,-0.0015135149005800486
1764,00:00:07.056,0.003795077092945581
1765,00:00:07.06,-0.012882733251899477
1766,00:00:07.064,0.0189554316457361
1767,00:00:07.068,0.007602330297231681
1768,00:00:07.072,-0.009161175694316633
1769,00:00:07.076,-0.02454279456287621
1770,00:00:07.08,0.007415928412228821
1771,00:00:07.084,0.00448122899979354
1772,00:00:07.088,0.029418360325507827
1773,00:00:07.092,-0.0033078854903578984
1774,00:00:07.096,-0.029367498005740372
1775,00:00:07.1,-0.01502957032062111
1776,00:00:07.104,0.02721899299649522
1777,00:00:07.108,0.013150835642591119
1778,00:00:07.112,-0.01240403170231729
1779,00:00:07.116,-0.00974680506624281
1780,00:00:07.12,0.00958578719291835
1781,00:00:07.124,0.0012405230663716914
1782,00:00:07.128,0.00172677566297352
1783,00:00:07.132,-0.010721689264755698
1784,00:00:07.136,-0.008827994228340689
1785,00:00:07.14,0.017382040445227176
1786,00:00:07.144,0.007959838141687225
1787,00:00:07.148,-0.02120463922619816
1788,00:00:07.152,0.01271314756013449
1789,00:00:07.156,0.012989108450710801
1790,00:00:07.16,-0.022750705946236856
1791,00:00:07.164,-0.0017400109209120202
1792,00:00:07.168,0.01153856026940048
1793,00:00:07.172,-0.007201682543382061
1794,00:00:07.176,0.005070748273283249
1795,00:00:07.18,0.001771509763784711
1796,00:00:07.184,-0.006637431361014019
1797,00:00:07.188,-0.0015640435740351503
1798,00:00:07.192,0.00973932887427509
1799,00:00:07.196,0.002873499877750877
1800,00:00:07.2,0.008356356833246537
1801,00:00:07.204,-0.01771289505995806
1802,00:00:07.208,-0.007116387598216537
1803,00:00:07.212,0.01382725033909085
1804,00:00:07.216,-0.012968938681297
1805,00:00:07.22,-0.00544932228513062
1806,00:00:07.224,0.016176607692614198
1807,00:00:07.228,0.010446568106999619
1808,00:00:07.232,0.0035793045535683597
1809,00:00:07.236,-0.015139955212362154
1810,00:00:07.24,-0.01703079580329359
1811,00:00:07.244,0.0048026361037045795
1812,00:00:07.248,0.01643266133032739
1813,00:00:07.252,0.01348321855766703
1814,00:00:07.256,-0.02363122254610061
1815,00:00:07.26,-0.0070438407710753425
1816,00:00:07.264,0.004268546355888245
1817,00:00:07.268,0.01183032011613246
1818,00:00:07.272,0.02019915543496615
1819,00:00:07.276,-0.023888586787506997
1820,00:00:07.28,-0.023471069522202098
1821,00:00:07.284,0.018469560891389902
1822,00:00:07.288,0.011967472732067153
1823,00:00:07.292,0.00641479808837178
1824,00:00:07.296,-0.0079657076857984
1825,00:00:07.3,-0.006669396068900839
1826,00:00:07.304,-0.02875960175879301
1827,00:00:07.308,0.0334779389668256
1828,00:00:07.312,0.030192840145900922
1829,00:00:07.316,-0.025588322765543126
1830,00:00:07.32,-0.04067813465371729
1831,00:00:07.324,0.00585259124636649
1832,00:00:07.328,0.03592654271051289
1833,00:00:07.332,0.005292902409564704
1834,00:00:07.336,0.004427505889907451
1835,00:00:07.34,-0.012779237760696565
1836,00:00:07.344,-0.012087319046258958
1837,00:00:07.348,-0.015061942103784535
1838,00:00:07.352,0.022343039978295516
1839,00:00:07.356,0.01799048180691899
1840,00:00:07.36,-0.05393270147033036
1841,00:00:07.364,0.010781062534078926
1842,00:00:07.368,0.045367929153144304
1843,00:00:07.372,0.01812802534550432
1844,00:00:07.376,-0.00805363478139042
1845,00:00:07.38,-0.036564739886671305
1846,00:00:07.384,-0.029022370290476857
1847,00:00:07.388,0.0012823191937059103
1848,00:00:07.392,0.02645469643175603
1849,00:00:07.396,0.013176718726754178
1850,00:00:07.4,0.010077406197524405
1851,00:00:07.404,-0.01838408689945939
1852,00:00:07.408,0.0004268439952284002
1853,00:00:07.412,0.005595481721684327
1854,00:00:07.416,0.001191495015518745
1855,00:00:07.42,0.0073444643057882794
1856,00:00:07.424,-0.02019223303068434
1857,00:00:07.428,-0.011101764393970369
1858,00:00:07.432,0.00965977471787483
1859,00:00:07.436,0.01931621081894261
1860,00:00:07.44,-0.01538824266754092
1861,00:00:07.444,-0.002031380412518044
1862,00:00:07.448,0.027643649373203513
1863,00:00:07.452,-0.008187747502233833
1864,00:00:07.456,-0.009126681368798
1865,00:00:07.46,-0.02323357900604609
1866,00:00:07.464,-0.0055404558079317195
1867,00:00:07.468,0.0087730814702809
1868,00:00:07.472,0.027804235811345283
1869,00:00:07.476,0.010459341574460271
1870,00:00:07.48,0.013097659684717601
1871,00:00:07.484,-0.0548659842461347
1872,00:00:07.488,-0.005365187302231778
1873,00:00:07.492,0.02420412655919795
1874,00:00:07.496,-0.00387493579182774
1875,00:00:07.5,0.00863248016685247
1876,00:00:07.504,-0.005354418884962799
1877,00:00:07.508,0.0022019939897290975
1878,00:00:07.512,0.002954879280878241
1879,00:00:07.516,0.01742871559690684
1880,00:00:07.52,-0.010904736409429416
1881,00:00:07.524,-0.023354194650892203
1882,00:00:07.528,2.3855827748820585e-05
1883,00:00:07.532,0.017704503377899482
1884,00:00:07.536,-0.005524795968085489
1885,00:00:07.54,0.0006846962496638203
1886,00:00:07.544,-0.024391130573349053
1887,00:00:07.548,0.02307752182241529
1888,00:00:07.552,0.01250294316560029
1889,00:00:07.556,0.011675295998429642
1890,00:00:07.56,-0.008980205049738321
1891,00:00:07.564,-0.026927122846245762
1892,00:00:07.568,-0.008295369363622735
1893,00:00:07.572,0.017810574965551464
1894,00:00:07.576,-0.0013374323025345802
1895,00:00:07.58,0.01548257959075272
1896,00:00:07.584,0.001462811604142228
1897,00:00:07.588,-0.0019258086394984232
1898,00:00:07.592,-0.01718227844685317
1899,00:00:07.596,-0.0034824418835342
1900,00:00:07.6,0.00828274525702
1901,00:00:07.604,0.006038175342837323
1902,00:00:07.608,0.0028786389157176486
1903,00:00:07.612,-0.01489135366864502
1904,00:00:07.616,-0.001034679822623721
1905,00:00:07.62,0.008082482832833233
1906,00:00:07.624,0.008506902959197768
1907,00:00:07.628,-0.00876405439339575
1908,00:00:07.632,0.020583106786943948
1909,00:00:07.636,-0.00875661941245198
1910,00:00:07.64,-0.01815707329660657
1911,00:00:07.644,-0.014184837229549881
1912,00:00:07.648,0.0031264795688912307
1913,00:00:07.652,0.027779074851423502
1914,00:00:07.656,0.01337544526904821
1915,00:00:07.66,-0.006996076379437004
1916,00:00:07.664,-0.02802056958898898
1917,00:00:07.668,-0.00656770705245433
1918,00:00:07.672,0.014313089661300179
1919,00:00:07.676,0.0017299840692430704
1920,00:00:07.68,0.019324357388541068
1921,00:00:07.684,-0.0013570867013186225
1922,00:00:07.688,0.0026132756611332306
1923,00:00:07.692,-0.033301231567747946
1924,00:00:07.696,-0.00605713715776801
1925,00:00:07.7,0.015861500054597813
1926,00:00:07.704,0.008943111170083288
1927,00:00:07.708,-0.005021337652578949
1928,00:00:07.712,0.013436443347018247
1929,00:00:07.716,0.0001645681913942116
1930,00:00:07.72,-0.012910241261124599
1931,00:00:07.724,0.007259631296619771
1932,00:00:07.728,0.0037954560248181202
1933,00:00:07.732,-0.01779503366560677
1934,00:00:07.736,-0.02360673979273995
1935,00:00:07.74,0.011341833509504788
1936,00:00:07.744,0.027378419879823916
1937,00:00:07.748,0.0252923360094428
1938,00:00:07.752,-0.0032398710027337014
1939,00:00:07.756,-0.03121534975070977
1940,00:00:07.76,-0.029335011495277293
1941,00:00:07.764,0.026825034990906747
1942,00:00:07.768,0.018554606474935988
1943,00:00:07.772,-0.015710774110630172
1944,00:00:07.776,-0.0062153842882253195
1945,00:00:07.78,0.01058360538445413
1946,00:00:07.784,-0.0189732518047094
1947,00:00:07.788,0.01772783184424046
1948,00:00:07.792,0.020160131156444508
1949,00:00:07.796,0.0007090768776833491
1950,00:00:07.8,-0.019308796618133797
1951,00:00:07.804,-0.010812091641128022
1952,00:00:07.808,-0.015669798478484178
1953,00:00:07.812,0.012054091552272415
1954,00:00:07.816,0.012346475559752431
1955,00:00:07.82,0.002631371258758
1956,00:00:07.824,-0.00377868046052754
1957,00:00:07.828,0.010016893036663532
1958,00:00:07.832,-0.001149747753515831
1959,00:00:07.836,-0.01580408099107448
1960,00:00:07.84,0.00714070536196232
1961,00:00:07.844,0.010379377286881208
1962,00:00:07.848,4.662904029829342e-05
1963,00:00:07.852,-0.011352808680385351
1964,00:00:07.856,-0.007856850454118103
1965,00:00:07.86,-0.0089694518246688
1966,00:00:07.864,0.00589064205996692
1967,00:00:07.868,0.013554702978581148
1968,00:00:07.872,0.01715996209532022
1969,00:00:07.876,-0.0006305376300588198
1970,00:00:07.88,-0.01476338598877194
1971,00:00:07.884,-0.01951396442018444
1972,00:00:07.888,0.017678172793239362
1973,00:00:07.892,0.0025621498934924603
1974,00:00:07.896,-0.01780198863707483
1975,00:00:07.9,0.016732888296246543
1976,00:00:07.904,-0.003836651099845759
1977,00:00:07.908,-0.01350392797030509
1978,00:00:07.912,0.013523591216653582
1979,00:00:07.916,0.022458292834926428
1980,00:00:07.92,-0.0014195835683494893
1981,00:00:07.924,-0.02568428684026003
1982,00:00:07.928,-0.0030688242986798304
1983,00:00:07.932,0.00788980547804385
1984,00:00:07.936,-0.004323267596191735
1985,00:00:07.94,0.0025032226258190305
1986,00:00:07.944,0.0009855069220066094
1987,00:00:07.948,0.005441354180220517
1988,00:00:07.952,0.005631523905321961
1989,00:00:07.956,-0.02295411028899251
1990,00:00:07.96,-0.0013688851759070544
1991,00:00:07.964,0.02240454521961505
1992,00:00:07.968,0.004803415038622883
1993,00:00:07.972,0.001663161063333916
1994,00:00:07.976,-0.006411600334104152
1995,00:00:07.98,-0.009161198991932943
1996,00:00:07.984,-0.00836393469944596
1997,00:00:07.988,-0.02002583630383009
1998,00:00:07.992,0.0074997672345489316
1999,00:00:07.996,0.04068052303045992
2000,00:00:08,0.009282011073082689
2001,00:00:08.004,-0.0266486499458551
2002,00:00:08.008,-0.011779021995607764
2003,00:00:08.012,0.0351619115099311
2004,00:00:08.016,-0.0010056110913865249
2005,00:00:08.02,-0.02063336502760646
2006,00:00:08.024,-0.04248670395463706
2007,00:00:08.028,-0.0004740142030641402
2008,00:00:08.032,0.03013178799301388
2009,00:00:08.036,0.02791699767112729
2010,00:00:08.04,0.01106409076601266
2011,00:00:08.044,0.0011125793680548304
2012,00:00:08.048,-0.02720822300761934
2013,00:00:08.052,-0.01958898478187618
2014,00:00:08.056,-0.01135846285615116
2015,00:00:08.06,0.02251348691061139
2016,00:00:08.064,0.03038260154426097
2017,00:00:08.068,-0.02497709449380636
2018,00:00:08.072,-0.00913041432795581
2019,00:00:08.076,0.00866791279986501
2020,00:00:08.08,0.015179257141426221
2021,00:00:08.084,-0.01986302470322694
2022,00:00:08.088,-0.00668956094887108
2023,00:00:08.092,0.014934016566257938
2024,00:00:08.096,0.019143722020089612
2025,00:00:08.1,-0.02412243722938003
2026,00:00:08.104,-0.013983217766508464
2027,00:00:08.108,0.020494381664320827
2028,00:00:08.112,0.002748081140452994
2029,00:00:08.116,-0.01082075480371714
2030,00:00:08.12,0.0031050671823322704
2031,00:00:08.124,-0.00331950839608909
2032,00:00:08.128,-0.0026649755309335887
2033,00:00:08.132,-0.0037938053719699413
2034,00:00:08.136,-0.0017175322864204654
2035,00:00:08.14,0.03918516449630256
2036,00:00:08.144,0.0019328857306391
2037,00:00:08.148,-0.017161161405965686
2038,00:00:08.152,-0.022357052192091942
2039,00:00:08.156,-0.02406379347667099
2040,00:00:08.16,0.01764245703816414
2041,00:00:08.164,0.009179758635582423
2042,00:00:08.168,0.030623282305896248
2043,00:00:08.172,0.0005209329538047396
2044,00:00:08.176,-0.004807847843039779
2045,00:00:08.18,-0.02749555418267846
2046,00:00:08.184,-0.013727589976042509
2047,00:00:08.188,0.01869094558060169
2048,00:00:08.192,0.0011735971784219141
2049,00:00:08.196,-0.0017770694103091903
2050,00:00:08.2,0.014782109530642622
2051,00:00:08.204,-0.00120286625315202
2052,00:00:08.208,-0.025007075630128422
2053,00:00:08.212,0.01468567259144038
2054,00:00:08.216,0.021357547375373508
2055,00:00:08.22,-0.015161993069341408
2056,00:00:08.224,-0.020321911433711693
2057,00:00:08.228,0.01975704240612687
2058,00:00:08.232,0.000949707464314992
2059,00:00:08.236,-0.002679839730262757
2060,00:00:08.24,-0.02231630356982351
2061,00:00:08.244,0.01756217377260327
2062,00:00:08.248,0.01050506765022871
2063,00:00:08.252,0.02188320149434734
2064,00:00:08.256,-0.02841918938793247
2065,00:00:08.26,-0.030337508535012662
2066,00:00:08.264,-0.010668407834600655
2067,00:00:08.268,0.04004087159410121
2068,00:00:08.272,0.04015782359056174
2069,00:00:08.276,-0.00621904456056655
2070,00:00:08.28,-0.04566364525817336
2071,00:00:08.284,-0.0019642773550003715
2072,00:00:08.288,-0.0006515240529551796
2073,00:00:08.292,0.0005855417111888599
2074,00:00:08.296,0.01310282084159549
2075,00:00:08.3,-0.0035507311113179094
2076,00:00:08.304,0.01895677729044109
2077,00:00:08.308,-0.000500338152050939
2078,00:00:08.312,-0.009306135936640206
2079,00:00:08.316,-0.01321992266457528
2080,00:00:08.32,-0.002448542683850968
2081,00:00:08.324,0.0017381744110025509
2082,00:00:08.328,0.007254920725245029
2083,00:00:08.332,0.009408789803273974
2084,00:00:08.336,-0.004861328226979826
2085,00:00:08.34,0.003070121092605403
2086,00:00:08.344,-0.007412093691527839
2087,00:00:08.348,-0.007198034862085521
2088,00:00:08.352,0.0019493976142257409
2089,00:00:08.356,0.013122360338456941
2090,00:00:08.36,-0.006275955238379541
2091,00:00:08.364,-0.003414384285861162
2092,00:00:08.368,-0.0020305197685956894
2093,00:00:08.372,0.005869637010619029
2094,00:00:08.376,0.001463309410610239
2095,00:00:08.38,0.00972969038411972
2096,00:00:08.384,-0.025647774338722257
2097,00:00:08.388,-0.00781134516000747
2098,00:00:08.392,0.0220509557984769
2099,00:00:08.396,0.02367637434508648
2100,00:00:08.4,0.005150839686393741
2101,00:00:08.404,-0.02100104012060914
2102,00:00:08.408,-0.036883513676002615
2103,00:00:08.412,-0.0006718280492350502
2104,00:00:08.416,0.02245990000665188
2105,00:00:08.42,0.012847285368479788
2106,00:00:08.424,0.0100389732979238
2107,00:00:08.428,-0.01034553081262857
2108,00:00:08.432,-0.01390465861186386
2109,00:00:08.436,0.0008867334399837931
2110,00:00:08.44,0.01178174582310021
2111,00:00:08.444,0.0005285621155053429
2112,00:00:08.448,0.002665842999704177
2113,00:00:08.452,-0.013396194437518721
2114,00:00:08.456,0.0038755688001401757
2115,00:00:08.46,-0.006887721829116339
2116,00:00:08.464,-0.007170143537223341
2117,00:00:08.468,0.01940108323469759
2118,00:00:08.472,0.007607564330100999
2119,00:00:08.476,0.012511471286416
2120,00:00:08.48,-0.015850093681365248
2121,00:00:08.484,-0.0313551891595126
2122,00:00:08.488,0.00904062809422612
2123,00:00:08.492,0.006172992289066242
2124,00:00:08.496,0.015063023660332
2125,00:00:08.5,-0.006675724638625969
2126,00:00:08.504,0.0037377367261797814
2127,00:00:08.508,0.006015306571498508
2128,00:00:08.512,-0.014223931822925771
2129,00:00:08.516,0.007179862819611988
2130,00:00:08.52,-0.0005481019616126997
2131,00:00:08.524,-0.01588907092809677
2132,00:00:08.528,0.0029383604414761097
2133,00:00:08.532,0.004847961943596603
2134,00:00:08.536,0.008764879778027541
2135,00:00:08.54,0.02379530481994147
2136,00:00:08.544,-0.007585911313071841
2137,00:00:08.548,-0.013705368561204485
2138,00:00:08.552,-0.019471731182420633
2139,00:00:08.556,-0.027863910188898486
2140,00:00:08.56,0.01888047112151977
2141,00:00:08.564,0.035047687124460894
2142,00:00:08.568,0.005325259640812839
2143,00:00:08.572,-0.008214981760829661
2144,00:00:08.576,0.0169830285012722
2145,00:00:08.58,-0.01072784210555258
2146,00:00:08.584,-0.03547356463968758
2147,00:00:08.588,-0.011550391092896451
2148,00:00:08.592,0.010286912322044399
2149,00:00:08.596,0.018077497603371726
2150,00:00:08.6,0.026171945733949528
2151,00:00:08.604,0.00497610110323876
2152,00:00:08.608,-0.027295906096696812
2153,00:00:08.612,-0.015843490138649944
2154,00:00:08.616,0.0037361851427704105
2155,00:00:08.62,0.006517710125990514
2156,00:00:08.624,0.01427359692752366
2157,00:00:08.628,-0.00889333878876642
2158,00:00:08.632,0.00992047565523535
2159,00:00:08.636,0.0034192765597253795
2160,00:00:08.64,-0.020105425326619315
2161,00:00:08.644,-0.028169270139187547
2162,00:00:08.648,0.011833835858851673
2163,00:00:08.652,0.02880389010533693
2164,00:00:08.656,0.02404042641865093
2165,00:00:08.66,0.00708653451874851
2166,00:00:08.664,-0.04614630620926617
2167,00:00:08.668,-0.02198394760489463
2168,00:00:08.672,0.019505348987877365
2169,00:00:08.676,0.014343583490699481
2170,00:00:08.68,0.015544589608907703
2171,00:00:08.684,-0.02416266093496229
2172,00:00:08.688,0.0011065582511946602
2173,00:00:08.692,0.00514854956418275
2174,00:00:08.696,-0.006217196583747869
2175,00:00:08.7,0.0067391321063041704
2176,00:00:08.704,0.0063042880501598085
2177,00:00:08.708,-0.02372293377993627
2178,00:00:08.712,0.014387303875992043
2179,00:00:08.716,0.01701113861054173
2180,00:00:08.72,-0.015196287655271633
2181,00:00:08.724,-0.00656221690587699
2182,00:00:08.728,0.0010525994002819304
2183,00:00:08.732,0.01879413379356265
2184,00:00:08.736,0.008516306523233649
2185,00:00:08.74,-0.02793697686865923
2186,00:00:08.744,-0.014753121911780919
2187,00:00:08.748,-0.01194165996275842
2188,00:00:08.752,0.029549128375947458
2189,00:00:08.756,0.031066217692568954
2190,00:00:08.76,0.010114910546690201
2191,00:00:08.764,-0.03256287751719355
2192,00:00:08.768,-0.04208115395158534
2193,00:00:08.772,0.008735207025893029
2194,00:00:08.776,0.033298926893621655
2195,00:00:08.78,0.013104000478051612
2196,00:00:08.784,-0.011732368264347301
2197,00:00:08.788,-0.019111571367830028
2198,00:00:08.792,0.00701075000688433
2199,00:00:08.796,0.01582120708189905
2200,00:00:08.8,0.010238610673695806
2201,00:00:08.804,-0.02092223870567974
2202,00:00:08.808,-0.01704589230939746
2203,00:00:08.812,0.007469531847164029
2204,00:00:08.816,0.014446348999626971
2205,00:00:08.82,-0.009278242418076798
2206,00:00:08.824,0.0102194319479167
2207,00:00:08.828,0.002674616815056645
2208,00:00:08.832,-0.02458108728751537
2209,00:00:08.836,0.02451653033494946
2210,00:00:08.84,0.002829562872648241
2211,00:00:08.844,-0.019503739196807143
2212,00:00:08.848,0.00424190005287527
2213,00:00:08.852,-0.006222315190825606
2214,00:00:08.856,0.011551404255442332
2215,00:00:08.86,0.01194838993251324
2216,00:00:08.864,-0.010530474712140844
2217,00:00:08.868,-0.012961506377905638
2218,00:00:08.872,0.01935441512614488
2219,00:00:08.876,0.0038862481596879635
2220,00:00:08.88,-0.030213716090656772
2221,00:00:08.884,-0.0003023146709892942
2222,00:00:08.888,0.01400448684580628
2223,00:00:08.892,0.025849155616015203
2224,00:00:08.896,-0.014769121888093692
2225,00:00:08.9,-0.01289384363917634
2226,00:00:08.904,0.0025649275630712006
2227,00:00:08.908,-0.0025643452536315003
2228,00:00:08.912,0.00263710925355559
2229,00:00:08.916,0.013829589355737009
2230,00:00:08.92,-0.010009426157921556
2231,00:00:08.924,-0.014512425987049934
2232,00:00:08.928,0.013712066691368789
2233,00:00:08.932,0.00364804198034107
2234,00:00:08.936,0.007469147967640311
2235,00:00:08.94,-0.0036886297166347495
2236,00:00:08.944,-0.022339362418279024
2237,00:00:08.948,-0.00038990968641883055
2238,00:00:08.952,0.02194549655541778
2239,00:00:08.956,0.01207144663203507
2240,00:00:08.96,-0.02758569037541743
2241,00:00:08.964,-0.00754675129428506
2242,00:00:08.968,0.002463769167661641
2243,00:00:08.972,0.0352123659104109
2244,00:00:08.976,-0.01356091513298448
2245,00:00:08.98,-0.0087548135779798
2246,00:00:08.984,0.00728497863747179
2247,00:00:08.988,-0.00910974666476251
2248,00:00:08.992,-0.01223277777899057
2249,00:00:08.996,0.00895244075218215
2250,00:00:09,0.03278117044828833
2251,00:00:09.004,-0.01583336980547754
2252,00:00:09.008,-0.030223040143027922
2253,00:00:09.012,2.6506604626774788e-05
2254,00:00:09.016,0.009952429390978085
2255,00:00:09.02,0.02160850120708347
2256,00:00:09.024,-0.0074310046620666885
2257,00:00:09.028,-0.005720575107261539
2258,00:00:09.032,0.005110455909743902
2259,00:00:09.036,-0.0021858923137188027
2260,00:00:09.04,0.01167349697789178
2261,00:00:09.044,-0.0005226859721005912
2262,00:00:09.048,-0.03118136711418625
2263,00:00:09.052,-0.01404761290177697
2264,00:00:09.056,0.014253515168093131
2265,00:00:09.06,0.045271260663867094
2266,00:00:09.064,0.005625794176012279
2267,00:00:09.068,-0.0484748939052225
2268,00:00:09.072,-0.013838707585819069
2269,00:00:09.076,0.030312806600704737
2270,00:00:09.08,0.01569855050183831
2271,00:00:09.084,-0.0011324736697133678
2272,00:00:09.088,-0.00569287547841661
2273,00:00:09.092,-0.022041720803827082
2274,00:00:09.096,0.008048774674534798
2275,00:00:09.1,-0.0053438497707247595
2276,00:00:09.104,-0.00490307807922364
2277,00:00:09.108,0.004847378004342372
2278,00:00:09.112,0.01787021616473794
2279,00:00:09.116,0.02246896713040772
2280,00:00:09.12,-0.0260407445020974
2281,00:00:09.124,-0.014955730643123399
2282,00:00:09.128,-0.01311347517184913
2283,00:00:09.132,0.014713663651491557
2284,00:00:09.136,0.014882008646964102
2285,00:00:09.14,0.011699930299073468
2286,00:00:09.144,-0.004734501475468278
2287,00:00:09.148,-0.019464339944534014
2288,00:00:09.152,-0.0073496606200933404
2289,00:00:09.156,0.0030943374149501298
2290,00:00:09.16,0.00942024937830865
2291,00:00:09.164,0.016637034888844937
2292,00:00:09.168,-0.008942838758230251
2293,00:00:09.172,-0.027466546249343027
2294,00:00:09.176,0.017652633541729326
2295,00:00:09.18,0.015285651199519548
2296,00:00:09.184,-0.011135746026411649
2297,00:00:09.188,-0.002397658536210663
2298,00:00:09.192,0.00447610090486705
2299,00:00:09.196,-0.0033684228546917465
2300,00:00:09.2,-0.007250421680510048
2301,00:00:09.204,0.00970065291039646
2302,00:00:09.208,-0.00736455339938402
2303,00:00:09.212,0.0033340968657285
2304,00:00:09.216,0.00818059802986682
2305,00:00:09.22,-0.004726426908746361
2306,00:00:09.224,-0.00041219718696083874
2307,00:00:09.228,-0.0027837260277010444
2308,00:00:09.232,-0.005566804611589761
2309,00:00:09.236,0.00025121160433627296
2310,00:00:09.24,0.008643622160889208
2311,00:00:09.244,0.01532952766865492
2312,00:00:09.248,-0.00642275344580412
2313,00:00:09.252,-0.02012954629026352
2314,00:00:09.256,-0.01854768904740922
2315,00:00:09.26,0.029401334933936592
2316,00:00:09.264,0.015132828964851793
2317,00:00:09.268,-0.02048427145928145
2318,00:00:09.272,0.00543456675950438
2319,00:00:09.276,0.01323734223842622
2320,00:00:09.28,-0.02374799782410269
2321,00:00:09.284,0.0024247148248832794
2322,00:00:09.288,-0.0018503205501474418
2323,00:00:09.292,0.00878355849999934
2324,00:00:09.296,0.00774241983890534
2325,00:00:09.3,-9.171308192888403e-06
2326,00:00:09.304,-0.011313966475427149
2327,00:00:09.308,-0.02240878739394253
2328,00:00:09.312,0.02165208989754314
2329,00:00:09.316,0.02487842924892899
2330,00:00:09.32,0.011644876562058929
2331,00:00:09.324,-0.02906030066878883
2332,00:00:09.328,-0.03737448970787227
2333,00:00:09.332,0.018088798504322802
2334,00:00:09.336,0.02141984086483719
2335,00:00:09.34,-0.010704454907681779
2336,00:00:09.344,0.003364350995980203
2337,00:00:09.348,0.009847928318777113
2338,00:00:09.352,0.0007040803320705899
2339,00:00:09.356,-0.01888090767897663
2340,00:00:09.36,0.02126035094261169
2341,00:00:09.364,0.00700178509578108
2342,00:00:09.368,-0.014771123882383089
2343,00:00:09.372,-0.019880124680639686
2344,00:00:09.376,-0.008762423705775294
2345,00:00:09.38,0.014489626279100769
2346,00:00:09.384,0.01352703222073615
2347,00:00:09.388,-0.0052921036258339795
2348,00:00:09.392,0.0265556122176349
2349,00:00:09.396,0.00639443509862758
2350,00:00:09.4,-0.02097562467679382
2351,00:00:09.404,-0.024965382646769292
2352,00:00:09.408,-0.017227299627848004
2353,00:00:09.412,0.01004461824413738
2354,00:00:09.416,0.03138095326721666
2355,00:00:09.42,0.006527762394398451
2356,00:00:09.424,-0.007312600093428037
2357,00:00:09.428,-0.0245286030694842
2358,00:00:09.432,0.009866451378911779
2359,00:00:09.436,0.02559309033676978
2360,00:00:09.44,-0.0005826027190778526
2361,00:00:09.444,-0.02077430032659324
2362,00:00:09.448,-0.006148866319563309
2363,00:00:09.452,0.0010827344376593794
2364,00:00:09.456,0.00566795538179576
2365,00:00:09.46,0.007540503516793269
2366,00:00:09.464,-0.0037152692530071398
2367,00:00:09.468,-0.008902950619813057
2368,00:00:09.472,0.004138501361012451
2369,00:00:09.476,-0.01016200054436922
2370,00:00:09.48,0.00452499894890934
2371,00:00:09.484,0.028244131244719008
2372,00:00:09.488,0.00573668233118951
2373,00:00:09.492,-0.025011068210005774
2374,00:00:09.496,-0.02368856337852775
2375,00:00:09.5,0.006614015554077961
2376,00:00:09.504,0.01817028422374275
2377,00:00:09.508,0.0014937948435544994
2378,00:00:09.512,0.0007220886182039998
2379,00:00:09.516,0.00584675325080753
2380,00:00:09.52,0.00734687689691781
2381,00:00:09.524,-0.016108673531562093
2382,00:00:09.528,-0.017139293311629458
2383,00:00:09.532,-0.010839631431736052
2384,00:00:09.536,0.016549346135434476
2385,00:00:09.54,0.03427149076014755
2386,00:00:09.544,0.0002842742251231798
2387,00:00:09.548,-0.0211770571768284
2388,00:00:09.552,-0.006811713334172961
2389,00:00:09.556,-0.00622508418746293
2390,00:00:09.56,-0.01058558747172356
2391,00:00:09.564,0.0059226796729490196
2392,00:00:09.568,0.021427247673273097
2393,00:00:09.572,0.021368739311583427
2394,00:00:09.576,-0.018725642468780272
2395,00:00:09.58,-0.01813713833689695
2396,00:00:09.584,0.002931679133325809
2397,00:00:09.588,-0.0008891631150618117
2398,00:00:09.592,0.01011462043970824
2399,00:00:09.596,-0.002022359520196912
2400,00:00:09.6,0.0031318231485784097
2401,00:00:09.604,0.0036406733488547676
2402,00:00:09.608,-0.01990690617822112
2403,00:00:09.612,-0.001174398232251396
2404,00:00:09.616,0.01386125315912072
2405,00:00:09.62,0.00412204442545772
2406,00:00:09.624,0.005374377025873397
2407,00:00:09.628,-0.0021890709176659983
2408,00:00:09.632,-0.01713410019874576
2409,00:00:09.636,-0.004569692304357879
2410,00:00:09.64,0.021852069068700068
2411,00:00:09.644,0.010998996673151898
2412,00:00:09.648,-0.02941472129896278
2413,00:00:09.652,-0.015068149194121371
2414,00:00:09.656,0.02281131152994931
2415,00:00:09.66,0.01680279057472944
2416,00:00:09.664,-0.0009809096809476605
2417,00:00:09.668,-0.01519954227842392
2418,00:00:09.672,-0.006729994493070996
2419,00:00:09.676,-0.007453514372173231
2420,00:00:09.68,0.006121702492237079
2421,00:00:09.684,0.01885155146010223
2422,00:00:09.688,0.007864383980631832
2423,00:00:09.692,-0.01699136663228276
2424,00:00:09.696,0.0020185973262414293
2425,00:00:09.7,0.0017363264923915302
2426,00:00:09.704,3.9004720747470856e-05
2427,00:00:09.708,-0.011755858955439215
2428,00:00:09.712,-0.006453479290939869
2429,00:00:09.716,0.03314373665489254
2430,00:00:09.72,-0.00207829801365733
2431,00:00:09.724,-0.023135119583457712
2432,00:00:09.728,-0.01470351975876838
2433,00:00:09.732,0.004425003426149489
2434,00:00:09.736,-0.0003653047606349
2435,00:00:09.74,0.022083450574427888
2436,00:00:09.744,0.018094433471560492
2437,00:00:09.748,-0.01485585235059261
2438,00:00:09.752,-0.000762486015446481
2439,00:00:09.756,-0.010693669377360498
2440,00:00:09.76,-0.0012945458292961101
2441,00:00:09.764,0.018403336638584736
2442,00:00:09.768,-0.02007967047393324
2443,00:00:09.772,9.722309187054114e-05
2444,00:00:09.776,-0.00221870245877653
2445,00:00:09.78,0.00412679417058826
2446,00:00:09.784,-0.005497944774106141
2447,00:00:09.788,0.002222142298705878
2448,00:00:09.792,0.02442633174359797
2449,00:00:09.796,-0.0024945433251559704
2450,00:00:09.8,-0.0019680547411553614
2451,00:00:09.804,-0.015905672800727202
2452,00:00:09.808,-0.0029879731155233523
2453,00:00:09.812,-0.01332536968402567
2454,00:00:09.816,0.003385543706826857
2455,00:00:09.82,0.02500662859529253
2456,00:00:09.824,0.00174268404953182
2457,00:00:09.828,-0.0007194286445155696
2458,00:00:09.832,0.01028549345210199
2459,00:00:09.836,-0.01897537894546988
2460,00:00:09.84,-0.019165314733982045
2461,00:00:09.844,-0.008621717897767668
2462,00:00:09.848,0.024269803659990468
2463,00:00:09.852,0.01988400518894191
2464,00:00:09.856,-0.014419097889913246
2465,00:00:09.86,0.0037856148555874903
2466,00:00:09.864,0.01346102240495383
2467,00:00:09.868,-0.00990546040702611
2468,00:00:09.872,-0.04229766200296579
2469,00:00:09.876,0.001832982175983492
2470,00:00:09.88,0.02439198130741715
2471,00:00:09.884,0.02102476521395147
2472,00:00:09.888,-0.0031569144630338077
2473,00:00:09.892,-0.0035122446715831687
2474,00:00:09.896,-0.0005961204878985986
2475,00:00:09.9,-0.01244562072679404
2476,00:00:09.904,0.008560223039239642
2477,00:00:09.908,-0.00936576910316942
2478,00:00:09.912,-0.007246306631714109
2479,00:00:09.916,0.014894711726810783
2480,00:00:09.92,-0.008190351538360108
2481,00:00:09.924,0.0032480471127200898
2482,00:00:09.928,0.013588775240350508
2483,00:00:09.932,-0.013501972891390317
2484,00:00:09.936,0.006980986101552841
2485,00:00:09.94,0.00578087690519174
2486,00:00:09.944,-0.011294045951217462
2487,00:00:09.948,-0.007859633384214252
2488,00:00:09.952,-0.004149170825257899
2489,00:00:09.956,0.02128783427178862
2490,00:00:09.96,-0.02191544417291881
2491,00:00:09.964,0.013326805841643362
2492,00:00:09.968,0.020515757787507072
2493,00:00:09.972,-0.010774583541206088
2494,00:00:09.976,-0.021633607335388657
2495,00:00:09.98,0.008509789186064116
2496,00:00:09.984,0.01085562417574697
2497,00:00:09.988,0.001434102276107299
2498,00:00:09.992,-0.015852117852773517
2499,00:00:09.996,-0.01943628955632447
2500,00:00:10,0.01606076932512224
2501,00:00:10.004,0.029118967242538908
2502,00:00:10.008,0.004491658182814718
2503,00:00:10.012,-0.0085464344592765
2504,00:00:10.016,-0.01756487553939224
2505,00:00:10.02,-0.02471061388496313
2506,00:00:10.024,0.005591798602836215
2507,00:00:10.028,0.02774156956002118
2508,00:00:10.032,0.004595820442773409
2509,00:00:10.036,0.009540565893985359
2510,00:00:10.04,-0.01569482579361647
2511,00:00:10.044,4.0763756260268035e-05
2512,00:00:10.048,-0.016044754243921457
2513,00:00:10.052,-0.0028862634208053402
2514,00:00:10.056,0.0029038146603852497
2515,00:00:10.06,0.01323507190681994
2516,00:00:10.064,0.01954112900421023
2517,00:00:10.068,-0.00037810974754392927
2518,00:00:10.072,-0.01018557627685368
2519,00:00:10.076,-0.02322697010822591
2520,00:00:10.08,-0.00885381945408881
2521,00:00:10.084,0.00634427042677999
2522,00:00:10.088,0.008318382315337661
2523,00:00:10.092,0.018091748468577862
2524,00:00:10.096,0.007110458042006935
2525,00:00:10.1,-0.006855539832031354
2526,00:00:10.104,-0.00785111624281853
2527,00:00:10.108,-0.012729259673506023
2528,00:00:10.112,-0.0013085975078865886
2529,00:00:10.116,0.007220639265142389
2530,00:00:10.12,0.006199055991601202
2531,00:00:10.124,-0.002024236600846079
2532,00:00:10.128,0.0006371658819261932
2533,00:00:10.132,0.00893294884008355
2534,00:00:10.136,-0.0018816955853253599
2535,00:00:10.14,-0.01331459637731314
2536,00:00:10.144,-0.008599160253652378
2537,00:00:10.148,0.0063353264122269545
2538,00:00:10.152,-0.0021128270309418396
2539,00:00:10.156,0.01639276765490652
2540,00:00:10.16,-3.178254701196974e-05
2541,00:00:10.164,-0.011986670782789598
2542,00:00:10.168,0.01767059555277228
2543,00:00:10.172,0.014574163942597841
2544,00:00:10.176,-0.0245211557485163
2545,00:00:10.18,-0.0159997451119125
2546,00:00:10.184,-0.00967125175520778
2547,00:00:10.188,-0.0072963521815836395
2548,00:00:10.192,0.028864944353699677
2549,00:00:10.196,0.02558921059244308
2550,00:00:10.2,-0.003105891344603148
2551,00:00:10.204,-0.01126404013484716
2552,00:00:10.208,-0.01358643011189998
2553,00:00:10.212,-0.00873264682013542
2554,00:00:10.216,-0.0012690681032836416
2555,00:00:10.22,0.014715702855028158
2556,00:00:10.224,0.004603641573339701
2557,00:00:10.228,-0.000909903319552539
2558,00:00:10.232,-0.0028130555492680365
2559,00:00:10.236,0.012108358321711457
2560,00:00:10.24,-0.010774231050163511
2561,00:00:10.244,-0.019466972735244756
2562,00:00:10.248,-0.02056663762778044
2563,00:00:10.252,0.01898902887478476
2564,00:00:10.256,0.062963392585516
2565,00:00:10.26,-0.006711315247230231
2566,00:00:10.264,-0.0436457619071007
2567,00:00:10.268,-0.015747906640172
2568,00:00:10.272,0.009676584275439378
2569,00:00:10.276,0.01140773575752971
2570,00:00:10.28,-0.00725647551007569
2571,00:00:10.284,0.011134351254440848
2572,00:00:10.288,-0.00391886825673282
2573,00:00:10.292,-0.00042615516576916023
2574,00:00:10.296,0.0035576018271967803
2575,00:00:10.3,0.01184292230755091
2576,00:00:10.304,-0.0028685585712082723
2577,00:00:10.308,-0.010317881009541431
2578,00:00:10.312,-0.023660157341510057
2579,00:00:10.316,-5.3502444643528896e-05
2580,00:00:10.32,0.012938377563841641
2581,00:00:10.324,0.009447459829971201
2582,00:00:10.328,0.01312659491668457
2583,00:00:10.332,0.00508834491483867
2584,00:00:10.336,0.004389582201838489
2585,00:00:10.34,-0.0245657977648079
2586,00:00:10.344,-0.014636725187301598
2587,00:00:10.348,0.00557301053777336
2588,00:00:10.352,0.0040436931885778765
2589,00:00:10.356,-0.0018956119893118694
2590,00:00:10.36,0.005336244357749816
2591,00:00:10.364,0.01062479754909874
2592,00:00:10.368,0.0016167643480002897
2593,00:00:10.372,0.0026985388249158816
2594,00:00:10.376,0.0018574064015410901
2595,00:00:10.38,-0.01998150837607679
2596,00:00:10.384,-0.009239939972758298
2597,00:00:10.388,0.00029055331833661123
2598,00:00:10.392,0.007961582392454147
2599,00:00:10.396,0.009099028538912552
2600,00:00:10.4,0.00541893788613379
2601,00:00:10.404,0.000532865989953289
2602,00:00:10.408,-0.004893724806606777
2603,00:00:10.412,0.0024150197859853506
2604,00:00:10.416,0.01366347516886889
2605,00:00:10.42,-0.02187457028776408
2606,00:00:10.424,-0.023847558535635482
2607,00:00:10.428,0.00388766918331385
2608,00:00:10.432,0.02259192196652296
2609,00:00:10.436,0.004656080272980029
2610,00:00:10.44,0.01770152430981401
2611,00:00:10.444,-0.000818053697003046
2612,00:00:10.448,-0.00870056985877455
2613,00:00:10.452,-0.038366518914699554
2614,00:00:10.456,0.01541918946895748
2615,00:00:10.46,0.006289009266765788
2616,00:00:10.464,0.01165578677318991
2617,00:00:10.468,-0.01625778982997874
2618,00:00:10.472,0.002090804046019911
2619,00:00:10.476,0.015532832359895131
2620,00:00:10.48,-0.00497104320675134
2621,00:00:10.484,-0.005953125422820478
2622,00:00:10.488,0.006763656623661522
2623,00:00:10.492,0.00020208465866743824
2624,00:00:10.496,-0.009819290891755369
2625,00:00:10.5,-0.0019552358426153695
2626,00:00:10.504,0.021650530863553282
2627,00:00:10.508,-0.024108831712510388
2628,00:00:10.512,-0.004389914451166989
2629,00:00:10.516,0.013168913312256303
2630,00:00:10.52,0.005042625474743539
2631,00:00:10.524,0.0003452564124017971
2632,00:00:10.528,0.008529077982530001
2633,00:00:10.532,0.0065918129403144
2634,00:00:10.536,-0.033736672601662576
2635,00:00:10.54,-0.014421092229895289
2636,00:00:10.544,0.024175534024834622
2637,00:00:10.548,-0.003077832720009618
2638,00:00:10.552,0.010828798171132841
2639,00:00:10.556,0.01752855011727663
2640,00:00:10.56,-0.006236840272322269
2641,00:00:10.564,-0.01749915152322502
2642,00:00:10.568,-0.012069157150108364
2643,00:00:10.572,0.00862228311598301
2644,00:00:10.576,0.0062620765529573
2645,00:00:10.58,0.0022623980185016964
2646,00:00:10.584,-0.0006392041032086128
2647,00:00:10.588,-0.01209078379906714
2648,00:00:10.592,0.01264443132095039
2649,00:00:10.596,-0.00037156802136451006
2650,00:00:10.6,-0.0085162358591333
2651,00:00:10.604,0.005104266572743639
2652,00:00:10.608,0.01173019944690168
2653,00:00:10.612,-0.0002905182482209022
2654,00:00:10.616,-0.01916018559131771
2655,00:00:10.62,-0.0011455918429419398
2656,00:00:10.624,0.02079147868789734
2657,00:00:10.628,-0.011769944103434678
2658,00:00:10.632,0.0014971229247749268
2659,00:00:10.636,-0.0003522436127241287
2660,00:00:10.64,0.0032559903338551304
2661,00:00:10.644,-0.00033930223435161937
2662,00:00:10.648,-0.009240394691005389
2663,00:00:10.652,0.0008971840143203709
2664,00:00:10.656,-0.004671199829317629
2665,00:00:10.66,0.008578881155699498
2666,00:00:10.664,0.007337262039072819
2667,00:00:10.668,0.014138094848021861
2668,00:00:10.672,-0.02289285487495363
2669,00:00:10.676,-0.01435137866064907
2670,00:00:10.68,0.02493825880810617
2671,00:00:10.684,0.005847068852745
2672,00:00:10.688,-0.02763790963217619
2673,00:00:10.692,-0.00238853378687054
2674,00:00:10.696,0.00993750256020573
2675,00:00:10.7,0.018966384581290137
2676,00:00:10.704,-0.0067425278248264995
2677,00:00:10.708,-0.00536509370431304
2678,00:00:10.712,0.021187284030020244
2679,00:00:10.716,-0.012613691855221976
2680,00:00:10.72,-0.02457888599019497
2681,00:00:10.724,-0.013982851291075352
2682,00:00:10.728,0.024725025519728636
2683,00:00:10.732,0.02561703091487289
2684,00:00:10.736,-0.013223257614299651
2685,00:00:10.74,-0.013640597928315422
2686,00:00:10.744,0.01112527830991893
2687,00:00:10.748,0.00513142836280167
2688,00:00:10.752,-0.018910889048129348
2689,00:00:10.756,-0.00862597767263651
2690,00:00:10.76,0.009331548004411147
2691,00:00:10.764,0.01745377224870025
2692,00:00:10.768,0.00807905872352421
2693,00:00:10.772,-0.00923553499160335
2694,00:00:10.776,-0.00891549370135181
2695,00:00:10.78,-0.005532641545869389
2696,00:00:10.784,-0.01565739698708062
2697,00:00:10.788,0.013873309362679732
2698,00:00:10.792,0.0167365886736661
2699,00:00:10.796,0.01173950813245029
2700,00:00:10.8,-0.01254326908383519
2701,00:00:10.804,-0.019440460484474942
2702,00:00:10.808,-0.009738153894431882
2703,00:00:10.812,0.02940671704709528
2704,00:00:10.816,-0.00803942396305504
2705,00:00:10.82,0.00319126388058066
2706,00:00:10.824,0.01034692628309134
2707,00:00:10.828,-0.01975505659356718
2708,00:00:10.832,0.0021544677510973954
2709,00:00:10.836,0.015260925225447869
2710,00:00:10.84,-0.0185882232617587
2711,00:00:10.844,-0.007925997488200638
2712,00:00:10.848,0.010974988574162122
2713,00:00:10.852,0.024676921777427262
2714,00:00:10.856,-0.01285921945236623
2715,00:00:10.86,-0.01856801577378068
2716,00:00:10.864,-0.0006392449140548689
2717,00:00:10.868,0.015426278347149481
2718,00:00:10.872,0.0116382958367467
2719,00:00:10.876,-0.023384993895888405
2720,00:00:10.88,-0.013591259485110639
2721,00:00:10.884,0.01607746630907067
2722,00:00:10.888,0.01737749623134732
2723,00:00:10.892,0.004657075507566331
2724,00:00:10.896,-0.00809673452749848
2725,00:00:10.9,0.0029233508976176424
2726,00:00:10.904,-0.015107811253983534
2727,00:00:10.908,-0.026673168264096648
2728,00:00:10.912,0.0180572941899299
2729,00:00:10.916,0.022014332003891482
2730,00:00:10.92,-0.0008170285727828706
2731,00:00:10.924,-0.0017446083948016097
2732,00:00:10.928,-0.01420689793303608
2733,00:00:10.932,0.018316657282412094
2734,00:00:10.936,-0.010223951860098212
2735,00:00:10.94,-0.009518307168036711
2736,00:00:10.944,0.003080857452005119
2737,00:00:10.948,0.005126795265823611
2738,00:00:10.952,0.0028777760453522192
2739,00:00:10.956,0.002192106621805578
2740,00:00:10.96,0.000719994510291144
2741,00:00:10.964,-0.021743771183537333
2742,00:00:10.968,0.007364835357293488
2743,00:00:10.972,0.02427145652472969
2744,00:00:10.976,-0.00171272526495158
2745,00:00:10.98,-0.01882758410647511
2746,00:00:10.984,-0.00493602396454663
2747,00:00:10.988,0.01587770250625909
2748,00:00:10.992,-0.008179278112947939
2749,00:00:10.996,-0.012092372751794755
2750,00:00:11,0.019974091264884888
2751,00:00:11.004,-0.007577591026347365
2752,00:00:11.008,0.01403367775492374
2753,00:00:11.012,0.0038776187284383853
2754,00:00:11.016,-0.016084447270259268
2755,00:00:11.02,-0.011504472233354998
2756,00:00:11.024,-0.005210237170103933
2757,00:00:11.028,-0.0025795757974265135
2758,00:00:11.032,0.02233796380460262
2759,00:00:11.036,0.0334157599136233
2760,00:00:11.04,-0.01138938311487434
2761,00:00:11.044,-0.02761700889095661
2762,00:00:11.048,-0.02899563126266004
2763,00:00:11.052,0.007219304563477598
2764,00:00:11.056,0.021097698248922832
2765,00:00:11.06,0.02332397314603437
2766,00:00:11.064,-0.002371691865846519
2767,00:00:11.068,-0.02395576244452966
2768,00:00:11.072,-0.008473465975839645
2769,00:00:11.076,0.013534232741221789
2770,00:00:11.08,0.03320124233141537
2771,00:00:11.084,-0.03512144275009629
2772,00:00:11.088,-0.017597650177776786
2773,00:00:11.092,0.02169832051731643
2774,00:00:11.096,0.005565626750467342
2775,00:00:11.1,-0.002419085474684828
2776,00:00:11.104,-0.008365709043573592
2777,00:00:11.108,-0.00495598092675208
2778,00:00:11.112,0.004706142819486559
2779,00:00:11.116,0.01669233525171876
2780,00:00:11.12,-0.0021607244852930307
2781,00:00:11.124,-0.01630438212305307
2782,00:00:11.128,-0.002446720551233741
2783,00:00:11.132,0.01697707327548416
2784,00:00:11.136,0.00190005244803615
2785,00:00:11.14,-0.020916174165904522
2786,00:00:11.144,-0.009904770704451948
2787,00:00:11.148,0.015409574378281842
2788,00:00:11.152,0.02488838951103384
2789,00:00:11.156,0.009301366750150919
2790,00:00:11.16,-0.02587955305352805
2791,00:00:11.164,-0.01948566595092414
2792,00:00:11.168,-0.0007039860211079934
2793,00:00:11.172,0.006745029895682821
2794,00:00:11.176,0.01780501031316813
2795,00:00:11.18,-0.0029970656614750615
2796,00:00:11.184,0.0038021344225853604
2797,00:00:11.188,0.0014420285588130305
2798,00:00:11.192,-0.012890032841824038
2799,00:00:11.196,-0.01323551009409128
2800,00:00:11.2,0.022166118898894655
2801,00:00:11.204,0.01799077913165095
2802,00:00:11.208,-0.033389446558430805
2803,00:00:11.212,-0.00979111716151242
2804,00:00:11.216,0.0007034875452518402
2805,00:00:11.22,0.02626814274117352
2806,00:00:11.224,0.011883603612659447
2807,00:00:11.228,-0.02012245892547069
2808,00:00:11.232,0.003021975047886377
2809,00:00:11.236,-0.000728063809219751
2810,00:00:11.24,0.0005427086725830789
2811,00:00:11.244,0.017845772847067568
2812,00:00:11.248,-0.01107912161387506
2813,00:00:11.252,-0.0384357613511384
2814,00:00:11.256,-0.002918872516602269
2815,00:00:11.26,0.02265604422427715
2816,00:00:11.264,0.03147281380370265
2817,00:00:11.268,0.021367021836340427
2818,00:00:11.272,-0.037602321244776214
2819,00:00:11.276,-0.032462262781336924
2820,00:00:11.28,0.019485494936816453
2821,00:00:11.284,-0.007260742771904916
2822,00:00:11.288,0.032579749356955276
2823,00:00:11.292,0.006219716975465411
2824,00:00:11.296,-0.030602082610130317
2825,00:00:11.3,-0.014480260899290444
2826,00:00:11.304,0.006519817521621006
2827,00:00:11.308,0.01733716879971324
2828,00:00:11.312,0.0203565915580839
2829,00:00:11.316,-0.010210011416347723
2830,00:00:11.32,-0.014563157688826349
2831,00:00:11.324,0.0005426162388175696
2832,00:00:11.328,-0.00764494354370981
2833,00:00:11.332,-0.010103344684466692
2834,00:00:11.336,0.010257419027766461
2835,00:00:11.34,0.025263160932809142
2836,00:00:11.344,-0.0051783036906272156
2837,00:00:11.348,-0.008340491913259019
2838,00:00:11.352,-0.003661550814285878
2839,00:00:11.356,-0.00574462674558163
2840,00:00:11.36,0.00366293464321643
2841,00:00:11.364,0.010089507326483737
2842,00:00:11.368,-0.0087737345602363
2843,00:00:11.372,-0.005947162746451837
2844,00:00:11.376,0.0030861785635351684
2845,00:00:11.38,0.011157376524351979
2846,00:00:11.384,-0.0008577893895562808
2847,00:00:11.388,-0.01080559485126287
2848,00:00:11.392,-0.0018517728894949272
2849,00:00:11.396,0.00566492695361376
2850,00:00:11.4,0.0025212424880010032
2851,00:00:11.404,0.01131114596500988
2852,00:00:11.408,0.00036883621942252094
2853,00:00:11.412,-0.02507776755373926
2854,00:00:11.416,-0.004090377857210143
2855,00:00:11.42,0.00962315942160785
2856,00:00:11.424,0.02210567309521139
2857,00:00:11.428,-0.007629123865626754
2858,00:00:11.432,-0.00883338454877958
2859,00:00:11.436,0.009910350432619501
2860,00:00:11.44,-0.026280988007783904
2861,00:00:11.444,-0.01779595622792839
2862,00:00:11.448,0.0416260457132012
2863,00:00:11.452,0.023522325325757196
2864,00:00:11.456,-0.02856791438534859
2865,00:00:11.46,-0.006730569526553201
2866,00:00:11.464,0.016464317381178224
2867,00:00:11.468,-0.01669246493838729
2868,00:00:11.472,0.012858707457780841
2869,00:00:11.476,-0.01010313403094184
2870,00:00:11.48,-0.0035610217601060807
2871,00:00:11.484,0.0007390934042632597
2872,00:00:11.488,-0.0056773072574288
2873,00:00:11.492,-0.004067617293912922
2874,00:00:11.496,0.02392931072972716
2875,00:00:11.5,0.01460484601557259
2876,00:00:11.504,-0.014515466173179444
2877,00:00:11.508,-0.01661572849843655
2878,00:00:11.512,-0.00940370878561225
2879,00:00:11.516,0.01258990191854536
2880,00:00:11.52,0.015413067681947699
2881,00:00:11.524,0.02189630060456694
2882,00:00:11.528,-0.03264378383755683
2883,00:00:11.532,-0.024141407920978956
2884,00:00:11.536,0.002941075945273019
2885,00:00:11.54,0.01168376323767004
2886,00:00:11.544,0.01638016241486185
2887,00:00:11.548,0.01543844887055457
2888,00:00:11.552,-0.027154186740517647
2889,00:00:11.556,0.001949232071638109
2890,00:00:11.56,0.012033201754093191
2891,00:00:11.564,0.00400655437260866
2892,00:00:11.568,-0.02130941604264083
2893,00:00:11.572,-0.012809813255444167
2894,00:00:11.576,0.010406608227640338
2895,00:00:11.58,0.02978463144972917
2896,00:00:11.584,-0.015191644325568625
2897,00:00:11.588,-0.007645305711776018
2898,00:00:11.592,0.0010410053655505198
2899,00:00:11.596,-0.0016709857154637497
2900,00:00:11.6,0.005208764690905817
2901,00:00:11.604,0.01349268968988328
2902,00:00:11.608,-0.010384736349806153
2903,00:00:11.612,-0.016917744796955975
2904,00:00:11.616,0.0005709026008844298
2905,00:00:11.62,0.01619879505597059
2906,00:00:11.624,0.0015783795388415506
2907,00:00:11.628,-0.00939666770864278
2908,00:00:11.632,0.007050524698570369
2909,00:00:11.636,-0.00236165267415345
2910,00:00:11.64,-0.0025497446767985803
2911,00:00:11.644,0.00588074617553502
2912,00:00:11.648,-0.010943454399239265
2913,00:00:11.652,0.0024324079859070476
2914,00:00:11.656,0.007241536164656281
2915,00:00:11.66,0.009319694175701443
2916,00:00:11.664,0.0028699738904834
2917,00:00:11.668,-0.030849636998027542
2918,00:00:11.672,-0.004017747007310397
2919,00:00:11.676,0.003939687478123231
2920,00:00:11.68,0.03039377462118862
2921,00:00:11.684,0.006102332379668951
2922,00:00:11.688,-0.008730504298000598
2923,00:00:11.692,-0.014163305459078422
2924,00:00:11.696,-0.008008329663425691
2925,00:00:11.7,0.0020468933507800094
2926,00:00:11.704,0.0027828374877572025
2927,00:00:11.708,0.007908306346507708
2928,00:00:11.712,0.00127538014203311
2929,00:00:11.716,-0.018348177894949916
2930,00:00:11.72,0.01363097678404301
2931,00:00:11.724,0.01808019603049616
2932,00:00:11.728,-0.00674580782651901
2933,00:00:11.732,-0.02158172440249469
2934,00:00:11.736,-0.0007498116465285507
2935,00:00:11.74,0.013947760220617072
2936,00:00:11.744,0.01602918189018969
2937,00:00:11.748,-0.005129935278091609
2938,00:00:11.752,-0.022791090304963263
2939,00:00:11.756,-0.014077014289796363
2940,00:00:11.76,0.004940639482811099
2941,00:00:11.764,0.033420538529753616
2942,00:00:11.768,0.0036026535672135664
2943,00:00:11.772,-0.00901456945575774
2944,00:00:11.776,-0.01413219515234231
2945,00:00:11.78,0.01098196860402828
2946,00:00:11.784,-0.0067468144698068395
2947,00:00:11.788,-0.014856207126285874
2948,00:00:11.792,0.0049031563103199005
2949,00:00:11.796,0.007846880704164502
2950,00:00:11.8,0.01291352231055502
2951,00:00:11.804,0.011565084103494879
2952,00:00:11.808,-0.023660937789827634
2953,00:00:11.812,-0.02125676302239299
2954,00:00:11.816,0.011536215184605687
2955,00:00:11.82,0.019911386247258606
2956,00:00:11.824,0.006022693698469079
2957,00:00:11.828,0.006171871675178434
2958,00:00:11.832,-0.03213265351951127
2959,00:00:11.836,-0.0024448796175420206
2960,00:00:11.84,0.024996950058266562
2961,00:00:11.844,-0.00761205819435418
2962,00:00:11.848,-0.0177976517006755
2963,00:00:11.852,0.0036710589774884253
2964,00:00:11.856,0.012369624804705392
2965,00:00:11.86,0.022259579971432703
2966,00:00:11.864,0.0031208473956212245
2967,00:00:11.868,-0.035788470879197176
2968,00:00:11.872,-0.01967753027565773
2969,00:00:11.876,0.00643603736534714
2970,00:00:11.88,0.01478471443988382
2971,00:00:11.884,0.034732439089566455
2972,00:00:11.888,-0.01073095691390334
2973,00:00:11.892,-0.01295690052211281
2974,00:00:11.896,-0.002305335758137521
2975,00:00:11.9,-0.024965027812868367
2976,00:00:11.904,0.012883496936410652
2977,00:00:11.908,0.026605952531099278
2978,00:00:11.912,-0.00921700976323336
2979,00:00:11.916,0.0015314945485442912
2980,00:00:11.92,-0.010584800969809339
2981,00:00:11.924,-0.010308429133147008
2982,00:00:11.928,0.009094327455386509
2983,00:00:11.932,0.0042216917499899795
2984,00:00:11.936,0.00598377641290423
2985,00:00:11.94,-0.005727146519348041
2986,00:00:11.944,-0.016495059709996013
2987,00:00:11.948,0.020325628458522225
2988,00:00:11.952,0.021079029073007398
2989,00:00:11.956,-0.0064095170237124
2990,00:00:11.96,-0.02764927130192515
2991,00:00:11.964,-0.01440885104238988
2992,00:00:11.968,0.00739091122522954
2993,00:00:11.972,0.00843295548111201
2994,00:00:11.976,0.0043314818758517695
2995,00:00:11.98,0.00724854180589324
2996,00:00:11.984,0.008343698689714022
2997,00:00:11.988,-0.0002077436947729388
2998,00:00:11.992,-0.00238854950293897
2999,00:00:11.996,-0.00931502226740121
3000,00:00:12,-0.009715561347547912
3001,00:00:12.004,-0.00251079315785318
3002,00:00:12.008,0.0016254055080935298
3003,00:00:12.012,-0.0004971998278051693
3004,00:00:12.016,0.0139847167301923
3005,00:00:12.02,0.010406566085293889
3006,00:00:12.024,-0.0008915972430258903
3007,00:00:12.028,-0.014136894606053827
3008,00:00:12.032,-0.006484357843874024
3009,00:00:12.036,0.00861085997894406
3010,00:00:12.04,-0.002120425226166841
3011,00:00:12.044,-0.010960214596707377
3012,00:00:12.048,0.00980366766452789
3013,00:00:12.052,0.006338461767882099
3014,00:00:12.056,0.001161386258900169
3015,00:00:12.06,0.00812204065732662
3016,00:00:12.064,-0.01712162478361281
3017,00:00:12.068,-0.01882014877628535
3018,00:00:12.072,0.01786736352369191
3019,00:00:12.076,0.01735611999174583
3020,00:00:12.08,0.004703745013102891
3021,00:00:12.084,-0.024554756935685897
3022,00:00:12.088,-0.004142416408285499
3023,00:00:12.092,0.0007701889262534665
3024,00:00:12.096,0.00805709650740027
3025,00:00:12.1,0.002623109554406255
3026,00:00:12.104,0.02074274246115236
3027,00:00:12.108,-0.008033598773181438
3028,00:00:12.112,-0.018379950430244242
3029,00:00:12.116,-0.011120252922410145
3030,00:00:12.12,-0.004171308653894786
3031,00:00:12.124,0.015219537075609
3032,00:00:12.128,0.03050185600295659
3033,00:00:12.132,-0.00679057359229774
3034,00:00:12.136,-0.01819018367677925
3035,00:00:12.14,-0.02157416846603155
3036,00:00:12.144,0.01942010049242528
3037,00:00:12.148,0.008054654346779
3038,00:00:12.152,0.003610289510106664
3039,00:00:12.156,-0.00600991991814226
3040,00:00:12.16,-0.006911919801496008
3041,00:00:12.164,-0.011704063974320939
3042,00:00:12.168,-0.010194740956649179
3043,00:00:12.172,0.01889032963663342
3044,00:00:12.176,0.02846602851059287
3045,00:00:12.18,-0.0015998669259715754
3046,00:00:12.184,-0.0063700013561173875
3047,00:00:12.188,-0.019377120246645067
3048,00:00:12.192,-0.008050685049965992
3049,00:00:12.196,-0.0021821932750754093
3050,00:00:12.2,0.012641254812479017
3051,00:00:12.204,-0.0008193082176148709
3052,00:00:12.208,0.01175597356632347
3053,00:00:12.212,0.023313567391596752
3054,00:00:12.216,-0.01564207859337328
3055,00:00:12.22,-0.02208214346319433
3056,00:00:12.224,-0.0225637396797538
3057,00:00:12.228,-0.01047891424968836
3058,00:00:12.232,0.027708007255569187
3059,00:00:12.236,0.02602161956019698
3060,00:00:12.24,0.01780022960156202
3061,00:00:12.244,-0.01123819989152253
3062,00:00:12.248,-0.020410715020261747
3063,00:00:12.252,-0.01891290582716461
3064,00:00:12.256,0.00847169873304665
3065,00:00:12.26,0.014863019809126831
3066,00:00:12.264,-0.003495577140711253
3067,00:00:12.268,0.003645161516033114
3068,00:00:12.272,-0.00671800272539263
3069,00:00:12.276,-0.0210154235828668
3070,00:00:12.28,0.012077473045792434
3071,00:00:12.284,0.039026893675327225
3072,00:00:12.288,-0.011830580653622748
3073,00:00:12.292,-0.009167575277388089
3074,00:00:12.296,-0.02824120689183466
3075,00:00:12.3,-0.003465749032329769
3076,00:00:12.304,0.028920912787725624
3077,00:00:12.308,0.011522282758960462
3078,00:00:12.312,-0.02035373821854595
3079,00:00:12.316,-0.0107678995700553
3080,00:00:12.32,0.006107022170908749
3081,00:00:12.324,0.02320203650742767
3082,00:00:12.328,0.007700489368289711
3083,00:00:12.332,-0.006232773594092578
3084,00:00:12.336,-0.017902927997056353
3085,00:00:12.34,-0.015995585825294218
3086,00:00:12.344,-0.001531138987047597
3087,00:00:12.348,0.0006821535062044898
3088,00:00:12.352,0.033499053213745356
3089,00:00:12.356,0.005997800501063459
3090,00:00:12.36,-0.021691709291189937
3091,00:00:12.364,-0.012752439361065609
3092,00:00:12.368,0.01618696853984148
3093,00:00:12.372,-0.00470907008275386
3094,00:00:12.376,0.00738967745564878
3095,00:00:12.38,0.007017959345830577
3096,00:00:12.384,-0.011278066551312811
3097,00:00:12.388,-0.008867639582604172
3098,00:00:12.392,0.0008980671409517505
3099,00:00:12.396,-0.0019555515609681598
3100,00:00:12.4,0.007568937144242234
3101,00:00:12.404,0.008521582465618849
3102,00:00:12.408,0.012245746213011444
3103,00:00:12.412,-0.0010372942779213199
3104,00:00:12.416,-0.02523522730916741
3105,00:00:12.42,-0.024715565261431
3106,00:00:12.424,0.0017296087462454913
