Elapsed Time,EMG1,EMG2,EMG3,BioRadio Event,Unnamed: 5
00:00:00,-0.5376270413398739,-3.2361412048339804,1.2288618087768601,0,
00:00:00.004,0.5116084814071661,3.0795276165008505,-1.1714667081832901,0,
00:00:00.008,0.41906177997589095,2.5661723613739,-0.9659625291824341,0,
00:00:00.012,0.0538547039031982,0.272152751684189,-0.113342702388763,0,
00:00:00.016,-0.202862903475761,-1.31864964962006,0.505869626998901,0,
00:00:00.02,-0.287422925233841,-1.60830402374268,0.612288951873779,0,
00:00:00.024,-0.17004813253879503,-0.992819905281067,0.34856623411178606,0,
00:00:00.028,-0.0179864708334208,-0.10800073295831698,0.0821409896016121,0,
00:00:00.032,0.09477698802948,0.485208541154861,-0.183732032775879,0,
00:00:00.036,0.0967752709984779,0.634000897407532,-0.25665670633316,0,
00:00:00.04,0.0776609629392624,0.46164417266845703,-0.18972614407539398,0,
00:00:00.044,0.0324574410915375,0.173879817128181,-0.0621999986469746,0,
00:00:00.048,-0.009157084859907629,-0.0764304772019386,0.0474759973585606,0,
00:00:00.052,-0.0346669293940067,-0.20116175711154896,0.0618678107857704,0,
00:00:00.056,-0.041052408516407006,-0.16904413700103801,0.0758022293448448,0,
00:00:00.06,-0.00262046116404235,-0.0750774592161179,0.0368445999920368,0,
00:00:00.064,-0.0117230424657464,0.008146424777805809,-0.0178314279764891,0,
00:00:00.068,0.0155302220955491,0.053337462246418,-0.0220850668847561,0,
00:00:00.072,0.0235463418066502,0.0453137904405594,-0.0205354113131762,0,
00:00:00.076,0.00042245310032740203,0.0253751650452614,-0.00151040055789053,0,
00:00:00.08,-0.0059732194058597105,0.0071049318648874794,-0.0134167354553938,0,
00:00:00.084,-0.00286235101521015,-0.007901661098003391,0.0161097887903452,0,
00:00:00.088,-0.0017834497848525602,-0.0029292122926563,0.00941356457769871,0,
00:00:00.092,-0.00103490764740855,-0.00583549309521914,-0.0144596425816417,0,
00:00:00.096,0.0038633325602859298,-0.0199039131402969,-0.00352423987351358,0,
00:00:00.1,-0.0036534967366606,-0.00636542728170753,0.0184293910861015,0,
00:00:00.104,-0.0151741439476609,0.006984952837228779,0.0109303798526525,0,
00:00:00.108,0.0223968029022217,0.0133022787049413,-0.0269371662288904,0,
00:00:00.112,0.00195691175758839,0.00579659175127745,-0.00230356655083597,0,
00:00:00.116,-0.00296618579886854,-0.0187774077057838,0.0157311856746674,0,
00:00:00.12,-0.00883985590189695,0.00601598341017962,0.0201776642352343,0,
00:00:00.124,-0.0119867185130715,0.00817530509084463,-0.0232609882950783,0,
00:00:00.128,0.0161341745406389,0.006816847249865529,-0.0161525197327137,0,
00:00:00.132,0.00916024576872587,-0.006368476431816821,0.000637751654721797,0,
00:00:00.136,0.00159105646889657,-0.007541150320321321,-0.000180388160515577,0,
00:00:00.14,-0.00563699286431074,0.000539358356036246,0.0137898968532681,0,
00:00:00.144,-0.0156617294996977,0.00288606411777437,0.0104475701227784,0,
00:00:00.148,-0.00297857960686088,-0.0146739361807704,0.0331416353583336,0,
00:00:00.152,0.00566944433376193,-0.0069733508862555,-0.054709404706955005,0,
00:00:00.156,0.015965985134244,0.0190807785838842,-0.008988253772258759,0,
00:00:00.16,-0.00706638861447573,0.0296879783272743,0.009345449507236479,0,
00:00:00.164,-0.00168841844424605,-0.00483909389004111,0.0113602466881275,0,
00:00:00.168,0.00469585647806525,-0.0217583104968071,0.0103809200227261,0,
00:00:00.172,0.0009456763509660961,-0.0149405496194959,-0.00361776072531939,0,
00:00:00.176,-0.00295066204853356,-0.000301415944704786,-0.010568818077445,0,
00:00:00.18,-0.00596507685258985,0.0105125149711967,-0.00628367252647877,0,
00:00:00.184,0.00164035521447659,0.00288509158417583,-0.007982492446899409,0,
00:00:00.188,-0.00469299498945475,-0.0117204505950212,0.0330959632992744,0,
00:00:00.192,-0.0148372808471322,0.00177684961818159,0.020848922431469,0,
00:00:00.196,0.019759664312005,0.0177962463349104,-0.0174398887902498,0,
00:00:00.2,0.0203233230859041,0.004948684480041271,-0.0367973856627941,0,
00:00:00.204,0.00670049805194139,0.0031272044871002397,-0.00846652872860432,0,
00:00:00.208,-0.0166703034192324,0.000602952553890646,0.0049781147390604,0,
00:00:00.212,-0.01865797303617,-0.0154506098479033,0.0159016661345959,0,
00:00:00.216,-0.0070250048302114,-0.0143580185249448,0.009170549921691421,0,
00:00:00.22,-0.000179175403900445,-0.00504575949162245,0.00696208048611879,0,
00:00:00.224,0.0146984038874507,0.00809167232364416,0.00293014291673899,0,
00:00:00.228,0.0045648110099136795,0.0187441874295473,0.000336672237608582,0,
00:00:00.232,0.00797344837337732,0.0131319258362055,-0.0170734729617834,0,
00:00:00.236,0.0132222436368465,-0.0317644290626049,-0.0238385051488876,0,
00:00:00.24,-0.0420108735561371,-0.0237571094185114,0.0426902063190937,0,
00:00:00.244,0.0093981446698308,0.0280249267816544,0.020386865362525004,0,
00:00:00.248,0.0166632644832134,0.0268357042223215,-0.0532698184251785,0,
00:00:00.252,-0.00325806438922882,0.007630482781678441,-0.004259488545358179,0,
00:00:00.256,-0.0016448808601126099,-0.0128907579928637,0.014609519392251998,0,
00:00:00.26,-0.00425027729943395,-0.0190005321055651,0.00793659687042236,0,
00:00:00.264,-0.00211707968264818,-0.012741930782795,0.00133461365476251,0,
00:00:00.268,0.000557708146516234,0.0040307086892426,0.00218405085615814,0,
00:00:00.272,-0.0022189342416822897,0.0123277371749282,0.00630184635519981,0,
00:00:00.276,0.0120127787813544,0.00620902143418789,-0.0201756451278925,0,
00:00:00.28,0.0107268504798412,-0.009306428954005241,-0.009885597042739391,0,
00:00:00.284,-0.0330984592437744,-0.0089293010532856,0.0340075083076954,0,
00:00:00.288,0.0010158256627619301,8.79376693774248e-06,-0.0014003996038809401,0,
00:00:00.292,0.00965473335236311,0.0125161027535796,0.00414681853726506,0,
00:00:00.296,0.0175808351486921,0.0219363402575254,-0.00875880196690559,0,
00:00:00.3,0.004701775033026929,-0.00392012996599078,-0.02492555975914,0,
00:00:00.304,-0.0111769922077656,-0.0158064942806959,-0.000359814875992015,0,
00:00:00.308,-0.0107668312266469,-0.0137937217950821,0.00455872528254986,0,
00:00:00.312,-0.00425685895606875,0.00528022414073348,0.0020302804186940198,0,
00:00:00.316,0.0017460088711231901,-0.0026155030354857397,0.0132937636226416,0,
00:00:00.32,0.008615692146122459,0.0073427245952189,0.0021964882034808397,0,
00:00:00.324,6.49338981020264e-05,0.007123803254216909,0.0121399881318212,0,
00:00:00.328,-0.00758121535181999,-0.00790048018097878,-0.000180444912984967,0,
00:00:00.332,-0.00498601188883185,-0.0107594914734364,-0.0289881322532892,0,
00:00:00.336,0.0317268595099449,0.00334569672122598,0.00205727177672088,0,
00:00:00.34,-0.0189508479088545,0.0174744874238968,0.00812130607664585,0,
00:00:00.344,0.00570892030373216,0.0056480420753359795,0.00264355354011059,0,
00:00:00.348,-0.00680118426680565,-0.0041255373507738105,0.00418732641264796,0,
00:00:00.352,-0.00816357973963022,-0.00977259874343872,-0.000586928334087133,0,
00:00:00.356,0.000690657063387334,-0.006150024943053721,-0.0120669770985842,0,
00:00:00.36,0.00622547045350075,0.0097327483817935,-0.006178252864629029,0,
00:00:00.364,-0.0043906471692025705,0.00132674316409975,0.0272406786680222,0,
00:00:00.368,0.0143681019544601,-0.0125057669356465,-0.0231411308050156,0,
00:00:00.372,0.00285847135819495,0.00112260412424803,-0.005332916509360079,0,
00:00:00.376,-0.0144839799031615,-0.00397195806726813,0.0206123609095812,0,
00:00:00.38,0.0017960974946618102,-0.00355721544474363,0.0220476090908051,0,
00:00:00.384,-0.0315733142197132,0.015008732676506,-0.0209119264036417,0,
00:00:00.388,0.0178697593510151,0.013281999155879,-0.0043392814695835105,0,
00:00:00.392,0.0337190292775631,0.00145519257057458,-0.00980687141418457,0,
00:00:00.396,0.00498954765498638,-0.00719415675848722,-0.008528314530849459,0,
00:00:00.4,-0.00675791269168258,-0.0048490604385733604,-0.00212451163679361,0,
00:00:00.404,-0.0156087754294276,-0.00352041865698993,0.01670828089118,0,
00:00:00.408,-0.0159108769148588,-0.0103282351046801,0.0119987353682518,0,
00:00:00.412,-0.00148530781734735,-0.0050645363517105605,0.0015689089195802801,0,
00:00:00.416,0.008711543865501879,0.0065322364680469,-0.00760815013200045,0,
00:00:00.42,0.0039590289816260294,0.00678761815652251,-0.00713439797982574,0,
00:00:00.424,0.0075283101759851,0.007573197130113841,-0.00302968802861869,0,
00:00:00.428,0.0026864372193813302,0.00671376613900065,-0.00337704201228917,0,
00:00:00.432,-0.00848786905407906,-0.00197236612439156,0.00446102814748883,0,
00:00:00.436,0.00586835248395801,-0.0155252898111939,-0.00683115143328905,0,
00:00:00.44,-0.0148271964862943,-0.00938291661441326,0.0378208644688129,0,
00:00:00.444,0.012022415176034,0.006947007495909929,0.000578669598326087,0,
00:00:00.448,0.0036742186639457898,0.0133963115513325,-0.0308136064559221,0,
00:00:00.452,-0.00623280415311456,0.0010457301978021901,-0.0274647958576679,0,
00:00:00.456,-0.00402353331446648,0.00282211904413998,0.0146478284150362,0,
00:00:00.46,0.0024536596611142198,-0.00526019232347608,0.0128114288672805,0,
00:00:00.464,0.007075931876897809,-0.008615385740995409,0.0108936261385679,0,
00:00:00.468,-0.006882705725729471,0.000338210258632898,0.00756883574649692,0,
00:00:00.472,0.00230395258404315,-0.00038160060648806404,-0.0109948823228478,0,
00:00:00.476,-0.0023000924848020103,-0.00330137717537582,-0.0150949852541089,0,
00:00:00.48,0.00548584619536996,0.00779409194365144,0.012499425560236,0,
00:00:00.484,0.007803583052009341,-0.00735822739079595,-0.008088517002761359,0,
00:00:00.488,-0.0335860438644886,0.00125199602916837,0.024775231257081,0,
00:00:00.492,0.0106837479397655,0.0122710987925529,-0.00561665231361985,0,
00:00:00.496,0.020625552162528,0.00774332648143172,-0.0132160065695643,0,
00:00:00.5,0.00564435636624694,-0.00686657521873713,-0.0108071556314826,0,
00:00:00.504,-0.007416610606014729,-0.00851157214492559,-0.00130182667635381,0,
00:00:00.508,-0.0108564291149378,0.0017303006025031198,0.0097124632447958,0,
00:00:00.512,-0.00480228522792459,0.0045253811404109,-0.0051808119751513,0,
00:00:00.516,0.00983927398920059,-0.0121273547410965,0.0113436877727509,0,
00:00:00.52,0.000723820237908512,-0.0037165894173085703,0.00941244512796402,0,
00:00:00.524,-0.00443662377074361,0.00350547791458666,-0.00902063585817814,0,
00:00:00.528,-0.00416584918275476,0.00394093198701739,-0.0013462039642036,0,
00:00:00.532,0.0009844888700172312,0.00653251633048058,-0.00518191000446677,0,
00:00:00.536,0.0040467386133968795,0.00312771182507277,0.00017351593123748899,0,
00:00:00.54,0.00795235298573971,-0.0050785476341843605,-0.00449654273688793,0,
00:00:00.544,-0.00022370029182639,0.000883591361343861,0.00319869979284704,0,
00:00:00.548,-0.00376494438387454,0.00237168138846755,0.0239551141858101,0,
00:00:00.552,-0.00368650374002755,0.000921016151551157,-0.008105847053229809,0,
00:00:00.556,-0.0039151785895228395,-0.00734876049682498,-0.028568347916007004,0,
00:00:00.56,0.00415665144100785,-0.00670701265335083,0.0100204665213823,0,
00:00:00.564,0.00295778689906001,0.00643190648406744,0.00759982410818338,0,
00:00:00.568,-2.33366699831095e-05,0.00720204133540392,-0.00756750674918294,0,
00:00:00.572,-0.00172752840444446,-0.00344949355348945,0.00286162365227938,0,
00:00:00.576,-0.007956079207360741,-0.0123389977961779,0.0285779275000095,0,
00:00:00.58,-0.0135232005268335,-0.007906366139650341,-0.0159268826246262,0,
00:00:00.584,0.035422645509243,0.0174134969711304,-0.0135226864367723,0,
00:00:00.588,0.0022101940121501697,0.0181976817548275,-0.0158220212906599,0,
00:00:00.592,-0.0121251633390784,0.00271843886002898,0.0115594062954187,0,
00:00:00.596,-0.0077141085639596,-0.011205879971385,0.00697153713554144,0,
00:00:00.6,-0.0026320624165237,-0.009787938557565209,0.0114523265510798,0,
00:00:00.604,0.00111375749111176,-0.0059073423035442794,0.0051405681297183,0,
00:00:00.608,0.0026899334043264398,-0.00319918105378747,-0.00870593823492527,0,
00:00:00.612,0.00241511175408959,0.0043713357299566295,-0.0151067245751619,0,
00:00:00.616,0.0012108621886,0.00321004982106388,-0.00409281114116311,0,
00:00:00.62,0.0103691574186087,0.0134053425863385,0.0140266483649611,0,
00:00:00.624,-0.0126670300960541,-0.005747908260673279,-0.007615984417498109,0,
00:00:00.628,-0.0153545262292027,-0.0158456861972809,0.0175498798489571,0,
00:00:00.632,-0.008471502922475341,-0.0138814132660627,0.0220502354204655,0,
00:00:00.636,0.0370141938328743,0.0173207018524408,-0.0177951976656914,0,
00:00:00.64,0.00842409487813711,0.0307227987796068,-0.0249647572636604,0,
00:00:00.644,-0.0057041724212467705,0.00565036619082093,-0.0137996366247535,0,
00:00:00.648,-0.0116533134132624,-0.0130240675061941,-0.00534198060631752,0,
00:00:00.652,-0.0116474330425262,-0.0215545929968357,0.0180411469191313,0,
00:00:00.656,-0.00174076145049185,-0.0135619686916471,0.0164505895227194,0,
00:00:00.66,0.0012162997154519,0.0051356386393308605,0.00640986394137144,0,
00:00:00.664,-0.0018813299247995,0.0161963384598494,0.0101057048887014,0,
00:00:00.668,0.00860829092562199,0.00556574994698167,-0.00551855051890016,0,
00:00:00.672,0.0139759732410312,-0.0084735918790102,-0.0187644865363836,0,
00:00:00.676,0.009065717458724979,-0.0114602232351899,-0.0295131634920836,0,
00:00:00.68,-0.0230209529399872,-0.0014948439784348,0.00997248664498329,0,
00:00:00.684,-0.0042325803078711,0.014833826571703002,0.0442228801548481,0,
00:00:00.688,0.00161864212714136,0.012832909822463998,0.0163091216236353,0,
00:00:00.692,-0.00809517223387957,-0.0048459563404321705,-0.0238976776599884,0,
00:00:00.696,-0.0032373876310885,-0.00307646230794489,-0.0373981073498726,0,
00:00:00.7,0.0246324241161346,0.0024079380091279697,0.00340683688409626,0,
00:00:00.704,0.0062810005620122,-0.00111026456579566,0.0155719313770533,0,
00:00:00.708,-0.00283206277526915,-0.00847819540649652,0.00158366945106536,0,
00:00:00.712,-0.00804864335805178,-0.00472952565178275,0.000836094201076776,0,
00:00:00.716,-0.0116756372153759,-0.0118649527430534,0.00222823978401721,0,
00:00:00.72,-0.0059081073850393295,-0.00547457719221711,0.000137232447741553,0,
00:00:00.724,0.0117803523316979,0.0205091293901205,0.00907750148326159,0,
00:00:00.728,0.00617884797975421,0.0226751714944839,0.005444462411105629,0,
00:00:00.732,-0.00382232712581754,-0.00234997645020485,-0.018207123503089,0,
00:00:00.736,-0.00298700714483857,-0.009050628170371059,-0.0111774653196335,0,
00:00:00.74,0.00212889048270881,-0.0116244833916426,0.00124770984984934,0,
00:00:00.744,0.0019062987994402601,-0.00573947420343757,0.0144067257642746,0,
00:00:00.748,0.0023016256745904697,-0.0012705905828625,0.0125613631680608,0,
00:00:00.752,-0.0050404150970280205,0.00421610241755843,-0.00873425509780645,0,
00:00:00.756,-0.0008979519479908051,0.00801632460206747,-0.0153879839926958,0,
00:00:00.76,-0.00138503441121429,0.0021897195838391803,0.00702784163877368,0,
00:00:00.764,0.0091002956032753,0.00149033812340349,0.0197185873985291,0,
00:00:00.768,-0.0182867515832186,-0.00149041914846748,-0.008351725526154041,0,
00:00:00.772,0.0278464499861002,0.00108721840661019,-0.0230663008987904,0,
00:00:00.776,-0.0182200521230698,-0.0107563985511661,-0.006984727457165721,0,
00:00:00.78,-0.00240246043540537,-0.000488829158712178,0.012817082926631,0,
00:00:00.784,0.011316834948957,0.00532614905387163,0.0138674639165401,0,
00:00:00.788,-0.0235292539000511,0.0053267534822225605,0.0189782213419676,0,
00:00:00.792,0.0165860373526812,-0.00409173965454102,-0.00477857142686844,0,
00:00:00.796,0.0200567431747913,-0.00565735623240471,-0.0314279645681381,0,
00:00:00.8,-0.00106111215427518,-0.00266165868379176,-0.009340057149529459,0,
00:00:00.804,-0.0334167741239071,0.00729187810793519,0.0179829783737659,0,
00:00:00.808,-0.00316855497658253,0.00557221379131079,0.0196984764188528,0,
00:00:00.812,0.0142207043245435,0.004949513822793961,-0.020849471911788004,0,
00:00:00.816,0.0131100853905082,-0.00444721756502986,-0.0138690993189812,0,
00:00:00.82,-0.00364305730909109,-0.01067431923002,0.025111511349677998,0,
00:00:00.824,-0.007609622552990909,-0.00845967698842287,0.0124076753854752,0,
00:00:00.828,0.0057348217815160795,0.0148058533668518,0.00427201064303517,0,
00:00:00.832,-0.0016479245387017699,0.0049302671104669606,-0.0258394498378038,0,
00:00:00.836,-0.0028060267213732,-0.0037016437854617795,-0.0170319303870201,0,
00:00:00.84,-0.00345087284222245,-0.008115815930068491,-0.00219488865695894,0,
00:00:00.844,0.00643368205055594,0.00870747212320566,0.0164717044681311,0,
00:00:00.848,-0.00112607702612877,-0.00397407962009311,0.00710136629641056,0,
00:00:00.852,-0.0102593768388033,-0.00928268767893314,0.00341648026369512,0,
00:00:00.856,0.007304920814931391,0.00864124391227961,0.0112478127703071,0,
00:00:00.86,0.0113728577271104,0.009783517569303509,-0.00269865337759256,0,
00:00:00.864,-0.00218861759640276,-0.000538867141585797,-0.0141269918531179,0,
00:00:00.868,-0.007983997464179991,0.00131532945670187,-0.00938912481069565,0,
00:00:00.872,0.00184058712329715,-0.00847809668630362,0.0011178220156580199,0,
00:00:00.876,-0.00549278641119599,-0.00904429890215397,-0.00357034732587636,0,
00:00:00.88,0.00015763583360239899,-0.00596289429813623,0.0038235748652368797,0,
00:00:00.884,0.0025520238559693102,0.0038638315163552796,0.0206705629825592,0,
00:00:00.888,-0.00167870451696217,0.00878524780273438,0.00952491536736488,0,
00:00:00.892,0.00931394379585981,0.0177835617214441,-0.010946536436677,0,
00:00:00.896,-0.00283864140510559,-0.000853731180541217,-0.0305230394005775,0,
00:00:00.9,0.000290873693302274,-0.0115309106186032,0.00388429337181151,0,
00:00:00.904,-0.0032735904678702398,-0.0092897480353713,0.00868705008178949,0,
00:00:00.908,0.0100689334794879,-0.0028771322686225198,0.0172603949904442,0,
00:00:00.912,-0.0184113699942827,0.00230639590881765,-0.0005701972986571491,0,
00:00:00.916,-0.0111153284087777,0.00219741836190224,-0.0038387479726225103,0,
00:00:00.92,0.0194506216794252,0.00545273115858436,-0.00275490432977676,0,
00:00:00.924,0.0009915536502376199,0.0051540932618081604,-0.0054435473866760705,0,
00:00:00.928,0.00767749873921275,0.00815783720463514,-0.000701977987773716,0,
00:00:00.932,-0.0109326587989926,-0.0303207859396935,-0.0158957187086344,0,
00:00:00.936,0.0094227883964777,-0.0032426666002720603,0.0395637787878513,0,
00:00:00.94,0.00587400188669562,0.0279213152825832,-0.0119847049936652,0,
00:00:00.944,-0.0107360491529107,0.00723105296492577,-0.0184281095862389,0,
00:00:00.948,-0.00946747697889805,-0.00609663734212518,-0.00130736199207604,0,
00:00:00.952,-0.00456749508157372,-0.0118357399478555,0.00422085542231798,0,
00:00:00.956,0.0072103422135114704,-0.0068828449584543705,0.00444046361371875,0,
00:00:00.96,0.00473329424858093,-0.00217389152385294,0.00895294640213251,0,
00:00:00.964,0.00446754414588213,0.008068909868597979,0.00740817002952099,0,
00:00:00.968,0.000449352693976834,0.0125537225976586,-0.008774859830737109,0,
00:00:00.972,-0.00247797113843262,0.0017560585401952301,-0.0168951004743576,0,
00:00:00.976,-0.0113342935219407,-0.0233033690601587,0.000701548531651497,0,
00:00:00.98,-0.00228367722593248,-0.021450974047184,0.0018793108174577399,0,
00:00:00.984,0.0141994338482618,0.0256858114153147,0.0403122641146183,0,
00:00:00.988,0.0185226500034332,0.0362940207123756,0.0154628772288561,0,
00:00:00.992,-0.0217174235731363,-0.00328500522300601,-0.0536490902304649,0,
00:00:00.996,-0.0152951953932643,-0.0153642538934946,-0.0323512963950634,0,
00:00:01,0.0150639722123742,-0.014936676248908001,0.00611984170973301,0,
00:00:01.004,0.00430752150714397,-0.00964809115976095,0.0177277512848377,0,
00:00:01.008,-0.00104377209208906,-0.00176620134152472,0.0254756212234497,0,
00:00:01.012,-0.00249819178134203,0.00863952096551657,0.0036725080572068704,0,
00:00:01.016,-0.0038839164189994296,0.0153679363429546,0.000652288261335343,0,
00:00:01.02,0.00148877233732492,-0.00115026091225445,-0.00235954485833645,0,
00:00:01.024,0.0146130360662937,-0.0070619140751659905,-0.00236422591842711,0,
00:00:01.028,-0.0108069581910968,-0.00146022427361459,-0.00877343490719795,0,
00:00:01.032,-0.0224653296172619,0.005015965551137921,-0.0238522794097662,0,
00:00:01.036,0.0121091539040208,-0.0027888580225408103,0.0135036772117019,0,
00:00:01.04,-0.0043970164842903605,-0.0172394178807735,0.0110680116340518,0,
00:00:01.044,0.029339861124753997,0.00715279672294855,0.0155813526362181,0,
00:00:01.048,0.0142059661448002,0.0207268688827753,-0.00589813711121678,0,
00:00:01.052,-0.0237459111958742,0.00993398390710354,-0.0193668864667416,0,
00:00:01.056,-0.0139056295156479,-0.00580743467435241,0.00475968001410365,0,
00:00:01.06,-0.00655843829736114,-0.0149165447801352,0.00554018002003431,0,
00:00:01.064,0.00418119458481669,-0.0085881669074297,-0.0117945913225412,0,
00:00:01.068,0.0066631929948926,0.0019532567821443103,-0.00525581836700439,0,
00:00:01.072,-0.00150405464228243,-0.0139215504750609,0.00428631994873285,0,
00:00:01.076,0.0012367619201540901,-0.00365734030492604,0.0251083131879568,0,
00:00:01.08,0.00996648985892534,0.0249595977365971,0.0326748974621296,0,
00:00:01.084,-0.000523027672898024,0.0197280310094357,-0.0375405550003052,0,
00:00:01.088,0.000420259864768013,-0.0024363212287426,-0.0308139659464359,0,
00:00:01.092,-0.0029951932374388,-0.0109354658052325,-0.0111574688926339,0,
00:00:01.096,-0.0107067804783583,-0.00576366670429707,0.0168281737715006,0,
00:00:01.1,0.00266450899653137,-0.000321118772262707,0.0192474611103535,0,
00:00:01.104,0.00409664399921894,-0.00450520869344473,0.00998740736395121,0,
00:00:01.108,-0.00449891481548548,-0.003403628943488,0.00587205728515983,0,
00:00:01.112,0.007491800002753729,-0.00439398037269711,-0.0205074734985828,0,
00:00:01.116,-0.00672576297074556,-0.00413884315639734,-0.0101784104481339,0,
00:00:01.12,0.00988071039319038,0.0120753580704331,0.00774567062035203,0,
00:00:01.124,-0.0024342832621187,0.00861033331602812,0.026096660643816005,0,
00:00:01.128,-0.00867575686424971,0.007267807144671679,-0.0138160930946469,0,
00:00:01.132,0.00985922757536173,-0.00550825940445066,-0.0274488534778357,0,
00:00:01.136,-0.0106226820498705,-0.0049913972616195705,-0.0051533537916839105,0,
00:00:01.14,0.0013571949675679198,-0.00175385107286274,0.00914587173610926,0,
00:00:01.144,0.00214054016396403,-0.00796952843666077,0.0314015410840511,0,
00:00:01.148,0.00265402742661536,0.0044831377454102,0.0055447234772145705,0,
00:00:01.152,0.0184852667152882,-0.00383875169791281,-0.0137330777943134,0,
00:00:01.156,-0.017421392723918,0.00693593081086874,-0.0149774709716439,0,
00:00:01.16,-0.0201941076666117,0.0071528851985931405,0.00934750586748123,0,
00:00:01.164,0.0131382122635841,0.000359279627446085,-0.0124857053160667,0,
00:00:01.168,0.0106760812923312,-0.0023541357368230802,-0.00703519396483898,0,
00:00:01.172,-0.00338087812997401,-0.015331001020968,0.0116439061239362,0,
00:00:01.176,0.005032629705965521,-0.00074377516284585,0.0258084386587143,0,
00:00:01.18,-0.00382612855173647,0.00614157412201166,0.008877786807715891,0,
00:00:01.184,-0.0107787176966667,0.0147193297743797,-0.0338418036699295,0,
00:00:01.188,0.0080327857285738,-0.000481424038298428,-0.0234207082539797,0,
00:00:01.192,0.0015132901025936,-0.008662183769047259,0.00544767454266548,0,
00:00:01.196,0.00320885283872485,-0.0040728491730988,0.0121162394061685,0,
00:00:01.2,-0.009267435409128671,-0.009234313853085041,0.0237499885261059,0,
00:00:01.204,0.000142266741022468,0.00678090704604983,0.000467896112240851,0,
00:00:01.208,0.00306527386419475,0.00809368677437305,-0.00288437702693045,0,
00:00:01.212,0.00457045016810298,0.0036284488160163203,-0.00431310059502721,0,
00:00:01.216,-0.00325495284050703,-0.000952706497628242,-0.0145869646221399,0,
00:00:01.22,-0.00025087999529205295,-0.00111865426879376,0.0068821762688458,0,
00:00:01.224,0.000350370421074331,-0.00706662377342582,-0.00147126638330519,0,
00:00:01.228,-0.0019688815809786302,-0.00741080800071359,0.00045043759746477,0,
00:00:01.232,0.00385708175599575,0.0116155780851841,0.00471080420538783,0,
00:00:01.236,-0.00269619515165687,0.00922692846506834,-0.0119194695726037,0,
00:00:01.24,0.000317000143695623,-0.0052852053195238105,0.008969702757894991,0,
00:00:01.244,-0.00148654566146433,-0.0156800821423531,-0.00586550682783127,0,
00:00:01.248,0.0124356271699071,-8.85746339918114e-05,0.00303386058658361,0,
00:00:01.252,-0.0147773344069719,0.0108928708359599,0.00484757171943784,0,
00:00:01.256,-0.00663551595062017,0.0026001543737947897,0.00895037595182657,0,
00:00:01.26,0.0131715089082718,0.0017897281795740102,-0.0102816736325622,0,
00:00:01.264,-0.000983397592790425,0.00326026580296457,0.0135907679796219,0,
00:00:01.268,-0.000458568829344586,-0.010548360645771,-0.011208476498723,0,
00:00:01.272,-0.0024788964074105,-0.0037203752435743796,-0.0302289165556431,0,
00:00:01.276,-0.00466127693653107,0.007894971407949921,0.0122263077646494,0,
00:00:01.28,0.00516705121845007,0.00188670144416392,0.0224169548600912,0,
00:00:01.284,0.0172900334000587,0.000256588245974854,0.00122416531667113,0,
00:00:01.288,-0.0044056698679924,-0.0128883020952344,0.00797974318265915,0,
00:00:01.292,-0.0175303611904383,0.0026246199849993,-0.0114946281537414,0,
00:00:01.296,-0.0107952337712049,0.00623249355703592,-0.0194787625223398,0,
00:00:01.3,0.00445033190771937,0.00404184916988015,-0.000192407416761853,0,
00:00:01.304,0.0137864500284195,-0.00152464502025396,0.0171338263899088,0,
00:00:01.308,0.00767798582091928,0.00226676487363875,0.0113449767231941,0,
00:00:01.312,-0.000608937640208751,-0.0026615746319294,0.000323924818076193,0,
00:00:01.316,-0.00726328184828162,-0.00304890889674425,-0.0234062019735575,0,
00:00:01.32,-0.0116401640698314,-0.0035205057356506603,-0.0128602590411901,0,
00:00:01.324,0.0046524945646524395,0.00640193885192275,0.0134500758722425,0,
00:00:01.328,0.00668391864746809,0.00303214695304632,0.0266529675573111,0,
00:00:01.332,0.00527423107996583,-0.0100088473409414,-0.0041417283937335,0,
00:00:01.336,-0.00256089447066188,-0.00193190318532288,-0.0142189264297485,0,
00:00:01.34,-0.00826682522892952,0.0035516337957233204,-0.0169450286775827,0,
00:00:01.344,0.00140842120163143,0.00883004255592823,0.007561347912997009,0,
00:00:01.348,0.00710934400558472,0.00720088090747595,0.00913252867758274,0,
00:00:01.352,-0.00454124063253403,-0.008858363144099709,0.0120765529572964,0,
00:00:01.356,0.00885536335408688,-0.00628459034487605,-0.0150716761127114,0,
00:00:01.36,-0.020014051347971,-0.0107686249539256,0.00285352347418666,0,
00:00:01.364,0.000477620982564986,0.00654647499322891,0.025244303047657003,0,
00:00:01.368,0.0121542569249868,0.0108104087412357,-0.0146711450070143,0,
00:00:01.372,0.005115388892591,0.00041275826515629904,-0.0287381615489721,0,
00:00:01.376,0.0014808733249083198,-7.004004146438089e-05,-0.00209070066921413,0,
00:00:01.38,-0.00316829234361649,-0.00161034963093698,0.0213887970894575,0,
00:00:01.384,-0.00681536179035902,-0.00011863716645166298,-0.00610313378274441,0,
00:00:01.388,-0.00348858162760735,0.0005379688227549201,0.00422348268330097,0,
00:00:01.392,-0.00141911813989282,-0.0061576422303915,0.0161449834704399,0,
00:00:01.396,-0.0013971038861200198,-0.0134848831221461,-0.000981294433586299,0,
00:00:01.4,0.0124501967802644,0.0111403819173574,-0.0131069328635931,0,
00:00:01.404,0.00874307285994291,0.0157822035253048,-0.004661391954869029,0,
00:00:01.408,0.004451291169971229,-6.06029971095268e-06,-0.00490823667496443,0,
00:00:01.412,-0.0261202789843082,-0.0040570106357336,0.00293556577526033,0,
00:00:01.416,-0.0129101173952222,-0.0077964449301362,0.0027528891805559397,0,
00:00:01.42,0.0136156128719449,-0.000202107621589676,0.007384635973721741,0,
00:00:01.424,0.0161136630922556,-0.00168286508414894,0.0005449642776511611,0,
00:00:01.428,0.0074955904856324205,-0.00864095520228148,-0.000338302052114159,0,
00:00:01.432,-0.012349471449851998,0.0049499124288559,-0.0128873912617564,0,
00:00:01.436,-0.00545322662219405,0.00815779715776443,0.00896685943007469,0,
00:00:01.44,0.0028630311135202603,0.0052058440633118205,0.00232720165513456,0,
00:00:01.444,-0.00304457289166749,0.00480112805962563,0.0031222915276885,0,
00:00:01.448,-0.0037713136989623295,0.00182617700193077,-0.00785948988050222,0,
00:00:01.452,0.00291632581502199,-0.0145575618371367,0.00162378093227744,0,
00:00:01.456,0.00393319735303521,-0.005202618427574629,-0.00497116008773446,0,
00:00:01.46,0.0042871399782598,-0.0038062501698732398,-0.00105226179584861,0,
00:00:01.464,0.00224032811820507,0.008836532942950729,0.00307847862131894,0,
00:00:01.468,-0.0130681283771992,0.00219942117109895,0.0103678656741977,0,
00:00:01.472,-0.007300591561943291,-0.0078354561701417,0.0050199618563056,0,
00:00:01.476,0.0227572675794363,0.00807209592312574,-0.0104167964309454,0,
00:00:01.48,-0.00442831544205546,0.0149171473458409,-0.0208007711917162,0,
00:00:01.484,-0.0030819063540548104,-0.00941327679902315,0.0123523622751236,0,
00:00:01.488,-0.00014720797480549699,-0.012423450127244001,0.0174374915659428,0,
00:00:01.492,-0.0114658139646053,-0.00165362015832216,-0.00401097955182195,0,
00:00:01.496,0.014396145939827,0.0101644415408373,-0.007170350756496191,0,
00:00:01.5,-0.0009972862899303438,0.00293066701851785,-0.007737802341580391,0,
00:00:01.504,-0.00429690117016435,-0.00407236954197288,0.0106036616489291,0,
00:00:01.508,-0.00249413563869894,-0.00349288620054722,-0.000247037969529629,0,
00:00:01.512,0.00220476486720145,-0.00285132857970893,-0.00023651497031096402,0,
00:00:01.516,-0.000348191038938239,0.00532332342118025,0.000983044388704002,0,
00:00:01.52,-0.00200807047076523,-0.00264715543016791,0.00085968297207728,0,
00:00:01.524,0.0027330580633133698,0.00375991011969745,-0.00435367552563548,0,
00:00:01.528,-0.0016448457026854199,0.0025874616112560003,-0.0117768617346883,0,
00:00:01.532,0.00667789438739419,0.0018303148681297898,0.00727165443822742,0,
00:00:01.536,0.000429277482908219,-0.00395319843664765,0.0019292839569971,0,
00:00:01.54,0.0014636549167335,0.000439566123532131,0.004751292522996661,0,
00:00:01.544,-0.00895708706229925,-0.00525771779939532,0.0175711773335934,0,
00:00:01.548,-0.00498061859980226,-0.0107620684430003,-0.0137217398732901,0,
00:00:01.552,0.0032318965531885602,0.0051093571819365,-0.0134149556979537,0,
00:00:01.556,0.00444075418636203,0.0178125556558371,-0.005690124351531271,0,
00:00:01.56,-0.00164938205853105,0.00481801480054855,0.0145320883020759,0,
00:00:01.564,0.008233353495597841,-0.00714388955384493,0.00457279710099101,0,
00:00:01.568,-0.00195734621956944,-0.0102428076788783,-0.005553328432142729,0,
00:00:01.572,-0.00444255536422133,-0.00017222327005583798,-0.005601976066827771,0,
00:00:01.576,-0.00921469926834106,-0.0022422899492085,0.0024931055959314104,0,
00:00:01.58,0.00952479150146246,0.00525667238980532,0.0125529896467924,0,
00:00:01.584,0.0104301692917943,0.00573268579319119,-0.00536380941048265,0,
00:00:01.588,-0.0152571499347687,-0.0058979787863791,-0.00443360023200512,0,
00:00:01.592,-0.004432790912687779,0.000450547959189862,0.00821511168032885,0,
00:00:01.596,0.00309346546418965,0.00104853429365903,-0.0078414510935545,0,
00:00:01.6,0.011568533256649999,-0.004051699303090571,-0.0422587022185326,0,
00:00:01.604,-0.00214191479608417,-0.000798360095359385,0.0449077486991882,0,
00:00:01.608,0.00014349643606692601,0.0045123128220439,0.0256015714257956,0,
00:00:01.612,-0.0037230201996862897,0.00532934349030256,-0.008330374024808409,0,
00:00:01.616,-0.000710878521203995,-0.0037125905510038103,-0.0297415722161531,0,
00:00:01.62,-0.00665950868278742,-0.00548149878159165,0.005902528762817379,0,
00:00:01.624,0.00549384579062462,0.00541256926953793,-0.00321855815127492,0,
00:00:01.628,0.0026951851323247,0.00304571515880525,0.0018774801865220102,0,
00:00:01.632,0.000664159306325018,-0.00337847298942506,-0.00660087820142508,0,
00:00:01.636,-0.0046552992425859,-0.0117247439920902,0.0150135597214103,0,
00:00:01.64,0.00308093638159335,0.0108610149472952,0.0219703633338213,0,
00:00:01.644,0.00467089982703328,0.00343356165103614,-0.0129691557958722,0,
00:00:01.648,-0.00398808624595404,-0.00094160222215578,-0.0191259793937206,0,
00:00:01.652,0.000782147923018783,0.00178935786243528,-0.012532340362668001,0,
00:00:01.656,-0.000258332031080499,-0.0037229887675494,0.0006656743935309349,0,
00:00:01.66,-0.0036294411402195705,-0.00795908737927675,0.0153398644179106,0,
00:00:01.664,-0.00167003914248198,-0.00169501081109047,0.0187572315335274,0,
00:00:01.668,-0.00119293003808707,0.00596246216446161,0.00196169386617839,0,
00:00:01.672,0.0019780194852501197,0.0116738425567746,-0.0144620500504971,0,
00:00:01.676,-0.000807231175713241,-0.00810492318123579,-0.00605010706931353,0,
00:00:01.68,0.0147476997226477,-0.00830497220158577,0.00500481156632304,0,
00:00:01.684,0.0022639296948909803,0.00834038946777582,0.0015177072491496801,0,
00:00:01.688,-0.0109620783478022,0.00997109524905682,-0.0193173009902239,0,
00:00:01.692,-0.00875151343643665,-0.00244312826544046,0.00386349344626069,0,
00:00:01.696,-0.0020589146297425,-0.0157496556639671,0.0108082881197333,0,
00:00:01.7,0.0051014367491006895,-0.008603600785136221,0.0121641140431166,0,
00:00:01.704,-0.0098442230373621,0.00815931521356106,0.0022739085834473398,0,
00:00:01.708,0.0156479775905609,0.0184822622686625,-0.0014946195296943199,0,
00:00:01.712,0.0108554968610406,-0.0025844112969934897,-0.0199129767715931,0,
00:00:01.716,-0.0045792502351105204,0.0013953197048977,0.00988348387181759,0,
00:00:01.72,-0.009606375358998779,-0.0080559840425849,-0.0068215634673833795,0,
00:00:01.724,0.0117958253249526,-0.0110729420557618,-0.0247268360108137,0,
00:00:01.728,-0.010899992659688001,-0.00433651311323047,0.024163419380784004,0,
00:00:01.732,-0.00945068895816803,0.00917559489607811,0.0198980960994959,0,
00:00:01.736,0.00290808756835759,0.00672439532354474,0.00686723971739411,0,
00:00:01.74,0.00705384323373437,0.00739444978535175,-0.00872185453772545,0,
00:00:01.744,-0.0259272158145905,-0.00401821313425899,-0.00152033707126975,0,
00:00:01.748,0.026677567511797003,-0.00119045306928456,-0.0216614957898855,0,
00:00:01.752,0.00997318886220455,-0.00259226956404746,-0.0098599586635828,0,
00:00:01.756,0.00612537655979395,-0.00931093096733093,0.00927877333015203,0,
00:00:01.76,-0.00644293334335089,-0.0022457160521298604,0.0121147809550166,0,
00:00:01.764,-0.00773412315174937,0.0127528700977564,0.0173943806439638,0,
00:00:01.768,-0.008799693547189241,0.00670891162008047,-0.00510895811021328,0,
00:00:01.772,-0.00132533395662904,-0.008200842887163159,-0.0300930738449097,0,
00:00:01.776,-0.00624119536951184,-0.00642618909478188,0.00337326060980558,0,
00:00:01.78,0.0170022305101156,0.00135927530936897,0.0228343289345503,0,
00:00:01.784,-0.00337473559193313,0.00316833448596299,0.0031571660656482,0,
00:00:01.788,0.0027310624718666103,0.00626563234254718,-0.0144563056528568,0,
00:00:01.792,-0.0052017942070961,-0.00354582723230124,-0.0013985097175464,0,
00:00:01.796,0.0064203846268355794,-0.0102758258581161,-0.00376096880063415,0,
00:00:01.8,-0.00167178502306342,0.00242165639065206,0.0163573548197746,0,
00:00:01.804,-0.00514870975166559,0.0161353591829538,0.0038785503711551397,0,
00:00:01.808,0.00239258003421128,-0.00181546295061707,-0.0187131762504578,0,
00:00:01.812,-0.000224422386963852,-0.007355151697993279,-0.00104484031908214,0,
00:00:01.816,-0.00659896107390523,-0.00979539658874273,-0.0166125185787678,0,
00:00:01.82,0.0185070149600506,-0.0017603151500225102,0.0316223427653313,0,
00:00:01.824,-0.0189278423786163,0.00269195763394237,0.0202145297080278,0,
00:00:01.828,0.0029640237335115697,0.010363657027482999,-0.0213918313384056,0,
00:00:01.832,0.0126907294616103,0.00580447865650058,-0.0126040205359459,0,
00:00:01.836,-0.005013508722186089,-0.00278389570303261,-0.0079787177965045,0,
00:00:01.84,-0.0039222892373800295,-0.000335542863467708,-7.46688965591602e-05,0,
00:00:01.844,0.000359942117938772,0.00346541847102344,0.0137244779616594,0,
00:00:01.848,0.0023674257099628396,-0.0056049255654215795,0.00498549500480294,0,
00:00:01.852,-0.00860118772834539,-0.0198353976011276,-0.00161838531494141,0,
00:00:01.856,-0.000422997865825891,-0.0067941923625767205,0.00863000750541687,0,
00:00:01.86,0.0043253693729639105,0.0177735164761543,-0.0083847139030695,0,
00:00:01.864,0.00674903905019164,0.0196082219481468,-0.0121590355411172,0,
00:00:01.868,0.0066599347628653,-0.00150107371155173,0.0099565926939249,0,
00:00:01.872,-0.0078027443960309,-0.00985710136592388,0.00395573256537318,0,
00:00:01.876,-0.00278032477945089,0.00180258764885366,-0.00826571974903345,0,
00:00:01.88,-0.00775973917916417,-0.00266724382527173,-0.012749744579196002,0,
00:00:01.884,0.00507716694846749,-0.00176801811903715,0.0178763456642628,0,
00:00:01.888,0.0090133948251605,-0.00845538172870874,0.0157477501779795,0,
00:00:01.892,-0.00697237718850374,-0.00185751530807465,-0.0220089387148619,0,
00:00:01.896,-0.00928229838609695,0.0107359327375889,-0.002374860458076,0,
00:00:01.9,0.00851480755954981,0.000347541354130954,0.0165778789669275,0,
00:00:01.904,0.00506175775080919,-0.0007193498313426969,-0.00794745981693268,0,
00:00:01.908,0.0007959930226206781,0.00030387353035621296,-0.0167115554213524,0,
00:00:01.912,-0.00395909883081913,0.00495711667463183,-0.00215886626392603,0,
00:00:01.916,0.00156655919272453,0.00275851064361632,0.0262586157768965,0,
00:00:01.92,-0.00199765525758266,-0.0114500606432557,0.006295104045420889,0,
00:00:01.924,0.000199072121176869,0.000213159684790298,-0.00174399779643863,0,
00:00:01.928,-0.00246901321224868,-0.0018785538850352198,-0.0171701367944479,0,
00:00:01.932,-0.000966153864283115,-0.00318394391797483,-0.0221882443875074,0,
00:00:01.936,-0.0136190969496965,0.0131429163739085,0.0151166059076786,0,
00:00:01.94,0.0155154690146446,0.0063787424005568,0.025413341820240003,0,
00:00:01.944,0.0252977330237627,-0.007156787440180779,0.0028876797296106802,0,
00:00:01.948,-0.0163462404161692,-0.0074022775515914,-0.0095349820330739,0,
00:00:01.952,-0.0100972084328532,-0.000796984066255391,-0.0194107256829739,0,
00:00:01.956,0.00641627470031381,-0.000666183477733284,-0.0066802119836211205,0,
00:00:01.96,-0.0134421372786164,-0.000594600744079798,0.00177120207808912,0,
00:00:01.964,-0.0015088077634573,0.00451169488951564,0.0248330645263195,0,
00:00:01.968,0.00518328184261918,0.0057689999230206,0.00549508631229401,0,
00:00:01.972,0.00410952279344201,-0.00309724058024585,-0.00523042446002364,0,
00:00:01.976,0.00361251016147435,-0.000906526111066341,-0.007864935323595999,0,
00:00:01.98,0.00616105599328876,-0.000535796396434307,-0.00337185338139534,0,
00:00:01.984,-0.00187917612493038,-0.000535186962224543,0.000686767685692757,0,
00:00:01.988,-0.00253231264650822,0.0037406524643302,-0.00199965154752135,0,
00:00:01.992,-0.0098358578979969,-0.00618228316307068,-0.0048877885565161705,0,
00:00:01.996,-0.00323492079041898,-0.00952253676950932,0.0029552907217294,0,
00:00:02,0.011830996721983001,0.0114840744063258,0.0009461407316848641,0,
00:00:02.004,0.00622383365407586,0.000444296485511586,0.0074644316919148,0,
00:00:02.008,-0.008201451040804391,0.0187893230468035,0.0061245821416378,0,
00:00:02.012,-0.0102766370400786,-0.010212647728622,0.00122460350394249,0,
00:00:02.016,0.00566968601197004,-0.0172502212226391,-0.0092831552028656,0,
00:00:02.02,0.0150012979283929,0.00019303432782180602,-0.0174618307501078,0,
00:00:02.024,-0.0012051013763994,0.00924696773290634,0.00638990662992001,0,
00:00:02.028,-0.020156716927886002,-0.00394544098526239,0.0066885338164866,0,
00:00:02.032,0.00513412617146969,-0.00400817673653364,0.0206281989812851,0,
00:00:02.036,0.00113139371387661,0.00419032759964466,-0.00220486149191856,0,
00:00:02.04,8.242543844971809e-05,0.00543359061703086,-0.0132078407332301,0,
00:00:02.044,0.00890801288187504,0.00909895543009043,-0.0035828554537147297,0,
00:00:02.048,0.00169826112687588,-0.00416901521384716,-0.00821239780634642,0,
00:00:02.052,-0.000557750696316361,-0.00499220285564661,-0.005736929830163721,0,
00:00:02.056,0.00268880533985794,-0.000295242905849591,-0.0039175129495561106,0,
00:00:02.06,-0.0244459342211485,-0.0166281685233116,0.029800146818161,0,
00:00:02.064,0.00243467162363231,-0.00158614339306951,0.0025769029743969397,0,
00:00:02.068,0.0127487974241376,0.0153481625020504,-2.2246424123295603e-05,0,
00:00:02.072,0.0083762276917696,0.0172372087836266,0.00243477709591389,0,
00:00:02.076,0.0029528730083257,-0.00031398530700244,-0.0155614949762821,0,
00:00:02.08,-0.005951336119323971,-0.0139451920986176,-0.0159593615680933,0,
00:00:02.084,-0.00445100199431181,-0.0144451623782516,-0.0021221418865025,0,
00:00:02.088,-0.0073277656920254204,0.00395807391032577,0.0104744108393788,0,
00:00:02.092,0.00267269276082516,0.009312203153967859,0.00662304647266865,0,
00:00:02.096,-0.000334300857502967,0.00439476547762752,0.0050949864089489,0,
00:00:02.1,0.0037757258396595703,-0.00937710236757994,0.00463757663965225,0,
00:00:02.104,0.00933025684207678,-0.00185516860801727,0.0101459147408605,0,
00:00:02.108,-0.011289119720459,-0.000923340732697397,-0.019932447001338,0,
00:00:02.112,0.00835654977709055,0.0122917499393225,0.0119423260912299,0,
00:00:02.116,-0.0154847893863916,-0.00032295848359353797,-0.0124536287039518,0,
00:00:02.12,0.0009502259199507529,0.00113087391946465,-0.0270730871707201,0,
00:00:02.124,0.0135818012058735,0.0043473211117088795,0.0168134532868862,0,
00:00:02.128,0.00662712659686804,-0.0075037586502730794,0.0190163496881723,0,
00:00:02.132,-0.00450569251552224,-0.0141470087692142,-0.0032538285013288303,0,
00:00:02.136,-0.00470602652058005,0.000548937707208097,-0.00421084510162473,0,
00:00:02.14,-0.0103990938514471,0.0103576006367803,0.018335647881031,0,
00:00:02.144,-0.00250159809365869,0.0018212265567854,-0.0157819483429194,0,
00:00:02.148,0.0150913307443261,-0.00267459126189351,-0.00876664742827415,0,
00:00:02.152,0.0010183006525039699,-0.0049525718204677105,0.0073284232057631,0,
00:00:02.156,-0.00138774688821286,0.009372766129672529,-0.00436288770288229,0,
00:00:02.16,-0.00711113167926669,0.00523037556558847,-0.00438192114233971,0,
00:00:02.164,0.00340528786182404,-0.00384431006386876,0.0121753895655274,0,
00:00:02.168,-0.003980943467468021,-0.00744633143767715,-0.000429062725743279,0,
00:00:02.172,0.000950149085838348,0.00298873032443225,-0.00539963133633137,0,
00:00:02.176,0.00457603903487325,0.00368528580293059,-0.008469929918646809,0,
00:00:02.18,0.0061360839754343,-0.0032757665030658197,0.00726246181875467,0,
00:00:02.184,-0.0174248907715082,-0.0101785305887461,0.0138531196862459,0,
00:00:02.188,-0.00202345428988338,-0.0123264351859689,0.00700879748910666,0,
00:00:02.192,0.0113888261839747,0.00705513264983892,-0.0126630449667573,0,
00:00:02.196,0.0146894278004766,0.0296216178685427,-0.0165100339800119,0,
00:00:02.2,-0.0005536365788429981,0.0144689921289682,-0.0109882401302457,0,
00:00:02.204,-0.00863242149353027,-0.0073961899615824205,0.0199022721499205,0,
00:00:02.208,-0.0108205825090408,-0.0216267667710781,0.0144668072462082,0,
00:00:02.212,-0.0065574776381254205,-0.0191058833152056,-0.009294011630117891,0,
00:00:02.216,0.00189122010488063,0.00130623241420835,-0.00790549349039793,0,
00:00:02.22,0.00447014160454273,0.0115380110219121,-0.00490779103711247,0,
00:00:02.224,0.0268767829984427,0.000824104121420532,0.00778480432927608,0,
00:00:02.228,-0.0172604750841856,0.00265749078243971,0.0304026231169701,0,
00:00:02.232,-0.0110324462875724,0.00863000471144915,-0.00883069168776274,0,
00:00:02.236,0.000571207492612302,0.00152970920316875,-0.0362097583711147,0,
00:00:02.24,0.004445021506398921,-0.00041146264993585603,-0.0060836095362901705,0,
00:00:02.244,0.00376954115927219,-0.0034850535448640602,0.0142551390454173,0,
00:00:02.248,0.0014344286173582099,-0.00424466002732515,0.0132357273250818,0,
00:00:02.252,-0.00267744506709278,-0.000723616511095315,0.0008651532116346059,0,
00:00:02.256,0.00254086102358997,0.0036628381349146396,-0.0106503134593368,0,
00:00:02.26,0.00038304610643535896,-0.00440549198538065,0.0162062607705593,0,
00:00:02.264,-0.00825469940900803,-0.00955025758594275,0.00192774191964418,0,
00:00:02.268,-0.00281905476003885,-0.00226015131920576,-0.00943748094141483,0,
00:00:02.272,0.0114697581157088,0.0131820486858487,-0.0108750881627202,0,
00:00:02.276,0.00141964433714747,0.011817691847682,-0.0200508292764425,0,
00:00:02.28,-0.000653582334052771,0.00356950354762375,0.0294412951916456,0,
00:00:02.284,-0.00291098188608885,-0.007993681356310841,0.0110907247290015,0,
00:00:02.288,-0.007234422024339441,-0.0092103248462081,-0.00632308563217521,0,
00:00:02.292,0.00022302228899207001,-0.00913431495428085,0.000600560044404119,0,
00:00:02.296,0.00536214839667082,0.00190704793203622,-0.00930820964276791,0,
00:00:02.3,-0.00923460256308317,4.54657783848234e-05,-0.009974624961614609,0,
00:00:02.304,0.0117749124765396,0.00517698610201478,9.00670784176327e-05,0,
00:00:02.308,0.010005765594542,0.019443079829216,0.0132691971957684,0,
00:00:02.312,-0.0028953813016414603,0.005167300812900071,-0.0023977414239198,0,
00:00:02.316,-0.00977861881256104,-0.010801718570292001,0.00939743872731924,0,
00:00:02.32,-0.00634363945573568,-0.021263474598527,0.0091269239783287,0,
00:00:02.324,-0.00271874782629311,-0.00349669950082898,-0.008463248610496521,0,
00:00:02.328,0.00714775826781988,0.0041859918273985395,-0.022325687110424,0,
00:00:02.332,0.0014424618566408801,0.00602705962955952,0.000668831984512508,0,
00:00:02.336,0.00510440999642015,0.0150790316984057,0.00145286181941628,0,
00:00:02.34,-0.0049321786500513606,0.000689416308887303,0.0123752634972334,0,
00:00:02.344,0.00351671827957034,-0.005589310079813001,-0.00292416755110025,0,
00:00:02.348,-0.00274198479019105,-0.00794142205268145,0.0075545301660895296,0,
00:00:02.352,-1.87563910003519e-05,0.0008840722730383279,0.0199730414897203,0,
00:00:02.356,-0.00196607783436775,-0.00255721644498408,-0.0267374366521835,0,
00:00:02.36,0.0037776185199618296,0.00426209671422839,-0.008455013856291771,0,
00:00:02.364,0.00547820003703237,0.00479886867105961,0.0050427443347871295,0,
00:00:02.368,-0.0118023743852973,-0.00428873440250754,-0.0163306705653667,0,
00:00:02.372,0.00216153799556196,-0.00980037916451693,0.0247424654662609,0,
00:00:02.376,-0.0157131068408489,0.00347215263172984,0.00693930732086301,0,
00:00:02.38,0.0182254146784544,0.0107960440218449,-0.00950942095369101,0,
00:00:02.384,0.0113966073840857,0.00861613638699055,0.0141595229506493,0,
00:00:02.388,3.18259044433944e-05,-0.0127579374238849,-0.0156590808182955,0,
00:00:02.392,-0.0108228493481874,-0.00910297222435474,-0.0395239777863026,0,
00:00:02.396,0.0029711597599089102,0.00394354527816176,0.032863438129425,0,
00:00:02.4,-0.0128203732892871,0.00334786181338131,0.0180546157062054,0,
00:00:02.404,-0.0152964917942882,0.0107582630589604,0.00156270887237042,0,
00:00:02.408,0.0333930775523186,0.0035491625312715795,0.00086652667960152,0,
00:00:02.412,0.00104568130336702,-0.0228987969458103,-0.00583447236567736,0,
00:00:02.416,-0.0052921422757208295,-0.00810169335454702,-0.0147019792348146,0,
00:00:02.42,-0.00538178300485015,0.0144848823547363,-0.000215367952478118,0,
00:00:02.424,-0.00278028682805598,0.0137533722445369,0.0032754885032773,0,
00:00:02.428,-6.15148528595455e-05,-0.00390524975955486,0.0046741459518671,0,
00:00:02.432,0.00148063653614372,-0.00432363105937839,-0.002993916394189,0,
00:00:02.436,-0.000396285089664161,-0.0052647409029305,-0.00592292565852404,0,
00:00:02.44,0.00715811504051089,0.00891849491745234,0.0007591409375891089,0,
00:00:02.444,-4.71107414341532e-05,-0.003964529838413,0.00742994621396065,0,
00:00:02.448,-0.0096336966380477,-0.0135664269328117,0.0158085376024246,0,
00:00:02.452,0.000536590348929167,0.00379010592587292,-0.00276190182194114,0,
00:00:02.456,0.00333244749344885,0.00564010581001639,-0.0207567624747753,0,
00:00:02.46,0.0024578580632805803,0.00693441741168499,0.0009447733755223449,0,
00:00:02.464,0.0005854315822944049,0.000265408016275615,-0.00144196220207959,0,
00:00:02.468,0.0012849092017859199,0.00414058985188603,0.0022625676356256,0,
00:00:02.472,-0.007340830750763421,-0.00600620824843645,0.0107629122212529,0,
00:00:02.476,0.00348876393400133,-0.00610416987910867,-0.00828248634934425,0,
00:00:02.48,0.00291285896673799,-0.0023883485700935104,0.00461123930290341,0,
00:00:02.484,-0.004296048078686,0.00525711849331856,0.00583846308290958,0,
00:00:02.488,-0.00424113124608994,-0.00957556441426277,0.0059476471506059204,0,
00:00:02.492,0.00934774242341518,0.0070020779967308,-0.0104776453226805,0,
00:00:02.496,-0.00169520231429487,0.00942189991474152,-0.0222282744944096,0,
00:00:02.5,-0.00268390798009932,0.00237043900415301,0.000483736454043537,0,
00:00:02.504,0.0034212393220514102,-0.0057579018175602,0.0246461629867554,0,
00:00:02.508,-0.000984978280030191,-0.007634485606104141,0.00452063092961907,0,
00:00:02.512,0.000183313663001172,-0.00026801697094924705,0.008688216097652909,0,
00:00:02.516,0.0010683914879337,0.0107705090194941,-0.0190516281872988,0,
00:00:02.52,-0.0055976742878556295,-0.00964457634836435,-0.00699245696887374,0,
00:00:02.524,-0.0110850827768445,-0.005584785714745521,0.00413485337048769,0,
00:00:02.528,0.0112484823912382,0.008558627218008041,-0.000929747358895838,0,
00:00:02.532,0.00572467176243663,-0.003980723209679129,-0.0145582314580679,0,
00:00:02.536,0.00798214878886938,0.0165743734687567,0.00925991404801607,0,
00:00:02.54,-0.00676565151661634,-0.00525575410574675,0.0237513538450003,0,
00:00:02.544,-0.00688011012971401,-0.00609417026862502,0.007874184288084509,0,
00:00:02.548,0.0038594212383031797,0.000310443690977991,-0.0205288790166378,0,
00:00:02.552,-0.00237374356947839,-0.00273789069615304,-0.0101282382383943,0,
00:00:02.556,0.00429484015330672,0.000122605793876573,-0.00273693166673183,0,
00:00:02.56,-0.0161172803491354,-0.0123428786173463,0.0104786911979318,0,
00:00:02.564,0.00237690377980471,0.0013688993640244,0.000526059011463076,0,
00:00:02.568,0.0133170876652002,0.0176903251558542,0.0245616622269154,0,
00:00:02.572,0.00972455460578203,0.00743560772389174,-0.029280312359332997,0,
00:00:02.576,0.0014504083665087802,-0.00635120645165443,-0.0169246606528759,0,
00:00:02.58,-0.01521160826087,-0.0026643150486052,0.0155748501420021,0,
00:00:02.584,-0.00306608621031046,0.00557687506079674,0.012021298520267001,0,
00:00:02.588,0.000832488643936813,-0.00622406369075179,0.00315819028764963,0,
00:00:02.592,-0.0005892628687433901,-0.0118144070729613,-0.0054079564288258605,0,
00:00:02.596,0.00101529771927744,-0.00387121108360589,-0.0136908637359738,0,
00:00:02.6,0.00422014389187098,0.00407395325601101,-0.0005896388320252299,0,
00:00:02.604,0.00412809569388628,0.00912631116807461,0.0152089912444353,0,
00:00:02.608,-0.0129750864580274,-0.00481277983635664,0.0180882941931486,0,
00:00:02.612,0.00219962350092828,0.00609112391248345,-0.0103760659694672,0,
00:00:02.616,0.00616794405505061,0.007187668234109879,-0.0239092577248812,0,
00:00:02.62,0.0103420130908489,0.00476450845599175,-0.00733593897894025,0,
00:00:02.624,-0.00335210142657161,-0.00638198060914874,0.0102051794528961,0,
00:00:02.628,-0.0151504622772336,-0.014950405806303002,0.00877111498266459,0,
00:00:02.632,0.0156320072710514,0.00466916942968965,0.00488252937793732,0,
00:00:02.636,-0.006333629600703721,0.000342136569088325,-0.00135378271806985,0,
00:00:02.64,-0.0178892463445663,-0.00837729219347239,-1.9268320102128197e-05,0,
00:00:02.644,0.0100048771128058,0.00858968030661345,-0.00110813148785383,0,
00:00:02.648,0.00906394142657518,0.00361617701128125,-0.00808815192431211,0,
00:00:02.652,0.009810026735067371,0.0015934670809656401,0.00639420095831156,0,
00:00:02.656,-0.0009456024272367359,0.00442786468192935,0.00844796467572451,0,
00:00:02.66,-0.0183819551020861,-0.00462114252150059,-0.0172607954591513,0,
00:00:02.664,-0.00867189653217793,-0.004395812284201379,0.00497058406472206,0,
00:00:02.668,0.00575736491009593,0.00276150484569371,0.0124521814286709,0,
00:00:02.672,0.0114310933277011,0.00332662556320429,-0.0086446376517415,0,
00:00:02.676,0.00637109158560634,-0.00525436131283641,-0.0074946447275579,0,
00:00:02.68,0.0017951624467968897,-0.0037714836653322,-0.00279654772020876,0,
00:00:02.684,-0.006098312325775621,0.0021153874695301104,0.0100503731518984,0,
00:00:02.688,-0.0060909753665328,0.00257857912220061,0.00648153806105256,0,
00:00:02.692,-0.0006792814820073549,-0.0008732037385925651,0.0039437860250473,0,
00:00:02.696,-0.00348423747345805,-0.008537621237337591,-0.0184606872498989,0,
00:00:02.7,0.0026058831717819,0.0066166608594358,0.00641252472996712,0,
00:00:02.704,0.00372254406102002,0.0137247666716576,0.00162535859271884,0,
00:00:02.708,0.00018900382565334399,-0.00101682019885629,-0.0109901428222656,0,
00:00:02.712,0.0043319002725184,-0.00030174924177117597,0.0006246357806958259,0,
00:00:02.716,0.000715961388777941,-0.00963561609387398,0.0177967697381973,0,
00:00:02.72,-0.006854163482785221,-0.0197088997811079,0.00988497491925955,0,
00:00:02.724,-0.00576677825301886,0.00840962305665016,-0.00851779524236918,0,
00:00:02.728,0.00287680979818106,0.0107379844412208,-0.015583822503686,0,
00:00:02.732,0.0110567631199956,0.017264062538743002,-0.00669140182435513,0,
00:00:02.736,-0.000789905432611704,-0.00222327886149287,0.00287754298187792,0,
00:00:02.74,-0.00651724310591817,-0.0186775140464306,0.0050709159113466705,0,
00:00:02.744,-0.00362261803820729,-0.0075395563617348706,0.0247374698519707,0,
00:00:02.748,0.00873613730072975,0.00456416420638561,-0.0178081952035427,0,
00:00:02.752,-0.009489110670983791,0.008914186619222159,0.0045806295238435294,0,
00:00:02.756,0.00608755322173238,0.00226222001947463,-0.0159341935068369,0,
00:00:02.76,0.0040466762147843794,-0.000992762041278183,-0.0126001955941319,0,
00:00:02.764,-0.00527047924697399,0.000173710592207499,0.0198451559990644,0,
00:00:02.768,-0.0101606762036681,-0.00552261201664805,0.0134228114038706,0,
00:00:02.772,0.007864924147725109,-0.00232819654047489,0.00601760018616915,0,
00:00:02.776,0.011485536582768,0.0035932678729295705,-0.0118149118497968,0,
00:00:02.78,-0.0148209286853671,0.00315292412415147,-0.00041027591214515296,0,
00:00:02.784,0.00579750211909413,0.00289751216769218,-0.0135030252858996,0,
00:00:02.788,0.00768381543457508,-0.000905226275790483,-0.00580405257642269,0,
00:00:02.792,-0.00597139913588762,-0.0051970472559332796,0.00176078698132187,0,
00:00:02.796,-0.00328965857625008,-0.0029748633969575197,0.0120884468778968,0,
00:00:02.8,-0.000870676361955702,-0.0017632392700761602,0.0104525666683912,0,
00:00:02.804,-0.00140871515031904,-4.146782430325399e-06,0.00336442980915308,0,
00:00:02.808,0.00315769179724157,0.00574727356433868,-0.007284644991159441,0,
00:00:02.812,0.0025873442646116,0.0128682078793645,-0.0124559178948402,0,
00:00:02.816,0.0005723075591959059,-0.00267915381118655,-0.0046144821681082205,0,
00:00:02.82,0.00113896338734776,-0.0122363241389394,0.0011186812771484301,0,
00:00:02.824,-0.0033397262450307603,-0.00666704308241606,0.0144583070650697,0,
00:00:02.828,-0.006755932699888939,-0.00113816186785698,0.000676242110785097,0,
00:00:02.832,0.0035069501027464897,0.0090295821428299,-0.0009273740579374131,0,
00:00:02.836,0.00856036506593227,0.0128355687484145,-0.00235857139341533,0,
00:00:02.84,2.28388626055676e-06,-0.0028055426664650397,-0.0128011433407664,0,
00:00:02.844,-0.010052296333014998,-0.0117933480069041,0.00636844197288156,0,
00:00:02.848,-0.00813176576048136,-0.00390884466469288,0.0245198253542185,0,
00:00:02.852,0.00903477985411882,0.00360125582665205,0.00180629594251513,0,
00:00:02.856,0.015239248983562,0.0015663373051211199,-0.0368674546480179,0,
00:00:02.86,0.007461168337613341,-0.000778184388764203,-0.00445316499099135,0,
00:00:02.864,-0.0129471616819501,0.0030051595531404,0.0029943592380732302,0,
00:00:02.868,-0.0108466641977429,-0.00203854800201952,0.0101603399962187,0,
00:00:02.872,-0.00907161179929972,0.0102320499718189,0.0125162601470947,0,
00:00:02.876,-0.0117936655879021,0.0022583177778869898,0.00985437911003828,0,
00:00:02.88,0.021056167781353,-0.0182858612388372,-0.0056899511255323896,0,
00:00:02.884,0.0135158998891711,-0.0105080204084516,-0.000591820280533284,0,
00:00:02.888,0.0078568123281002,0.0125736948102713,-0.0178827792406082,0,
00:00:02.892,-0.00530180940404534,0.0118224313482642,0.000224930176045746,0,
00:00:02.896,-0.007149174809455871,0.009775415994226929,0.00462226895615458,0,
00:00:02.9,-0.008814956061542029,-0.0092106256633997,0.0013670272892341,0,
00:00:02.904,-0.0038448628038168,-0.0126703511923552,0.0009693543543107811,0,
00:00:02.908,0.00346380774863064,0.0054051247425377395,-0.0010966813424602199,0,
00:00:02.912,0.006145114079117779,0.00100454792845994,-0.005646606441587211,0,
00:00:02.916,-0.00601848540827632,-0.0145225208252668,0.00141072168480605,0,
00:00:02.92,-0.0038234638050198603,-0.00701837474480271,0.0309858433902264,0,
00:00:02.924,0.00968064367771149,0.0145209962502122,-0.0015225580427795599,0,
00:00:02.928,0.00889880768954754,0.0249484591186047,-0.029279813170433,0,
00:00:02.932,-0.00180051184725016,0.0041743740439415,-0.0123557979241014,0,
00:00:02.936,-0.00577251659706235,-0.0188856162130833,0.0025882392656058103,0,
00:00:02.94,-0.0048959879204630895,-0.0100829470902681,0.0115766022354364,0,
00:00:02.944,-0.00197777291759849,0.00165568687953055,0.00898282788693905,0,
00:00:02.948,0.0006865454488433901,-0.00374331814236939,0.00695826206356287,0,
00:00:02.952,-0.00424907822161913,-0.00158918555825949,-0.0433927215635777,0,
00:00:02.956,0.0161140989512205,0.0145654361695051,0.0345771871507168,0,
00:00:02.96,0.00011594713578233501,0.00885796267539263,0.0263110361993313,0,
00:00:02.964,-0.0120984669774771,-0.0177354458719492,-0.00936859007924795,0,
00:00:02.968,-0.0035250307992100703,-0.00782534386962652,-0.0120477238669991,0,
00:00:02.972,0.006803594063967471,0.00296631408855319,-0.0183750428259373,0,
00:00:02.976,-0.0035832535941153795,0.009597004391252991,-0.005487236194312571,0,
00:00:02.98,0.0121768089011312,0.0104076946154237,0.0019552246667444697,0,
00:00:02.984,0.0020418229978531603,0.00284329475834966,0.0075478102080524,0,
00:00:02.988,-0.0115652959793806,-0.00830185879021883,0.00168287672568113,0,
00:00:02.992,-0.00292096822522581,-0.0132867908105254,0.00217705685645342,0,
00:00:02.996,-0.00129458517767489,-0.0110721355304122,0.0111597776412964,0,
00:00:03,0.0141677558422089,0.0156789999455214,0.015021251514553998,0,
00:00:03.004,-0.0337062254548073,0.0141454469412565,-0.000757328583858907,0,
00:00:03.008,0.0204777400940657,-0.00266400561667979,-0.0228478349745274,0,
00:00:03.012,0.0156446024775505,-0.0136323934420943,-0.0268197357654572,0,
00:00:03.016,0.00138025521300733,-0.0057115382514894,0.00117907125968486,0,
00:00:03.02,0.000701704528182745,0.0094613553956151,0.0257309563457966,0,
00:00:03.024,-0.008166565559804441,0.00712961051613092,0.0118015492334962,0,
00:00:03.028,-0.0106977475807071,-0.00134378368966281,-0.00423201825469732,0,
00:00:03.032,-0.0044290809892118,-0.0015014321543276301,-0.0062755411490798,0,
00:00:03.036,-3.35679669660749e-06,-0.0087226303294301,0.00908853858709335,0,
00:00:03.04,0.00915869511663914,0.00158968195319176,-0.0182815976440907,0,
00:00:03.044,0.00840688496828079,0.007944782264530659,0.00165758410003036,0,
00:00:03.048,-0.011521814391017,-0.0015841460553929199,0.011791299097239999,0,
00:00:03.052,-0.000781637616455555,-0.0051062116399407395,-0.0089311758056283,0,
00:00:03.056,0.0166883524507284,0.000540884910151362,-0.021776869893073997,0,
00:00:03.06,-0.005634906236082321,0.00199947995133698,0.02444077283144,0,
00:00:03.064,-0.0060850083827972395,0.00554016791284084,0.0255858320742846,0,
00:00:03.068,-0.00968344882130623,-0.0057690218091011,-0.000164686745847575,0,
00:00:03.072,0.0013714820379391302,-0.0039215493015945,-0.025469932705163997,0,
00:00:03.076,0.0311554912477732,-0.0016391434473916901,-0.0184619259089231,0,
00:00:03.08,-0.0160591825842857,0.00484893331304193,0.00974638480693102,0,
00:00:03.084,-0.0194283258169889,0.0127185545861721,0.0174541100859642,0,
00:00:03.088,-0.000553065678104758,-0.0023262316826731,-0.007819753140211109,0,
00:00:03.092,0.0076030925847589996,-0.0138011509552598,-0.0152740534394979,0,
00:00:03.096,0.00558172957971692,-0.00221811421215534,0.010018858127296,0,
00:00:03.1,0.00785903539508581,0.0111529249697924,0.0174036771059036,0,
00:00:03.104,-0.000614829419646412,-0.00431916583329439,-0.0103305447846651,0,
00:00:03.108,-0.00406476436182857,-0.0127006135880947,-0.00392460869625211,0,
00:00:03.112,-0.00385542120784521,0.0013365823542699198,0.0170582067221403,0,
00:00:03.116,-0.0123058520257473,0.0150542054325342,-0.00349278631620109,0,
00:00:03.12,0.0161581821739674,0.0169307645410299,-0.0195248071104288,0,
00:00:03.124,0.0034629765432328,-0.00485796667635441,-0.00724305445328355,0,
00:00:03.128,-0.00687791174277663,-0.0191519651561975,-0.00046149824629537805,0,
00:00:03.132,0.00625119125470519,-0.010715376585721999,0.0162597857415676,0,
00:00:03.136,-0.00715808104723692,0.00521818920969963,0.006150870583951471,0,
00:00:03.14,-0.00295257312245667,0.00569987716153264,-0.00845183432102203,0,
00:00:03.144,0.000477805850096047,0.0045057376846671104,0.0048995977267622896,0,
00:00:03.148,0.00414437195286155,0.00214972742833197,0.0116681279614568,0,
00:00:03.152,1.43246597872349e-05,-0.00012243540550116398,-0.00915232021361589,0,
00:00:03.156,-0.00268949149176478,-0.00351100764237344,-0.012457593344152,0,
00:00:03.16,-0.00027993915136903503,0.000349623296642676,-0.0043285922147333605,0,
00:00:03.164,0.00799707602709532,0.00680381478741765,0.00537994224578142,0,
00:00:03.168,0.000260046392213553,-0.0039685214869678,0.0104504507035017,0,
00:00:03.172,-0.0140611045062542,-0.0136970384046435,-0.00477894861251116,0,
00:00:03.176,0.00192180799786001,-0.009242900647223,-0.0118025122210383,0,
00:00:03.18,0.018605675548315,0.0209748577326536,0.0273822695016861,0,
00:00:03.184,-0.00344913988374174,0.0207327846437693,-0.0040918188169598605,0,
00:00:03.188,-0.023447135463357003,-0.0036664216313511103,-0.00929755996912718,0,
00:00:03.192,0.00999238342046738,-0.013536486774683,-0.017590593546628997,0,
00:00:03.196,0.0107612544670701,-0.0137424720451236,0.0033452278003096602,0,
00:00:03.2,0.00650547863915563,-0.00881756749004126,0.00968090444803238,0,
00:00:03.204,-0.0246490798890591,-0.0049356445670127895,0.0115087479352951,0,
00:00:03.208,0.00482910173013806,0.0179175548255444,0.0023749726824462396,0,
00:00:03.212,0.00499305035918951,0.0199452303349972,0.00118135963566601,0,
00:00:03.216,0.00817563477903605,0.007230453658849,-0.0149819832295179,0,
00:00:03.22,0.0021204126533120897,-0.00933045614510775,-0.0159157980233431,0,
00:00:03.224,-0.00536768278107047,-0.0171070750802755,0.008058045990765091,0,
00:00:03.228,-0.00916102435439825,-0.00859901309013367,0.0111079066991806,0,
00:00:03.232,0.0041579264216125,0.0077165379188954795,-0.00049235369078815,0,
00:00:03.236,0.00430437317118049,0.0049569783732295,0.0035400625783950103,0,
00:00:03.24,0.000925255124457181,-0.00645812088623643,-0.00289358128793538,0,
00:00:03.244,-0.00987590756267309,0.00349359819665551,0.006462631747126579,0,
00:00:03.248,-0.00250724656507373,0.00945848319679499,0.0006442995509132741,0,
00:00:03.252,0.0173621885478497,0.00308286095969379,-0.007085875142365691,0,
00:00:03.256,0.00119658908806741,-0.005445862654596571,-0.0123394625261426,0,
00:00:03.26,-0.00735406950116158,-0.00574103044345975,0.00195815111510456,0,
00:00:03.264,-0.0012770916800946,-0.00263891206122935,0.0107297003269196,0,
00:00:03.268,-0.00495183421298862,0.0025769791100174197,-0.004880107473582029,0,
00:00:03.272,0.00497915036976337,0.00221252511255443,0.0045355083420872706,0,
00:00:03.276,0.0026823861990124,-0.00359870586544275,-0.00679635861888528,0,
00:00:03.28,-0.0136096272617579,-0.00493118306621909,0.00570613238960505,0,
00:00:03.284,0.00494215404614806,0.012449324131012,0.0367003493010998,0,
00:00:03.288,0.00964751094579697,0.00241527915932238,-0.0242788400501013,0,
00:00:03.292,0.00380914774723351,-0.000608218018896878,-0.0310117639601231,0,
00:00:03.296,-0.00430694362148643,-0.005683005787432189,-0.011601286008954,0,
00:00:03.3,-0.0110159236937761,0.00010854192805709301,0.0282055642455816,0,
00:00:03.304,0.0036837819498032297,-0.00255940435454249,-0.00419796910136938,0,
00:00:03.308,0.0135843968018889,-0.0160364434123039,-0.0115710878744721,0,
00:00:03.312,-0.00984426494687796,0.0121379932388663,0.0408389121294022,0,
00:00:03.316,-0.00141174951568246,0.0170939657837152,0.00455680303275585,0,
00:00:03.32,0.000473739928565919,0.004600640386343,-0.0183372274041176,0,
00:00:03.324,-0.00176924373954535,-0.0125263314694166,-0.0104010691866279,0,
00:00:03.328,-0.00222916738130152,-0.0078251464292407,-0.0121781080961227,0,
00:00:03.332,0.00340048596262932,-0.00406407145783305,0.00209672143682837,0,
00:00:03.336,0.0013213579077273599,0.00398361962288618,0.004394585266709329,0,
00:00:03.34,0.00323560182005167,0.00286882417276502,0.00113267591223121,0,
00:00:03.344,0.000921007362194359,0.00469315983355045,0.0120009239763021,0,
00:00:03.348,0.000664966646581888,0.00798179022967815,-0.00132625072728842,0,
00:00:03.352,-0.00627963710576296,-0.00718005932867527,-0.00375444814562798,0,
00:00:03.356,0.000737123307771981,-0.00743197789415717,0.0019171492895111398,0,
00:00:03.36,0.00102000345941633,-0.0046753422357142,-7.91536658653058e-05,0,
00:00:03.364,-0.00634503643959761,0.00159370945766568,-0.008531885221600529,0,
00:00:03.368,-0.0010174270719289801,0.00908170361071825,0.0074971346184611294,0,
00:00:03.372,0.0103031322360039,0.0046849986538291,0.00169569498393685,0,
00:00:03.376,0.00542516214773059,-0.00734296999871731,-0.0107725895941257,0,
00:00:03.38,0.00047927678679116103,0.00190798041876405,-0.005745403002947571,0,
00:00:03.384,-0.0153451403602958,0.00122030125930905,0.0125630591064692,0,
00:00:03.388,0.00170920614618808,-0.005301010329276321,0.0110574746504426,0,
00:00:03.392,-0.0059398338198661796,-0.000267389230430126,-0.0035652793012559397,0,
00:00:03.396,0.0162064991891384,-0.00253550475463271,-0.00670329993590713,0,
00:00:03.4,0.00182806374505162,0.0055208052508533,-0.012621708214283002,0,
00:00:03.404,-0.003991795703768729,0.00816435180604458,0.00715548498556018,0,
00:00:03.408,-0.00223246077075601,0.00253122695721686,0.0165220517665148,0,
00:00:03.412,-0.0083035621792078,-0.0135015780106187,-0.0132375778630376,0,
00:00:03.416,0.00449647661298513,-0.0121269524097443,-0.00046637444756925095,0,
00:00:03.42,0.00044923965469934003,0.00715901190415025,0.0167287196964026,0,
00:00:03.424,0.0051176254637539395,0.0053444430232048,-0.0209986381232738,0,
00:00:03.428,-0.000263301597442478,0.006657688878476621,0.00020629761274904,0,
00:00:03.432,-0.00190239190123975,0.0068410816602408895,0.00450526643544436,0,
00:00:03.436,-0.0015426060417667,0.0029144238214939802,-0.0118601974099874,0,
00:00:03.44,0.00361558166332543,-0.00420021312311292,0.00147112656850368,0,
00:00:03.444,-0.0057370066642761204,-0.017798513174057,0.020052207633853,0,
00:00:03.448,-0.00276103150099516,-0.0128125110641122,0.00981017202138901,0,
00:00:03.452,-0.00036035873927176,0.000789995421655476,-0.005820814520120621,0,
00:00:03.456,0.009761005640029909,0.0180702824145556,-0.00619251141324639,0,
00:00:03.46,0.00679853092879057,0.0154240923002362,-0.00938331428915262,0,
00:00:03.464,-0.0101973293349147,0.00269411155022681,-0.00743436440825462,0,
00:00:03.468,0.0012603985378518698,-0.00470282370224595,-0.00410102074965835,0,
00:00:03.472,-0.0036637238226831,-0.0152851976454258,0.00914444960653782,0,
00:00:03.476,-0.00624549249187112,-0.0163442641496658,0.0113244038075209,0,
00:00:03.48,0.00458665704354644,0.0134716890752316,-2.66642400674755e-05,0,
00:00:03.484,0.00541085004806519,0.0152207957580686,0.00546528398990631,0,
00:00:03.488,0.00030741703812964304,0.0018179356120526801,-0.0122360093519092,0,
00:00:03.492,0.00130262027960271,-0.0095408009365201,-0.00550543330609798,0,
00:00:03.496,-0.0067229042761027796,-0.000301499007036909,0.00308389472775161,0,
00:00:03.5,0.0207217615097761,-0.00853669736534357,0.0103148072957993,0,
00:00:03.504,-0.0189208388328552,-0.0018021438736468601,-0.0080052986741066,0,
00:00:03.508,-0.009701895527541641,0.0109759196639061,-0.00319683784618974,0,
00:00:03.512,0.000936929136514664,0.00670775026082993,0.0096329478546977,0,
00:00:03.516,0.0126338358968496,-0.004685340914875271,-0.00483553390949965,0,
00:00:03.52,0.00244758184999228,-0.0027474621310830103,-0.006260521709918979,0,
00:00:03.524,-0.00171410082839429,0.000577262602746487,0.00611594272777438,0,
00:00:03.528,0.00589432660490274,-0.00038236140972003303,0.0024001777637749897,0,
00:00:03.532,-0.0115027707070112,-0.00545495701953769,-0.00438214046880603,0,
00:00:03.536,-0.0173997655510902,-0.00135309796314687,0.00881902035325766,0,
00:00:03.54,0.00698795542120934,0.00689999386668205,-0.010155594907701,0,
00:00:03.544,0.0303569976240397,-4.6477191062877e-05,0.00487692421302199,0,
00:00:03.548,-0.00222659227438271,0.0055381003767252,-0.00119234411977232,0,
00:00:03.552,-0.009121779352426529,-0.00167519284877926,-0.00392584083601832,0,
00:00:03.556,-0.00835798867046833,-0.00834907311946154,-0.0006924338522367179,0,
00:00:03.56,-0.00190814537927508,-0.0034501624759286603,0.008388605900108809,0,
00:00:03.564,-0.0015863977605477,0.00626990990713239,0.0051648668013513106,0,
00:00:03.568,-0.000922077044378966,0.000430973683251068,-0.0152740580961108,0,
00:00:03.572,0.00686794333159924,0.004341080319136379,-0.0030084217432886397,0,
00:00:03.576,0.000246074516326189,-0.00937494542449713,0.00414788769558072,0,
00:00:03.58,0.0018726653652265698,0.00552513310685754,0.0159366931766272,0,
00:00:03.584,0.0026505759451538303,0.00909060146659613,0.00390471261925995,0,
00:00:03.588,-0.00288301892578602,-0.00153771857731044,-0.021863516420126,0,
00:00:03.592,-0.0052029499784112,-0.0101836500689387,-0.0109925344586372,0,
00:00:03.596,-0.00144469062797725,-0.00126379379071295,0.00832861009985209,0,
00:00:03.6,0.00401860289275646,0.00338822393678129,0.0134577713906765,0,
00:00:03.604,0.00304957828484476,-0.0026491095777601,0.0231115613132715,0,
00:00:03.608,0.00462742010131478,-0.0050873183645308,-0.0213750824332237,0,
00:00:03.612,-0.0031822316814214,0.00765465386211872,-0.0250234752893448,0,
00:00:03.616,-0.009032684378325941,0.0017727731028571699,-0.010108819231390998,0,
00:00:03.62,-0.0031950697302818303,0.00458344165235758,0.0429770015180111,0,
00:00:03.624,0.006992258131504061,-0.00589917926117778,0.0172351710498333,0,
00:00:03.628,-0.000971415254753083,-0.00354020926170051,-0.0318581871688366,0,
00:00:03.632,0.00457919621840119,0.00904188584536314,-0.0018459603888914,0,
00:00:03.636,0.00668199406936765,0.00529189733788371,-0.0120071358978748,0,
00:00:03.64,-0.00680625485256314,-0.00780651532113552,0.0159570258110762,0,
00:00:03.644,0.00237152283079922,-0.0119691174477339,-0.00472178077325225,0,
00:00:03.648,-0.009117953479290009,-0.000962261401582509,0.00575699796900153,0,
00:00:03.652,-0.00226524355821311,0.00496536726132035,-0.0007326204213313759,0,
00:00:03.656,0.000374569703126326,-0.000545396411325783,-0.00129335618112236,0,
00:00:03.66,0.00579594448208809,0.00924288015812635,0.0079778591170907,0,
00:00:03.664,0.00853496883064508,0.0052673676982522,-0.00128944485913962,0,
00:00:03.668,-0.0050552138127386605,0.00514034135267138,-0.0140987420454621,0,
00:00:03.672,-0.0153616638854146,-0.0167774558067322,-0.00141038617584854,0,
00:00:03.676,0.0169712342321873,0.0026614062953740397,0.00026059150695800803,0,
00:00:03.68,0.00400711130350828,-0.00183511164505035,0.00887603778392076,0,
00:00:03.684,-0.00326643628068268,-0.00585877103731036,0.0122273284941912,0,
00:00:03.688,-0.00499672489240766,-0.00225375755690038,0.0028609172441065303,0,
00:00:03.692,0.0008329098927788441,0.008539255708456041,-0.0201280787587166,0,
00:00:03.696,-0.00670488504692912,0.0069213188253343105,-0.0131917456164956,0,
00:00:03.7,-0.00629312638193369,0.0036855130456388,0.00652653584256768,0,
00:00:03.704,0.0173740684986115,-0.00237152772024274,0.0153122106567025,0,
00:00:03.708,0.006535436958074571,-0.00527890911325812,0.00544636556878686,0,
00:00:03.712,-0.0205774661153555,-0.0127762770280242,-0.0018986621871590601,0,
00:00:03.716,0.00175079703330994,0.00404444755986333,-0.00279878033325076,0,
00:00:03.72,0.00902310572564602,0.0072398465126752905,-0.0082940673455596,0,
00:00:03.724,0.00037284733843989703,0.00430685933679342,-0.00573442364111543,0,
00:00:03.728,-0.0013964398531243199,0.00241061043925583,0.01196856983006,0,
00:00:03.732,0.007433888036757709,6.19603670202196e-05,0.00197173422202468,0,
00:00:03.736,-0.00800631567835808,-0.00397217739373446,-0.0068688658066093896,0,
00:00:03.74,-0.00424831500276923,-0.0110832387581468,0.0007212592172436419,0,
00:00:03.744,0.005816807970404621,-0.00320122297853231,-0.0087384432554245,0,
00:00:03.748,-0.0103373359888792,0.00658787321299315,0.00419861590489745,0,
00:00:03.752,0.0032060039229691,0.00709006283432245,0.0116331446915865,0,
00:00:03.756,0.00165612529963255,-0.00280707771889865,0.00708826025947928,0,
00:00:03.76,0.00731533952057362,0.00337401404976845,-0.000394572271034122,0,
00:00:03.764,0.00750109134241939,0.0105340639129281,-0.0115412762388587,0,
00:00:03.768,-0.009689119644463059,-0.0105998618528247,-0.00436963699758053,0,
00:00:03.772,-0.00532323447987437,-0.00696789240464568,-0.00346676143817604,0,
00:00:03.776,0.0056197219528257795,0.0026687600184232,-0.00595598109066486,0,
00:00:03.78,0.00029208351043053,0.00239181029610336,0.00889185443520546,0,
00:00:03.784,-0.00641392357647419,0.00423104735091329,0.00213717529550195,0,
00:00:03.788,-0.000275021855486557,-0.00933890417218208,0.0149338971823454,0,
00:00:03.792,0.00243512890301645,-0.00464462442323565,-0.00711966818198562,0,
00:00:03.796,-0.00371389533393085,0.0023787014652043603,-0.0042235660366714,0,
00:00:03.8,0.0072189113125205,0.00971420295536518,-0.00489297369495034,0,
00:00:03.804,0.0152658205479383,0.0048099611885845705,0.00267362082377076,0,
00:00:03.808,-0.0122369583696127,-0.00141442217864096,-0.00240918342024088,0,
00:00:03.812,-0.0055294814519584205,-0.0106960004195571,0.0013989673461765099,0,
00:00:03.816,-0.017234530299902,-0.000213999490370043,-0.00449136411771178,0,
00:00:03.82,0.0110390353947878,0.000915066979359835,0.0046682273969054205,0,
00:00:03.824,0.0121996803209186,0.008616292849183079,0.0109432367607951,0,
00:00:03.828,0.000204486103029922,0.00475054932758212,0.00181663664989173,0,
00:00:03.832,-0.000764590280596167,-0.0178488790988922,-0.0329476743936539,0,
00:00:03.836,-0.0021540322341024897,-0.00547733483836055,0.0201432015746832,0,
00:00:03.84,-0.000299001636449248,0.0159333683550358,0.00851409044116735,0,
00:00:03.844,-0.00349772092886269,0.00737687526270747,-1.08785534393974e-05,0,
00:00:03.848,-0.00404717680066824,-0.00163996848277748,0.00232022721320391,0,
00:00:03.852,0.00235308962874115,-0.0120608825236559,-0.009899947792291641,0,
00:00:03.856,0.00542514538392425,0.0006708833971060809,-0.0132273398339748,0,
00:00:03.86,-7.86965611041524e-05,-0.00150035263504833,0.00956187769770622,0,
00:00:03.864,-0.0036275109741836795,0.00307633588090539,0.000608523609116673,0,
00:00:03.868,-0.00127485848497599,0.00495065096765757,0.00780207850039005,0,
00:00:03.872,0.0053695021197199795,0.00321265938691795,-0.00290078925900161,0,
00:00:03.876,0.0022158105857670303,-0.0082357469946146,-0.00448846165090799,0,
00:00:03.88,-0.00587044423446059,-0.00686392141506076,0.0187792591750622,0,
00:00:03.884,-0.00135794980451465,0.007121828384697441,-0.00223011150956154,0,
00:00:03.888,0.0007540424121543769,0.00790848676115274,-0.0173761360347271,0,
00:00:03.892,0.0033121390733867897,-0.0032790747936815,-0.0162011161446571,0,
00:00:03.896,-0.0031968255061656198,-0.004427429288625721,0.000826380215585232,0,
00:00:03.9,0.0005748766707256441,-0.00193122180644423,0.0182296149432659,0,
00:00:03.904,0.0012545798672363199,-0.0014843833632767198,0.0233553592115641,0,
00:00:03.908,0.0006493862019851799,0.00578700611367822,-0.0120149962604046,0,
00:00:03.912,-0.0021854809019714603,-0.000870527233928442,-0.0223355647176504,0,
00:00:03.916,-0.000615265453234315,-0.00296984589658678,0.0130084687843919,0,
00:00:03.92,0.0072593432851135705,0.00854647718369961,0.0117159644141793,0,
00:00:03.924,-0.00239856983534992,0.0007754099206067621,-0.00962664652615786,0,
00:00:03.928,-0.00394653622061014,-0.0101341903209686,-0.00326860253699124,0,
00:00:03.932,0.0020946059376001397,-0.00472988607361913,-0.0188751332461834,0,
00:00:03.936,-0.007879638113081459,0.0105334175750613,0.00187267560977489,0,
00:00:03.94,0.00421463046222925,0.009801855310797691,0.0207038503140211,0,
00:00:03.944,-0.0037565005477517796,-0.0141432825475931,0.0059403278864920105,0,
00:00:03.948,0.00923829339444637,-0.0132499858736992,0.0257297717034817,0,
00:00:03.952,0.00111671537160873,0.0072657885029912,-0.0377690307796001,0,
00:00:03.956,0.00253609544597566,0.0165509544312954,-0.0252713095396757,0,
00:00:03.96,-0.0036692158319056,0.00371282547712326,0.0226161554455757,0,
00:00:03.964,-0.00215079030022025,-0.00714504765346646,0.0163396615535021,0,
00:00:03.968,-0.00618936633691192,-0.0053291842341423,-0.0063776220194995395,0,
00:00:03.972,0.00260859169065952,-0.00740990554913878,-0.00552827725186944,0,
00:00:03.976,-0.0010630267206579401,-0.00521533749997616,-0.0105289872735739,0,
00:00:03.98,0.00714046414941549,0.0184175055474043,0.0105335712432861,0,
00:00:03.984,-0.00131735461764038,0.00487176515161991,0.00427083950489759,0,
00:00:03.988,-0.00664602359756827,-0.0145920673385262,0.010898370295763,0,
00:00:03.992,0.00491846818476915,-0.00508369319140911,-0.00497437035664916,0,
00:00:03.996,0.00166248553432524,0.0116213448345661,-0.0179284326732159,0,
00:00:04,-0.00030108261853456497,0.00242722290568054,-0.00506739318370819,0,
00:00:04.004,-0.00103089865297079,-0.0018820670666173103,0.00485837692394853,0,
00:00:04.008,-0.000904030224774033,-0.000638991652522236,0.0100635923445225,0,
00:00:04.012,0.00166816718410701,0.00252630678005517,0.0017589016351848802,0,
00:00:04.016,-0.0060637746937573,-0.00789514370262623,-0.00216026999987662,0,
00:00:04.02,0.00469278777018189,-0.0106985298916698,0.00787291768938303,0,
00:00:04.024,-0.000628438720013946,0.000914513773750514,0.00977775454521179,0,
00:00:04.028,-0.00036414634087123,0.0150675438344479,-0.0150754395872355,0,
00:00:04.032,0.0028060614131391,0.0114697236567736,-0.0113077331334352,0,
00:00:04.036,0.00115737679880112,-5.65402624488343e-05,-0.00954097975045443,0,
00:00:04.04,0.00115199130959809,-0.0095715643838048,0.00895735714584589,0,
00:00:04.044,-0.00167994073126465,-0.00420882413163781,0.00830036774277687,0,
00:00:04.048,-0.0050268298946321,-0.00500182434916496,0.0069833458401262795,0,
00:00:04.052,-0.00645388290286064,-0.007899910211563109,-0.00309679075144231,0,
00:00:04.056,0.00287521397694945,0.00345206959173083,-0.00558712845668197,0,
00:00:04.06,0.0140642672777176,0.00995861832052469,0.00070580979809165,0,
00:00:04.064,-0.0037077732849866204,0.0085186492651701,0.00839344691485167,0,
00:00:04.068,-0.00548945693299174,-0.00337811908684671,-0.000525341834872961,0,
00:00:04.072,0.00413440354168415,-0.00281711830757558,-0.00694394716992974,0,
00:00:04.076,-0.00693160807713866,0.0037293951027095296,0.00359694729559124,0,
00:00:04.08,0.00344063434749842,-0.0158464759588242,-0.0207988917827606,0,
00:00:04.084,0.000938513840083033,0.004579178523272279,0.00560442125424743,0,
00:00:04.088,0.00414800690487027,0.00449072802439332,0.0203034728765488,0,
00:00:04.092,-0.00623317575082183,0.000329592352500185,-0.0062379464507103,0,
00:00:04.096,-0.00974758062511683,0.00222534453496337,0.00261867209337652,0,
00:00:04.1,0.0112415002658963,0.000634742260444909,0.007091931998729709,0,
00:00:04.104,0.0106473313644528,-0.00313186109997332,-0.00407768925651908,0,
00:00:04.108,-0.0036248231772333397,0.0024165699724108,-0.0102410474792123,0,
00:00:04.112,-0.008652685210108759,0.000543019792530686,-0.0165664181113243,0,
00:00:04.116,-4.58001595688984e-05,-0.0017210019286721901,0.0140153085812926,0,
00:00:04.12,-0.000850358919706196,-0.00844953116029501,-0.000149870626046322,0,
00:00:04.124,0.00035271447268314703,0.0004988631117157639,0.0100090689957142,0,
00:00:04.128,0.0013164534466341099,0.00893867015838623,0.00486525427550077,0,
00:00:04.132,0.00138766842428595,0.00477915909141302,-0.00835562963038683,0,
00:00:04.136,0.000805821793619543,0.00105680176056921,-0.00369469379074872,0,
00:00:04.14,7.845359505154191e-05,-0.0100880572572351,0.00200673495419323,0,
00:00:04.144,-0.00248681125231087,-0.00551791395992041,0.005812761373817921,0,
00:00:04.148,0.00143665133509785,0.00332317338325083,-0.00603442545980215,0,
00:00:04.152,0.00125093734823167,0.00271018710918725,-0.00025227913283742997,0,
00:00:04.156,3.60782541974913e-05,0.004745046142488721,-0.0038007791154086603,0,
00:00:04.16,-0.00285427761264145,0.00182759179733694,-0.00035317798028700097,0,
00:00:04.164,0.00110380782280117,0.000838792824652046,0.008949777111411091,0,
00:00:04.168,0.00738150719553232,-0.00659513892605901,0.00358781637623906,0,
00:00:04.172,-0.00575702637434006,0.000281283486401662,-0.0109859388321638,0,
00:00:04.176,-0.007542063482105729,-0.00139180093538016,-0.00545612117275596,0,
00:00:04.18,0.00286010117270052,-0.00241243583150208,0.008610412478446959,0,
00:00:04.184,0.0038940520025789703,0.007013437803834679,0.0144666889682412,0,
00:00:04.188,-0.0148889403790236,0.00107720075175166,-0.00980529375374317,0,
00:00:04.192,0.0112277204170823,-0.0103392507880926,-0.0143646998330951,0,
00:00:04.196,0.0302577093243599,0.00340022332966328,-0.007407177705317741,0,
00:00:04.2,-0.0165289491415024,0.01139653660357,0.0037826148327440006,0,
00:00:04.204,-0.0144912526011467,-0.0056800250895321395,0.0280486159026623,0,
00:00:04.208,-0.008181356824934479,-0.007845163345336909,0.000916602206416428,0,
00:00:04.212,-0.000758796813897789,0.00286075891926885,0.00397179322317243,0,
00:00:04.216,0.0147308986634016,0.00398519122973084,-0.0032408197876066,0,
00:00:04.22,0.00632123788818717,0.00580704072490335,-0.0252330675721169,0,
00:00:04.224,0.007058647461235521,-0.004628005903214221,-0.0261251647025347,0,
00:00:04.228,-0.0249973237514496,-0.00497916294261813,0.0127340704202652,0,
00:00:04.232,-0.00515263713896275,-0.00388394924812019,0.0258238352835178,0,
00:00:04.236,0.0131905227899551,0.005131996702402829,0.0123253203928471,0,
00:00:04.24,0.00771794095635414,-0.0001511780283181,0.00354365934617817,0,
00:00:04.244,0.0011542099528014699,0.0023854509927332397,-0.0093676932156086,0,
00:00:04.248,-0.00292699947021902,0.00554014509543777,-0.0215478558093309,0,
00:00:04.252,-0.00174378964584321,-0.0021422766149044,0.00332537852227688,0,
00:00:04.256,-0.00867316871881485,-0.0127056101337075,0.0096410121768713,0,
00:00:04.26,-0.00246611726470292,-0.0014535408699885,-0.00407817447558045,0,
00:00:04.264,0.0120193343609571,0.00971473287791014,0.00631409510970116,0,
00:00:04.268,0.00392377423122525,0.00876588094979525,0.000565371359698474,0,
00:00:04.272,-0.00450819963589311,0.0026750843971967697,-0.0107800094410777,0,
00:00:04.276,-0.00880795624107122,-0.00909998454153538,0.00103642628528178,0,
00:00:04.28,0.0083546070381999,-0.0076088635250926,0.0112095046788454,0,
00:00:04.284,-0.00599643681198359,-0.00203850003890693,-0.00198700209148228,0,
00:00:04.288,-0.000756043067667633,0.000290013354970142,0.000348369823768735,0,
00:00:04.292,0.00681339483708143,0.00582069531083107,0.0005528393667191269,0,
00:00:04.296,0.007481220643967391,0.00456853769719601,-0.0149946557357907,0,
00:00:04.3,-0.00948094204068184,0.0032846054527908603,0.0020135189406573803,0,
00:00:04.304,-0.0111626507714391,-0.007548842113465071,0.0134460953995585,0,
00:00:04.308,0.0057800989598035795,-2.2397111024474698e-05,0.009953448548913,0,
00:00:04.312,0.00946527719497681,0.0033712110016495,-0.0215840693563223,0,
00:00:04.316,0.00125727418344468,0.0006077866419218481,-0.000394698232412338,0,
00:00:04.32,-0.0026377912145108,-0.00398754887282848,0.009673859924077991,0,
00:00:04.324,-0.00314976391382515,-0.00249520828947425,-0.00180764170363545,0,
00:00:04.328,0.000219412686419673,0.00434045167639852,0.0100743565708399,0,
00:00:04.332,-0.00428195809945464,-0.0021681331563741,-0.0182319805026054,0,
00:00:04.336,-0.0009135084110312161,-0.00348374294117093,-0.0129221770912409,0,
00:00:04.34,0.00452588405460119,-0.00564547115936875,0.0173060707747936,0,
00:00:04.344,0.00964979734271765,0.00919040478765965,0.0270512811839581,0,
00:00:04.348,-0.009477825835347179,0.0184798911213875,-0.011157532222568997,0,
00:00:04.352,-0.00446474691852927,-0.00794050190597773,-0.0117679750546813,0,
00:00:04.356,0.011113416403532,-0.00915446411818266,-0.0137294679880142,0,
00:00:04.36,-0.0067596691660583,-0.00333272758871317,0.00201628310605884,0,
00:00:04.364,-0.013726775534451001,-0.00483993347734213,0.011299479752779,0,
00:00:04.368,0.00814596749842167,0.00256154593080282,0.0040120263583958106,0,
00:00:04.372,0.0186092406511307,0.00653164554387331,-0.00713169947266579,0,
00:00:04.376,0.000811009318567812,-0.0029896502383053303,0.00318406941369176,0,
00:00:04.38,-0.00990122556686401,0.00316972541622818,-0.0015250388532877,0,
00:00:04.384,-0.008287377655506129,0.008469340391457079,0.0035853304434567703,0,
00:00:04.388,-0.000555799342691898,-0.00621917424723506,0.00112873886246234,0,
00:00:04.392,-0.0020319523755461,-0.00885799713432789,-0.0183585211634636,0,
00:00:04.396,0.00413552625104785,-0.0025567114353179897,0.0152162276208401,0,
00:00:04.4,0.00456690089777112,0.005095998290926221,0.0114220790565014,0,
00:00:04.404,-0.0039301891811192,0.0028082856442779303,-0.0129138370975852,0,
00:00:04.408,0.00987511780112982,0.0079873763024807,0.0041976273059845,0,
00:00:04.412,0.00351032568141818,-0.00316899665631354,0.008179628290236,0,
00:00:04.416,-0.0125980479642749,-0.0051456619985401604,-0.0212664101272821,0,
00:00:04.42,-0.00119324889965355,-0.00297544989734888,-0.00382351968437433,0,
00:00:04.424,-0.00478022312745452,-0.00430058315396309,0.0143498368561268,0,
00:00:04.428,0.006995823699980971,0.00759243173524737,0.006264769006520511,0,
00:00:04.432,0.00102605216670781,-0.00101105426438153,-0.00548478402197361,0,
00:00:04.436,0.00431586150079966,0.00588154979050159,-0.00896621495485306,0,
00:00:04.44,-0.0014763631625101,0.00588634936138988,0.0030507759656757103,0,
00:00:04.444,-0.000712557870429009,-0.008868971839547159,0.00519189797341824,0,
00:00:04.448,-0.005877563729882239,-0.0138945570215583,-0.0033528837375342803,0,
00:00:04.452,4.00462295147008e-06,0.00623489404097199,0.0120466938242316,0,
00:00:04.456,0.00424295151606202,0.0140415262430906,-0.00492751877754927,0,
00:00:04.46,-0.00412426609545946,-0.00487921247258782,-0.00445133727043867,0,
00:00:04.464,0.00319638079963624,-0.014617501758039,0.0015215426683425901,0,
00:00:04.468,0.005008114036172629,0.0078917033970356,-0.008657136000692841,0,
00:00:04.472,0.000585840898565948,0.00420846324414015,-0.000536054896656424,0,
00:00:04.476,-0.00082821655087173,0.00404874794185162,0.00416852813214064,0,
00:00:04.48,-0.0117325410246849,0.0024146353825926802,0.00462782382965088,0,
00:00:04.484,-0.00402654893696308,-0.00856023374944925,0.00667418213561177,0,
00:00:04.488,0.00848413165658712,0.0013895466690883,-0.008126126602292059,0,
00:00:04.492,0.0115723833441734,-0.000789176439866424,0.00527084851637483,0,
00:00:04.496,0.000245936476858333,0.0012630564160645,0.00546675780788064,0,
00:00:04.5,-0.007414192892611029,-0.00204793293960392,-0.0182014442980289,0,
00:00:04.504,-0.0139299985021353,-0.00317015475593507,0.00558477360755205,0,
00:00:04.508,0.00869914516806602,0.0025218694936484103,-0.0033481759019196,0,
00:00:04.512,0.00442933337762952,0.00300848623737693,-0.00927216932177544,0,
00:00:04.516,0.00388577952980995,-0.0006929578376002611,0.00847054645419121,0,
00:00:04.52,0.000139480616780929,0.00165756139904261,0.0103154219686985,0,
00:00:04.524,-0.000399323937017471,0.00254193926230073,0.0132455611601472,0,
00:00:04.528,-0.0027692946605384398,-0.000860114931128919,-0.000624234671704471,0,
00:00:04.532,-0.00741546787321568,-0.00713115138933063,-0.0166425947099924,0,
00:00:04.536,0.00203450606204569,0.0012020587455481302,-0.0135564850643277,0,
00:00:04.54,0.00325627159327269,-0.00201760861091316,0.0006504439515993,0,
00:00:04.544,-0.00459027057513595,0.00271722767502069,0.000906195258721709,0,
00:00:04.548,-0.000377008749637753,0.000782632851041853,0.0150762191042304,0,
00:00:04.552,0.005810404196381571,0.00524054421111941,0.0065977368503809,0,
00:00:04.556,0.0168790929019451,-0.00076966907363385,-0.007401662413030859,0,
00:00:04.56,-0.009029484353959559,-0.0026708694640547,-0.0031815569382160898,0,
00:00:04.564,-0.0138509888201952,0.0020197040867060397,0.0144438380375504,0,
00:00:04.568,-0.00345172034576535,-0.00676643755286932,-0.00442619947716594,0,
00:00:04.572,0.00292504648678005,-0.00503818457946181,-0.0205775424838066,0,
00:00:04.576,0.00270042009651661,0.00614991597831249,0.00055514182895422,0,
00:00:04.58,0.00549470214173198,0.00801330618560314,0.0046104444190859795,0,
00:00:04.584,0.006949144415557379,0.00618808111175895,0.0032826107926666698,0,
00:00:04.588,-0.00661240704357624,-0.0152898067608476,0.00552822323516011,0,
00:00:04.592,-0.00579373491927981,-0.006119877565652129,0.00258507486432791,0,
00:00:04.596,-0.0012028187047690199,0.00695654610171914,0.00122635101433843,0,
00:00:04.6,4.23105557274539e-05,0.00859148986637592,-0.0108105363324285,0,
00:00:04.604,0.00486681936308742,0.00201123370788991,0.0038769212551415,0,
00:00:04.608,0.0159403719007969,-0.00337915308773518,0.0180924013257027,0,
00:00:04.612,-0.0051808864809572705,-0.0089713791385293,-0.0305946599692106,0,
00:00:04.616,-0.0257899295538664,-0.00548357656225562,-0.00850407779216766,0,
00:00:04.62,0.0017581169959157699,0.008609342388808729,0.0255896616727114,0,
00:00:04.624,0.0138113722205162,0.00870562996715307,0.0147743793204427,0,
00:00:04.628,0.00555622018873692,-0.005284766200929879,-0.0174163356423378,0,
00:00:04.632,-0.00513303745537996,-0.0048703602515161,-0.0106078768149018,0,
00:00:04.636,-0.0018696753541007601,0.00543493591248989,0.00193219748325646,0,
00:00:04.64,0.00607706047594547,0.0023669993970543103,0.00377104105427861,0,
00:00:04.644,-0.0158413201570511,-0.0124278618022799,0.014765496365726001,0,
00:00:04.648,0.007465587928891179,0.00413808831945062,0.00752678140997887,0,
00:00:04.652,0.00795432832092047,0.00344133749604225,-0.0215355586260557,0,
00:00:04.656,-0.00234840321354568,-0.00438065873458982,-0.0199343711137772,0,
00:00:04.66,-0.0073816943913698205,0.006169029511511329,0.00485112564638257,0,
00:00:04.664,0.0110515812411904,0.00832211971282959,0.0371135659515858,0,
00:00:04.668,0.00221188692376018,-0.00234736385755241,0.000356599077349529,0,
00:00:04.672,-0.0109114209190011,-0.0105805853381753,-0.0238400567322969,0,
00:00:04.676,-0.0064265956170857,-0.00542332045733929,-0.00863561127334833,0,
00:00:04.68,0.00513190170750022,0.007521315012127159,0.005004770588129761,0,
00:00:04.684,0.0031408788636326803,0.000819407519884408,0.00953210052102804,0,
00:00:04.688,-0.0024581451434642103,-0.00256966496817768,-0.0016129007562995,0,
00:00:04.692,0.00649626599624753,0.00190204288810492,0.0028751520439982397,0,
00:00:04.696,-0.00114172685425729,-2.3487229555030397e-05,0.00112887052819133,0,
00:00:04.7,0.00411741761490703,0.000557564373593777,0.000727106642443687,0,
00:00:04.704,-0.00481425691395998,0.0071635409258306,-0.0022792739327997,0,
00:00:04.708,-0.00673898728564382,-0.0053040124475956,-0.00550335692241788,0,
00:00:04.712,0.000510477868374437,-0.00286126718856394,-0.0087306285277009,0,
00:00:04.716,0.00499681895598769,0.0032121303956955697,0.00490354793146253,0,
00:00:04.72,-0.0015709801809862302,-0.0015469390200451,0.00758797954767942,0,
00:00:04.724,0.00132043461780995,-0.0043977922759950204,0.0045569478534162,0,
00:00:04.728,0.00321333226747811,-0.00326921278610826,0.00449694506824017,0,
00:00:04.732,-0.00604008650407195,0.00184556934982538,0.00818581413477659,0,
00:00:04.736,0.00163129577413201,0.00656433822587132,-0.0180091988295317,0,
00:00:04.74,0.00227598776109517,0.00391679583117366,-0.0075323446653783295,0,
00:00:04.744,0.00481160543859005,0.00195914064534009,-0.0117356423288584,0,
00:00:04.748,-0.00471873907372355,-0.00245918985456228,0.00372562068514526,0,
00:00:04.752,-0.00865865498781204,-0.00644544837996364,0.000814577681012452,0,
00:00:04.756,0.00687432987615466,-0.0180352814495564,0.0281318109482527,0,
00:00:04.76,-0.00128213502466679,0.0163369849324226,0.00869071669876575,0,
00:00:04.764,0.00139270606450737,0.0225225556641817,-0.00895462092012167,0,
00:00:04.768,0.00343003938905895,-0.00552004016935825,-0.0165964085608721,0,
00:00:04.772,-0.00367474090307951,-0.0147977564483881,-0.0019532807637006,0,
00:00:04.776,0.00402006274089217,-0.00467363558709621,-0.00234271446242929,0,
00:00:04.78,-0.00948197022080421,-0.0020587211474776303,-0.0047047049738466705,0,
00:00:04.784,0.00928596965968609,-0.0085364943370223,0.0119410259649158,0,
00:00:04.788,-0.0117800561711192,0.0074309306219220205,0.019094493240118002,0,
00:00:04.792,0.0110162049531937,0.0133422371000051,-0.00908598490059376,0,
00:00:04.796,0.00295746838673949,0.011387350037693998,-0.00645295763388276,0,
00:00:04.8,0.000237962434766814,-0.00261252233758569,-0.0142525751143694,0,
00:00:04.804,-0.00724353594705462,-0.00856042560189962,-0.0103273140266538,0,
00:00:04.808,0.000117981042421889,-0.00557042472064495,0.0157736279070377,0,
00:00:04.812,-0.0032267770729959,-0.00333915604278445,0.00574100483208895,0,
00:00:04.816,-7.12979017407633e-05,-0.0029343836940825,0.00971696898341179,0,
00:00:04.82,0.008918913081288341,-0.00309204729273915,0.0126534169539809,0,
00:00:04.824,-0.00282154232263565,0.007570499554276471,-0.0144718298688531,0,
00:00:04.828,-0.00107944302726537,0.0089670866727829,-0.0128894615918398,0,
00:00:04.832,-0.000405445491196588,0.000316176912747324,-0.016037056222558,0,
00:00:04.836,0.00192701374180615,-0.00123405165504664,0.0131881088018417,0,
00:00:04.84,-0.0020063677802681897,-0.00539395678788424,0.00893189013004303,0,
00:00:04.844,-0.0016067352844402198,-0.0034821585286408697,0.0039134258404374105,0,
00:00:04.848,-0.000110546949144918,-0.00028130930149927703,-0.00638261018320918,0,
00:00:04.852,-0.00116657465696335,0.0017792102880775898,0.00157649011816829,0,
00:00:04.856,-0.00110319629311562,0.00214833673089743,0.00856741890311241,0,
00:00:04.86,0.00831699930131435,-0.0027894163504242897,0.0008334490121342241,0,
00:00:04.864,0.00363967288285494,0.008364805951714521,-0.00577080203220248,0,
00:00:04.868,-0.0044206520542502395,-0.00119076843839139,-0.0027084583416581197,0,
00:00:04.872,-0.00287857674993575,-0.0016287703765556199,-0.0369110517203808,0,
00:00:04.876,-0.00638083089143038,-0.00460985349491239,0.0243923664093018,0,
00:00:04.88,-0.00340379122644663,-0.0022488033864647198,0.0397842936217785,0,
00:00:04.884,0.0134885162115097,-0.007612589746713641,-0.0147891789674759,0,
00:00:04.888,-0.00185140105895698,0.00591356679797173,-0.0277276895940304,0,
00:00:04.892,-0.0034732483327388802,0.0208299960941076,0.0025096193421632104,0,
00:00:04.896,0.00522168911993504,-0.00294465338811278,0.0144893256947398,0,
00:00:04.9,-0.00273796683177352,-0.00970584154129028,0.0073856562376022295,0,
00:00:04.904,-0.00524480501189828,-0.007241576444357629,-0.00386688322760165,0,
00:00:04.908,0.0009181139757856731,-0.0020044518169015603,-0.00428980123251677,0,
00:00:04.912,0.00248323706910014,0.0020250375382602197,-0.00402170792222023,0,
00:00:04.916,-0.000347527238773182,0.00345182069577277,-0.0105626452714205,0,
00:00:04.92,0.00235088542103767,0.000650439586024731,0.0036811353638768205,0,
00:00:04.924,0.00105035887099802,0.0113537218421698,0.0161095689982176,0,
00:00:04.928,0.00760170957073569,-0.0066435788758099105,0.0018776031211018601,0,
00:00:04.932,-0.00731162261217833,-0.00955604575574398,-0.0111742382869124,0,
00:00:04.936,-0.0243139769881964,-0.00684367166832089,-0.00592423882335424,0,
00:00:04.94,0.0130627639591694,0.00726727768778801,0.0140205034986138,0,
00:00:04.944,0.0129224322736263,0.012585511431098,-0.00672374665737152,0,
00:00:04.948,0.0030320244841277604,0.00622313469648361,0.0049833566881716295,0,
00:00:04.952,0.004136063158512121,-0.0059207687154412296,-0.00717370491474867,0,
00:00:04.956,-0.00947893317788839,-0.0126235261559486,-0.010222215205431,0,
00:00:04.96,-0.00353002012707293,-0.00136232119984925,0.0178156569600105,0,
00:00:04.964,-0.0056177694350481,0.00670402636751533,0.00130849052220583,0,
00:00:04.968,0.00571481324732304,-0.00531058385968208,-0.0102008124813437,0,
00:00:04.972,-0.00021871368517167901,-0.00809875410050154,0.000283620320260525,0,
00:00:04.976,-0.00244952621869743,0.0089953001588583,0.0138949546962976,0,
00:00:04.98,0.00267225736752152,0.00962207466363907,-0.00719897821545601,0,
00:00:04.984,0.00698590045794845,0.0120353661477566,0.000667104148305953,0,
00:00:04.988,-0.0008027688018046321,-0.0036459022667259,-0.007752389181405309,0,
00:00:04.992,-0.016249043866992,-0.021214846521616,-0.0204195268452168,0,
00:00:04.996,0.00652071135118604,-0.00783370435237885,0.0403458811342716,0,
00:00:05,0.0105995237827301,0.0102860350161791,-0.0166750699281693,0,
00:00:05.004,0.00124562531709671,0.0110754994675517,-0.00510235549882054,0,
00:00:05.008,-0.0035014282912015898,0.000406505569117144,0.00677441852167249,0,
00:00:05.012,-0.00203164294362068,-0.004258918575942521,0.000762554293032736,0,
00:00:05.016,-0.000209632446058095,-0.00216120225377381,0.00389472232200205,0,
00:00:05.02,-0.0120459217578173,-0.0164053644984961,0.00631858687847853,0,
00:00:05.024,0.0036436428781598798,0.00850552693009377,-0.0028288091998547303,0,
00:00:05.028,0.0069195511750876895,0.013295172713696998,-0.00825768895447254,0,
00:00:05.032,0.00429289788007736,0.00316834216937423,-0.0321832560002804,0,
00:00:05.036,0.00256214733235538,-0.00295416871085763,0.0147402053698897,0,
00:00:05.04,-0.00602709176018834,-0.006755610462278129,0.0231821574270725,0,
00:00:05.044,-0.0042381277307868,0.000634227355476469,0.0107742883265018,0,
00:00:05.048,0.00385868712328374,0.00063396553741768,-0.0048553291708231,0,
00:00:05.052,0.00442927563562989,-0.0006147921667434281,-0.0135919144377112,0,
00:00:05.056,-0.000556398241315037,-0.00934425834566355,-0.0010668630711734301,0,
00:00:05.06,-0.0202506892383099,0.0031619083601981397,-0.0031275320798158602,0,
00:00:05.064,0.0102438218891621,0.010667759925127,0.0104723665863276,0,
00:00:05.068,0.00951928831636906,0.00464630406349897,-0.00504565518349409,0,
00:00:05.072,0.00146689382381737,-0.0043500205501914,-0.00494483252987266,0,
00:00:05.076,-0.0017701302422210602,-0.00538597675040364,0.00361832045018673,0,
00:00:05.08,0.00392328901216388,-0.00286586605943739,-0.0033383194822818,0,
00:00:05.084,-0.007491123862564559,3.39304133376572e-05,-0.00632808823138475,0,
00:00:05.088,-0.00339102162979543,0.0037822041194886,0.0174261033535004,0,
00:00:05.092,-0.000225176030653529,-7.55234359530732e-05,0.008973768912255759,0,
00:00:05.096,0.005633648950606579,-0.0067167840898037,-0.0286039840430021,0,
00:00:05.1,-0.00216684979386628,0.00594159075990319,0.00784889049828053,0,
00:00:05.104,-0.00416529411450028,0.00530244736000896,0.009137613698840141,0,
00:00:05.108,0.00404790975153446,0.00505173299461603,0.0180629324167967,0,
00:00:05.112,0.0052229049615562,-0.00633929716423154,-0.0197403449565172,0,
00:00:05.116,-0.01218525134027,-0.0106200212612748,-0.0198450516909361,0,
00:00:05.12,0.00234853546135128,0.00147919671144336,0.0127884559333324,0,
00:00:05.124,0.0121249100193381,0.00035820729681290697,0.0158610492944717,0,
00:00:05.128,0.0082133412361145,0.0009135195869021119,0.0022352957166731397,0,
00:00:05.132,-0.0165956281125546,0.0224493630230427,-0.0223933756351471,0,
00:00:05.136,-0.0129587193951011,0.00287255202420056,-0.0143517274409533,0,
00:00:05.14,0.00262350495904684,-0.0285678524523973,0.019809303805232,0,
00:00:05.144,0.0110229775309563,-0.015227185562253,0.015981787815690002,0,
00:00:05.148,0.0160207208245993,0.0144886849448085,0.00250239041633904,0,
00:00:05.152,0.00174349278677255,0.0121592925861478,-0.0131470458582044,0,
00:00:05.156,-0.0238833613693714,-0.00162742403335869,-0.0133398044854403,0,
00:00:05.16,-0.00576169928535819,0.00421947473660111,0.0008938902756199241,0,
00:00:05.164,0.008606778457760809,-0.0015112445689737801,0.0178595911711454,0,
00:00:05.168,0.00932501442730427,-0.00336260092444718,0.00339717860333622,0,
00:00:05.172,-0.00434107473120093,-0.0005887597799301151,-0.0130998669192195,0,
00:00:05.176,-0.0019676820375025303,-0.00505402404814959,0.00359935406595469,0,
00:00:05.18,-0.00232702237553895,0.00283015961758792,0.00274545256979764,0,
00:00:05.184,0.0108390729874372,-0.00359418522566557,-0.0137784518301487,0,
00:00:05.188,-0.0118434177711606,0.000154438603203744,0.0169281903654337,0,
00:00:05.192,-0.00219351914711297,0.0077402382157743,-0.00262241391465068,0,
00:00:05.196,0.0198798552155495,0.00823415163904428,-0.026934377849102003,0,
00:00:05.2,-0.0157509930431843,-0.0050980616360902795,0.010384488850831998,0,
00:00:05.204,-0.0109135992825031,-0.0071177720092237,0.0354611948132515,0,
00:00:05.208,0.0121193332597613,0.000233018668950535,-0.00665650516748428,0,
00:00:05.212,0.00507433153688908,-0.00394116109237075,-0.0216079372912645,0,
00:00:05.216,0.000289905437966809,-0.00302123976871371,0.0006044266046956179,0,
00:00:05.22,9.19914527912624e-05,0.00218967883847654,0.00832384452223778,0,
00:00:05.224,-0.004198370967060329,0.00901117734611034,-9.30842943489552e-05,0,
00:00:05.228,-0.0050591491162776895,0.00635322788730264,-0.0122031373903155,0,
00:00:05.232,-0.0005210533272475,-0.00977472588419914,-0.00178584561217576,0,
00:00:05.236,0.00702923908829689,-0.0062793982215225705,0.0155727444216609,0,
00:00:05.24,0.00157379044685513,0.0006215650355443361,-0.0013328279601409999,0,
00:00:05.244,-0.00323676853440702,0.006429562345147129,-0.00836863741278648,0,
00:00:05.248,0.000191365455975756,0.0104751652106643,-0.000191810948308557,0,
00:00:05.252,-0.00164391228463501,-0.00152606784831733,-0.00260361563414335,0,
00:00:05.256,-0.00230809138156474,-0.0050154202617704894,0.0177085120230913,0,
00:00:05.26,0.0154820438474417,-0.00426489301025867,0.006732979323714971,0,
00:00:05.264,-0.00478693004697561,-0.0166027508676052,-0.016683841124177,0,
00:00:05.268,-0.0170760247856379,0.00125941529404372,-0.0157708674669266,0,
00:00:05.272,0.00286199850961566,0.00972410105168819,0.0117382779717445,0,
00:00:05.276,0.00661935005337,0.0113975144922733,0.0142411207780242,0,
00:00:05.28,0.00801191665232182,0.00653280038386583,-0.00466655101627111,0,
00:00:05.284,-0.0203528497368097,-0.0022431178949773303,-0.00999635551124811,0,
00:00:05.288,0.0085530849173665,-0.0089894151315093,-0.0147392600774765,0,
00:00:05.292,0.0126599492505193,-0.00444449996575713,0.0221325624734163,0,
00:00:05.296,0.00565440813079476,-0.00139020313508809,-0.0011492253979668,0,
00:00:05.3,-0.0023620987776666897,-0.00140017212834209,-0.0159697253257036,0,
00:00:05.304,-0.0210038051009178,-0.010904592461884001,0.0343297608196735,0,
00:00:05.308,-0.00477974722161889,0.019179230555891998,-0.00786890648305416,0,
00:00:05.312,0.0117704626172781,0.0107151344418526,-0.0148868570104241,0,
00:00:05.316,-0.0018913681851699898,-0.00304099824279547,-0.00364367850124836,0,
00:00:05.32,0.00668547069653869,-0.00952162593603134,0.0009740726090967661,0,
00:00:05.324,0.00625926209613681,-0.00596898840740323,-0.00190572929568589,0,
00:00:05.328,-0.00252158800140023,0.00774691347032785,0.0017147522885352401,0,
00:00:05.332,-0.00498605193570256,-0.00509668374434114,0.00203705090098083,0,
00:00:05.336,-0.0036278089974075604,-0.0032153781503439,0.005622433498501779,0,
00:00:05.34,0.0010306175099685801,0.009648131206631659,-0.00102110812440515,0,
00:00:05.344,-0.00515538360923529,-0.0042321067303419104,0.0117547009140253,0,
00:00:05.348,0.0040416051633656,-0.00960150361061096,0.00310476962476969,0,
00:00:05.352,0.00245178490877151,0.0127056902274489,-0.0168291684240103,0,
00:00:05.356,0.00586364232003689,0.00799164269119501,-0.005949935875833029,0,
00:00:05.36,0.0030334519688040005,-0.00360753200948238,-0.00729580922052264,0,
00:00:05.364,-0.00527547160163522,-0.0109027717262506,-0.005108165554702279,0,
00:00:05.368,-0.0121281240135431,-0.00280587445013225,0.0150648448616266,0,
00:00:05.372,0.00100492627825588,7.91068014223129e-05,0.00420515984296799,0,
00:00:05.376,0.0074140243232250205,0.0118045993149281,0.00481663504615426,0,
00:00:05.38,0.00869269948452711,0.0045930212363600705,5.08933189848904e-05,0,
00:00:05.384,-0.0121476463973522,-0.0181291848421097,0.0153731564059854,0,
00:00:05.388,-0.00201209029182792,-0.005232421215623621,-0.0110556073486805,0,
00:00:05.392,0.0033192399423569397,0.0122566567733884,-0.0100391497835517,0,
00:00:05.396,0.00815860740840435,0.00957476068288088,-0.00893801264464855,0,
00:00:05.4,0.000245093688135967,0.0057108653709292394,0.00196136371232569,0,
00:00:05.404,-0.00543495919555426,-0.00396056240424514,-0.00045013040653429904,0,
00:00:05.408,0.00889264792203903,-0.0148290554061532,-0.0102059543132782,0,
00:00:05.412,-0.0183240342885256,-0.0032674188259989,-0.0028347086627036303,0,
00:00:05.416,-7.617669325554741e-05,0.000161825955729,0.0331379063427448,0,
00:00:05.42,0.00597828812897205,-0.0047319489531219,0.0195070132613182,0,
00:00:05.424,0.0031050888355821397,0.0101629914715886,-0.00326689356006682,0,
00:00:05.428,0.00393038056790829,0.0134836938232183,-0.028772609308362004,0,
00:00:05.432,0.000792407197877765,0.0031023230403661698,-0.0191877260804176,0,
00:00:05.436,0.000178124580997974,-0.00782847497612238,0.00026097206864506,0,
00:00:05.44,-0.006731288041919471,-0.010461931116878999,0.00964004080742598,0,
00:00:05.444,0.000516511325258762,-0.000132615052280016,0.0101172886788845,0,
00:00:05.448,0.0010359568987041699,0.004160039126873021,0.00362438266165555,0,
00:00:05.452,-0.00204375921748579,0.00161067768931389,0.00045023902202956395,0,
00:00:05.456,-0.0006523572956211861,-0.0072402860969305,0.005045255646109579,0,
00:00:05.46,-0.000981118995696306,-0.00829770602285862,0.000630143098533154,0,
00:00:05.464,0.0036835884675383603,0.0115809990093112,-0.014353814534843001,0,
00:00:05.468,0.0008080286206677559,0.0123700723052025,-0.00591674912720919,0,
00:00:05.472,0.00249213725328445,-0.00152997486293316,-0.000384962186217308,0,
00:00:05.476,-0.0016750724753364901,-0.0033082515001297,0.00502219283953309,0,
00:00:05.48,0.0045806635171175,4.35662841482554e-05,0.0124086318537593,0,
00:00:05.484,-0.0022945606615394397,-0.00494680227711797,-0.00203613098710775,0,
00:00:05.488,-0.0106240184977651,-0.00429716566577554,-0.00436256546527147,0,
00:00:05.492,-0.00127674790564924,0.000778378220275044,0.00593732437118888,0,
00:00:05.496,0.0104017807170749,-0.00889788940548897,-0.0141669306904078,0,
00:00:05.5,0.0031932641286402897,0.0025384861510247,0.0046428618952632,0,
00:00:05.504,-0.00391366565600038,0.0103080365806818,0.0013831136748194699,0,
00:00:05.508,-0.00974270887672901,0.00937502086162567,0.0114763211458921,0,
00:00:05.512,0.0049862805753946296,-0.000775114051066339,-0.0067535671405494204,0,
00:00:05.516,0.00806891545653343,-0.000744469405617565,-0.0178938303142786,0,
00:00:05.52,0.00438849488273263,0.00172908941749483,0.0157190933823586,0,
00:00:05.524,-0.00691479071974754,-0.0135342190042138,0.00231398548930883,0,
00:00:05.528,-0.006211144383996729,-0.0064791147597134105,-0.00618608295917511,0,
00:00:05.532,-0.00384344113990664,-0.00349995400756598,-0.00227788579650223,0,
00:00:05.536,0.00172998220659792,-0.00190199003554881,0.0106196431443095,0,
00:00:05.54,0.00459739891812205,0.0158690549433231,0.00834897626191378,0,
00:00:05.544,0.00819321814924479,0.0133660240098834,-0.0138037279248238,0,
00:00:05.548,0.0018721183296293,-0.00287582026794553,-0.0163613054901361,0,
00:00:05.552,-0.00788593105971813,-0.00538644846528769,0.0178010631352663,0,
00:00:05.556,-0.0013415497960522801,-0.0035958057269454,-0.00342419883236289,0,
00:00:05.56,0.0038589835166931204,0.00062062923097983,-0.0051167537458241,0,
00:00:05.564,-0.008495900779962541,-0.00839656591415405,0.00568090192973614,0,
00:00:05.568,-0.0099911792203784,-0.0038405214436352296,0.0201889686286449,0,
00:00:05.572,0.0149840665981174,0.00232953391969204,-0.0162520539015532,0,
00:00:05.576,0.00249939295463264,-0.0072609912604093595,-0.0072337975725531595,0,
00:00:05.58,0.00403603119775653,0.0142250675708055,0.0031785776372999,0,
00:00:05.584,0.00217335973866284,0.0199308320879936,0.00238355319015682,0,
00:00:05.588,0.00115246709901839,-0.0017402538796886802,-0.00449173199012876,0,
00:00:05.592,-0.0174953453242779,-0.0115804160013795,-0.010151238180696997,0,
00:00:05.596,-0.007729999721050259,-0.0109461368992925,0.020062193274498003,0,
00:00:05.6,0.00870101153850555,-0.0092310793697834,-8.27363328426145e-05,0,
00:00:05.604,0.0223708562552929,0.00487439939752221,-0.0008796191541478039,0,
00:00:05.608,-0.0009306493448093529,0.00334034697152674,-0.0261308401823044,0,
00:00:05.612,-0.0186765119433403,0.00661383988335729,0.0159637667238712,0,
00:00:05.616,-0.00980581808835268,0.004121914040297271,0.0199525374919176,0,
00:00:05.62,0.0106379566714168,-0.00176621077116579,-0.00470958836376667,0,
00:00:05.624,0.0046024513430893395,-0.0023229462094605,-0.007630197796970609,0,
00:00:05.628,-0.000847866933327168,-0.0012268741847947199,-0.0038249627687037,0,
00:00:05.632,-0.000598695303779095,0.00191629584878683,-0.00424573989585042,0,
00:00:05.636,0.00461133383214474,0.000448419974418357,-0.004926421679556371,0,
00:00:05.64,-0.00109985773451626,0.000886626541614532,0.00819511152803898,0,
00:00:05.644,-0.00487548718228936,0.00472699059173465,0.0147387571632862,0,
00:00:05.648,0.00195304688531905,-0.00845795031636953,-0.0110319713130593,0,
00:00:05.652,0.00528507865965366,-0.00879040360450745,-0.0219247713685036,0,
00:00:05.656,-0.0109715722501278,-0.00507399160414934,0.0149219119921327,0,
00:00:05.66,-0.0030528069473803,0.00685932813212276,0.0209342166781425,0,
00:00:05.664,0.00537732942029834,0.00725270435214043,-0.0106824422255158,0,
00:00:05.668,0.00528119131922722,0.0139408838003874,-0.00436003180220723,0,
00:00:05.672,0.00412174314260483,0.00255165016278625,0.0023249636869877603,0,
00:00:05.676,-0.0049775508232414705,-0.0156777687370777,-0.00662543438374996,0,
00:00:05.68,0.000167226578923874,-0.00610319385305047,-0.00740370480343699,0,
00:00:05.684,-0.00249074562452734,0.0020036487840116,0.00773331569507718,0,
00:00:05.688,-0.00569585617631674,-0.00348521862179041,0.0198352057486773,0,
00:00:05.692,0.00616102898493409,0.00929326005280018,-0.0117457658052444,0,
00:00:05.696,0.000382087950129062,0.000841562636196613,-0.0162023492157459,0,
00:00:05.7,0.00398870930075645,-0.0017769185360521102,0.00294590438716114,0,
00:00:05.704,-0.0014930618926882698,-0.00161101401317865,0.013694460503757,0,
00:00:05.708,-0.00261393608525395,-0.000592560623772442,-0.009262535721063609,0,
00:00:05.712,0.0066934786736965205,-0.0018235854804515802,0.0121374353766441,0,
00:00:05.716,-0.0226080883294344,0.00255675031803548,-0.00587279489263892,0,
00:00:05.72,0.0121654076501727,0.00626860512420535,-0.00399521552026272,0,
00:00:05.724,0.00571530871093273,-0.00567190442234278,0.00297026382759213,0,
00:00:05.728,0.00394273875281215,-0.0043168538250029104,-0.0052054519765079,0,
00:00:05.732,0.0017425442347303,0.00202038371935487,-0.00187985424418002,0,
00:00:05.736,-0.0049738846719265,0.0005985447205603121,0.00858678948134184,0,
00:00:05.74,-0.0027623928617686,0.0073288232088089,-0.00624623475596309,0,
00:00:05.744,-0.00395650835707784,0.0015287495916709302,0.00589306140318513,0,
00:00:05.748,-0.00713798264041543,-0.0122401397675276,-0.00267074746079743,0,
00:00:05.752,0.0139927705749869,-0.00355070293880999,-0.00158472114708275,0,
00:00:05.756,0.00171334040351212,0.00512266345322132,0.00710628600791097,0,
00:00:05.76,-0.00241677579469979,0.00102704972960055,0.00838215555995703,0,
00:00:05.764,-0.000369238434359431,0.0101845534518361,-0.0092612337321043,0,
00:00:05.768,-0.0051102750003337895,0.00476410007104278,-0.018260981887579,0,
00:00:05.772,0.000550280092284083,-0.0109457382932305,-0.0043468214571476,0,
00:00:05.776,0.0022654386702925,-0.0109074087813497,0.0205302406102419,0,
00:00:05.78,-0.0023986273445189,0.00227931747213006,0.00793043803423643,0,
00:00:05.784,0.0106997173279524,0.0093389879912138,-0.005957901477813721,0,
00:00:05.788,-0.00517736561596394,-0.008767368271946909,0.00228045089170337,0,
00:00:05.792,-0.00342605425976217,-0.009106145240366459,-0.0057632620446384,0,
00:00:05.796,-0.00332503370009363,0.0148805882781744,-0.0154841858893633,0,
00:00:05.8,0.0023422704543918397,0.0204811673611403,0.00222361995838583,0,
00:00:05.804,0.00269563239999115,-0.00387853197753429,0.0199605878442526,0,
00:00:05.808,0.0011330452980473599,-0.0120666176080704,0.0026016219053417397,0,
00:00:05.812,0.00170245615299791,-0.00350797548890114,-0.0110489204525948,0,
00:00:05.816,0.0011254349956288901,0.0010035920422524199,-0.00587168894708157,0,
00:00:05.82,-0.0148291075602174,-0.0377780273556709,0.0118809556588531,0,
00:00:05.824,0.00194666953757405,0.0192488767206669,0.00955734308809042,0,
00:00:05.828,0.0132739720866084,0.0376032181084156,-0.007520056795328859,0,
00:00:05.832,0.00355078536085784,-0.00264771282672882,-0.0146341817453504,0,
00:00:05.836,-0.00747120287269354,-0.0110535277053714,-0.0102126970887184,0,
00:00:05.84,-0.0034108918625861398,-0.0116357114166021,0.007193998433649541,0,
00:00:05.844,-0.0025750487111508803,-0.00427225977182388,0.0127067277207971,0,
00:00:05.848,0.00299719697795808,0.0126822618767619,0.0067148101516068,0,
00:00:05.852,0.00712134642526507,0.0075161405839026,0.00355254206806421,0,
00:00:05.856,0.0033499039709568,-0.0180756952613592,-0.0376108922064304,0,
00:00:05.86,-0.0222518779337406,-0.0113226799294353,0.0341636203229427,0,
00:00:05.864,0.00324563216418028,0.00600603595376015,0.00829731766134501,0,
00:00:05.868,0.0119508439674973,0.0117964670062065,-0.01354855671525,0,
00:00:05.872,0.0048019727692008,0.0128502352163196,-0.00304794311523438,0,
00:00:05.876,0.0140528986230493,0.00871035549789667,-0.0187362097203732,0,
00:00:05.88,-0.0168020445853472,-0.0015375416260212699,-0.007094991859048609,0,
00:00:05.884,-0.0103731555864215,-0.0210698302835226,0.0297528896480799,0,
00:00:05.888,-0.0110760293900967,-0.031052753329277,0.0182389225810766,0,
00:00:05.892,0.00425353785976768,0.008136048913002009,-0.003915898501873021,0,
00:00:05.896,0.0190571714192629,0.028514027595520002,-0.00494468957185745,0,
00:00:05.9,0.007295887451618909,0.0156733654439449,-0.0237001497298479,0,
00:00:05.904,-0.00706461118534207,-0.0037291259504854705,-0.013769181445241,0,
00:00:05.908,-0.00317868986167014,-0.011114988476038,0.005865260958671571,0,
00:00:05.912,-0.0069068199954927,-0.0177698154002428,0.0132540874183178,0,
00:00:05.916,-0.00232711294665933,-0.004303630907088521,0.0190732460469007,0,
00:00:05.92,0.00432139541953802,0.0115553373470902,0.000302906206343323,0,
00:00:05.924,0.0060765878297388606,0.0191560778766871,-0.0124554960057139,0,
00:00:05.928,0.0015010564820841,0.00239890743978322,-0.00874174106866121,0,
00:00:05.932,-0.006505127530545,-0.0145320780575275,-0.0013923156075179599,0,
00:00:05.936,0.000550505705177784,-0.008264161646366121,0.00346283544786274,0,
00:00:05.94,-0.00104743812698871,-0.00118767947424203,0.00445786211639643,0,
00:00:05.944,-0.00221967347897589,0.00317738950252533,0.0152700580656528,0,
00:00:05.948,0.00282128620892763,0.00621916353702545,-0.0114025548100471,0,
00:00:05.952,0.00274788332171738,-0.0033327250275760898,-0.0152366105467081,0,
00:00:05.956,0.0009094916167669,-0.0011081324191764,0.00530291581526399,0,
00:00:05.96,-0.00277401856146753,0.00624021422117949,0.00515887141227722,0,
00:00:05.964,-0.00350304995663464,0.00516942562535405,0.0132139138877392,0,
00:00:05.968,0.0107379779219627,-0.00548386434093118,-0.00741533795371652,0,
00:00:05.972,-0.00497947772964835,0.000880658975802362,-0.0278854053467512,0,
00:00:05.976,-0.00121593463700265,0.000596630212385207,0.020167188718915003,0,
00:00:05.98,0.00308884563855827,-0.00537135964259505,0.00209603924304247,0,
00:00:05.984,-0.00919814128428698,-0.0106903500854969,0.0106568532064557,0,
00:00:05.988,-0.006144093349576,-0.00335118500515819,-0.0020192435476928897,0,
00:00:05.992,0.00693242670968175,0.008543452247977259,-0.0102489935234189,0,
00:00:05.996,0.00960959680378437,0.0118637168779969,-0.000909513095393777,0,
00:00:06,0.0074715996161103205,-0.000951137975789607,0.007802829612046479,0,
00:00:06.004,-0.0210701245814562,0.00408509420230985,-0.00462538190186024,0,
00:00:06.008,0.0057311006821692,0.0037468592636287204,-0.0024499949067831,0,
00:00:06.012,0.0053081759251654105,-0.00630681170150638,-0.00688082352280617,0,
00:00:06.016,0.00360560603439808,-0.008195046335458759,0.0023773950524628197,0,
00:00:06.02,-0.0034351658541709198,-0.0069286921061575395,0.00585604645311832,0,
00:00:06.024,-0.0019755563698709,-0.00452727032825351,0.0108587499707937,0,
00:00:06.028,-0.0059765945188701205,0.00620900141075253,0.0017689872765913601,0,
00:00:06.032,0.0006882051820866759,0.0104872537776828,-0.0162585191428661,0,
00:00:06.036,0.00509657338261604,0.00534066511318088,-0.00807897187769413,0,
00:00:06.04,-0.00147125532384962,-0.00292115635238588,0.0154258012771606,0,
00:00:06.044,0.00345543352887034,-0.00012888174387626298,0.010690032504499,0,
00:00:06.048,-0.000845490372739732,-0.000389195134630427,-0.0148455500602722,0,
00:00:06.052,0.000460544077213854,-0.00354874529875815,-0.0120553309097886,0,
00:00:06.056,-0.000829346128739417,-0.00626860093325377,0.0069054909981787205,0,
00:00:06.06,-0.00781517196446657,-0.0128194335848093,0.00879462715238333,0,
00:00:06.064,-0.00155471859034151,0.00331852468661964,0.00612185476347804,0,
00:00:06.068,0.00842385645955801,0.0176676772534847,0.00748430518433452,0,
00:00:06.072,0.00788580998778343,0.0167218279093504,-0.0169575233012438,0,
00:00:06.076,0.000450948340585455,-0.00438144989311695,-0.0137515915557742,0,
00:00:06.08,-0.00888014305382967,-0.0139313712716103,0.0060375421307981,0,
00:00:06.084,-0.0035807772073894704,-0.0097099244594574,0.0213651936501265,0,
00:00:06.088,-0.00411977432668209,0.00429023569449782,-0.00494323903694749,0,
00:00:06.092,0.0160578992217779,-0.0023338324390351803,-0.0533198863267899,0,
00:00:06.096,-0.0047431183047592605,-0.00391478696838021,0.0278982762247324,0,
00:00:06.1,-0.00675468659028411,0.0029906311538070397,0.0531834475696087,0,
00:00:06.104,-0.006524080876260999,0.0109451683238149,0.00403469428420067,0,
00:00:06.108,0.0036299692001193797,0.00585304107517004,-0.0172465573996305,0,
00:00:06.112,0.008563670329749579,0.00298929749988019,-0.0297289714217186,0,
00:00:06.116,0.008716695010662079,-0.0110171167179942,-0.0205238629132509,0,
00:00:06.12,-0.00667256349697709,-0.0041768662631511706,-0.00131227192468941,0,
00:00:06.124,-0.00481774844229221,-0.00537851080298424,0.0182739682495594,0,
00:00:06.128,-0.0022654987405985602,-0.00195938791148365,0.0194021500647068,0,
00:00:06.132,0.00201548263430595,0.0123781785368919,-0.0005407631397247309,0,
00:00:06.136,0.0012585564982146,0.0149269234389067,-0.0036891954950988297,0,
00:00:06.14,-0.00849961955100298,-0.0283348355442286,0.0124410716816783,0,
00:00:06.144,0.00290454761125147,-0.000861855631228536,0.00231579365208745,0,
00:00:06.148,0.0098688043653965,0.0168793518096209,-0.0230612754821777,0,
00:00:06.152,0.0038979246746748703,0.00579969678074121,-0.0163742508739233,0,
00:00:06.156,-0.0047240830026567,-0.009923939593136309,0.0028793760575354104,0,
00:00:06.16,-0.00536509603261948,-0.00731047755107284,0.0177069511264563,0,
00:00:06.164,-0.000538725580554456,0.00561825558543205,0.00666203163564205,0,
00:00:06.168,-0.0016590991290286199,-0.00223787617869675,-0.0104052647948265,0,
00:00:06.172,-0.0018305086996406302,-0.00481443665921688,0.0110280411317945,0,
00:00:06.176,0.0037426194176077795,0.009997317567467691,0.00104365102015436,0,
00:00:06.18,0.0035832221619784797,0.006096997298300271,-0.000207097269594669,0,
00:00:06.184,-0.000767040415666997,0.0009827186586335301,-0.00272634462453425,0,
00:00:06.188,-0.000849751522764564,-0.00698743620887399,-0.00376300816424191,0,
00:00:06.192,0.0102860433980823,-0.00644156662747264,-0.00298625463619828,0,
00:00:06.196,-0.00957376323640347,-0.0148899117484689,-0.0428079068660736,0,
00:00:06.2,-0.010058494284749002,0.00897938944399357,0.0190162155777216,0,
00:00:06.204,0.00311337993480265,0.0147121958434582,0.0453781485557556,0,
