Elapsed Time,EMG1,EMG2,EMG3,BioRadio Event,Unnamed: 5
00:00:00,0.5064903497695921,5.96579217910767,0.695386350154877,0,
00:00:00.004,-0.48197868466377297,-5.6770768165588406,-0.6575814485549929,0,
00:00:00.008,-0.40065848827362105,-4.71715545654297,-0.551959276199341,0,
00:00:00.012,-0.0473489426076412,-0.5128595829010011,-0.0666430667042732,0,
00:00:00.016,0.21165378391742698,2.42235398292542,0.276068121194839,0,
00:00:00.02,0.25412699580192605,2.95695805549622,0.361636608839035,0,
00:00:00.024,0.152670174837112,1.8112860918045,0.213414683938026,0,
00:00:00.028,0.0102953501045704,0.22910267114639302,0.0145648019388318,0,
00:00:00.032,-0.0745979249477386,-0.857512593269348,-0.0937899500131607,0,
00:00:00.036,-0.0940793305635452,-1.17554354667664,-0.14732342958450304,0,
00:00:00.04,-0.0673664733767509,-0.8712692260742191,-0.0959233790636063,0,
00:00:00.044,-0.0223674979060888,-0.322800576686859,-0.0315904058516026,0,
00:00:00.048,-0.00213743327185512,0.130366295576096,0.0173423793166876,0,
00:00:00.052,0.0193296167999506,0.338803201913834,0.0463552847504616,0,
00:00:00.056,0.0369768068194389,0.32020485401153603,0.0260172858834267,0,
00:00:00.06,0.0248088091611862,0.17018617689609503,0.00847997888922691,0,
00:00:00.064,-0.00187938776798546,0.0067862947471439795,-0.000712905777618289,0,
00:00:00.068,-0.0127765443176031,-0.0832393318414688,-0.00490152696147561,0,
00:00:00.072,-0.0143950460478663,-0.11069226264953601,-0.0034423633478581897,0,
00:00:00.076,-0.00861665420234203,-0.0801539495587349,-0.00800133310258389,0,
00:00:00.08,0.00949177797883749,-0.0159600283950567,0.00489094899967313,0,
00:00:00.084,0.0070500867441296595,0.0226786732673645,0.00402531120926142,0,
00:00:00.088,-0.0037353653460741,0.0339375510811806,-0.004494143649935721,0,
00:00:00.092,-0.00584751833230257,0.0216636564582586,-0.0179663877934217,0,
00:00:00.096,0.00124388094991446,0.0100194802507758,-0.00318590854294598,0,
00:00:00.1,0.0032394360750913603,0.00211601587943733,0.0245935637503862,0,
00:00:00.104,0.00233700545504689,-0.005789267830550671,0.00541522772982717,0,
00:00:00.108,0.00056403101189062,-0.00869321916252375,0.00303353299386799,0,
00:00:00.112,-0.0007780357846058911,-0.0047324923798441896,-0.0069308825768530395,0,
00:00:00.116,-0.00123055337462574,-0.00471870042383671,-0.0146341510117054,0,
00:00:00.12,-0.000954102433752269,-0.0007617741357535121,-0.00309616513550282,0,
00:00:00.124,-0.00037100136978551697,0.00249647907912731,0.00856100395321846,0,
00:00:00.128,-0.00193886714987457,0.0034478777088224897,0.00439798878505826,0,
00:00:00.132,0.00443037133663893,0.00248995539732277,-0.0010269051417708401,0,
00:00:00.136,0.00210257968865335,0.00287959654815495,0.00312985712662339,0,
00:00:00.14,-0.0032452952582389103,-0.00462151365354657,0.000237467014812864,0,
00:00:00.144,-0.0047225565649569,-0.00289716385304928,-0.0128880627453327,0,
00:00:00.148,-0.0005589947686530651,0.0045025344006717205,0.00273208203725517,0,
00:00:00.152,0.00266099721193314,0.000184780175914057,0.00834929570555687,0,
00:00:00.156,0.00736410776153207,-0.00126937439199537,0.0144100207835436,0,
00:00:00.16,-1.07953646875103e-05,0.000963958445936441,-0.009010539390146729,0,
00:00:00.164,-0.00105064210947603,-0.00236317422240973,-0.0118391150608659,0,
00:00:00.168,-0.0070995767600834404,-0.00348210101947188,-0.00993484538048506,0,
00:00:00.172,-0.0011311580892652301,0.00436847424134612,0.000810016412287951,0,
00:00:00.176,0.00371085829101503,0.000930988404434174,0.00980442762374878,0,
00:00:00.18,0.00011645032645901699,-0.000248992844717577,0.0040739057585597,0,
00:00:00.184,-0.000318915670504794,-0.00249968189746141,0.00468401052057743,0,
00:00:00.188,-0.00196682615205646,0.00171879411209375,0.00550459604710341,0,
00:00:00.192,0.00238834461197257,0.0015798929380253,-0.00168216356541961,0,
00:00:00.196,0.00409831898286939,0.000223310562432744,-0.006303959526121621,0,
00:00:00.2,-0.0037281112745404204,0.0012973973061889401,-0.0102761527523398,0,
00:00:00.204,-0.0006024608155712491,-0.0050469888374209395,0.0030503417365253,0,
00:00:00.208,0.000221374633838423,-0.000306388945318758,-0.0023697656579315697,0,
00:00:00.212,0.00433371355757117,0.0034262565895915,-0.00730375619605184,0,
00:00:00.216,-0.00604149699211121,0.0013870412949472698,0.0159770846366882,0,
00:00:00.22,-0.00349835935048759,-0.007195922080427409,0.0169383231550455,0,
00:00:00.224,0.00524706160649657,0.00203270185738802,-0.00636002654209733,0,
00:00:00.228,0.0035903877578675704,0.00559654831886292,-0.0224586166441441,0,
00:00:00.232,-0.00217535882256925,-0.00016866392979863999,0.00384417618624866,0,
00:00:00.236,-0.00857832189649343,-0.00188776175491512,-0.00155981769785285,0,
00:00:00.24,0.00723509956151247,-0.00359650328755379,0.004126399289816621,0,
00:00:00.244,0.005611320491880179,0.0035439864732325103,0.0152147710323334,0,
00:00:00.248,-0.00202953186817467,-0.00210183765739203,-0.00929745100438595,0,
00:00:00.252,-0.00562572246417403,0.00320811569690704,-0.0124964425340295,0,
00:00:00.256,-0.000196380089619197,-0.0029170697089284697,0.0132664414122701,0,
00:00:00.26,0.00140488182660192,0.00261103012599051,0.0118515724316239,0,
00:00:00.264,0.00325646274723113,-0.00102249125484377,-0.0128622222691774,0,
00:00:00.268,0.000518614251632243,0.000770596379879862,-0.0174672156572342,0,
00:00:00.272,-0.00381028465926647,-0.00449010776355863,-0.000412529247114435,0,
00:00:00.276,-0.00432137353345752,-0.0013817489380016901,0.0113981850445271,0,
00:00:00.28,0.00229437882080674,0.0061770374886691605,0.0225133337080479,0,
00:00:00.284,0.0033818881493061803,0.00120428530499339,-0.0102635361254215,0,
00:00:00.288,0.00189799373038113,-0.00109668262302876,-0.0078486381098628,0,
00:00:00.292,2.33830633078469e-05,-0.00152514362707734,-0.00389304175041616,0,
00:00:00.296,-0.0011038008378818599,-0.000975357834249735,-0.00036259210901334903,0,
00:00:00.3,-0.00126434979029,-0.000205599921173416,0.00163783808238804,0,
00:00:00.304,0.00128722342196852,-0.00174945127218962,0.00201019877567887,0,
00:00:00.308,-0.0021286734845489303,0.00038433657027781,-0.00489727361127734,0,
00:00:00.312,-0.00342352292500436,0.00812851451337337,0.00835314951837063,0,
00:00:00.316,0.0043088388629257705,-0.0020054646302014602,0.00465388875454664,0,
00:00:00.32,0.000841858331114054,-0.0019416365539655102,-0.0057966778986156,0,
00:00:00.324,-0.00238255620934069,-0.00642881682142615,-0.000809956633020192,0,
00:00:00.328,0.00154284120071679,0.00022247708693612402,-0.00504767242819071,0,
00:00:00.332,0.0014124792069196699,0.00273797148838639,0.00260999938473105,0,
00:00:00.336,0.000152448468725197,0.00249998434446752,-0.00390941137447953,0,
00:00:00.34,-0.000768291938584298,0.00109882478136569,0.00825143698602915,0,
00:00:00.344,0.0011232551187276801,-0.00024060561554506402,-0.0022515710443258303,0,
00:00:00.348,-0.0046539353206753705,-0.00299688545055687,-0.00660581234842539,0,
00:00:00.352,0.000231569792958908,0.00106224359478801,0.018344447016716,0,
00:00:00.356,0.00172282732091844,0.00321100209839642,-0.0091511681675911,0,
00:00:00.36,0.00346475257538259,-0.00184378458652645,-0.0075851934961974595,0,
00:00:00.364,-0.0015092137036845099,-0.000161883173859678,-6.59334764350206e-05,0,
00:00:00.368,-0.00400372222065926,-0.00286632496863604,-0.00819528661668301,0,
00:00:00.372,0.0032898816280067,-0.00328712980262935,-0.00271365675143898,0,
00:00:00.376,2.1185713194427104e-05,0.00281350314617157,0.0374676957726479,0,
00:00:00.38,-0.0027224589139223103,0.00544438464567065,0.00684224255383015,0,
00:00:00.384,0.0016372171230614198,-0.00245150248520076,-0.0290508307516575,0,
00:00:00.388,-0.000351903669070452,-0.00203588604927063,-0.0175265986472368,0,
00:00:00.392,0.00450970837846398,0.006310043856501579,-0.00273392000235617,0,
00:00:00.396,-0.000929364701732993,-0.00256618531420827,0.0113516859710217,0,
00:00:00.4,-0.00239743641577661,-0.0036179940216243297,0.0121726151555777,0,
00:00:00.404,0.000375709176296368,-0.00370673928409815,0.0124988565221429,0,
00:00:00.408,-0.00443896884098649,0.00038346607470884903,-0.0041809743270278,0,
00:00:00.412,0.00299225165508688,0.009271123446524141,-0.0111002800986171,0,
00:00:00.416,0.000384149141609669,0.00133032025769353,-0.000633252086117864,0,
00:00:00.42,5.622189200948921e-05,-0.0073349173180759,-0.00652783317491412,0,
00:00:00.424,0.00025764844031073196,-0.00404402939602733,-0.00165799679234624,0,
00:00:00.428,0.000330768991261721,0.00504564354196191,0.00336550897918642,0,
00:00:00.432,0.00019641756080091002,0.00149049737956375,0.00907487608492374,0,
00:00:00.436,-1.2673736819124301e-05,0.00194068881683052,0.0015737911453470599,0,
00:00:00.44,0.0019129398278892,-0.00259256479330361,-0.0044112564064562295,0,
00:00:00.444,-0.0021754123736172897,-0.00423155957832932,-0.00527720805257559,0,
00:00:00.448,-0.00593932997435331,0.00158080668188632,0.0077300937846303,0,
00:00:00.452,0.0037178786005824796,0.00252032466232777,-0.000938589044380933,0,
00:00:00.456,0.0020701710600405897,0.001357342582196,0.0010498003102839,0,
00:00:00.46,0.00341118220239878,-0.0021432030480355,-0.0101354727521539,0,
00:00:00.464,0.00478996988385916,0.00317690032534301,-0.0036894541699439296,0,
00:00:00.468,-0.007795384619385001,-0.0012696507619693901,0.0162064712494612,0,
00:00:00.472,-0.00163588183932006,-0.0020044604316353802,-0.00336445984430611,0,
00:00:00.476,-0.00230106618255377,0.00100045092403889,-0.0113075813278556,0,
00:00:00.48,0.00194818316958845,-0.0018979971064254603,0.00865532271564007,0,
00:00:00.484,-0.0024036578834056898,-0.00505586573854089,0.0192586369812489,0,
00:00:00.488,0.000282090622931719,0.00871649570763111,-0.0222604665905237,0,
00:00:00.492,0.0068321987055242105,0.000640478858258575,-0.018836971372366,0,
00:00:00.496,0.0009593354770913721,-0.00184170599095523,0.0329486839473248,0,
00:00:00.5,0.000297785853035748,-0.00369361112825572,-0.00702642695978284,0,
00:00:00.504,-0.008302947506308559,0.0034825152251869397,-0.0038536414504051204,0,
00:00:00.508,0.0030525797046721,0.00203214422799647,-0.00613159127533436,0,
00:00:00.512,0.0008940130937844509,-0.00282314512878656,-0.00284412363544106,0,
00:00:00.516,5.2222825615899603e-05,-0.0042386744171381,0.00960453134030104,0,
00:00:00.52,-0.00013358896831050502,0.00180016027297825,0.00401574745774269,0,
00:00:00.524,-7.22804252291098e-05,0.000714513240382075,-0.000502694980241358,0,
00:00:00.528,2.1120338715263602e-05,0.00558224134147167,-0.00676371855661273,0,
00:00:00.532,6.498576840385789e-05,0.00170642416924238,-0.0006726611754857,0,
00:00:00.536,0.002131033455953,-0.0064638443291187295,0.0018541999161243398,0,
00:00:00.54,-0.0019557881169021104,-0.00173079303931445,-0.00434053782373667,0,
00:00:00.544,-0.0016557277413085099,0.000656649761367589,0.0254222005605698,0,
00:00:00.548,-0.000206373006221838,0.00340211438015103,-0.004816533531993629,0,
00:00:00.552,0.000815859297290444,-0.0009709523292258381,-0.0271163042634726,0,
00:00:00.556,0.0010133289033547,-0.0012858185218647099,-0.0075289476662874204,0,
00:00:00.56,0.000629612768534571,-0.0024216559249907697,0.00457032211124897,0,
00:00:00.564,8.889732998795809e-05,0.00242732977494597,0.0171763561666012,0,
00:00:00.568,-0.00029207882471382596,0.00440252153202891,0.00576413283124566,0,
00:00:00.572,0.0016729558119550302,-0.0013295614626258599,-0.000730067025870085,0,
00:00:00.576,-0.00227587018162012,-0.00238650292158127,-0.00134989724028856,0,
00:00:00.58,-0.00175600755028427,-0.00346621708013117,0.009130918420851229,0,
00:00:00.584,0.00194211688358337,0.00397833622992039,-0.0237316899001598,0,
00:00:00.588,-0.0051675159484148,-0.0016894446453079599,-0.0103430906310678,0,
00:00:00.592,0.00344566046260297,0.00342049659229815,0.029844107106328,0,
00:00:00.596,0.0058716735802590795,-0.000843093323055655,-0.0122410142794251,0,
00:00:00.6,-0.000693451904226094,-0.0015694493195042,-0.00820486713200808,0,
00:00:00.604,-0.00470678368583322,-0.00291481427848339,0.007618147879838941,0,
00:00:00.608,0.00200368324294686,0.0041129351593554,0.0026783703360706602,0,
00:00:00.612,-0.000997228664346039,0.0022974985186010603,0.00325369322672486,0,
00:00:00.616,-0.00517297582700849,-0.0070187421515584,-0.00368164875544608,0,
00:00:00.62,0.00795839913189411,0.0036753129679709703,0.00208888459019363,0,
00:00:00.624,0.00195175956469029,0.0009537736186757679,0.00702545931562781,0,
00:00:00.628,-0.00834857858717442,-0.0023065956775099,-0.009371720254421229,0,
00:00:00.632,0.000742700533010066,0.00147003924939781,-0.011335127055645001,0,
00:00:00.636,0.00284634530544281,0.00337021937593818,0.0075669372454285596,0,
00:00:00.64,0.00182483263779432,-0.003961663227528329,0.00943700596690178,0,
00:00:00.644,0.000176085392013192,-0.00041364197386428703,0.00191061722580343,0,
00:00:00.648,-0.000870963092893362,0.00266531202942133,-0.00812973361462355,0,
00:00:00.652,-0.00105537474155426,0.00060211488744244,-0.0137843806296587,0,
00:00:00.656,-0.000660215911921114,-0.00555332051590085,0.0056716608814895205,0,
00:00:00.66,0.00196250760927796,0.00211023516021669,0.0241657197475433,0,
00:00:00.664,-0.0017024511471390698,-0.0019354696851223699,-0.0121755674481392,0,
00:00:00.668,-0.00125207821838558,0.00225482508540154,-0.009225299581885341,0,
00:00:00.672,0.000117501855129376,0.00433855084702373,0.00508286897093058,0,
00:00:00.676,0.000956259667873383,-0.0012096647405996901,0.00016347749624401298,0,
00:00:00.68,0.000986888189800084,-0.0063736434094607795,-0.0042627458460629,0,
00:00:00.684,0.00051712419372052,0.0026488429866731197,0.012765197083353998,0,
00:00:00.688,-0.00417717918753624,0.00526806898415089,0.00439690612256527,0,
00:00:00.692,0.00359199522063136,0.00316056096926332,-0.0137094669044018,0,
00:00:00.696,0.004947058856487271,-0.00861985050141811,-0.006949221715331079,0,
00:00:00.7,0.00018135776917915802,-0.00309854908846319,-0.0017559241969138401,0,
00:00:00.704,-0.0053793555125594104,0.000929212255869061,0.0041236667893827,0,
00:00:00.708,-0.0038037272170186,0.00252533587627113,0.00597307831048965,0,
00:00:00.712,-0.0025450058747082897,9.63348502409644e-05,0.00625726627185941,0,
00:00:00.716,0.0037869082298129797,0.00290861632674932,0.00319818640127778,0,
00:00:00.72,0.00602504890412092,0.0014067916199564901,-0.0112217264249921,0,
00:00:00.724,-0.000274990248726681,0.00141901546157897,0.0146723128855228,0,
00:00:00.728,-0.00421042134985328,-0.0036485122982412603,-0.0223269425332546,0,
00:00:00.732,0.00232478370890021,-0.00314205582253635,-0.0030794839840382303,0,
00:00:00.736,-0.00302223628386855,-0.0008671261020936071,0.0124830761924386,0,
00:00:00.74,0.000799780827946961,-0.00110660260543227,0.00768890604376793,0,
00:00:00.744,0.00127489434089512,0.00357960979454219,-0.00463493866845965,0,
00:00:00.748,0.000543394242413342,0.00495429383590817,-0.007255395874381071,0,
00:00:00.752,0.00186453480273485,-0.0013477494940161699,-0.00402880553156137,0,
00:00:00.756,-0.0025166394189000104,-0.00271158339455724,0.004622817970812321,0,
00:00:00.76,-2.8730828489642604e-05,-0.00174283562228084,0.0076714134775102095,0,
00:00:00.764,-0.00441530952230096,-0.00028277828823775096,0.00915450230240822,0,
00:00:00.768,0.0012486551422625802,0.000686509243678302,-0.00575992884114385,0,
00:00:00.772,0.000619806000031531,0.0009204580564983189,-0.0149624375626445,0,
00:00:00.776,0.0038220405112952,-0.00144648051355034,-0.00143307528924197,0,
00:00:00.78,0.0020185681059956603,0.00837081857025623,-0.00392375094816089,0,
00:00:00.784,-0.0005082376301288599,-0.006544485688209529,0.0189415477216244,0,
00:00:00.788,0.000225839612539858,-0.00309079815633595,0.00120828952640295,0,
00:00:00.792,-0.0037525468505919,7.82257393439068e-06,0.00207143044099212,0,
00:00:00.796,-0.00253877881914377,0.00156144856009632,-0.00963013526052237,0,
00:00:00.8,-0.00012118349695811001,0.00162747432477772,-0.0022566944826394302,0,
00:00:00.804,0.00146177341230214,0.000870975840371102,-0.0041063143871724606,0,
00:00:00.808,0.00172517914324999,7.3533901741029695e-06,0.0045434627681970605,0,
00:00:00.812,0.00315684452652931,0.0015544802881777302,-0.00230988720431924,0,
00:00:00.816,-0.0038543581031262896,-0.00466529419645667,0.00266659166663885,0,
00:00:00.82,-9.743765258463101e-05,-7.364280463662e-05,0.0158880408853292,0,
00:00:00.824,0.000839060114230961,0.0013538227649405599,-0.0142117608338594,0,
00:00:00.828,0.0026182460132986303,0.00112956971861422,6.30065187579021e-05,0,
00:00:00.832,-0.004053981043398379,0.0024528419598937,-0.00520699704065919,0,
00:00:00.836,0.0020734015852212897,-0.00429017376154661,-0.0011604517931118599,0,
00:00:00.84,-0.000878617109265178,-0.000145352038089186,-0.00124507688451558,0,
00:00:00.844,-0.00290794624015689,-0.00100459798704833,0.014186454936861999,0,
00:00:00.848,0.0019693053327500803,0.006984778214246029,0.00622094608843327,0,
00:00:00.852,0.00220189709216356,-0.00207297690212727,-0.0100552840158343,0,
00:00:00.856,0.0007995001506060361,-0.00542295863851905,-0.0041846022941172106,0,
00:00:00.86,0.00158183299936354,-0.0037687057629227604,-0.0057346234098076794,0,
00:00:00.864,-0.0029960959218442397,0.0101052895188332,-0.00234756991267204,0,
00:00:00.868,-0.0024876324459910397,0.00498858466744423,0.0183335449546576,0,
00:00:00.872,-0.000520856061484665,-0.008552093990147109,-0.00772506510838866,0,
00:00:00.876,0.000962204416282475,-0.0037724620196968295,-0.00292920041829348,0,
00:00:00.88,0.00137838500086218,0.00021732936147600402,4.82050818391144e-05,0,
00:00:00.884,0.0009713371400721369,4.4841712224297205e-05,-0.0029648721683770396,0,
00:00:00.888,-0.00180333375465125,0.00616911984980106,0.00709376577287912,0,
00:00:00.892,-0.0024553551338613,-0.00130944617558271,-0.0065702097490429896,0,
00:00:00.896,0.00717344414442778,-0.00158331275451928,0.0126658361405134,0,
00:00:00.9,0.0031469182576984197,0.00398953119292855,0.0128497192636132,0,
00:00:00.904,-0.00429795915260911,-0.00112755806185305,-0.0238391645252705,0,
00:00:00.908,-0.00243641482666135,-0.0024208449758589302,-0.0243589896708727,0,
00:00:00.912,-0.0038602694403380203,0.000447934260591865,0.0169265493750572,0,
00:00:00.916,-0.000969946675468236,-0.00225870660506189,0.0176759231835604,0,
00:00:00.92,0.00170678517315537,-0.00304585113190115,-0.000509194855112582,0,
00:00:00.924,0.0025830038357526103,0.0048175477422773795,0.00153534300625324,0,
00:00:00.928,-0.000178902701009065,-0.000878700520843267,-0.0113008730113506,0,
00:00:00.932,0.00256671756505966,-0.000303904671454802,0.00035850261338055096,0,
00:00:00.936,0.00323188700713217,0.00516638392582536,-0.00624441355466843,0,
00:00:00.94,-0.0027388348244130603,0.00151749374344945,0.0127925183624029,0,
00:00:00.944,-0.00330345891416073,-0.0065290248021483395,3.37980527547188e-05,0,
00:00:00.948,-0.0016074510058388099,0.00036816319334320697,-0.0076671349816024295,0,
00:00:00.952,0.000223017486860044,0.00083156384062022,0.0012914183316752302,0,
00:00:00.956,0.00119330151937902,-0.00428310222923756,0.00472957175225019,0,
00:00:00.96,0.00121087022125721,-0.00292989541776478,-0.0007697882829234,0,
00:00:00.964,0.000668702996335924,0.00871648266911507,-0.00619183760136366,0,
00:00:00.968,0.00211970414966345,0.00525980768725276,0.00679546734318137,0,
00:00:00.972,-0.00232665752992034,-0.00078085478162393,-0.00288640661165118,0,
00:00:00.976,-0.00415462302044034,-0.0103083429858088,-0.000338091544108465,0,
00:00:00.98,0.00149694143328816,-0.00217923917807639,0.000377089047105983,0,
00:00:00.984,0.00446709897369146,0.00699088862165809,0.0106965275481343,0,
00:00:00.988,-0.00277836946770549,0.00414361711591482,-0.0139565151184797,0,
00:00:00.992,0.000254392856732011,-0.0026598887052387,-0.00643400056287646,0,
00:00:00.996,0.000633257441222668,-0.00317168305628002,8.74734760145657e-05,0,
00:00:01,0.00014226589701138402,-0.0034279078245163,0.0038521275855600795,0,
00:00:01.004,0.00176577712409198,0.00449613342061639,0.0190636161714792,0,
00:00:01.008,-0.00448614684864879,0.00508881360292435,0.0038097805809229604,0,
00:00:01.012,0.0021168023813515897,-0.00427305698394775,-0.00769838178530335,0,
00:00:01.016,-0.0026447898708283897,-0.00585294933989644,-0.0146045805886388,0,
00:00:01.02,0.00147152913268656,-0.000729459163267165,-0.0111150071024895,0,
00:00:01.024,0.00390507956035435,0.00527214864268899,0.00175694655627012,0,
00:00:01.028,-0.00121078744996339,0.00397448800504208,0.011581121943891002,0,
00:00:01.032,-0.0019454999128356602,0.00278267590329051,0.00956154894083738,0,
00:00:01.036,-0.000969202548731118,-0.00570206018164754,0.009397341869771479,0,
00:00:01.04,0.00013629200111608998,-0.0019349263748154,9.042146120918909e-05,0,
00:00:01.044,0.0007014436414465309,-0.00011072659981436999,-0.0153179029002786,0,
00:00:01.048,0.000683654972817749,0.00266052293591201,-0.0150709692388773,0,
00:00:01.052,0.000342752115102485,-0.00133671576622874,0.00240163714624941,0,
00:00:01.056,0.00412539672106504,-0.00124273996334523,0.00614929152652621,0,
00:00:01.06,-0.00419296184554696,-0.00213895784690976,0.0108524989336729,0,
00:00:01.064,-0.0056298803538084,0.0027385305147618103,0.0043893214315176,0,
00:00:01.068,0.00144884013570845,0.00252540479414165,-0.00442593125626445,0,
00:00:01.072,0.00328551419079304,0.00277083879336715,-0.0115443393588066,0,
00:00:01.076,0.00228444603271782,-0.00277842674404383,0.007267366629093891,0,
00:00:01.08,0.000503212038893253,-0.0050276811234653,-0.0052564176730811605,0,
00:00:01.084,-0.00287252967245877,0.000805618241429329,0.0130650643259287,0,
00:00:01.088,0.000771259015891701,0.00214397720992565,-0.00201710616238415,0,
00:00:01.092,0.000736003217753023,0.00349150248803198,-0.0166584439575672,0,
00:00:01.096,-0.000150934181874618,-0.00173171376809478,0.0116435019299388,0,
00:00:01.1,0.00139276764821261,-0.00425482448190451,-0.0027371847536414896,0,
00:00:01.104,-0.00469787465408444,0.00107501551974565,-0.006607812363654379,0,
00:00:01.108,5.1382325182203203e-05,0.00407224614173174,0.00488561624661088,0,
00:00:01.112,0.00364002282731235,0.00118472846224904,0.0101998196914792,0,
00:00:01.116,-0.000649196677841246,-0.00574777973815799,0.0050094393081963106,0,
00:00:01.12,-0.00114779046270996,-0.0005321095231920481,-0.00175596901681274,0,
00:00:01.124,-0.000389893422834575,-0.0004919492639601231,-0.0179405063390732,0,
00:00:01.128,0.000328050053212792,0.00569792650640011,-0.0039535197429359,0,
00:00:01.132,0.000577485770918429,0.00046351781929843095,7.70321348682046e-05,0,
00:00:01.136,0.000424794649006799,-0.00155662489123642,0.014390985481441002,0,
00:00:01.14,0.000114563204988372,-0.0015949970111250901,0.00162043294403702,0,
00:00:01.144,-0.000139059920911677,-0.000787846511229873,-0.00392292998731136,0,
00:00:01.148,-0.00231529795564711,4.4819822505815e-05,-0.0018460409482941,0,
00:00:01.152,0.0038502952083945296,0.000499841116834432,0.00696821231395006,0,
00:00:01.156,0.0016484170919284198,-0.00154086877591908,-0.0042911940254271,0,
00:00:01.16,-0.00343230040743947,0.0064408048056066,0.00858484301716089,0,
00:00:01.164,-0.00467345304787159,-0.0064171231351792795,0.0021229872945696102,0,
00:00:01.168,0.00168282212689519,0.0027820768300443896,-0.0240410286933184,0,
00:00:01.172,0.00292460969649255,-7.337474380619821e-05,-0.0085093779489398,0,
00:00:01.176,0.0038381891790777397,-0.00284031429328024,0.0107722682878375,0,
00:00:01.18,-0.00181960582267493,0.00356621481478214,0.0124207520857453,0,
00:00:01.184,-0.00457809725776315,-0.000342170096701011,0.00418583862483501,0,
00:00:01.188,0.000743170676287264,-0.0011786968680098698,0.0014744020299986,0,
00:00:01.192,0.00179769354872406,-0.0006956489523872731,0.00153495406266302,0,
00:00:01.196,0.00104692566674203,-0.0020671661477536,-0.0103864260017872,0,
00:00:01.2,0.00209366483613849,0.00239700125530362,-0.00896966457366943,0,
00:00:01.204,0.00159338593948632,0.00625241082161665,-0.00031276440131477995,0,
00:00:01.208,-0.0103886630386114,-0.005587865598499771,0.0241568963974714,0,
00:00:01.212,-0.00195665517821908,-0.00213202205486596,-0.0137134622782469,0,
00:00:01.216,0.00571782374754548,-0.00195375387556851,-0.00937260314822197,0,
00:00:01.22,0.00697777699679136,0.005108076147735121,0.0104705141857266,0,
00:00:01.224,-0.0026280814781785,0.00275048892945051,-0.00011024277773685801,0,
00:00:01.228,-0.0031245113350451,-0.00294606341049075,-0.000128606698126532,0,
00:00:01.232,0.0031468947418034103,-0.00269491807557642,-0.0072398930788040205,0,
00:00:01.236,-0.0011532906210050002,-0.0006905613699927929,0.0067752618342638,0,
00:00:01.24,0.000121923825645354,-0.0011941653210669801,-0.00401006545871496,0,
00:00:01.244,-0.00305556319653988,0.00540819158777595,-0.0035070464946329602,0,
00:00:01.248,-0.0036487644538283296,-0.00143840408418328,0.0106080155819654,0,
00:00:01.252,0.00047662609722465304,0.00285566039383411,0.0117041487246752,0,
00:00:01.256,0.0073654912412166595,-0.00164287281222641,-0.014385218732058997,0,
00:00:01.26,0.00137811165768653,-0.004235046915709971,-0.0111244982108474,0,
00:00:01.264,-0.00158621638547629,-0.0032254362013191,0.0114680482074618,0,
00:00:01.268,-0.00216287141665816,0.009910496883094309,-0.00202922686003149,0,
00:00:01.272,-0.00140054768417031,0.00446181977167726,-0.00510320346802473,0,
00:00:01.276,-0.000307919166516513,-0.00900369975715876,-0.000429593550506979,0,
00:00:01.28,0.00254110549576581,-0.00395129201933742,0.00957272201776505,0,
00:00:01.284,-0.00126606691628695,0.000296263577183709,-0.0020078262314200397,0,
00:00:01.288,-0.00110274064354599,0.00440346775576472,-0.00480162166059017,0,
00:00:01.292,0.00210178550332785,0.000341011822456494,-0.006894102320075039,0,
00:00:01.296,-0.0053678369149565705,-0.00458382023498416,0.0251026470214128,0,
00:00:01.3,0.00104363833088428,-0.000383767648600042,-0.00164839008357376,0,
00:00:01.304,0.0117381410673261,0.0114948367699981,-0.0190839357674122,0,
00:00:01.308,-0.00311238365247846,0.00401507550850511,0.00940304063260555,0,
00:00:01.312,-0.0098648676648736,-0.008491680957376959,-0.0124590387567878,0,
00:00:01.316,0.0007995023042894901,-0.00951733067631722,-0.007735674735158679,0,
00:00:01.32,0.005446829367429021,0.00192407192662358,0.0128199048340321,0,
00:00:01.324,0.00030013985815458,0.00184252380859107,0.00876323506236076,0,
00:00:01.328,-0.00541673321276903,0.0022050584666431,0.00653320318087935,0,
00:00:01.332,0.00496281636878848,0.0018062364542856802,-0.012465775012969998,0,
00:00:01.336,0.000977849587798119,-0.0012488380307331699,-0.00333810062147677,0,
00:00:01.34,0.00103946600575,0.0018252269364893397,0.0138520896434784,0,
00:00:01.344,-0.0054542669095099,0.000934446114115417,-0.00515232048928738,0,
00:00:01.348,-0.000520685687661171,-0.000586769543588161,-0.0142033519223332,0,
00:00:01.352,0.00343623734079301,-0.00133040698710829,-2.34914405154996e-05,0,
00:00:01.356,-0.000558311585336924,-0.00115369434934109,0.00157395645510405,0,
00:00:01.36,-0.0009342993726022539,-0.000495057727675885,0.0135903405025601,0,
00:00:01.364,-0.000204089854378253,-0.0019286936149001102,-0.00226949667558074,0,
00:00:01.368,0.000413391157053411,0.00453667622059584,-0.009762682951986791,0,
00:00:01.372,0.00264094374142587,0.0022308120969682897,0.00913892406970263,0,
00:00:01.376,-0.0016156805213540801,-0.0031541190110147,0.02483244612813,0,
00:00:01.38,-0.00367171643301845,-0.0046901311725378,-0.0335027649998665,0,
00:00:01.384,0.0016181162791326599,-0.000574165605939925,0.004089611116796729,0,
00:00:01.388,0.0022377821151167198,0.00470043485984206,0.0032015575561672397,0,
00:00:01.392,0.0030950540676713,0.007431427948176859,-0.0159275345504284,0,
00:00:01.396,-0.0022593883331865103,-0.0036452445201575795,-0.0018500013975426602,0,
00:00:01.4,-0.00463913101702929,-0.0070216837339103205,0.00883005559444427,0,
00:00:01.404,0.00301289767958224,-0.000397952826460823,0.0127623854205012,0,
00:00:01.408,0.00216159573756158,0.0020591716747731,0.0105291698127985,0,
00:00:01.412,-0.00445363437756896,0.004088462796062229,-0.007239760830998421,0,
00:00:01.416,-0.0018325833370909101,-0.0031076401937753,-0.00048995268298313,0,
00:00:01.42,0.0036675848532468102,0.00022251378686633,-0.00602100323885679,0,
00:00:01.424,0.0050427662208676295,0.000804107519797981,-0.0143306143581867,0,
00:00:01.428,-0.00142431724816561,0.00241895345970988,0.00928975827991962,0,
00:00:01.432,-0.000791158119682223,-9.42616898100823e-05,0.00341241853311658,0,
00:00:01.436,-0.0038377251476049397,-0.0061241942457854704,-0.003933519590646029,0,
00:00:01.44,-0.0040309517644345795,-0.00228123855777085,-0.00103504187427461,0,
00:00:01.444,0.00253136758692563,0.00413851207122207,0.006571257486939429,0,
00:00:01.448,0.005559220910072329,0.00582367833703756,-0.000614916847553104,0,
00:00:01.452,-7.49401369830593e-05,-0.000823112844955176,-0.00535121047869325,0,
00:00:01.456,-0.00165361887775362,-0.0047219358384609205,-0.00662671821191907,0,
00:00:01.46,-0.00130859622731805,6.884767117298911e-06,0.032299242913723,0,
00:00:01.464,-0.0025013687554746897,0.00314843445084989,0.00991139933466911,0,
00:00:01.468,0.00222971313633025,-0.00130124646238983,-0.0436661876738071,0,
00:00:01.472,0.00214083027094603,-0.00160969386342913,-0.0130547033622861,0,
00:00:01.476,-0.00150624185334891,-0.000513897102791816,0.0177446417510509,0,
00:00:01.48,0.0033487896434962697,0.000479311536764726,0.00208710925653577,0,
00:00:01.484,0.000636380456853658,0.000840167922433466,0.0065686865709722,0,
00:00:01.488,-0.00424886494874954,0.0006480785086750981,0.000305068882880732,0,
00:00:01.492,-0.00290530011989176,0.000222814487642609,0.00235365889966488,0,
00:00:01.496,-0.000144525052746758,-0.000142944758408703,0.00497256359085441,0,
00:00:01.5,-0.00042916508391499503,-0.00030673522269353303,-0.00515433214604855,0,
00:00:01.504,0.0018249148270115302,-0.00235182186588645,-0.0013088402338326,0,
00:00:01.508,0.0068738469853997205,0.00598519435152411,-0.0103648444637656,0,
00:00:01.512,0.0041751470416784295,-0.0023116040974855397,0.00555247953161597,0,
00:00:01.516,-0.00885074399411678,-0.00510361324995756,0.00520877307280898,0,
00:00:01.52,-0.00615101959556341,0.000871789001394063,-0.00126703421119601,0,
00:00:01.524,0.001911545637995,0.00443714438006282,-0.000252157828072086,0,
00:00:01.528,0.00361793790943921,-0.00035706179914996,-0.0176720954477787,0,
00:00:01.532,0.00024297667550854398,-0.00547372316941619,0.0310884546488523,0,
00:00:01.536,0.00651878630742431,0.00525696575641632,-0.00758980261161923,0,
00:00:01.54,-0.00319737521931529,0.00130408257246017,-0.0160228200256824,0,
00:00:01.544,-0.00431153411045671,-0.000867870869114995,0.00573387183248997,0,
00:00:01.548,-0.0020258401054889,0.000654461444355547,8.68214483489282e-05,0,
00:00:01.552,0.000431047868914902,-0.0029601869173348,0.00506495544686913,0,
00:00:01.556,0.00166163570247591,-0.00396822951734066,-0.0018705895636230698,0,
00:00:01.56,-0.00048334413440898093,2.56669827649603e-05,0.000683083024341613,0,
00:00:01.564,0.0027809166349470602,0.0070346361026167896,0.000492920575197786,0,
00:00:01.568,0.0016026617959141699,0.00126843887846917,-0.000303197739413008,0,
00:00:01.572,0.00171559886075556,-0.00151228695176542,-0.000748130725696683,0,
00:00:01.576,-0.00342532782815397,-0.0020089324098080397,-0.0027540901210159102,0,
00:00:01.58,-0.0030610568355768897,-0.00333940726704896,-0.0024899304844439,0,
00:00:01.584,-0.00090599968098104,0.0038124150596559,0.00565398065373302,0,
00:00:01.588,0.0008759404299780731,0.000132394838146865,0.00995954964309931,0,
00:00:01.592,0.00151888560503721,0.00128009670879692,-0.00612835120409727,0,
00:00:01.596,0.0011921748518943802,-0.0025020975153893198,-0.005387063603848221,0,
00:00:01.6,0.00044925673864781905,-0.00165403843857348,-0.0113815143704414,0,
00:00:01.604,0.00187339726835489,0.00012858837726526,0.0074865710921585595,0,
00:00:01.608,-0.0024845197331160303,0.00118347897659987,-0.00032278205617331,0,
00:00:01.612,-0.0041935844346880895,0.0012226923136040599,0.0126424347981811,0,
00:00:01.616,-0.000531721860170364,-0.00143252033740282,-0.00144054519478232,0,
00:00:01.62,0.00859539024531841,0.00402588397264481,-0.000488716177642345,0,
00:00:01.624,-0.00305001344531775,-0.00284462119452655,-0.00917125679552555,0,
00:00:01.628,-0.00326030561700463,6.86937801219756e-06,0.010458548553288,0,
00:00:01.632,0.00365869258530438,0.000288782583083957,-0.00754512986168265,0,
00:00:01.636,0.00375359272584319,0.00197457196190953,-0.00861693732440472,0,
00:00:01.64,-0.00742639321833849,-0.00441033579409122,0.0014849262079224,0,
00:00:01.644,-0.00430301437154412,8.88213071448263e-06,0.00125256692990661,0,
00:00:01.648,0.00316717475652695,-0.0007308553322218361,0.008612607605755329,0,
00:00:01.652,0.00603209249675274,0.0051546245813369794,0.00102537265047431,0,
00:00:01.656,-1.7647411368670897e-05,3.78119621018413e-05,0.00570433307439089,0,
00:00:01.66,-0.0018738822545856198,-0.00168616021983325,0.0018396615050733102,0,
00:00:01.664,-0.00157903356011957,0.000605860492214561,-0.00291806785389781,0,
00:00:01.668,-0.0005913131753914059,-0.00460571190342307,-0.0237193629145622,0,
00:00:01.672,0.00023312190023716498,0.00265597947873175,-0.00100829394068569,0,
00:00:01.676,0.000577852944843471,8.88536524144001e-05,0.0204131193459034,0,
00:00:01.68,-0.00157620839308947,-0.00424165138974786,0.00889022741466761,0,
00:00:01.684,0.0021946297492831898,0.004211300984025001,-0.0108241019770503,0,
00:00:01.688,0.00159260455984622,0.00577950337901711,-0.00583487562835217,0,
00:00:01.692,-1.33551675389754e-05,-0.00132392707746476,-0.00435463804751635,0,
00:00:01.696,0.0010399094317108401,-0.00119977805297822,0.0129444897174835,0,
00:00:01.7,-0.00311547005549073,-0.0064305616542697,0.0023347046226263,0,
00:00:01.704,-0.0022898290771991,-0.00238063978031278,-0.00509124295786023,0,
00:00:01.708,-0.0022885806392878303,0.00620280811563134,-0.0019514131126925302,0,
00:00:01.712,0.0031821927987039102,0.00391376810148358,0.013805060647428001,0,
00:00:01.716,0.0052004968747496605,-0.00442322716116905,-0.0222374442964792,0,
00:00:01.72,-0.0029247365891933398,-0.00279890955425799,-0.00956008303910494,0,
00:00:01.724,-0.00032329981331713503,0.00258308346383274,0.013750359416008,0,
00:00:01.728,7.141617243178192e-05,0.0043941093608737,0.014101785607636001,0,
00:00:01.732,0.00192006141878664,-0.00359147996641696,-0.00514269759878516,0,
00:00:01.736,-0.00229366053827107,-0.000605427427217364,-0.007882794365286829,0,
00:00:01.74,-0.003984653390944,0.000169447084772401,0.00877515505999327,0,
00:00:01.744,0.0017067757435143,0.00222498504444957,0.00793059822171927,0,
00:00:01.748,0.00256020203232765,-0.00198255898430943,-0.0116349188610911,0,
00:00:01.752,0.00136084854602814,-0.0017193646635860198,-0.0139290885999799,0,
00:00:01.756,0.0020081433467567,-0.00230344454757869,-0.00412932923063636,0,
00:00:01.76,-0.0028418053407222,0.00283145578578115,0.011199526488781001,0,
00:00:01.764,-0.00256471685133874,0.0048065963201224795,0.0211798120290041,0,
00:00:01.768,-0.000703282246831805,-0.00109658658038825,-0.005624405574053529,0,
00:00:01.772,0.000795082887634635,-0.0023528600577265,-0.0100862709805369,0,
00:00:01.776,0.00336719304323196,-0.0035634436644613704,-0.0014318855246529,0,
00:00:01.78,-0.0010069233831018199,0.0017705141799524398,-0.00400072941556573,0,
00:00:01.784,-0.00339795183390379,0.0064174602739512894,-0.0023302254267036897,0,
00:00:01.788,0.0015756792854517698,-0.00297266920097172,0.0152577478438616,0,
00:00:01.792,0.00202732137404382,-0.00567532982677221,-0.0026843682862818198,0,
00:00:01.796,0.00287615018896759,0.0007136175991036,-0.00998723320662975,0,
00:00:01.8,-0.0023894205223769,0.00044040140346624006,0.00295869237743318,0,
00:00:01.804,-0.00466139893978834,0.005917523056268689,-0.0045639546588063205,0,
00:00:01.808,0.00098743021953851,0.00431287474930286,0.0109534887596965,0,
00:00:01.812,0.00213229353539646,-0.00804106052964926,0.00333632528781891,0,
00:00:01.816,0.0012923001777380698,-0.00531208608299494,-0.0110731525346637,0,
00:00:01.82,0.000106334438896738,0.0023724432103335896,0.0031780267599970102,0,
00:00:01.824,-0.000623958592768759,0.0036322949454188295,0.00108720012940466,0,
00:00:01.828,-0.0007435935549438,0.00204908638261259,0.00180082325823605,0,
00:00:01.832,0.0016148341819644,0.0021390034817159198,-0.00889931712299585,0,
00:00:01.836,-0.00620375433936715,-0.00309014623053372,0.0120986178517342,0,
00:00:01.84,0.00457622762769461,-0.00499288225546479,-0.00737946387380362,0,
00:00:01.844,0.00140353676397353,0.00309514882974327,0.0010677253594622,0,
00:00:01.848,-0.00024124191259034,0.00038170741754584,0.0015074664261192099,0,
00:00:01.852,-0.000757414032705128,0.00196046801283956,-0.0103973373770714,0,
00:00:01.856,-0.0006115848082117741,-0.00398687552660704,0.00679379887878895,0,
00:00:01.86,0.00184443115722388,-0.00150746665894985,0.0154229365289211,0,
00:00:01.864,-0.0018836724339053,0.00781454890966415,-0.005860493052750829,0,
00:00:01.868,-0.0034827841445803603,-0.00327595300041139,-0.0108919013291597,0,
00:00:01.872,0.00201045419089496,-0.000999878742732108,-0.0065715732052922205,0,
00:00:01.876,0.00258866976946592,-8.05226154625416e-05,0.00205876328982413,0,
00:00:01.88,-0.00087723380420357,0.00016013815184123798,0.018948944285512002,0,
00:00:01.884,0.00169431860558689,0.00220114621333778,-0.0018969647353515,0,
00:00:01.888,0.00269549177028239,-0.00402058241888881,-0.00932428240776062,0,
00:00:01.892,-0.0027779606170952303,0.000300800486002117,-0.00312647689133883,0,
00:00:01.896,-0.0009105419158004221,0.0034950480330735397,-0.00151352107059211,0,
00:00:01.9,0.000985650694929063,-0.000982044381089509,0.0018394531216472398,0,
00:00:01.904,-0.0092114070430398,-0.00145661307033151,0.007412835955619809,0,
00:00:01.908,-0.00234857923351228,-0.000555727747268975,0.000645094958599657,0,
00:00:01.912,0.0130457347258925,0.00031579803908243797,-0.0023897630162537102,0,
00:00:01.916,0.000877652782946825,-0.0014157656114548401,-0.00675276620313525,0,
00:00:01.92,-2.0746560039697198e-05,0.00042686460074037297,0.008779739029705521,0,
00:00:01.924,-0.00152107747271657,0.00795375648885965,-0.000594189448747784,0,
00:00:01.928,-0.0020329379476606802,-0.00224933447316289,-0.00990180298686028,0,
00:00:01.932,0.000581216067075729,-0.0021299757063388803,0.00725241424515843,0,
00:00:01.936,-0.00247996393591166,-0.00650779204443097,-0.0038164907600730705,0,
00:00:01.94,0.000762343232054263,-0.00391177600249648,-0.00393503811210394,0,
00:00:01.944,-0.0035272925160825296,0.0109058320522308,0.0038713214453309796,0,
00:00:01.948,0.00180836080107838,0.00397482607513666,0.0112363155931234,0,
00:00:01.952,0.00282068573869765,-0.00376907270401716,-0.0053721256554126705,0,
00:00:01.956,0.0037385446485132,-0.00599306263029575,-0.00324251572601497,0,
00:00:01.96,-0.0018850119085982399,0.000491200538817793,0.00945853721350431,0,
00:00:01.964,-0.00670217676088214,0.00442006858065724,-0.0135486135259271,0,
00:00:01.968,0.0026757400482893,-0.000195097672985867,0.0007397595909424129,0,
00:00:01.972,0.005478843580931429,-0.00113961077295244,-0.0030673616565764,0,
00:00:01.976,-0.000776916043832898,-0.00273284781724215,0.0137203484773636,0,
00:00:01.98,-0.00247879349626601,0.00199361681006849,-0.005398574750870471,0,
00:00:01.984,-0.0017878919607028398,0.0020237087737768897,-0.00561331491917372,0,
00:00:01.988,-0.000426250888267532,0.00263687502592802,-0.00702224625274539,0,
00:00:01.992,0.000582581327762455,-0.00263346708379686,0.0169085636734962,0,
00:00:01.996,0.0009059105068445211,-0.0047784703783690895,0.000296316487947479,0,
00:00:02,0.000684587808791548,0.00101036066189408,-2.03969602807774e-06,0,
00:00:02.004,0.000245777133386582,0.00223544077016413,-0.00507731782272458,0,
00:00:02.008,-0.00012530942331068201,0.0034776681568473604,-0.00408815825358033,0,
00:00:02.012,0.0017827859846875102,-0.0018011257052421602,-0.0135939065366983,0,
00:00:02.016,-0.00224253791384399,-0.00432692328467965,0.017226992174983,0,
00:00:02.02,-0.00178018503356725,0.00103230157401413,0.0266578979790211,0,
00:00:02.024,-0.00225638365373015,0.00198927288874984,-0.0245846509933472,0,
00:00:02.028,0.0028946844395250104,0.0011009335285052698,-0.0136115504428744,0,
00:00:02.032,0.00483608338981867,0.00204459903761745,-0.0096795866265893,0,
00:00:02.036,0.000967972096987069,-0.0026463246904313603,0.0177838541567326,0,
00:00:02.04,-0.0105895418673754,-0.00651118671521544,0.00947914831340313,0,
00:00:02.044,0.00691354973241687,0.00544596556574106,-0.006663648877292871,0,
00:00:02.048,0.00264920946210623,0.00627741543576121,0.00691465009003878,0,
00:00:02.052,-0.00326511496677995,-0.00606937892735004,0.0107542239129543,0,
00:00:02.056,-0.00476364511996508,-0.00434514135122299,-0.0158505514264107,0,
00:00:02.06,0.00156984163913876,0.00439672311767936,-0.0106991371139884,0,
00:00:02.064,0.00285832327790558,0.00105460546910763,-0.0039007477462291705,0,
00:00:02.068,0.00174212909769267,-0.00023504612909164301,0.00412435457110405,0,
00:00:02.072,0.000159736766363494,-0.00048726098611950896,0.0093484278768301,0,
00:00:02.076,0.00122410419862717,-0.000318996404530481,0.00990986544638872,0,
00:00:02.08,-0.0030273664742708198,-0.00215456122532487,-0.0139355696737766,0,
00:00:02.084,-0.00233286060392857,0.004126949235796929,0.009792806580662729,0,
00:00:02.088,-0.00241766567341983,-0.00229403004050255,0.00658157793805003,0,
00:00:02.092,0.00511749135330319,0.00473817437887192,-0.0188390463590622,0,
00:00:02.096,0.0010541083756834301,-0.00123845040798187,-0.005926076322793961,0,
00:00:02.1,-0.0026232381351292103,-0.00737457862123847,0.00981246866285801,0,
00:00:02.104,0.00115918042138219,-0.0005125534371472901,0.00295260408893228,0,
00:00:02.108,0.00320524396374822,0.00263642310164869,-0.00587730621919036,0,
00:00:02.112,-0.0039880285039544106,0.00281314365565777,0.00343558914028108,0,
00:00:02.116,-0.000365331798093393,0.00147675082553178,-0.0039532743394374795,0,
00:00:02.12,-0.00350265996530652,-0.00417746277526021,0.0283300131559372,0,
00:00:02.124,0.00863758940249681,0.005107457749545571,-0.00595386559143662,0,
00:00:02.128,-0.00260149873793125,0.00233487505465746,-0.0264036878943443,0,
00:00:02.132,0.000979358912445605,-0.00393561040982604,0.000325470959069207,0,
00:00:02.136,-0.00258909375406802,-0.0036640940234065104,-0.0026838113553822,0,
00:00:02.14,-0.00197705719619989,-0.0032541747204959397,0.00101289281155914,0,
00:00:02.144,-0.000248161115450785,0.00292314379476011,0.004521988332271579,0,
00:00:02.148,0.0030539904255420004,0.00755677605047822,0.0135576268658042,0,
00:00:02.152,-0.00279627670533955,-0.00234714825637639,0.008134097792208191,0,
00:00:02.156,-0.000907606270629913,-0.0056312526576221,-0.0049035931006074,0,
00:00:02.16,0.00778902927413583,0.00039149686926975803,0.00159305066335946,0,
00:00:02.164,-0.00156968552619219,0.0021145767532289,-0.0225660894066095,0,
00:00:02.168,-0.0054483111016452295,0.00158917182125151,-0.0042474758811295,0,
00:00:02.172,2.04737243620912e-05,0.00248428457416594,0.0036168692167848297,0,
00:00:02.176,0.0036711504217237204,-0.00453826086595654,0.007744231261312959,0,
00:00:02.18,-0.00072558136889711,-0.00252778874710202,0.0130014307796955,0,
00:00:02.184,-0.00336273317225277,0.000763575197197497,0.00122768548317254,0,
00:00:02.188,0.00146947870962322,0.012720599770546001,-0.0116963805630803,0,
00:00:02.192,0.00400080345571041,-0.0037149100098758897,-0.004612187389284371,0,
00:00:02.196,-0.00119839084800333,-0.0135016711428761,0.0030400778632611,0,
00:00:02.2,-0.0020034750923514397,-0.00265900837257504,-0.000818777363747358,0,
00:00:02.204,-0.00311140203848481,0.008611394092440609,0.011412875726818998,0,
00:00:02.208,-0.00207212683744729,0.00415867380797863,-0.00741615425795317,0,
00:00:02.212,0.0104551082476974,0.000658779754303396,-0.008191330358386041,0,
00:00:02.216,0.00230413884855807,-0.0033734659664332897,0.0121449362486601,0,
00:00:02.22,-0.00536898616701365,0.0022995569743216,0.00359783065505326,0,
00:00:02.224,-0.006788180675357579,-0.0036390193272382,-0.0142039125785232,0,
00:00:02.228,-0.0015144589124247401,0.000114736307295971,0.00599636696279049,0,
00:00:02.232,0.00904740393161774,0.00295346509665251,0.00437106611207128,0,
00:00:02.236,0.00011137435649288799,-0.00353891821578145,-0.00952626951038837,0,
00:00:02.24,-0.0021958826109767,0.0024106705095619,-0.00439571077004075,0,
00:00:02.244,-0.00365202641114593,-0.00077872461406514,0.00286856619641185,0,
00:00:02.248,0.0016866677906364198,-0.000889859918970615,-0.00028474550344981297,0,
00:00:02.252,0.00222105998545885,-0.00011210836237296499,0.0189336314797401,0,
00:00:02.256,0.00302635109983385,-0.0015932350652292401,0.00269148731604218,0,
00:00:02.26,-0.0023182760924100898,0.00465230597183108,-0.0112769734114408,0,
00:00:02.264,-0.00465533137321472,3.8937338104005896e-05,-0.0069775739684701,0,
00:00:02.268,0.0009608381660655141,-0.0014175202231854198,-0.00636500446125865,0,
00:00:02.272,0.00417831493541598,-0.00120118679478765,0.00308985915035009,0,
00:00:02.276,-0.000699623953551054,-0.000431889377068728,0.00992609467357397,0,
00:00:02.28,-0.0036122917663306,-0.00186238333117217,0.0022771607618778896,0,
00:00:02.284,0.00118347420357168,0.00245469436049461,1.74639717442915e-05,0,
00:00:02.288,0.0017523329006508,0.0041269809007644705,-0.0051016905345022704,0,
00:00:02.292,0.0028270494658499995,-0.00161922618281096,-0.00378043600358069,0,
00:00:02.296,-0.00226218090392649,-0.00252459826879203,0.00136620120611042,0,
00:00:02.3,-0.00239806529134512,-0.00343478773720562,-0.00668747443705797,0,
00:00:02.304,-0.00291604385711253,0.00203091581352055,0.00225679064169526,0,
00:00:02.308,0.000452783599030226,0.00457257544621825,0.0143549153581262,0,
00:00:02.312,0.006795531138777729,0.00119507405906916,0.00115354266017675,0,
00:00:02.316,0.00489281211048365,-0.00393235497176647,0.0034800071734935,0,
00:00:02.32,-0.00798257905989885,-0.00486997375264764,-0.0172739438712597,0,
00:00:02.324,-0.0055750529281795,0.0017514394130557802,-0.009568497538566591,0,
00:00:02.328,0.0020642203744500897,0.00309554813429713,0.00855849962681532,0,
00:00:02.332,0.00553043419495225,-0.000177518304553814,0.000422434852225706,0,
00:00:02.336,0.0021398889366537302,0.00632561417296529,0.0151785211637616,0,
00:00:02.34,-0.00345328124240041,-0.00320626236498356,0.005057592410594221,0,
00:00:02.344,-0.00488370656967163,-0.00630996003746986,-0.0142405368387699,0,
00:00:02.348,0.00145408790558577,2.8527436370495697e-05,-0.0121341301128268,0,
00:00:02.352,0.00276217958889902,0.00211102049797773,0.0012552896514535,0,
00:00:02.356,0.00168921973090619,0.00390825979411602,0.0048083239234983895,0,
00:00:02.36,0.0022294528316706397,-0.00125650607515126,0.0165245868265629,0,
00:00:02.364,-0.00280195591039956,-0.00189666799269617,-0.0014879199443385,0,
00:00:02.368,-0.00473614037036896,-0.00294247199781239,-0.0112036503851414,0,
00:00:02.372,0.00320843234658241,0.00011968804028583701,-0.00168539606966078,0,
00:00:02.376,0.000354473886545748,0.0084975603967905,0.00346328900195658,0,
00:00:02.38,-0.000216804735828191,-0.0035486528649926203,-0.00044771196553483605,0,
00:00:02.384,-3.8682399463141296e-05,0.00039496700628660603,0.00116397591773421,0,
00:00:02.388,-0.0019008431117981698,-0.00262826215475798,-0.00838983803987503,0,
00:00:02.392,0.0021885931491851802,-0.00377939711324871,0.00684928707778454,0,
00:00:02.396,0.00175499147735536,0.00202688481658697,0.0076184468343854,0,
00:00:02.4,0.00223335414193571,0.00277689355425537,-0.00787870958447456,0,
00:00:02.404,-0.00499789929017425,0.00349558726884425,-0.0071000806055963,0,
00:00:02.408,-0.000811372417956591,-0.00417362991720438,0.0154050849378109,0,
00:00:02.412,0.0007562961545772849,-0.000626834691502154,-0.0061266734264791,0,
00:00:02.416,0.00299048121087253,0.000469231395982206,0.00022653250198345602,0,
00:00:02.42,-0.00147131213452667,0.00254130992107093,-0.0022485924419015603,0,
00:00:02.424,-0.0036714957095682604,-0.0039026113227009795,-0.00976975820958614,0,
00:00:02.428,0.0036567908246070103,0.0023055095225572603,0.00794669520109892,0,
00:00:02.432,-0.00182280142325908,-0.000693457841407508,0.0138005334883928,0,
00:00:02.436,0.00138263532426208,-0.00282759126275778,-0.004094218835234639,0,
00:00:02.44,0.00123095791786909,0.00195455853827298,-0.00139054306782782,0,
00:00:02.444,0.000142988486913964,0.0021380051039159302,-0.0125411842018366,0,
00:00:02.448,-0.000652406888548285,-0.00134150462690741,-0.009466941468417641,0,
00:00:02.452,-0.000818656873889267,0.0035191052593290797,0.0156119307503104,0,
00:00:02.456,-0.000525552430190146,-0.00135991466231644,0.004497603513300421,0,
00:00:02.46,-9.80465410975739e-05,-0.002295141806826,-0.00246326578781009,0,
00:00:02.464,0.00021247637050692,0.000733453838620335,-0.0019431299297139,0,
00:00:02.468,0.000312404328724369,-0.00202522752806544,0.00409560557454824,0,
00:00:02.472,0.0023168611805886,-0.000888727197889239,-0.0030060384888202,0,
00:00:02.476,-0.0018777140649035601,-0.0013658796669915301,-0.0045179007574915895,0,
00:00:02.48,-0.0016696635866537699,0.005460903048515321,0.00596981216222048,0,
00:00:02.484,-0.0023416762705892303,0.0008183725876733661,-0.00517539819702506,0,
00:00:02.488,0.00273154000751674,-0.00103003426920623,0.0105527359992266,0,
00:00:02.492,0.00469742622226477,-0.00331605481915176,-0.00302573293447495,0,
00:00:02.496,-0.0032484258990734803,0.00125308427959681,0.000667377084027976,0,
00:00:02.5,-0.000405412167310715,0.00153323018457741,-0.0111069530248642,0,
00:00:02.504,-0.0019106765976175698,0.00044954984332434806,-0.0132071804255247,0,
00:00:02.508,0.0019757230766117603,0.0015898779965937099,0.01508151832968,0,
00:00:02.512,0.00560088269412518,-0.00276396260596812,0.009075259789824491,0,
00:00:02.516,-0.00606232322752476,-0.00428849318996072,0.0151540162041783,0,
00:00:02.52,-0.0022541549988091,0.00164244591724128,-0.0157251376658678,0,
00:00:02.524,-0.0017843890236690601,0.00266353273764253,-0.00518812518566847,0,
00:00:02.528,0.0033187244553118896,0.00151518522761762,-0.0145943015813828,0,
00:00:02.532,0.00704329088330269,0.00212364899925888,0.00480087008327246,0,
00:00:02.536,-0.00316318590193987,-0.0048759188503027,0.018118716776371002,0,
00:00:02.54,-0.00624111481010914,-0.00060962833231315,0.000929884845390916,0,
00:00:02.544,0.000191362763871439,0.0008906254079192881,-0.00710582174360752,0,
00:00:02.548,0.0022569743450731,0.00300395977683365,-0.00272355135530233,0,
00:00:02.552,0.0018797381781041603,-0.00154931808356196,0.00169862632174045,0,
00:00:02.556,0.000665147439576685,-0.00585334887728095,-0.0054897922091186,0,
00:00:02.56,0.0017169382190331801,0.0076271416619420095,-0.00311440485529602,0,
00:00:02.564,-0.00276184896938503,0.00196262216195464,0.0178738832473755,0,
00:00:02.568,-0.0023193375673145103,-0.00610009534284472,0.00254146964289248,0,
00:00:02.572,-0.000484151183627546,-0.0031442402396351103,-0.0169731844216585,0,
00:00:02.576,0.000892921001650393,0.0053257094696164105,0.0019318587146699398,0,
00:00:02.58,0.0012696974445134401,0.00128987547941506,-0.00666251825168729,0,
00:00:02.584,0.000882865453604609,-0.000520435976795852,0.0127706788480282,0,
00:00:02.588,-0.0018434228841215398,-0.00093642866704613,-0.00556600885465741,0,
00:00:02.592,0.00170111434999853,-0.0006516871508210901,-0.0009498294093646109,0,
00:00:02.596,0.0032517791260033803,-0.0022630535531789103,0.012948046438396003,0,
00:00:02.6,-0.0021823444403708,0.00212781247682869,-0.004749763756990429,0,
00:00:02.604,-0.004734060727059839,0.00398850394412875,-0.00037468911614268996,0,
00:00:02.608,0.0007940623909235,0.000490388192702085,-0.0129000199958682,0,
00:00:02.612,0.0019825892522931103,-0.00853013526648283,0.006208387203514579,0,
00:00:02.616,0.0012576668523252,0.00107053632382303,0.00152032275218517,0,
00:00:02.62,0.0022451647091656897,0.00530737405642867,-0.0017582104774192,0,
00:00:02.624,-0.00457379408180714,8.52255179779604e-05,0.00430631637573242,0,
00:00:02.628,0.00174939061980695,-0.00141224556136876,-2.33592709264485e-05,0,
00:00:02.632,-0.000931971822865307,-0.00111385085619986,-0.00955505296587944,0,
00:00:02.636,-0.00485385395586491,-0.00238852784968913,0.0110565964132547,0,
00:00:02.64,0.00412385584786534,0.0022699460387229898,-0.00185429747216403,0,
00:00:02.644,0.00189701211638749,0.00213600671850145,0.007804423570632929,0,
00:00:02.648,0.00922168418765068,0.00262398435734212,-0.0101287178695202,0,
00:00:02.652,-0.0077235484495759,-0.000620050413999707,0.00141131004784256,0,
00:00:02.656,-0.0048788394778966895,-0.00680631631985307,0.0009113785927183929,0,
00:00:02.66,-0.00333351409062743,-0.00272506545297801,-0.00968527514487505,0,
00:00:02.664,0.00320301204919815,0.00612308597192168,-0.000397790689021349,0,
00:00:02.668,0.00367295555770397,0.00193869997747242,0.007171725854277609,0,
00:00:02.672,0.00381013657897711,-0.00023900911037344502,0.00564923509955406,0,
00:00:02.676,-0.0022423483897000603,-0.000986248720437288,-0.000672800873871893,0,
00:00:02.68,-0.00293123768642545,0.00120638078078628,-0.0144221363589168,0,
00:00:02.684,-0.00145264167804271,-0.0023820362985134103,0.0270672328770161,0,
00:00:02.688,0.000166903322678991,-0.0036898944526910795,-0.000218869157833979,0,
00:00:02.692,0.00101909483782947,0.00205419003032148,-0.0179048590362072,0,
00:00:02.696,-0.00104628887493163,0.0048295701853931,-0.00489238929003477,0,
00:00:02.7,0.00460482947528362,-0.0026913036126643398,-0.009841036982834341,0,
00:00:02.704,-0.00239550741389394,0.0022157421335578,0.006008443888276821,0,
00:00:02.708,0.00226533156819642,-0.00152658810839057,0.014432012103498001,0,
00:00:02.712,-0.00173737527802587,-0.00164660299196839,-0.0030900526326149698,0,
00:00:02.716,-0.00190867483615875,-0.0026247270870953803,0.0104508390650153,0,
00:00:02.72,-0.0027734786272049,0.000321537838317454,0.0023113910574466,0,
00:00:02.724,0.0044796178117394395,0.00648125587031245,-0.0105286436155438,0,
00:00:02.728,0.00264063547365367,0.00254398281686008,-0.006860954221338029,0,
00:00:02.732,-0.00476017640903592,-0.00405301293358207,-0.0129121067002416,0,
00:00:02.736,0.00171071873046458,-0.00380722945556045,0.00463005295023322,0,
00:00:02.74,-0.00285852677188814,-0.0033484306186437602,0.018904747441411,0,
00:00:02.744,0.00145201664417982,0.00287429918535054,0.00439109047874808,0,
00:00:02.748,0.00190133624710143,0.0033822269178926897,-0.0018187718233093602,0,
00:00:02.752,-0.00124151061754674,0.00159146601799875,-0.0017824282404035302,0,
00:00:02.756,0.00377069087699056,-0.000279495696304366,-0.018036974593996998,0,
00:00:02.76,0.0009280401864089071,0.000840023101773113,-0.0024528217036277103,0,
00:00:02.764,-0.00626558903604746,-0.00319201708771288,0.0125102903693914,0,
00:00:02.768,-0.00312671042047441,-0.00228656851686537,0.00381076894700527,0,
00:00:02.772,0.00536474352702498,-0.000186492354259826,-0.00232469919137657,0,
00:00:02.776,0.00134429184254259,-0.000854597426950932,-0.00166898057796061,0,
00:00:02.78,-0.00044535376946441797,0.00345149007625878,0.00427298108115792,0,
00:00:02.784,-0.00293040042743087,0.00464761862531304,-0.00087298481957987,0,
00:00:02.788,0.00139036308974028,-0.0016324199968949,-0.00235477276146412,0,
00:00:02.792,0.00356814288534224,-0.0028633009642362603,-0.00587986968457699,0,
00:00:02.796,-0.00163756287656724,-0.0038281755987554797,0.00142586301080883,0,
00:00:02.8,-0.00222503766417503,0.0038458190392702796,0.0161742381751537,0,
00:00:02.804,-0.00100872223265469,0.000448352482635528,-0.0132252918556333,0,
00:00:02.808,0.000280630716588348,-0.00047992804320529103,-0.007247247267514471,0,
00:00:02.812,-0.0011684104101732401,-0.00037141176289878796,0.00122274237219244,0,
00:00:02.816,0.00282084220089018,0.00204329541884363,0.0199809428304434,0,
00:00:02.82,0.00205522682517767,-0.005943917203694579,-0.0005404441035352651,0,
00:00:02.824,0.00221492489799857,0.00459158653393388,-0.0173145961016417,0,
00:00:02.828,-0.0031145894899964302,0.00124266988132149,-0.008619971573352809,0,
00:00:02.832,-0.00299534550867975,0.00162361806724221,0.009102919138967991,0,
00:00:02.836,0.001063167816028,-0.00496647972613573,0.00651558907702565,0,
00:00:02.84,-0.0054129702039063,-0.0024170782417058897,0.000419380085077137,0,
00:00:02.844,0.00162666430696845,0.0032270289957523303,-0.00288369040936232,0,
00:00:02.848,0.0103763174265623,0.0048864190466702,0.00137159356381744,0,
00:00:02.852,-0.0027227336540818197,-0.00132296921219677,-0.000712251989170909,0,
00:00:02.856,-0.0019448366947472102,-0.00471490109339356,0.014461106620728997,0,
00:00:02.86,-0.00144335569348186,0.000328598107444122,-0.00497724954038858,0,
00:00:02.864,-0.000795546860899776,0.00352678564377129,-0.0188855212181807,0,
00:00:02.868,-0.000134428992168978,-0.0010474353330209901,-0.0056545617990195795,0,
00:00:02.872,0.0023924014531076,-0.00361161516048014,0.00494697922840714,0,
00:00:02.876,0.000564207148272544,0.00347470538690686,0.0105780391022563,0,
00:00:02.88,-0.005326776765286921,3.07456684822682e-05,0.010619230568409,0,
00:00:02.884,0.000318021047860384,-0.000721509044524282,-0.00349369109608233,0,
00:00:02.888,0.000209739184356295,-0.000416013732319698,-0.0149379884824157,0,
00:00:02.892,0.00598062388598919,4.320958032622e-05,0.0118126375600696,0,
00:00:02.896,0.000359971425496042,0.000286132271867245,0.00398619147017598,0,
00:00:02.9,-0.00392809277400374,0.000276032165857032,-0.0185917429625988,0,
00:00:02.904,0.0021699247881770104,0.000127018472994678,-0.00515429908409715,0,
00:00:02.908,0.0007947920821607111,-0.0021057967096567197,0.0210958663374186,0,
00:00:02.912,-0.0013378269504755699,0.00600975658744574,0.0023456951603293397,0,
00:00:02.916,-0.00614070519804955,-0.00243020220659673,-0.00449721375480294,0,
00:00:02.92,0.000600440776906908,-0.0052564037032425395,-0.010877825319767,0,
00:00:02.924,0.00308525492437184,0.00283984746783972,0.005816068500280379,0,
00:00:02.928,0.000585370173212141,0.000350762624293566,0.00943852681666613,0,
00:00:02.932,0.00509823206812143,-1.58044269937818e-06,-0.011751851066946999,0,
00:00:02.936,-0.000754652370233089,0.000189130485523492,-0.00226057344116271,0,
00:00:02.94,-0.00465658912435174,-0.00178495771251619,0.00495104258880019,0,
00:00:02.944,-8.508712198818101e-05,0.00425105867907405,0.008018752560019491,0,
00:00:02.948,0.000912998570129275,-0.000311131618218496,-0.00744491862133145,0,
00:00:02.952,0.00263432529754937,-0.00366104696877301,-0.0030138106085360102,0,
00:00:02.956,-0.00404192134737968,0.00286235031671822,0.00485758716240525,0,
00:00:02.96,0.00212471606209874,-0.000651815731544048,0.00861993338912725,0,
00:00:02.964,-0.000792871229350567,-0.00112747203093022,-0.0217283014208078,0,
00:00:02.968,-0.00281949643976986,-0.00253885658457875,-0.0022163027897477198,0,
00:00:02.972,-4.4657816033577506e-05,0.00429217796772718,0.0312050431966782,0,
00:00:02.976,0.00420127343386412,0.000217078108107671,4.731905210064721e-05,0,
00:00:02.98,0.00866221729665995,0.001080252812244,-0.0251123029738665,0,
00:00:02.984,-0.00833989214152098,-0.00279745645821095,-0.0102129094302654,0,
00:00:02.988,-0.00691063655540347,-0.00396367721259594,0.0108804320916533,0,
00:00:02.992,0.00327745941467583,0.00200134748592973,0.00483607174828649,0,
00:00:02.996,-0.0006793485372327269,0.000765583594329655,-0.000286963768303394,0,
00:00:03,0.00279355165548623,0.0034523159265518197,0.0190453268587589,0,
00:00:03.004,0.00422058533877134,0.00359798013232648,-0.0016993072349578099,0,
00:00:03.008,-0.0016143857501447199,-0.00280441716313362,-0.0124344751238823,0,
00:00:03.012,-0.00257772952318192,-0.0035435052122920795,-0.0115529028698802,0,
00:00:03.016,-0.0014481379184871901,-0.0018085427582263899,-0.00044921794324182,0,
00:00:03.02,-0.00211344263516366,0.000153694592881948,0.006700770463794471,0,
00:00:03.024,0.00276099890470505,0.00124248280189931,-0.00115200516302139,0,
00:00:03.028,0.000451361323939636,-0.000762222043704242,0.0051506832242012,0,
00:00:03.032,0.00475534750148654,0.00481180846691132,0.00344402552582324,0,
00:00:03.036,-0.001106544630602,0.00183336366899312,-0.00213968753814697,0,
00:00:03.04,-0.00480803940445185,-0.00379109103232622,-0.0023927248548716302,0,
00:00:03.044,2.15306772588519e-06,-0.00104965385980904,-0.0010196816874668,0,
00:00:03.048,0.0032162363640964,-0.00266997329890728,0.0064178267493844,0,
00:00:03.052,0.000892085372470319,-0.00259208306670189,-0.0010965883266180801,0,
00:00:03.056,-0.00553724495694041,0.00136161118280143,-0.010397712700069001,0,
00:00:03.06,-0.0021661464124918,0.005612304434180261,-0.00374420545995235,0,
00:00:03.064,0.00811156257987022,0.00523607525974512,0.00562606891617179,0,
00:00:03.068,-0.004602570552378889,-0.00443174550309777,0.0187323689460754,0,
00:00:03.072,0.0016517651965841699,-0.00205502053722739,-0.008839419111609459,0,
00:00:03.076,0.0018862282158806898,-0.000992405461147428,3.04069144476671e-05,0,
00:00:03.08,0.000303730834275484,-0.00032921606907621,-0.0216357875615358,0,
00:00:03.084,-0.0009533904958516359,0.00220485869795084,0.00851575098931789,0,
00:00:03.088,-0.00125397264491767,-0.00161046418361366,0.010736939497292,0,
00:00:03.092,-0.000823419017251581,-0.0033350954763591303,-0.0106234066188335,0,
00:00:03.096,0.00191267509944737,0.0041303979232907295,0.011567385867238,0,
00:00:03.1,-0.00164847960695624,0.000598109618294984,0.00487310625612736,0,
00:00:03.104,-0.0032270674128085397,-0.00047646911116316904,-0.008593946695327759,0,
00:00:03.108,0.00218237936496735,-0.00048240995965898,-0.0036746521946042798,0,
00:00:03.112,0.00472068320959806,-0.000186521021532826,0.000211881662835367,0,
00:00:03.116,-0.0008091248455457389,5.48590542166494e-05,0.00606333697214723,0,
00:00:03.12,-0.00199203123338521,0.000141189695568755,0.00198321137577295,0,
00:00:03.124,-0.00125973764806986,0.000105756203993224,-0.00437952252104878,0,
00:00:03.128,-0.000166260433616117,0.00209985463880003,-0.00583156570792198,0,
00:00:03.132,0.000527501048054546,-0.006169100292026999,0.00102567137219012,0,
00:00:03.136,0.000663389451801777,0.00224193930625916,0.0029262704774737397,0,
00:00:03.14,0.00042313415906392,0.00512894289568067,-0.00195684097707272,0,
00:00:03.144,7.955588080221791e-05,-0.000802312104497105,0.006702944170683621,0,
00:00:03.148,-0.000166759826242924,-0.00229599187150598,0.0028826904017478197,0,
00:00:03.152,0.00183138670399785,0.0004924592212773861,-0.00628116307780147,0,
00:00:03.156,-0.00423805182799697,-0.004368788097053771,-0.004370151553302999,0,
00:00:03.16,0.000259498337982222,0.000907844572793692,-0.00431347591802478,0,
00:00:03.164,0.00356470793485641,0.0043663140386343,0.020904092118143997,0,
00:00:03.168,-0.000884749984834343,-0.00036284132511355,-0.00579821551218629,0,
00:00:03.172,-0.00346507458016276,-0.00334787857718766,-0.0116618685424328,0,
00:00:03.176,-0.000637542107142508,-0.000816888525150716,-0.00251218164339662,0,
00:00:03.18,0.00183853972703218,0.00155812385492027,-0.00133559899404645,0,
00:00:03.184,0.00649712327867746,0.00835179165005684,-0.00024279419449158,0,
00:00:03.188,0.00157680397387594,-0.0025665161665529,0.0243661422282457,0,
00:00:03.192,-0.00306233274750412,-0.00478228414431214,0.008128838613629341,0,
00:00:03.196,-0.00641127303242683,-0.00496677216142416,-0.026164460927247998,0,
00:00:03.2,-0.00296289077959955,0.0038292361423373205,-0.0162572339177132,0,
00:00:03.204,0.0010595144703984302,0.00320872897282243,0.0076609714888036294,0,
00:00:03.208,0.000938347307965159,-0.00373635534197092,0.0116378245875239,0,
00:00:03.212,0.00472400430589914,0.000465752731543034,0.00460559874773026,0,
00:00:03.216,0.00294021423906088,0.00361467339098454,0.00236206059344113,0,
00:00:03.22,-7.42043221180211e-06,-0.0030268793925643,0.000301445281365886,0,
00:00:03.224,-0.0018577567534521198,0.00252919062040746,-0.00996492244303226,0,
00:00:03.228,-0.00211327197030187,-0.00100788043346256,-0.00311935413628817,0,
00:00:03.232,-0.00337598146870732,-0.00333975907415152,0.00566106894984841,0,
00:00:03.236,0.0038273644167929896,0.00154423550702631,0.00535307824611664,0,
00:00:03.24,0.000194231091882102,0.00404111389070749,-0.00681711686775088,0,
00:00:03.244,-0.0027872095815837396,-0.0011983566218987099,0.0017746340017765802,0,
00:00:03.248,0.00359953683800995,-0.00202218000777066,-0.0073513104580342796,0,
00:00:03.252,0.00177580048330128,-0.00105230417102575,-0.0056837461888790105,0,
00:00:03.256,-0.00519843585789204,9.910883818520229e-05,0.014562108553946003,0,
00:00:03.26,-0.000356750882929191,0.000716698647011071,0.0135537507012486,0,
00:00:03.264,-0.000619793601799756,0.000728461891412735,-0.00668757408857346,0,
00:00:03.268,0.00338929332792759,-0.00168749282602221,-0.00783746223896742,0,
00:00:03.272,0.00641375686973333,0.00405252072960138,-0.00750437146052718,0,
00:00:03.276,-0.00392131926491857,-0.00056991440942511,-0.0058786044828593705,0,
00:00:03.28,-0.00880852341651917,-0.00174445088487118,0.0069069201126694705,0,
00:00:03.284,0.00412987032905221,-0.00120637973304838,-0.0006222470547072589,0,
00:00:03.288,1.24535572467721e-05,-0.00231358013115823,0.0197568908333778,0,
00:00:03.292,0.00680119404569268,0.0044960053637623796,0.0042029335163533705,0,
00:00:03.296,-0.00038213597144931604,0.00237760529853404,-0.0208719521760941,0,
00:00:03.3,-0.00761584797874093,-0.0029860052745789302,-0.0100450264289975,0,
00:00:03.304,-0.00127344625070691,-0.00459726899862289,0.008173525333404541,0,
00:00:03.308,-0.000155244881170802,-0.0005733651341870429,0.00175265746656805,0,
00:00:03.312,0.00442190747708082,0.00464325165376067,0.0166375357657671,0,
00:00:03.316,0.00312286661937833,0.005287562031298879,-0.0133242439478636,0,
00:00:03.32,0.000374656519852579,-0.0017156719695776699,-0.00989809911698103,0,
00:00:03.324,-0.00150388630572706,-0.00331702269613743,0.0108249299228191,0,
00:00:03.328,-0.0019094144226983198,-0.00218467926606536,0.0070298463106155396,0,
00:00:03.332,0.0008163064485415821,-0.00248030154034495,-0.00530008319765329,0,
00:00:03.336,-0.0022645257413387303,0.00487674353644252,-0.0140308877453208,0,
00:00:03.34,-0.00328651443123817,0.00083040859317407,0.0100051751360297,0,
00:00:03.344,0.0024803951382637,-0.0006307990988716481,0.0038997095543891204,0,
00:00:03.348,0.00510297762230039,-0.0007549730944447219,-0.0061891945078969,0,
00:00:03.352,-0.00261608883738518,-0.00245289457961917,0.0105735026299953,0,
00:00:03.356,7.083614036673679e-05,0.00406621070578694,0.00157920154742897,0,
00:00:03.36,0.0024021896533668,-0.00011542536958586399,-0.0195197090506554,0,
00:00:03.364,-4.50796414952492e-06,0.0008335470338352019,0.009786883369088171,0,
00:00:03.368,-0.0061094197444617705,-0.00495431292802095,0.00394733063876629,0,
00:00:03.372,-0.000257060601143166,0.000145320140291005,-0.000511243299115449,0,
00:00:03.376,0.00210271123796701,0.00178673584014177,-0.0126198073849082,0,
00:00:03.38,0.00207675294950604,0.0014818573836237199,0.0038761962205171602,0,
00:00:03.384,0.0009846249595284462,0.000510736543219537,0.0178084783256054,0,
00:00:03.388,-0.0022047176025807897,0.00177158415317535,-0.00330082583241165,0,
00:00:03.392,0.0033215673174709103,-0.00261491700075567,-0.0141083216294646,0,
00:00:03.396,0.0009825413580983882,-0.00426321336999536,0.00305832480080426,0,
00:00:03.4,-0.00595969799906015,0.00155383651144803,0.00241207191720605,0,
00:00:03.404,-0.0007493009907193481,0.00460393726825714,-0.00299304397776723,0,
00:00:03.408,-0.0006058837170712651,-0.00264986651018262,0.0123593136668205,0,
00:00:03.412,0.00572537444531918,0.00032440747600048797,-0.0112774977460504,0,
00:00:03.416,0.000587550981435925,0.0006395756499841809,-0.000780540169216692,0,
00:00:03.42,-0.0014136559329927,0.00218456331640482,0.0084786294028163,0,
00:00:03.424,-0.00149410334415734,-0.00232768710702658,-0.0103282993659377,0,
00:00:03.428,-0.000751060550101101,-0.00210646912455559,0.0035418663173914,0,
00:00:03.432,0.0021056595724076,-0.00047848970280028896,0.00187775830272585,0,
00:00:03.436,-0.0035894999746233203,-0.0012851917417720001,-0.00357159576378763,0,
00:00:03.44,0.000832876830827445,0.0031343607697635898,-0.00249157170765102,0,
00:00:03.444,0.00176048348657787,0.0024631090927869103,0.00870456919074059,0,
00:00:03.448,0.00106212170794606,0.0024815816432237603,0.0131501741707325,0,
00:00:03.452,0.00213333545252681,-0.000983135076239705,-0.007180635351687671,0,
00:00:03.456,-0.0046216077171266105,-0.00714567070826888,-0.0151834469288588,0,
00:00:03.46,0.00173365930095315,0.00124559248797596,-0.00043038566946052004,0,
00:00:03.464,-0.000937883101869375,8.577956032240759e-05,-0.00310056516900659,0,
00:00:03.468,-0.00485967472195625,-0.0034284433349967,0.00011314998118905401,0,
00:00:03.472,0.00619258778169751,0.00718943448737264,0.0055291890166699895,0,
00:00:03.476,0.0019911986310035,0.00226233759894967,0.01289979275316,0,
00:00:03.48,0.0014491188339889,-0.0029979643877595698,0.00220664800144732,0,
00:00:03.484,-0.00559263955801725,0.00199634511955082,-0.00662408862262964,0,
00:00:03.488,-0.00300345267169178,-0.0020203348249197,0.0021112037356942896,0,
00:00:03.492,0.00501983286812902,-0.00423157773911953,-0.010432492941617999,0,
00:00:03.496,0.000868690898641944,0.00323721580207348,-0.00167085707653314,0,
00:00:03.5,-0.000776493572629988,0.00220218533650041,-0.0024418036919087198,0,
00:00:03.504,-0.000943073013331741,-0.00242044939659536,-0.0041378834284842,0,
00:00:03.508,-0.000482967880088836,-0.0038480656221509,0.0147696929052472,0,
00:00:03.512,2.5679897589725398e-05,-5.18304150318727e-05,0.0071237953379750295,0,
00:00:03.516,0.000306477071717381,0.0047973017208278205,-0.000995910493656993,0,
00:00:03.52,0.00240256055258214,0.00515429582446814,0.0010923161171376699,0,
00:00:03.524,-0.00386250182054937,0.00011281340994173702,-0.00890543218702078,0,
00:00:03.528,0.00035416719038039397,-0.007577375974506141,-0.0115920631214976,0,
00:00:03.532,0.0034515378065407302,-0.00194912240840495,-0.00220585195347667,0,
00:00:03.536,-0.00107229431159794,0.0010697590187192,0.0034924962092191,0,
00:00:03.54,-0.0036161839962005602,-0.000162542943144217,0.0033192983828485,0,
00:00:03.544,0.00137310742866248,0.00547262374311686,0.0271524488925934,0,
00:00:03.548,0.0040278360247612,0.000148469116538763,-0.0035174163058400197,0,
00:00:03.552,-0.00111817743163556,-0.0017402041703462599,-0.0197885353118181,0,
00:00:03.556,-0.0019309839699417398,-0.00368623016402125,-0.0173998959362507,0,
00:00:03.56,-0.00307680666446686,0.00335287721827626,0.0173103418201208,0,
00:00:03.564,0.00415176851674914,-0.000178572969161905,0.006817973684519529,0,
00:00:03.568,0.00242874398827553,-0.000893052201718092,0.0105151738971472,0,
00:00:03.572,-0.00482478458434343,-0.0025431597605347603,-0.0187738612294197,0,
00:00:03.576,-0.000323725049383938,0.00208152295090258,-0.00910060480237007,0,
00:00:03.58,-0.000802158261649311,0.00204515177756548,0.00665925489738584,0,
00:00:03.584,0.0031612915918231,0.00263484730385244,0.008100742474198341,0,
00:00:03.588,0.004183453507721421,-0.0026333115529269,0.0079831974580884,0,
00:00:03.592,-0.0019896286539733397,-0.00269343424588442,-0.00668870797380805,0,
00:00:03.596,-0.00504986103624105,-0.0009506987407803539,-0.0063367658294737296,0,
00:00:03.6,0.000328939902829006,0.000605955312494189,0.00036706909304484703,0,
00:00:03.604,0.00163957593031228,-0.00084425532259047,-0.00216499855741858,0,
00:00:03.608,0.0011392243904992901,0.0029927403666079,0.0136453798040748,0,
00:00:03.612,0.00231195916421711,0.00620878441259265,-0.00637958850711584,0,
00:00:03.616,-0.00442596664652228,-0.00598899507895112,-0.00465384218841791,0,
00:00:03.62,-0.000194107735296711,-0.00464402697980404,-0.00342753110453486,0,
00:00:03.624,0.00110990891698748,0.00182999984826893,0.0030650834087282398,0,
00:00:03.628,0.00301510281860828,0.00472247833386064,0.00148687593173236,0,
00:00:03.632,-0.00166449602693319,-0.000693563604727387,0.00155880593229085,0,
00:00:03.636,-0.0018413816578686198,-0.0018477521371096399,0.00537990732118487,0,
00:00:03.64,-0.0026448082644492396,-0.00112923001870513,0.000605848268605769,0,
00:00:03.644,0.00250175921246409,0.0020013032481074303,-0.00971952173858881,0,
00:00:03.648,0.004622612614184621,-0.00347828725352883,-0.00871795229613781,0,
00:00:03.652,-0.0031930371187627303,-0.00107221957296133,0.0122637562453747,0,
00:00:03.656,-0.000294036814011633,0.0038487485144287296,0.0210382174700499,0,
00:00:03.66,0.00233873073011637,0.00687347166240215,-0.0120191732421517,0,
00:00:03.664,-0.00400221161544323,-0.00584458885714412,-0.0256391260772944,0,
00:00:03.668,0.000139523195684887,-0.0027968636713922,0.00314594921655953,0,
00:00:03.672,0.00122253107838333,-0.00047222772263921797,0.0103546129539609,0,
00:00:03.676,0.0008835782646201551,-0.00129422917962074,0.00108934810850769,0,
00:00:03.68,0.00227023963816464,0.00302723096683621,0.00145281117875129,0,
00:00:03.684,-0.00226616952568293,0.004431901499629021,0.00450562918558717,0,
00:00:03.688,-0.00206560222432017,-0.00367503985762596,0.00189082813449204,0,
00:00:03.692,-0.000473174441140145,0.00137896544765681,0.0048711714334785895,0,
00:00:03.696,-0.0013127200072631199,-0.0018680884968489398,0.00152654049452394,0,
00:00:03.7,0.00309205777011812,-0.0015223165974021,-0.0194890014827251,0,
00:00:03.704,0.00242593418806791,-0.00019057744066231002,-0.00803362112492323,0,
00:00:03.708,0.000385326944524422,0.000770152837503701,0.0075368429534137206,0,
00:00:03.712,-0.00108653958886862,0.0009834497468546029,0.00855731032788754,0,
00:00:03.716,0.000631411909125745,0.000647381530143321,-7.200035179266709e-05,0,
00:00:03.72,-0.0029507395811379,0.00014248305524233702,-0.00480165611952543,0,
00:00:03.724,-0.00603231834247708,-0.00230818032287061,0.0105305062606931,0,
00:00:03.728,0.00616985792294145,0.00368966767564416,-0.00190560973715037,0,
00:00:03.732,0.00267460267059505,-0.00061937264399603,0.00409079482778907,0,
00:00:03.736,0.000162614363944158,-0.00158595235552639,-0.0103756356984377,0,
00:00:03.74,-0.0010468426626175599,-0.000992798595689237,-0.0109076593071222,0,
00:00:03.744,-0.00116358313243836,-8.31392899272032e-05,0.000218236673390493,0,
00:00:03.748,-0.000680375727824867,0.000498866953421384,0.0222585164010525,0,
00:00:03.752,-9.11121533135884e-05,0.0006070353556424379,0.0027357097715139398,0,
00:00:03.756,0.0023696676362305897,0.000390323053579777,-0.0067993779666721795,0,
00:00:03.76,-0.0036604274064302397,0.00215856824070215,-0.0181854274123907,0,
00:00:03.764,0.000610561051871628,-0.00211535347625613,0.00976983085274696,0,
00:00:03.768,0.00155539403203875,-0.0039316704496741295,0.0021586278453469302,0,
00:00:03.772,0.000961214245762676,0.00163152604363859,7.92675855336711e-05,0,
00:00:03.776,0.00213975901715457,0.00241658533923328,-0.00207750196568668,0,
00:00:03.78,-0.00247801537625492,0.0012232350418344099,0.000152520180563442,0,
00:00:03.784,-0.00431809527799487,-0.000150867563206702,0.0039165075868368105,0,
00:00:03.788,0.00141802837606519,-0.00296176061965525,-0.00219743349589407,0,
00:00:03.792,0.004485465120524171,0.0031530205160379397,0.00736034521833062,0,
00:00:03.796,-0.0006276033818721769,-0.00082024117000401,0.0014106451999396099,0,
00:00:03.8,-0.0037171540316194296,-0.00148178008385003,-0.0108259292319417,0,
00:00:03.804,0.00309193204157054,0.00133249373175204,-0.0124981589615345,0,
00:00:03.808,-0.00450825178995728,-0.0039015065412968397,0.0173059869557619,0,
00:00:03.812,0.00300263613462448,-0.0031942690256983,-6.68652955937432e-06,0,
00:00:03.816,0.004907867871224879,0.0122592328116298,-0.000801291724201292,0,
00:00:03.82,-0.0014873245963826802,-0.00129416701383889,-0.000972842564806342,0,
00:00:03.824,-0.000839717104099691,-0.00438183732330799,-0.000725274789147079,0,
00:00:03.828,-0.0038391361013054796,-0.0048825372941792,-0.010698864236474,0,
00:00:03.832,-0.00397594226524234,0.0016694681253284199,0.0140528837218881,0,
00:00:03.836,0.00469272956252098,0.00500264996662736,0.0148390159010887,0,
00:00:03.84,-0.000488381658215076,-0.00022224895656108902,-0.007913511246442791,0,
00:00:03.844,0.0043574427254498,-0.0014925281284377,-0.024908572435378997,0,
00:00:03.848,-0.000509866687934846,-0.00310507556423545,-0.0017780982889235,0,
00:00:03.852,0.000308943970594555,0.00385896698571742,0.0133303478360176,0,
00:00:03.856,-0.00325746717862785,0.00210612476803362,0.00175438518635929,0,
00:00:03.86,-0.00613853987306356,-0.00502621335908771,0.0120674530044198,0,
00:00:03.864,0.00203739176504314,-0.0024432921782136,-0.00106043054256588,0,
00:00:03.868,0.00873824395239353,0.00539214536547661,-0.00609847344458103,0,
00:00:03.872,0.0014697230653837302,-0.0011194618418812802,-0.00340373627841473,0,
00:00:03.876,-0.0044535961933434,0.0010563088580966,-0.004386229440569879,0,
00:00:03.88,0.000966567720752209,0.0025389718357473603,-0.007347830105572941,0,
00:00:03.884,-0.00227288529276848,-0.00248219049535692,0.0160764288157225,0,
00:00:03.888,-0.00181106419768184,-0.0025594993494451,-0.00218690908513963,0,
00:00:03.892,-0.00025665308930911097,-0.0008994847885333,-0.00397238694131374,0,
00:00:03.896,0.000904190586879849,0.0005950503400526941,-0.0050932499580085295,0,
00:00:03.9,0.00328286550939083,0.00119975826237351,0.00550989666953683,0,
00:00:03.904,-0.0032061734236776803,0.00307064759545028,0.0178469400852919,0,
00:00:03.908,0.000582106527872384,-0.0015631024725735198,-0.00403768103569746,0,
00:00:03.912,0.0012439297279343,-0.0038453843444585796,-0.021628700196743,0,
00:00:03.916,-0.00146498461253941,0.00139820657204837,-0.000795386557001621,0,
00:00:03.92,0.00181307538878173,0.00209173443727195,-0.000515653286129236,0,
00:00:03.924,0.00108139077201486,0.000982329249382019,0.00477499235421419,0,
00:00:03.928,-0.000358465127646923,-0.000239952554693446,0.012956534512341002,0,
00:00:03.932,0.000961344747338444,-0.000848217692691833,0.00706795789301395,0,
00:00:03.936,-0.002990533830598,0.0012734089978039302,-0.005581144243478779,0,
00:00:03.94,-0.0020919218659400897,-0.000297982303891331,-0.00871377531439066,0,
00:00:03.944,-0.0021293219178915,-0.005663594696670771,-0.0182763151824474,0,
00:00:03.948,0.0011762351496145099,-0.0016412797849625301,0.0127539895474911,0,
00:00:03.952,0.00716392137110233,0.00459252251312137,0.0142633691430092,0,
00:00:03.956,0.000738667382393032,0.0038864407688379296,-0.0115773472934961,0,
00:00:03.96,-0.00217748223803937,0.00103988719638437,-0.000235141007578932,0,
00:00:03.964,-0.000370358931832016,0.000857386796269566,0.007488529663532971,0,
00:00:03.968,-0.0033409132156521104,-0.00602594250813127,0.000684195489156991,0,
00:00:03.972,-0.00173506594728678,-0.0011660733725875599,-0.000671335321385413,0,
00:00:03.976,0.000520314730238169,0.000940716825425625,-0.0008965721935965119,0,
00:00:03.98,0.00169613468460739,0.00339833693578839,-0.011429731734096999,0,
00:00:03.984,-0.00047738573630340403,-0.0011176842963323,0.000456893176306039,0,
00:00:03.988,0.00276113860309124,-0.0035073040053248397,0.000616102712228894,0,
00:00:03.992,0.0036421935074031396,0.00156087172217667,0.0102775236591697,0,
00:00:03.996,-0.00444898894056678,0.0041834083385765605,0.00102246692404151,0,
00:00:04,-0.00321923894807696,-0.00312993628904223,0.006420898251235489,0,
00:00:04.004,0.00408602086827159,0.0020973049104213697,-0.0139826908707619,0,
00:00:04.008,-4.06406652473379e-05,-0.0014019490918144599,0.00464583281427622,0,
00:00:04.012,-0.00123871851246804,-0.00350705394521356,-0.00343242869712412,0,
00:00:04.016,-0.000917335448320955,0.00367876561358571,-0.00246436498127878,0,
00:00:04.02,0.00190831976942718,0.000167011792655103,0.000522801768966019,0,
00:00:04.024,0.00048309672274626797,-0.000689722073730081,-0.008066600188612941,0,
00:00:04.028,-0.005155568011105061,-0.00253175827674568,0.0121739953756332,0,
00:00:04.032,-0.00153333961497992,0.00195787334814668,0.0218456517904997,0,
00:00:04.036,0.00440549198538065,0.00396023644134402,-0.00688742054626346,0,
00:00:04.04,0.0035991738550365,-0.00153554091230035,-0.0292250718921423,0,
00:00:04.044,0.000813479826319963,-0.00442243926227093,-0.0047043678350746606,0,
00:00:04.048,-0.00131363433320075,0.0028374083340168,0.0193180348724127,0,
00:00:04.052,0.000122701865620911,-0.00022031665139365898,0.0075934571214020296,0,
00:00:04.056,-0.00546978786587715,-0.000632166396826506,-0.00947888940572739,0,
00:00:04.06,-0.00218633678741753,-0.000162478565471247,0.0072420085780322595,0,
00:00:04.064,0.00586468353867531,0.00236125849187374,-0.00582541059702635,0,
00:00:04.068,0.0034408939536660897,-0.00363270030356944,-0.00462662475183606,0,
00:00:04.072,-0.00266781239770353,0.000620656937826425,0.00401506759226322,0,
00:00:04.076,-0.00484968163073063,0.00152782490476966,-0.0074479915201664,0,
00:00:04.08,-0.00102471758145839,0.000908949412405491,0.0118597541004419,0,
00:00:04.084,0.00429254584014416,0.0020877248607575898,0.0106251547113061,0,
00:00:04.088,0.00516107445582747,-0.00458702212199569,-0.0147380465641618,0,
00:00:04.092,0.000427018647314981,-0.00027648208197206297,-0.0104373777285218,0,
00:00:04.096,-0.00721307517960668,0.0010926761897280801,0.00836473796516657,0,
00:00:04.1,-0.0037855987902730703,0.00303503032773733,0.0068206959404051295,0,
00:00:04.104,0.00310926022939384,-0.0037109628319740295,-0.00973626226186752,0,
00:00:04.108,0.0034896661527454896,-0.0019211326725781,-0.00175308447796851,0,
00:00:04.112,0.00563678238540888,0.0051304050721228105,0.010273290798068001,0,
00:00:04.116,-0.00440423982217908,0.0024410302285105,-0.000849871197715402,0,
00:00:04.12,-0.0046276645734906205,-0.00338764162734151,0.00623346166685224,0,
00:00:04.124,-0.0036440356634557204,-0.0050920932553708605,0.0018451544456183897,0,
00:00:04.128,0.00102199241518974,-0.000881143379956484,-0.009718863293528559,0,
00:00:04.132,0.00576406065374613,0.00667733186855912,-0.0162414498627186,0,
00:00:04.136,0.00353135750629008,0.00138362019788474,-0.000215485139051452,0,
00:00:04.14,-0.0021030532661825397,-0.0011798053747043,0.0174729134887457,0,
00:00:04.144,0.00186668790411204,-0.00377595797181129,0.00815389398485422,0,
00:00:04.148,-0.00275353249162436,0.000868959003128111,-0.00520576722919941,0,
00:00:04.152,-0.000809986202511936,0.00555337453261018,-0.0016024102224037099,0,
00:00:04.156,-0.00522915227338672,-0.005478715524077421,-0.00829739402979612,0,
00:00:04.16,0.00291063077747822,-0.00159155006986111,0.00156584440264851,0,
00:00:04.164,0.000791461323387921,0.00275813415646553,0.0033907389733940398,0,
00:00:04.168,-0.0014970316551625698,-0.000588555994909257,0.00193197641056031,0,
00:00:04.172,0.0025933182332664698,-0.00265777902677655,-0.00412133801728487,0,
00:00:04.176,0.00207800907082856,0.0021590238902717803,0.0112042436376214,0,
00:00:04.18,0.000280469277640805,0.0043423306196928,-0.0119848800823092,0,
00:00:04.184,0.00104929052758962,-0.0012352620251476802,0.00115402997471392,0,
00:00:04.188,-0.00538589525967836,-0.0043371026404202,-0.0015414191875606801,0,
00:00:04.192,0.00151126692071557,-0.00141992000862956,0.004622055683285,0,
00:00:04.196,-0.000731048290617764,0.005616917274892329,-0.00181834341492504,0,
00:00:04.2,-0.00033009733306244,0.00258687161840498,-0.00114087376277894,0,
00:00:04.204,0.00048617890570312695,-0.00351033313199878,0.00898305606096983,0,
00:00:04.208,0.000832848949357867,-0.00322157517075539,-0.0105902077630162,0,
00:00:04.212,0.0006485498161055151,-0.0009251247975043949,-0.00152697938028723,0,
00:00:04.216,0.000218430272070691,0.000951163936406374,0.009025512263178829,0,
00:00:04.22,-0.000159424365847372,0.0036695748567581203,-0.00685093551874161,0,
00:00:04.224,-0.00448264461010695,-0.00491363648325205,0.00690731452777982,0,
00:00:04.228,0.0057273656129837,0.00272443005815148,0.0049689402803778605,0,
00:00:04.232,0.00322823552414775,0.00284608779475093,-0.0111681530252099,0,
00:00:04.236,-0.00534650636836886,0.000635817239526659,-0.007039797957986591,0,
00:00:04.24,-0.00144697772338986,0.0009150352561846381,0.000824276125058532,0,
00:00:04.244,0.00035173486685380296,-0.0036558872088789897,0.0114888595417142,0,
00:00:04.248,0.000852877739816904,-0.00282394629903138,-0.0027798074297606897,0,
00:00:04.252,0.00274684885516763,-0.00049474136903882,0.00170293101109564,0,
00:00:04.256,-0.00170577620156109,0.00120667333249003,0.0008826480479910971,0,
00:00:04.26,-0.0017048615263775,0.00165479246061295,-0.000864756235387176,0,
00:00:04.264,-0.00454095890745521,-0.0009237913764081901,-0.005850082729011771,0,
00:00:04.268,0.00667239772155881,0.0043723545968532606,0.0129093714058399,0,
00:00:04.272,0.0043156058527529205,-0.0006610639975406231,-0.00924191530793905,0,
00:00:04.276,-0.00470181228592992,-0.00412043696269393,-0.00773103907704353,0,
00:00:04.28,-0.00138198281638324,0.00254734698683023,0.00167765910737216,0,
00:00:04.284,2.38413831539219e-05,-0.000740742776542902,0.0025169262662529898,0,
00:00:04.288,0.000422764307586476,-0.00104282691609114,0.00138523790519685,0,
00:00:04.292,0.00243567698635161,-0.000311883602989838,0.0109114721417427,0,
00:00:04.296,-0.00181611767038703,0.000366779713658616,-0.0095885768532753,0,
00:00:04.3,-0.00165113352704793,0.000607324473094195,0.0025302465073764303,0,
00:00:04.304,-0.0023387328255921602,0.000461800809716806,0.0042130737565457795,0,
00:00:04.308,0.00481177074834704,-0.0019203389529138801,0.0116367908194661,0,
00:00:04.312,0.00065640703542158,0.00394586613401771,-0.022196039557457,0,
00:00:04.316,-0.0008270459948107599,-0.000553775404114276,-0.0120409391820431,0,
00:00:04.32,-0.0029817498289048698,-0.00166203174740076,-0.000143301134812646,0,
00:00:04.324,0.00152276165317744,-0.00112006650306284,0.0133627830073237,0,
00:00:04.328,0.00165007193572819,-0.000186122735613026,0.0169861055910587,0,
00:00:04.332,0.000427043909439817,0.000454150896985084,-0.00910149421542883,0,
00:00:04.336,-0.000580215768422931,0.0006155513110570611,0.0020618240814656,0,
00:00:04.34,-0.000884470413438976,0.000426304875873029,-0.0110739590600133,0,
00:00:04.344,0.0014495219802483901,0.00219516200013459,0.005676202476024629,0,
00:00:04.348,-0.00213935901410878,-0.0041698943823576,-0.00045354911708273,0,
00:00:04.352,-0.00144026312045753,-0.0019532076548785,-0.00578914908692241,0,
00:00:04.356,-0.0019109153654426302,0.00534055847674608,0.00110373110510409,0,
00:00:04.36,0.00310089252889156,0.0026820902712643103,0.0118209291249514,0,
00:00:04.364,0.00487458240240812,-0.00324557721614838,-0.0051224227063357795,0,
00:00:04.368,0.0008925890433602039,-0.00507641350850463,-0.009880641475319859,0,
00:00:04.372,-0.00654744869098067,-0.0009497362188994881,0.006601896136999129,0,
00:00:04.376,-0.00127107824664563,0.00658736238256097,0.00955050066113472,0,
00:00:04.38,-0.00086706381989643,0.00339500163681805,-0.00587990693747997,0,
00:00:04.384,0.0036275617312640004,-0.00525285163894296,-0.0127887707203627,0,
00:00:04.388,0.00474369572475553,-0.00135460286401212,0.00991844665259123,0,
00:00:04.392,-0.0016268377657979699,0.00038570223841816203,-0.00142703822348267,0,
00:00:04.396,-0.0028894126880914,0.000803641101811081,-0.00136204890441149,0,
00:00:04.4,-0.00176417420152575,0.00264337728731334,-0.0052475510165095295,0,
00:00:04.404,-0.0022653830237686604,-0.0018126297509297698,0.0121704852208495,0,
00:00:04.408,0.0048653827980160705,-0.0038519452791661,0.0150349987670779,0,
00:00:04.412,0.000684015336446464,0.00156219024211168,-0.0121505884453654,0,
00:00:04.416,-0.000796957639977336,0.00230074510909617,-0.0216089766472578,0,
00:00:04.42,-0.0029386763926595397,0.0011361670913174699,0.0152615690603852,0,
00:00:04.424,0.00364589923992753,0.0018951667007058898,-0.0068510603159666105,0,
00:00:04.428,-0.000287668954115361,-0.00491916155442595,0.000671891495585442,0,
00:00:04.432,0.000880280858837068,0.00154960155487061,0.0017960926052182898,0,
00:00:04.436,-0.00273046782240272,-0.00303875911049545,0.007526108995079991,0,
00:00:04.44,-0.0037679842207580796,0.00342912110500038,-0.00306994584389031,0,
00:00:04.444,0.000113044188765343,-4.92932522320189e-05,-0.000151063039083965,0,
00:00:04.448,0.00699481554329395,-0.0006952579133212571,0.0047696246765554,0,
00:00:04.452,0.0032281507737934602,-0.000325927539961413,-0.00164791068527848,0,
00:00:04.456,-0.00568580301478505,0.00012276959023438402,-0.005646804347634321,0,
00:00:04.46,-0.00175529439002275,0.000314262695610523,0.00144738995004445,0,
00:00:04.464,0.000178126705577597,0.000254152168054134,-0.0010071087162941699,0,
00:00:04.468,0.000799644913058728,8.077768143266441e-05,0.00352465361356735,0,
00:00:04.472,0.000685215345583856,-7.290388020919641e-05,-0.007731187622994179,0,
00:00:04.476,0.000301329040667042,-0.00014063465641811498,0.0016025808872655,0,
00:00:04.48,-4.2560594010865295e-05,-0.000124065234558657,0.00173033738974482,0,
00:00:04.484,-0.00228710239753127,-6.27954941592179e-05,0.008609944023191929,0,
00:00:04.488,0.00176638062112033,-0.00207634666003287,-0.00196039164438844,0,
00:00:04.492,0.0036060577258467705,0.00408704299479723,-0.008351573720574379,0,
00:00:04.496,0.000273640034720302,-0.00029141217237338397,-0.000760447233915329,0,
00:00:04.5,-0.00439780903980136,-0.00143761292565614,-0.0012982195476069999,0,
00:00:04.504,-0.006923510693013671,-0.00101257942151278,0.021525776013731998,0,
00:00:04.508,0.004035895690321921,-0.000192584964679554,-0.0049054296687245395,0,
00:00:04.512,0.00301121710799634,-0.0016917883185669801,-0.013245727866888,0,
00:00:04.516,0.00635146163403988,0.00458939280360937,-0.013538833707571002,0,
00:00:04.52,-0.000920854625292122,4.47720049123745e-05,0.0107479793950915,0,
00:00:04.524,-0.00345653877593577,-0.0013562107924372,0.00402122130617499,0,
00:00:04.528,-0.000811221078038216,0.0009531848481856289,0.00865337532013655,0,
00:00:04.532,-0.00307971588335931,-0.004422074649482971,-0.0023218235000968,0,
00:00:04.536,-0.0011703151976689698,0.0026496930513531,-0.00858371332287788,0,
00:00:04.54,0.0010195567738264801,-3.39311118295882e-05,0.00538937700912356,0,
00:00:04.544,0.0019410540116950898,-0.000232075719395652,-0.00516815716400743,0,
00:00:04.548,0.00158807798288763,0.000166859070304781,0.00213791336864233,0,
00:00:04.552,0.000629855552688241,-0.00168201560154557,0.00263886316679418,0,
00:00:04.556,-0.00232598418369889,0.0022974717430770397,-0.00328559428453445,0,
00:00:04.56,0.00128972320817411,0.00173781940247864,0.00944493990391493,0,
00:00:04.564,0.0030579722952097698,0.00214180140756071,-0.0039551402442157295,0,
00:00:04.568,-0.00424168212339282,-0.00302165281027555,-0.00973349437117577,0,
00:00:04.572,-0.000550671597011387,-0.00492551131173968,-0.000679211865644902,0,
00:00:04.576,0.000604004773776978,0.00315017811954021,0.0121973408386111,0,
00:00:04.58,0.0026814816519618,0.000423569814302027,-0.0036927044857293398,0,
00:00:04.584,-0.0017193733947351599,-8.72189702931792e-05,-0.00644515641033649,0,
00:00:04.588,0.00038755958667025,7.88566612754948e-05,0.00530785182490945,0,
00:00:04.592,-0.0043997447937727,-0.0018370115431025603,-0.00251009967178106,0,
00:00:04.596,-0.00312150316312909,0.00219515804201365,0.00128350756131113,0,
00:00:04.6,0.00846630614250898,0.0038015583995729702,0.0122539754956961,0,
00:00:04.604,0.00506744952872396,-0.00185521272942424,-0.0131383873522282,0,
00:00:04.608,-0.00292445137165487,-0.0026150464545935397,0.00374749326147139,0,
00:00:04.612,-0.0062123895622789894,-0.00133009196724743,-0.00229794951155782,0,
00:00:04.616,0.0017382511869072901,0.00013961664808448401,-0.00897234212607145,0,
00:00:04.62,-0.00248343730345368,-0.0011418669018894401,0.000894591328687966,0,
00:00:04.624,0.0017661841120570898,0.0029348356183618303,0.0119145680218935,0,
00:00:04.628,0.00414259172976017,0.00424760626628995,0.00150991242844611,0,
00:00:04.632,-0.00109086313750595,-0.0017679502489045301,0.00171228405088186,0,
00:00:04.636,-0.00192799151409417,-0.00277060642838478,-0.0129024470224977,0,
00:00:04.64,-0.0030829547904431803,-0.00155785493552685,-0.000909551104996353,0,
00:00:04.644,0.00413992395624518,0.0020448982249945398,0.00851089600473642,0,
00:00:04.648,0.000338769517838955,-0.00318015413358808,0.000484890100779012,0,
00:00:04.652,-0.0028619272634387,-0.000755669141653925,0.00291157304309309,0,
00:00:04.656,0.00338624976575375,0.0061144037172198296,-0.00475621549412608,0,
00:00:04.66,-0.00260310736484826,0.000780041154939681,-0.0013159654336050198,0,
00:00:04.664,0.00275340536609292,-0.0015329699963331199,0.0020512535702437197,0,
00:00:04.668,0.0010061460779979801,-0.0017689154483377899,-0.00785824749618769,0,
00:00:04.672,-0.00341709749773145,-0.000994849018752575,0.0129343532025814,0,
00:00:04.676,-0.00427973782643676,0.00199372600764036,-0.0029210166539996897,0,
00:00:04.68,0.00417898688465357,0.000582469743676484,-0.00923928152769804,0,
00:00:04.684,-0.000894048018381,-0.00717592611908913,-0.00239067687653005,0,
00:00:04.688,2.78453608189011e-05,0.00252529745921493,0.00397944217547774,0,
00:00:04.692,0.00553704937919974,0.00612785806879401,0.0181647222489119,0,
00:00:04.696,-0.00033795196213759504,0.00013400535681285,-0.0039871591143310105,0,
00:00:04.7,-0.00452346168458462,-0.0018635411979630602,-0.004981843288987879,0,
00:00:04.704,-0.000163098651682958,-0.00167770904954523,-0.0120060797780752,0,
00:00:04.708,0.000776266911998391,-0.00278221676126122,-0.00017156272951979198,0,
00:00:04.712,0.0025472184643149398,0.00214248616248369,-0.00236956379376352,0,
00:00:04.716,-0.00197131023742259,0.00429403129965067,0.00955773424357176,0,
00:00:04.72,-0.00187325337901711,-0.00125768396537751,0.00255539640784264,0,
00:00:04.724,-0.00246716570109129,-0.00221484829671681,-0.0038213881198316795,0,
00:00:04.728,0.00482167024165392,0.000857198203448206,0.007710854988545179,0,
00:00:04.732,0.000759870745241642,-0.00609324686229229,0.0131950313225389,0,
00:00:04.736,0.00137119425926358,0.0051302746869623704,-0.0216363091021776,0,
00:00:04.74,-0.00279634562321007,0.0019358434947207603,-0.0122669273987412,0,
00:00:04.744,-0.00414227461442351,-0.00206085154786706,0.007424645125865941,0,
00:00:04.748,0.00386541220359504,0.00325698871165514,0.00668033212423325,0,
00:00:04.752,-0.0013519192580133698,-0.00322409044019878,0.0036392027977854,0,
00:00:04.756,-0.000306702830130234,6.0167680203449e-05,0.0004996617790311571,0,
00:00:04.76,0.0033558283466845803,0.00265376409515738,-0.0055814101360738295,0,
00:00:04.764,0.00379636720754206,-0.0038537392392754602,0.00829660426825285,0,
00:00:04.768,-0.00261777197010815,0.000144663077662699,-0.00395047198981047,0,
00:00:04.772,-0.00138508505187929,0.003235237672925,-0.0070478105917573,0,
00:00:04.776,-0.005866194143891329,-0.00115572323556989,-0.00408577732741833,0,
00:00:04.78,-0.00163451174739748,-0.00355377909727395,0.0045793205499649,0,
00:00:04.784,0.00671711191534996,0.00151294120587409,0.0160626564174891,0,
00:00:04.788,0.0019832625985145604,0.00416253879666328,-0.000633856223430485,0,
00:00:04.792,-0.000512298429384828,-0.00103998254053295,-0.0122308386489749,0,
00:00:04.796,-0.00130694336257875,-0.0019177098292857398,-0.00984532479196787,0,
00:00:04.8,-0.00106632243841887,-0.00103087036404759,-0.00025162656675092903,0,
00:00:04.804,-0.000439140043454245,5.85307716391981e-05,0.00397955719381571,0,
00:00:04.808,0.00218504015356302,0.0006549892714247111,0.0149770164862275,0,
00:00:04.812,-0.00160494691226631,-0.00139597337692976,-0.0025362279266119,0,
00:00:04.816,-0.00336356787011027,0.0023430278524756397,0.0035797262098640203,0,
00:00:04.82,0.00198510172776878,0.0037237531505525103,-0.0141655709594488,0,
00:00:04.824,0.00456618191674352,-0.004093492869287729,0.00817653443664312,0,
00:00:04.828,-0.000874797464348376,-0.000771664606872946,0.00238223443739116,0,
00:00:04.832,-0.00405415985733271,0.000260625180089846,-0.00928007997572422,0,
00:00:04.836,0.000769592938013375,0.00033762486418709197,-0.0026791743002831897,0,
00:00:04.84,0.0036060095299035298,0.00222260621376336,-6.35047399555333e-05,0,
00:00:04.844,-0.0012393962824717199,-0.00199086032807827,0.0076084821484983,0,
00:00:04.848,-0.00181691546458751,-0.00171444099396467,0.000297393213259056,0,
00:00:04.852,-0.000794692372437567,-0.000226296819164418,0.00142955186311156,0,
00:00:04.856,0.000273929937975481,0.0008436845382675531,-0.00411258405074477,0,
00:00:04.86,-0.00130943313706666,0.0010657000821083801,-0.00352320354431868,0,
00:00:04.864,0.000582256936468184,-0.00139799632597715,0.00974008440971375,0,
00:00:04.868,0.005999147426337,0.0020908315200358603,0.0126555319875479,0,
00:00:04.872,-0.00022329324565362202,0.00342884846031666,-0.00876122713088989,0,
00:00:04.876,-0.00257540866732597,-0.0022129681892693,-0.0207155831158161,0,
00:00:04.88,-0.0023226749617606397,-0.00280085811391473,-0.00522310240194201,0,
00:00:04.884,-0.000979090458713472,-0.00132968416437507,0.00647838646546006,0,
00:00:04.888,0.000286606111330912,-0.00182394625153393,0.0161382332444191,0,
00:00:04.892,0.000912135117687285,0.0030400727409869398,0.00108473387081176,0,
00:00:04.896,0.00295609794557095,0.00268766889348626,-0.00721401255577803,0,
00:00:04.9,-0.00357464165426791,0.0028057703748345397,-0.00292509398423135,0,
00:00:04.904,0.00243963324464858,-0.00281127099879086,0.0226248037070036,0,
00:00:04.908,-0.000756544468458742,-0.00299626076593995,-0.0142530584707856,0,
00:00:04.912,-0.00300184777006507,-0.00534567423164845,-0.007855521515011791,0,
00:00:04.916,0.00177556101698428,0.00652976147830486,-0.007040659431368109,0,
00:00:04.92,0.00202526757493615,0.00464067328721285,0.00252096122130752,0,
00:00:04.924,0.00070498144486919,-0.00215704925358295,0.00140700920019299,0,
00:00:04.928,-0.000501472968608141,-0.00507676601409912,0.00829502660781145,0,
00:00:04.932,0.00110098381992429,0.0025721450801938803,0.008996583521366121,0,
00:00:04.936,-0.00276356725953519,-0.000134443966089748,-0.014762188307941002,0,
00:00:04.94,-0.00194651924539357,-0.000397838040953502,0.0072394534945488,0,
00:00:04.944,0.00203014700673521,3.79690281988587e-05,0.0064494414255023,0,
00:00:04.948,-0.000791029771789908,0.00244239182211459,-0.00870616268366575,0,
00:00:04.952,-0.00029122343403287205,-0.00366364815272391,-0.0034217967186123102,0,
00:00:04.956,-0.0035221860744059103,0.000533814541995525,-0.00971488002687693,0,
00:00:04.96,0.00488995853811502,0.0014440238010138301,-0.00257699331268668,0,
00:00:04.964,0.00392529740929604,0.000862338172737509,0.0173104498535395,0,
00:00:04.968,0.00254409294575453,6.9363973125291506e-06,0.0143721653148532,0,
00:00:04.972,-0.00395568599924445,-0.000514464685693383,-0.0156340301036835,0,
00:00:04.976,-0.00413374556228518,-0.0005820243968628349,-0.00517157046124339,0,
00:00:04.98,-0.00178408320061862,-0.000352808216121048,0.004333442077040671,0,
00:00:04.984,-0.00154690886847675,-5.41775043529924e-05,-0.0102541632950306,0,
00:00:04.988,0.00363103812560439,-0.0019246139563620101,0.008466226980090141,0,
00:00:04.992,0.005283711943775421,0.00218534376472235,0.00708732474595308,0,
00:00:04.996,-0.00099145935382694,0.00387368141673505,-0.00966923497617245,0,
00:00:05,-0.00249025784432888,0.000335354125127196,0.0145546644926071,0,
00:00:05.004,-0.0016947062686085699,-0.00655999919399619,-0.0081446897238493,0,
00:00:05.008,-0.00243220687843859,-0.00300884409807622,-0.00632181763648987,0,
00:00:05.012,0.00462436396628618,0.00567111698910594,-0.00396942207589746,0,
00:00:05.016,-0.00157641875557601,0.0036782487295568,-0.0006252507446333769,0,
00:00:05.02,0.00110434775706381,-0.00440089125186205,0.0104592395946383,0,
00:00:05.024,0.00287678861059248,-0.000576893973629922,0.00992396008223295,0,
00:00:05.028,-0.00213512498885393,0.0007519045029766861,-0.0113566936925054,0,
00:00:05.032,-0.00444877846166492,-0.0013250755146145801,-0.00213804189115763,0,
00:00:05.036,0.0010766407940536698,0.00433212239295244,-0.00406047375872731,0,
00:00:05.04,0.00419809762388468,0.0015997897135093802,-4.19058633269742e-05,0,
00:00:05.044,-0.0007348870858550071,-0.0037618640344589897,0.00929103139787912,0,
00:00:05.048,-0.00365755031816661,-0.005012360401451589,-0.008696014061570171,0,
00:00:05.052,0.00115594337694347,0.0014940956607461,0.0112440949305892,0,
00:00:05.056,-0.00032668054336682,0.0029107581358403,0.00273235840722919,0,
00:00:05.06,0.00481568556278944,0.00185985141433775,-0.01068514585495,0,
00:00:05.064,0.00147328770253807,0.00027778936782851804,-0.00867377035319805,0,
00:00:05.068,-0.00418362952768803,0.00130010454449803,0.00672127725556493,0,
00:00:05.072,-0.00332064391113818,-0.00300390925258398,0.00649231346324086,0,
00:00:05.076,-0.00272957445122302,-0.00234791985712945,-0.00030844853608869,0,
00:00:05.08,0.00328456470742822,-0.00037201604573056096,-0.0061881099827587605,0,
00:00:05.084,0.00348073616623878,0.0010407521622255401,0.00246608606539667,0,
00:00:05.088,0.0014577746624127,-0.000700284377671778,0.00289775640703738,0,
00:00:05.092,-0.000495264655910432,0.00289413402788341,0.00281987921334803,0,
00:00:05.096,0.0006673273746855559,0.00392985763028264,-0.0051195207051932794,0,
00:00:05.1,-0.00534172309562564,-0.00211701216176152,-0.00128314946778119,0,
00:00:05.104,-0.000295829202514142,-0.00506617221981287,0.000322351028444245,0,
00:00:05.108,0.00151657522656024,-0.0017088834429159802,0.0007223269785754379,0,
00:00:05.112,-0.000616053177509457,0.00365641433745623,-0.00151971611194313,0,
00:00:05.116,0.00471992651000619,0.00487619219347835,0.00428095599636436,0,
00:00:05.12,0.0016495962627232099,0.000508273835293949,-0.00243964907713234,0,
00:00:05.124,-0.00392001681029797,-0.00485380366444588,0.00244006747379899,0,
00:00:05.128,-0.0052179847843945,-0.00546900974586606,-0.0097923381254077,0,
00:00:05.132,0.00135208445135504,0.0016441266052424901,0.0103387832641602,0,
00:00:05.136,0.00286827469244599,0.0012727053835988,0.00615550298243761,0,
00:00:05.14,0.0018943203613162,0.00631775427609682,-0.010264590382576001,0,
00:00:05.144,0.0024183818604797103,0.0022249000612646302,0.0019252473721280698,0,
00:00:05.148,-0.0047720414586365206,-0.00629916042089462,-0.000681403267662972,0,
00:00:05.152,0.0014057885855436301,-0.00184638460632414,-0.00548054417595267,0,
00:00:05.156,-0.00121897843200713,0.000425383215770125,-0.00296172127127647,0,
00:00:05.16,-0.000835281447507441,0.0032018660567700898,0.0053163175471127,0,
00:00:05.164,-0.00188911822624505,-0.0031431056559085803,0.0100705260410905,0,
00:00:05.168,0.00483297649770975,0.000695176713634282,0.00508964993059635,0,
00:00:05.172,0.000431474414654076,0.00343483756296337,-0.00772399641573429,0,
00:00:05.176,-0.00108248856849968,-0.00127693836111575,-0.00971319433301687,0,
00:00:05.18,-0.00105755287222564,-0.00383252860046923,-0.00301426113583148,0,
00:00:05.184,-0.000471380917588249,0.00124888739082962,0.00707723293453455,0,
00:00:05.188,-0.0019973679445684,0.0040139220654964395,0.0030868013855069897,0,
00:00:05.192,0.00231919530779123,-0.00106022087857127,-0.00156385696027428,0,
00:00:05.196,0.0040482240729033895,-0.00185534614138305,-0.00710575329139829,0,
00:00:05.2,-0.00163140753284097,-0.00302314315922558,0.0188691224902868,0,
00:00:05.204,-0.00456852279603481,0.00209378334693611,-0.0038616841193288604,0,
00:00:05.208,0.000660223187878728,0.00231745094060898,-0.0127287730574608,0,
00:00:05.212,-0.000346033426467329,-0.00123036035802215,-0.0032615126110613303,0,
00:00:05.216,0.0030185468494892103,0.00355095765553415,0.00502923084422946,0,
00:00:05.22,0.0037871073000133,0.000698479707352817,0.0151609871536493,0,
00:00:05.224,-0.000235493571381085,-0.00430140784010291,-0.008143799379467959,0,
00:00:05.228,-0.0050500268116593396,-0.0030054461676627398,-0.0111795393750072,0,
00:00:05.232,-0.00526924105361104,-0.00230670371092856,-0.00292800785973668,0,
00:00:05.236,0.0019761915318667897,0.00358011736534536,-3.1852725896897e-06,0,
00:00:05.24,0.00568094104528427,0.00564522016793489,0.0101659810170531,0,
00:00:05.244,0.0024634359870106,-0.0005908263847231861,0.0117078311741352,0,
00:00:05.248,-0.0052526579238474395,-0.0043509965762496,0.00149021402467042,0,
00:00:05.252,-0.000732969725504518,0.0023485699202865397,-0.00432873936370015,0,
00:00:05.256,-0.00102662085555494,-0.000835930171888322,-0.012092730961740001,0,
00:00:05.26,0.00311589147895575,-0.0010613516205921802,-0.00887065287679434,0,
00:00:05.264,0.00216422136873007,-0.00029968566377647205,0.00259418715722859,0,
00:00:05.268,0.0021391843911260397,-0.0016981989610940198,0.00445681670680642,0,
00:00:05.272,-0.00533407321199775,0.00258034630678594,0.007306129671633241,0,
00:00:05.276,0.0009473225800320509,0.00416700122877955,0.0037278882227838,0,
00:00:05.28,-0.00137695204466581,0.00041816307930275803,-0.000598770100623369,0,
00:00:05.284,0.0013583113905042401,-0.004575573839247229,-0.0008869774756021801,0,
00:00:05.288,-0.00361687364056706,-0.00514632323756814,-0.00498664146289229,0,
00:00:05.292,0.00134204898495227,0.0018155580619350102,-0.009540381841361521,0,
00:00:05.296,0.00027576804859563703,0.00333488848991692,0.00770871341228485,0,
00:00:05.3,0.0033873850479722,0.00213890569284558,0.0108948610723019,0,
00:00:05.304,-0.00034597734338603903,0.000337410398060456,-0.0069920723326504204,0,
00:00:05.308,0.00347041408531368,-0.000877979735378176,-0.0125701762735844,0,
00:00:05.312,-0.0020945721771568103,-0.00118546211160719,0.00916915945708752,0,
00:00:05.316,-0.0030959106516093,-0.000828893331345171,0.0142703130841255,0,
00:00:05.32,-0.0038745054043829398,-0.000245930801611394,-0.0111015383154154,0,
00:00:05.324,0.00604852288961411,0.00228672055527568,-0.0069811474531889,0,
00:00:05.328,-0.0013027964159846302,-0.00365851796232164,0.00157430965919048,0,
00:00:05.332,-0.0060537219978869,-0.00141011655796319,0.00759295374155045,0,
00:00:05.336,0.0035449820570647704,0.00567133678123355,-0.005877103656530379,0,
00:00:05.34,0.00621644919738173,0.00274746329523623,-0.00103855901397765,0,
00:00:05.344,-0.000436255329987034,-0.00543907331302762,0.0040518119931221,0,
00:00:05.348,-0.00254475651308894,-0.00119954301044345,0.004614188335835929,0,
00:00:05.352,-0.00208776467479765,0.0006602693465538321,0.0040261815302074,0,
00:00:05.356,-0.00282538076862693,0.00309581705369055,-0.0177018772810698,0,
00:00:05.36,0.00235138623975217,-0.0013243077555671302,0.00299235712736845,0,
00:00:05.364,0.0045702988281846,-0.0015126196667552,0.00183542259037495,0,
00:00:05.368,-0.00105630478356034,-0.00247556483373046,0.008776920847594741,0,
00:00:05.372,-0.00214203423820436,0.00249847583472729,-0.00148731737863272,0,
00:00:05.376,-0.00125167251098901,0.00451661739498377,-0.00986662972718477,0,
00:00:05.38,0.00202871323563159,-0.00123919895850122,0.00576052907854319,0,
00:00:05.384,-0.0033791200257837803,-0.00442455895245075,0.00274321041069925,0,
00:00:05.388,-0.000976621871814132,0.000575635640416294,-0.00213577784597874,0,
00:00:05.392,0.00389949535019696,0.00361230876296759,0.0026065311394631897,0,
00:00:05.396,0.00479955412447453,-0.0011110957711935,0.000281798042124137,0,
00:00:05.4,-0.00389717519283295,-0.0037444727495312704,-0.00833156518638134,0,
00:00:05.404,-0.00118830148130655,0.00127841613721102,-0.0028099725022912,0,
00:00:05.408,0.00175818626303226,0.0019428406376391602,0.007390503771603109,0,
00:00:05.412,-0.00411859806627035,0.000917400931939483,0.00545486202463508,0,
00:00:05.416,0.000363369676051661,0.0018700421787798398,0.00268779858015478,0,
00:00:05.42,0.00155893189366907,-0.0027345973066985603,-0.0046157082542777105,0,
00:00:05.424,0.0011457637883722802,-0.00443221628665924,0.00342023256234825,0,
00:00:05.428,0.00237819342873991,0.0014515646034851698,-0.014244825579226001,0,
00:00:05.432,-0.000218409768422134,0.00459910370409489,0.00414756732061505,0,
00:00:05.436,-0.00621208222582936,-0.000512099650222808,-0.003499899758026,0,
00:00:05.44,-0.0023094960488379,-0.00157280650455505,0.000580931315198541,0,
00:00:05.444,0.00415073009207845,-0.0030227312818169602,0.0044539142400026295,0,
00:00:05.448,0.0037725502625107796,0.00192606425844133,0.0047688083723187395,0,
00:00:05.452,0.00324544683098793,0.00212203082628548,0.00455644121393561,0,
00:00:05.456,-0.00505157839506865,0.00279292231425643,-0.00019286817405372901,0,
00:00:05.46,-0.0014651429373771,-0.00250959326513112,-0.0035664667375385796,0,
00:00:05.464,0.0021179893519729398,-0.004726306069642311,-0.006088909227401021,0,
00:00:05.468,-0.00149452174082398,0.000998214352875948,0.00164839311037213,0,
00:00:05.472,-0.0012161048362031599,0.00219086068682373,0.00352275720797479,0,
00:00:05.476,3.58765573764686e-05,0.0013574450276792,-0.01049346011132,0,
00:00:05.48,0.000865021953359246,0.00222467398270965,0.00732112396508455,0,
00:00:05.484,0.0009511003154329961,-0.00466346042230725,0.0015742857940495,0,
00:00:05.488,-0.00360830733552575,-0.000421676784753799,-0.00440310640260577,0,
00:00:05.492,0.00605960190296173,0.0030599192250520004,-0.000657111522741616,0,
00:00:05.496,0.00100644014310092,-0.00104882323648781,0.00910706911236048,0,
00:00:05.5,-0.00166852760594338,-0.00127262913156301,0.00375798344612122,0,
00:00:05.504,-0.0021308108698576697,-0.000301189429592341,-0.00485822139307857,0,
00:00:05.508,-0.0013021259801462301,-0.00157239835243672,-0.0117364730685949,0,
00:00:05.512,-0.00018082263704855,0.00270352722145617,0.00948162190616131,0,
00:00:05.516,0.0026561019476503103,0.00421427097171545,0.0035295747220516205,0,
00:00:05.52,-0.00119180616457015,0.000386747036827728,-0.0187765061855316,0,
00:00:05.524,-0.00107593869324774,-0.00672295084223151,0.0138205662369728,0,
00:00:05.528,-0.00205840449780226,-0.0032390330452472,0.012510915286839,0,
00:00:05.532,0.00271028885617852,0.00549508491531014,-0.0108319334685802,0,
00:00:05.536,0.0024306226987391697,-0.000544204085599631,-0.00911065563559532,0,
00:00:05.54,0.0005939864204265179,0.0037216600030660603,-0.00112188281491399,0,
00:00:05.544,0.00120750337373465,-0.00117863004561514,0.0085105923935771,0,
00:00:05.548,-0.00330296810716391,-0.004190864507108929,-0.0028091017156839397,0,
00:00:05.552,-0.00261771352961659,0.0027972154784947603,0.0038024128880351795,0,
00:00:05.556,-0.000487949349917471,-0.00249426160007715,0.00523890694603324,0,
00:00:05.56,0.00107837503310293,0.00322123779915273,-0.0037420738954097,0,
00:00:05.564,-0.000581410538870841,-0.000597687205299735,0.0109402351081371,0,
00:00:05.568,0.00508893700316548,-0.00324973929673433,-0.010690932162106,0,
00:00:05.572,-5.16752188559622e-05,0.00352027383632958,-0.0228330530226231,0,
00:00:05.576,-0.00177238346077502,-0.000150274383486249,0.0214119497686625,0,
00:00:05.58,-0.00155279808677733,-0.0009523137705400589,-0.000695766124408692,0,
00:00:05.584,-0.000626940804067999,-0.000567390467040241,-0.0033488548360765,0,
00:00:05.588,0.00019571968005038798,-0.0020651947706937803,0.005878794938325879,0,
00:00:05.592,0.0005740192136727269,0.00439245672896504,-0.005911768879741429,0,
00:00:05.596,0.000529274344444275,2.7905633032787605e-05,0.00151936209294945,0,
00:00:05.6,-0.0018131425604224199,-0.00127085961867124,0.000359229801688343,0,
00:00:05.604,0.0019618608057498897,-0.00102161825634539,-0.005386443808674811,0,
00:00:05.608,0.0014692846452817301,-0.00030859396792948197,0.00895410683006048,0,
00:00:05.612,0.00205953745171428,-0.0018243466038256899,0.0117369890213013,0,
00:00:05.616,-0.00501668686047196,0.0065782745368778706,0.0012127911904826801,0,
00:00:05.62,-0.000723415752872825,-0.00402976898476481,-0.0197205226868391,0,
00:00:05.624,0.00087268982315436,-0.00307511677965522,-0.0117911351844668,0,
00:00:05.628,0.00307509209960699,0.00443447381258011,-0.00295898388139904,0,
00:00:05.632,-0.00351685285568237,0.000349076115526259,0.0208235494792461,0,
00:00:05.636,0.00244098249822855,-0.0010246367892250401,-0.0021157544106245,0,
00:00:05.64,-0.00283769518136978,-0.00301870098337531,0.0167486406862736,0,
00:00:05.644,0.0010653155623003801,0.00369598600082099,-0.009461760520935059,0,
00:00:05.648,0.00147851801011711,-0.000171723528183065,-0.00688340328633785,0,
00:00:05.652,0.000600529136136174,-0.00108287984039634,-0.0102751217782497,0,
00:00:05.656,0.00179000291973352,0.0013875045115128199,0.00277931266464293,0,
00:00:05.66,-0.0026501826941967,-0.00201180344447494,0.00387154356576502,0,
00:00:05.664,-0.00429867766797543,-0.00334957032464445,0.0019056370947510002,0,
00:00:05.668,0.0015487308846786599,0.00222386140376329,0.00652796495705843,0,
00:00:05.672,0.00255299801938236,0.0027403743006289,0.006298004649579529,0,
00:00:05.676,-0.000637361663393676,0.0012373507488519,-0.00229263165965676,0,
00:00:05.68,0.00199753814376891,-0.000331487157382071,-0.0176663268357515,0,
00:00:05.684,0.00290770106948912,-0.0011066127335652698,0.00323982583358884,0,
00:00:05.688,-0.00270935497246683,-0.0010489533888176099,-0.0049647418782115,0,
00:00:05.692,-0.0030309695284813603,-0.000532831414602697,0.0056304968893528,0,
00:00:05.696,-0.00128228729590774,1.8290511434315697e-05,0.0068567362613976,0,
00:00:05.7,0.00252874987199903,0.000343803898431361,0.007667020894587041,0,
00:00:05.704,-0.0007005452062003309,-0.00168400281108916,0.00605995580554008,0,
00:00:05.708,-0.00462082168087363,0.0022290989290922898,-0.0157662890851498,0,
00:00:05.712,0.00435133371502161,0.00378268491476774,-0.0113755064085126,0,
00:00:05.716,0.00823957193642855,-0.0018715530168265102,-0.0009103494812734429,0,
00:00:05.72,-0.0050384933128953,-0.000531568308360875,0.0101038943976164,0,
00:00:05.724,-0.00487698102369905,-0.0074303476139903095,0.0051700011827051605,0,
00:00:05.728,0.00101226614788175,0.00247828313149512,-0.00100602407474071,0,
00:00:05.732,0.00187700369860977,0.00406167842447758,0.004745918791741129,0,
00:00:05.736,0.0029795547015965,0.004238991532474761,-0.0043928949162364,0,
00:00:05.74,-0.00214683171361685,-0.00210741115733981,-0.0109041733667254,0,
00:00:05.744,-0.00232257391326129,-0.0030451070051640302,0.00828260835260153,0,
00:00:05.748,0.00128061277791858,-0.00165005016606301,-0.00022539841302204902,0,
00:00:05.752,-0.00347435241565108,2.1363784981076602e-05,-0.000836317252833396,0,
00:00:05.756,-0.00063113949727267,0.000977692077867687,0.00661854119971395,0,
00:00:05.76,0.0043382509611547,0.0010732685914263099,-0.00485133612528443,0,
00:00:05.764,0.0030102112796157603,-0.00144400564022362,8.15046078059822e-05,0,
00:00:05.768,0.000215429128729738,0.0020548875909298697,-0.0022154261823743603,0,
00:00:05.772,-0.0037011299282312398,0.00342823565006256,-0.00312825595028698,0,
00:00:05.776,3.32352319674101e-05,-0.00218501826748252,0.00460237637162209,0,
00:00:05.78,0.00250538112595677,-0.000688762171193957,-0.0031613486353308,0,
00:00:05.784,-0.00200504227541387,-0.00742940185591578,0.00157379382289946,0,
00:00:05.788,-0.00405656220391393,0.00257114390842617,0.0068319533020258,0,
00:00:05.792,0.00356669095344841,0.00624421518296003,0.00178899872116745,0,
00:00:05.796,0.000423894525738433,-0.0018188020912930398,-0.0072707310318946795,0,
00:00:05.8,0.00176813162397593,0.00229440350085497,0.00563209457322955,0,
00:00:05.804,-0.0021371180191636103,-0.00193361775018275,-0.0140117891132832,0,
00:00:05.808,-0.0036206140648573602,-5.3058782214066e-05,-0.00140789977740496,0,
00:00:05.812,0.00407464383170009,-0.00281576160341501,0.011680731549859,0,
00:00:05.816,-0.0014205796178430301,-0.00333357788622379,0.0023600987624377,0,
00:00:05.82,-0.0005113458028063179,0.00272221001796424,-0.00555660529062152,0,
00:00:05.824,0.00523389503359795,0.00121659995056689,0.00397484609857202,0,
00:00:05.828,-0.000364096340490505,0.0056197065860033,-0.0020731589756906,0,
00:00:05.832,-0.00229544099420309,-0.000615083263255656,0.00453184638172388,0,
00:00:05.836,0.0001311608357355,-0.000637875171378255,-0.00796625763177872,0,
00:00:05.84,-0.00478082662448287,-0.00631578825414181,-0.00397668592631817,0,
00:00:05.844,0.000671987247187644,-0.000528992444742471,-3.3690841519273804e-05,0,
00:00:05.848,0.00228352495469153,-0.000248261436354369,0.0211831163614988,0,
00:00:05.852,0.00175770302303135,0.0039111436344683205,-0.0105035742744803,0,
00:00:05.856,0.0005500388215295969,0.0026592342182993898,0.00224046013318002,0,
00:00:05.86,-0.00041238198173232404,0.00227064220234752,-0.0093050841242075,0,
00:00:05.864,0.00129260623361915,-0.0033809810411185,-0.000982280704192817,0,
00:00:05.868,-0.00469691585749388,-0.00331461196765304,-0.000420003896579146,0,
00:00:05.872,5.77434147999156e-05,-0.0012119007296860199,0.0016762409359216699,0,
00:00:05.876,-0.000544216367416084,0.000677939038723707,-0.0015634550945833302,0,
00:00:05.88,0.00531251262873411,-0.0006033068057149651,0.00804132968187332,0,
00:00:05.884,0.0021692286245524896,0.0053069218993187,0.00203621364198625,0,
00:00:05.888,-0.00369871337898076,0.000217184948269278,-0.00793191511183977,0,
00:00:05.892,-0.00319173536263406,-0.00158753548748791,0.00933335069566965,0,
00:00:05.896,-0.0008037412189878519,-0.0014958959072828302,0.00104912475217134,0,
00:00:05.9,-0.0030991139356046898,-0.000669170578476042,-0.00906070880591869,0,
00:00:05.904,0.0035007169935852302,-0.0019621364772319802,-0.00799334701150656,0,
00:00:05.908,0.00851860642433167,0.00040339725092053397,-0.004245352931320671,0,
00:00:05.912,0.00245552696287632,0.0061893267557025,0.00710138212889433,0,
00:00:05.916,-0.0054365843534469604,0.00218495796434581,0.0193800516426563,0,
00:00:05.92,-0.00530294515192509,-0.00427396735176444,0.00566759519279003,0,
00:00:05.924,-0.0021257163025438803,-0.00591356074437499,-0.0200447756797075,0,
00:00:05.928,0.00291121494956315,0.000804567418526858,-0.0102843595668674,0,
00:00:05.932,-0.0018580309115350199,0.00475618382915854,0.0094312047585845,0,
00:00:05.936,0.00232191430404782,4.49352082796395e-05,0.00729981204494834,0,
00:00:05.94,0.00243293982930481,-0.00103225943166763,-0.0057489643804729,0,
00:00:05.944,0.000945784617215395,-0.00273331324569881,-0.00195677601732314,0,
00:00:05.948,-0.0025579680223017896,0.0019384968327358398,-0.00348059204407036,0,
00:00:05.952,0.00291933678090572,0.00403982680290937,0.00554533023387194,0,
00:00:05.956,-0.0034196274355053897,-0.00144942000042647,0.00246503995731473,0,
00:00:05.96,2.2920799892745e-05,-0.0043812380172312294,0.00274928053840995,0,
00:00:05.964,0.00273887324146926,0.0007522343657910821,-0.0024143678601831198,0,
00:00:05.968,-0.00371933472342789,0.00171678373590112,0.0036440484691411296,0,
00:00:05.972,0.00233560847118497,0.0030455612577498,-0.011171611957252,0,
00:00:05.976,-0.000756007444579154,-0.00198527262546122,0.00551748275756836,0,
00:00:05.98,-0.00289376568980515,-0.00220432807691395,0.0080617368221283,0,
00:00:05.984,0.00608518673107028,-0.000777766399551183,-0.0111724883317947,0,
00:00:05.988,-0.00178654200863093,-0.00156345113646239,-0.00911189615726471,0,
00:00:05.992,-0.00872868113219738,0.0029939210508018697,0.00126650591846555,0,
00:00:05.996,0.00715922750532627,0.00454242713749409,0.0178762096911669,0,
00:00:06,0.00363276340067387,-0.0035577057860791705,-0.00251010665670037,0,
00:00:06.004,0.00011583455489017099,-0.0006506447680294509,0.00356480898335576,0,
00:00:06.008,-0.00177821167744696,7.65699296607636e-05,-0.00539119681343436,0,
00:00:06.012,-0.0019561350345611603,4.9132078856928294e-05,-0.00947219505906105,0,
00:00:06.016,-0.0011195837287232301,0.00199478724971414,-0.000126246697618626,0,
00:00:06.02,0.0019786148332059396,-0.0020861297380179197,0.0104236667975783,0,
00:00:06.024,-0.00348450429737568,-0.00169148854911327,-0.0017234415281564,0,
00:00:06.028,0.0031302121933549604,-0.00221986114047468,-0.00704946601763368,0,
00:00:06.032,-5.26316080140532e-06,0.0049763806164264705,0.00728553859516978,0,
00:00:06.036,-0.000459802657132968,0.000778636953327805,0.004428381100296971,0,
00:00:06.04,-9.9898359621875e-05,-0.0028573032468557397,-0.00133304728660733,0,
00:00:06.044,0.000225920011871494,0.00105062453076243,-0.00633374135941267,0,
00:00:06.048,0.000287689850665629,0.00321701797656715,-0.0059374594129622,0,
00:00:06.052,-0.00192019122187048,-0.00183506170287728,0.00410431064665318,0,
00:00:06.056,0.00195409031584859,-0.000182566771400161,0.0041836416348815,0,
00:00:06.06,0.00150734069757164,-0.004994301591068511,-0.004876965191215279,0,
00:00:06.064,2.4075716282823103e-05,-0.00137459917459637,-0.0012474168324843,0,
00:00:06.068,0.00113070860970765,0.00440572667866945,0.007084333337843421,0,
00:00:06.072,-0.00510923657566309,0.0035211245995014897,0.00413902988657355,0,
00:00:06.076,-0.000273228215519339,0.000756141380406916,0.00547561794519424,0,
00:00:06.08,0.0035046418197453,-0.00130805571097881,-0.0135332318022847,0,
00:00:06.084,0.00145977456122637,-0.0018971455283463,-0.00643972679972649,0,
00:00:06.088,-0.00508138118311763,-0.00134897406678647,0.00509462133049965,0,
00:00:06.092,-0.00409177737310529,-0.0024679207708686603,0.000607518071774393,0,
00:00:06.096,0.0078852716833353,0.00442020781338215,0.00936240237206221,0,
00:00:06.1,0.00498976884409785,0.00241513922810555,-0.0061677168123424105,0,
00:00:06.104,-0.0047586341388523605,-0.00494728283956647,-0.0093151768669486,0,
